0,1,2,3,4,5,6,7,8,9,10,11,12,13,14,15,16,17
-1.8486907325623343e-07,-4.6058205353175426e-07,5.7467402007275666e-09,-5.717227448389153e-07,2.3201758104756455e-07,6.222880481626204e-07,1.6819428705805539e-06,6.605907798764783e-07,6.833049484103676e-07,7.797994361121439e-08,-9.636858441055121e-09,5.114491587640896e-08,-1.1977492828235015e-07,2.1396834397390623e-07,1.3202779242917387e-07,-1.6396884601949012e-07,1.230571960693562e-07,-5.3587133772682534e-08
-9.652790488342066e-08,-2.5685263183706447e-07,2.790946977162622e-08,-4.448085744525959e-07,1.833087537420946e-07,4.93501446904011e-07,1.6932853606241047e-06,5.715217814862786e-07,5.402751837274897e-07,1.0913540652603737e-07,2.458745098584939e-08,5.836504360361003e-08,-5.1967275330156896e-08,1.7351086560810828e-07,1.439906698843578e-07,-7.67683190816614e-09,1.2147372490397066e-07,1.856609365429775e-08
-1.5653411353220253e-08,-5.1757921926195175e-08,5.437235940863709e-08,-2.820176948687516e-07,1.4764197670149282e-07,3.6843679419469804e-07,1.5690023422020285e-06,4.610981473080995e-07,3.8737378266748236e-07,1.2979271737443373e-07,4.565659940759609e-08,6.092109300225659e-08,2.0263072589326492e-08,1.3291173209966785e-07,1.5035488916032665e-07,1.5322643503273924e-07,1.1634361332800641e-07,9.663143769221699e-08
5.180556731687063e-08,1.059867799665444e-07,8.294778834232873e-08,-8.789941867268251e-08,1.1510707739442646e-07,2.616104911898e-07,1.311111770677023e-06,3.22145329117978e-07,2.3623004527882143e-07,1.4127076017659197e-07,5.800183639584275e-08,5.943737375870391e-08,1.0540721358984426e-07,9.038926024780057e-08,1.4534038262726462e-07,2.725314688499922e-07,1.0672062192220484e-07,1.7243706651999207e-07
9.510508136591035e-08,2.1396298613901888e-07,1.0916719114971453e-07,1.1370119772795207e-07,7.518653503008275e-08,1.8198970697240986e-07,9.480660684056085e-07,1.7707430158217402e-07,9.777188617721795e-08,1.4376797040690326e-07,6.355531484560884e-08,5.4233544166057045e-08,1.6592238825578894e-07,4.6561793852494305e-08,1.252327904633711e-07,3.0655282568021873e-07,9.185682724548755e-08,2.3491756285797835e-07
6.84729550857498e-08,2.339693774819232e-07,1.253196561069976e-07,2.9040258582102307e-07,2.362781992415237e-08,1.3055255583975595e-07,5.271788879307519e-07,3.419439870470265e-08,-2.790064024829921e-08,1.3196979135084096e-07,6.058504263846406e-08,4.3600964190844566e-08,1.941637284107457e-07,4.607987984425281e-09,8.959261656361348e-08,2.2911396560709647e-07,7.113866483255431e-08,2.717055436710203e-07
6.189042281911207e-08,1.4560308484103839e-07,1.2311554798758525e-07,4.0113310812229175e-07,-3.4290767007521204e-08,9.930875169594081e-08,1.0005320057857264e-07,-8.568391465009987e-08,-1.0441820040288292e-07,1.0286755907960279e-07,4.6331519153470984e-08,2.7019968640929876e-08,1.8489715093921846e-07,-3.092992254029342e-08,4.198209328030964e-08,1.766033189542076e-07,4.477709558570827e-08,2.7271725056780287e-07
7.109976527999684e-08,1.870332022423243e-07,9.85088988231912e-08,3.8726312996113677e-07,-8.609526634468099e-08,7.385348859288757e-08,-2.8030790823467443e-07,-1.583134863277643e-07,-1.5124487316803055e-07,5.774958877658727e-08,2.0609381703068847e-08,5.49342242030834e-09,1.3979912822073073e-07,-5.5610976340399036e-08,-1.0200128350440056e-08,1.7142066465809035e-07,1.4446049570674113e-08,2.34328423906906e-07
1.2319902164218897e-07,2.9621808757359227e-07,5.4534035906933964e-08,3.7377031680414076e-07,-1.1894308094607276e-07,3.8707811838735844e-08,-5.757654822065428e-07,-2.341453428172705e-07,-1.8801383120943146e-07,1.8396251854527136e-09,-1.2626069614415104e-08,-1.7199795277159734e-08,7.884729133695344e-08,-6.654540841804442e-08,-5.765986557281477e-08,2.0136783467771602e-07,-1.6895904827219818e-08,1.613976682256526e-07
1.656590804217223e-07,2.7497363434257134e-07,-8.881011809586864e-11,2.381071094837024e-07,-1.262160636617436e-07,-1.7769043715955845e-08,-7.627863928580769e-07,-2.460780455106041e-07,-2.164517820169133e-07,-5.565361471523476e-08,-4.459190379204313e-08,-3.595940461774642e-08,9.848411995750299e-09,-6.564626922081839e-08,-9.187178167934089e-08,2.0310619595656652e-07,-4.6181755133745365e-08,6.543603644914293e-08
1.1935284091402965e-07,1.6300916938749616e-07,-5.500702489574852e-08,9.39793554750554e-08,-1.1014940483930713e-07,-1.017449281076139e-07,-8.526111752124751e-07,-2.3800796316953774e-07,-2.3635958819954394e-07,-1.0470735161445963e-07,-6.815222154906446e-08,-4.88185078003502e-08,-6.099368296541965e-08,-5.665821581469425e-08,-1.0987846638283796e-07,1.2771128483145572e-07,-7.150181436182308e-08,-3.986077204535473e-08
2.689787248623526e-08,2.0937752678525456e-08,-1.0175943168604164e-07,-3.917577929840332e-08,-8.064482672242084e-08,-2.0953638757439277e-07,-8.87282370484466e-07,-2.3778467799566275e-07,-2.4396825587660377e-07,-1.3936930523018594e-07,-7.85392628352709e-08,-5.544453847380815e-08,-1.1935167777677423e-07,-4.727865960325278e-08,-1.1474768650266329e-07,-3.147787618740269e-08,-9.221985792053137e-08,-1.4268537714197704e-07
-5.0638447142286355e-08,-1.1995964043098475e-07,-1.3436943368219897e-07,-1.321434797422095e-07,-5.2213639629739464e-08,-3.30500329020264e-07,-9.321786092630062e-07,-2.508592318474114e-07,-2.3577503099489354e-07,-1.692338513810129e-07,-7.442084459505927e-08,-5.8171652090733595e-08,-1.590223759872713e-07,-4.695813312716696e-08,-1.1150467902417642e-07,-1.955062795489522e-07,-1.0801551599136344e-07,-2.3411859764052168e-07
-1.2161433242286133e-07,-2.387090247060392e-07,-1.4801246541656065e-07,-1.6669091789743904e-07,-3.9054376611906356e-08,-4.482626029000708e-07,-1.0129270549957266e-06,-2.6599588980216486e-07,-2.107690372387847e-07,-1.7411813490187905e-07,-5.4302095927371686e-08,-5.5176667058696804e-08,-1.692186994517221e-07,-6.026040622739195e-08,-1.0668421191405508e-07,-3.6273938368454023e-07,-1.1794879313620516e-07,-3.0816837863281845e-07
-1.562850177175377e-07,-2.765754612919601e-07,-1.3853369766235555e-07,-1.3513624045681672e-07,-4.917859143987016e-08,-5.46397956804391e-07,-1.1579617272147001e-06,-2.6738053925051126e-07,-1.815448934480927e-07,-1.5112675584703648e-07,-1.691527145052173e-08,-4.92279548603237e-08,-1.4222982282140127e-07,-9.09685155485714e-08,-1.0697197558210988e-07,-4.937771530471682e-07,-1.2079010666991574e-07,-3.6069673045517305e-07
-1.578944205562573e-07,-2.3725734092903676e-07,-1.038508242367411e-07,-3.876195316748832e-08,-8.010372663655103e-08,-6.16037847268171e-07,-1.3688197805289743e-06,-2.4237564670468055e-07,-1.485097134579021e-07,-1.0216434879785634e-07,3.985738307490034e-08,-4.0217805480300666e-08,-7.658992272326246e-08,-1.4109347692577134e-07,-1.1900243939997887e-07,-5.864876238523626e-07,-1.1626004541715845e-07,-3.890200938564805e-07
-1.3697002917816066e-07,-1.3911216137058762e-07,-4.392562548033495e-08,1.178555916367536e-07,-1.2026269266696276e-07,-6.658930038663464e-07,-1.5365097584279522e-06,-1.9680919084722295e-07,-1.1283313929994966e-07,-3.535528378500611e-09,1.1207928176284181e-07,-6.31057187411255e-08,2.280773545058019e-08,-2.073838154097685e-07,-1.469333520214638e-07,-6.563299980255208e-07,-1.0579932820652485e-07,-3.924835021478095e-07
-9.758091332785697e-08,-1.4429449180425235e-08,3.27460557345313e-08,3.0516057123883287e-07,-1.548809141546112e-07,-7.062170687668809e-07,-1.524822167004679e-06,-1.4731491305453478e-07,-7.687453003434273e-08,1.0402399741058529e-07,1.763028921201841e-07,-1.0866707949838063e-07,1.4039261689157297e-07,-2.697477576164823e-07,-1.9865701177619676e-07,-6.997240499396792e-07,-9.19205894106676e-08,-3.7262179951282045e-07
-4.330326856316676e-08,1.1010200675451597e-07,1.1338174296862006e-07,4.93842471760468e-07,-1.7302306242179164e-07,-7.411600330991681e-07,-1.430828695775609e-06,-9.620632063819473e-08,-3.69350068241827e-08,1.935514044635103e-07,2.2030251190445573e-07,-1.4925712344508844e-07,2.1824625053542942e-07,-3.2326740357247295e-07,-2.6433300743536375e-07,-7.235964426497261e-07,-7.692257445247213e-08,-3.333006472721883e-07
7.728411352949242e-09,2.1091376760477367e-07,1.8379157433793504e-07,6.41999790565769e-07,-1.7230769267440502e-07,-8.161734492921557e-07,-1.3219873371758927e-06,-2.194826453603941e-08,8.909870994638652e-09,2.3594649703852845e-07,1.982457113229225e-07,-1.944872765212305e-07,2.349822559931947e-07,-3.359397203707981e-07,-3.108123048209609e-07,-7.178888180551207e-07,-6.233916336966953e-08,-2.807506961294654e-07
3.439032704640449e-08,1.9176774356758618e-07,1.927154010169958e-07,6.072657322267333e-07,-1.5987297372160664e-07,-8.42568051000753e-07,-1.3619404266066216e-06,6.705557567819923e-08,6.156454655489542e-08,2.266219562193837e-07,1.5341114762867614e-07,-2.285018552237599e-07,2.418854595170084e-07,-3.0772067048553665e-07,-3.3459003912156957e-07,-6.775044126228432e-07,-4.9363638794352165e-08,-2.2353443185132838e-07
1.2047669770183838e-08,1.59511601286605e-07,1.7274404881436428e-07,5.316870412843815e-07,-1.502353311395607e-07,-8.285841877834884e-07,-1.402396362920516e-06,1.5610750123090984e-07,1.196110706175872e-07,2.0417430607992117e-07,1.3305875413267144e-07,-2.3055623330338334e-07,2.2967857327724774e-07,-2.9800518329321793e-07,-3.236246684033965e-07,-6.101531653167507e-07,-3.9220403132119077e-08,-1.7169685150731185e-07
-1.428006872415867e-08,1.4028949636279847e-07,1.7378672822792377e-07,4.907199613836258e-07,-1.6014906946314525e-07,-8.629029803825899e-07,-1.4150734095872274e-06,2.2869634422963635e-07,1.7853683143732115e-07,2.1444508916517263e-07,1.4112762927199585e-07,-2.4458055581728275e-07,2.2135939372316514e-07,-3.0192308409016513e-07,-3.0403626419631605e-07,-5.288151863078579e-07,-3.2987126435989686e-08,-1.352394772352391e-07
-8.632436820744955e-08,3.4671092375023384e-08,1.5745477888018904e-07,3.133725174678528e-07,-2.025002876655661e-07,-8.605450022871723e-07,-1.3733044137371752e-06,2.777623040253165e-07,2.329415670536293e-07,1.9760643190974187e-07,1.134403218091235e-07,-2.4196056224511927e-07,1.2440629822234928e-07,-2.943964088677618e-07,-2.8165870688641353e-07,-4.4921966734153973e-07,-3.1311313997904066e-08,-1.2200833252360517e-07
-1.5507770635651198e-07,-1.2982190175072667e-07,1.0221573261747136e-07,6.33914025754759e-08,-2.821951434077441e-07,-8.202086658363945e-07,-1.3324398666083112e-06,3.1454742475598833e-07,2.784058311705278e-07,1.5041739446041372e-07,5.756164463040827e-08,-2.3317023661758143e-07,1.5362758848695645e-08,-2.658493136991897e-07,-2.3873262108649705e-07,-3.862872028826953e-07,-3.465490449567656e-08,-1.3570643819876442e-07
-2.0879004956258017e-07,-2.596975330136586e-07,3.93199672436623e-08,-1.23985711788032e-07,-3.955593098015189e-07,-7.631130625283573e-07,-1.3012197843976463e-06,3.544380064267883e-07,3.1139457881204574e-07,1.0808287795733835e-07,6.1128504617394525e-09,-2.189838599455138e-07,-4.480795976082008e-08,-2.0535093209055498e-07,-1.9154610996813003e-07,-3.506599062718634e-07,-4.365710834321343e-08,-1.7491987959332034e-07
-2.4270560992109485e-07,-3.285114906209237e-07,1.0425306472667626e-08,-2.195972660243714e-07,-5.311382764576612e-07,-6.916643766145535e-07,-1.2111892151640215e-06,3.980783062286101e-07,3.3072190575593256e-07,8.480794016517748e-08,-5.0918064613084565e-08,-2.1227080141612466e-07,-8.878301297826765e-08,-1.6705548852388327e-07,-1.7249895470310633e-07,-3.4670377461594005e-07,-5.8750259739688687e-08,-2.3312784819900886e-07
-2.567332163005163e-07,-3.5215292086633274e-07,3.81131060468571e-09,-2.472430123059625e-07,-6.701152510858215e-07,-6.233341891917931e-07,-1.158675353116593e-06,4.349749047351442e-07,3.360021635067102e-07,7.458905313543415e-08,-6.549883357613299e-08,-2.2131067608578263e-07,-9.65922326459726e-08,-1.2647590779718927e-07,-1.6524289323560822e-07,-3.710619444524953e-07,-7.905230130484191e-08,-2.996142543549499e-07
-2.5892238459680836e-07,-3.3915101580279416e-07,5.814434343484778e-09,-2.183959355988804e-07,-7.88355302973992e-07,-5.636653016828019e-07,-1.1450173200946178e-06,4.6307486021686196e-07,3.2916539334588886e-07,8.191681803482187e-08,-5.949607801934864e-08,-2.315176212232151e-07,-8.085322758201049e-08,-1.1000412107932604e-07,-1.6499559139924342e-07,-4.123894884230589e-07,-1.0157094668432794e-07,-3.6138326294023653e-07
-2.612079466174506e-07,-3.0792989534782685e-07,1.0566049767315628e-08,-1.6235246366526575e-07,-8.622769938108878e-07,-5.101845439334289e-07,-1.0683320247518405e-06,4.830238943700214e-07,3.13966683756769e-07,8.702926545589107e-08,-4.2384195898650536e-08,-2.3760372839992945e-07,-6.752019247936934e-08,-1.1838856826019723e-07,-1.686112333510348e-07,-4.5359872333662943e-07,-1.2173028518058062e-07,-4.0533079563889743e-07
-2.709808717159533e-07,-2.815183105082603e-07,1.2763911645604227e-08,-1.0686982646291492e-07,-8.765013996995921e-07,-4.6760177732913045e-07,-9.524392649790537e-07,4.990201783426297e-07,2.9422186511417505e-07,8.00752159931902e-08,-3.306905796435541e-08,-2.3734986020946398e-07,-5.8509157779114376e-08,-1.3995515635716107e-07,-1.6996051781182294e-07,-4.763015230289011e-07,-1.3505168125477707e-07,-4.206038847903698e-07
-2.9181103863407904e-07,-2.735399155769803e-07,1.0097860340650364e-08,-6.870066541594525e-08,-8.297919957287875e-07,-4.305816727580456e-07,-7.967689461023819e-07,5.120769727465183e-07,2.715951941194702e-07,5.7236332242432725e-08,-3.6695441470590935e-08,-2.26499204252749e-07,-6.648189459351806e-08,-1.6032178756124776e-07,-1.6903258938326848e-07,-4.6487199332714205e-07,-1.389042797693611e-07,-4.003656943745604e-07
-3.23100223820427e-07,-2.888302041165231e-07,2.2970714314696532e-09,-5.208335830570094e-08,-7.368745952570708e-07,-3.9831095236219413e-07,-6.2724095050003e-07,5.173639044993704e-07,2.544176150262666e-07,1.448962701809849e-08,-5.7382267217939426e-08,-2.1057478820052427e-07,-8.813528564556665e-08,-1.8015988911907908e-07,-1.6337222031833194e-07,-4.0922272328133097e-07,-1.3329924469366354e-07,-3.4258618471994643e-07
-3.617822348573842e-07,-3.2467270433847206e-07,-9.544913110665555e-09,-5.284902860585518e-08,-6.254756960836806e-07,-3.711079112829107e-07,-5.003525128225031e-07,5.104316748710331e-07,2.473160381047603e-07,-4.009864729039456e-08,-8.746272562983888e-08,-1.9355669677427242e-07,-1.1457206897804826e-07,-1.922126484824103e-07,-1.5263462563772825e-07,-3.0615793568662726e-07,-1.20291784420258e-07,-2.5024273775804925e-07
-4.0384084211120233e-07,-3.766196648404625e-07,-2.314593718052007e-08,-6.33529479991312e-08,-5.289706327624966e-07,-3.4754555816576127e-07,-4.801891203471524e-07,4.936148638082791e-07,2.5222189878658605e-07,-9.684166340375777e-08,-1.189300906320402e-07,-1.7748301768296665e-07,-1.399445530795253e-07,-1.9789595853382395e-07,-1.383886120723977e-07,-1.581910634883504e-07,-1.0322073193559495e-07,-1.3102558682415782e-07
-4.445131943451265e-07,-4.370528251801835e-07,-3.5707025060474236e-08,-7.551575691417613e-08,-4.768353091438076e-07,-3.2682207490343043e-07,-5.509525546183838e-07,4.727471041803527e-07,2.698918158217753e-07,-1.4784660419746824e-07,-1.4703128482486656e-07,-1.638899763102419e-07,-1.5950553944999466e-07,-1.996691376322568e-07,-1.22446729726203e-07,2.2411060808024202e-08,-8.603014274684541e-08,3.5290831769322535e-09
-4.790185110405113e-07,-4.964228355948412e-07,-4.519321574420877e-08,-8.183442479167979e-08,-4.863857415168855e-07,-3.097895975173223e-07,-6.799201728983802e-07,4.533378614226855e-07,2.9466796814288616e-07,-1.872692972938254e-07,-1.6858636715163325e-07,-1.5402034525722774e-07,-1.707050418571544e-07,-1.9907278473066895e-07,-1.0737973493590952e-07,2.1774103190001403e-07,-7.262183102713493e-08,1.3990777529438764e-07
-5.039159867819364e-07,-5.456808875464708e-07,-5.135479117733865e-08,-7.602184331257546e-08,-5.581326946064117e-07,-2.9948663104418473e-07,-8.450757941136791e-07,4.3846530131195306e-07,3.1710169047375547e-07,-2.132055074917178e-07,-1.8322514384056388e-07,-1.4965380678526845e-07,-1.7341902143172276e-07,-1.9914723983529156e-07,-9.617197251294501e-08,4.1036155339092487e-07,-6.599167627831473e-08,2.6538765338514485e-07
-5.181164317390381e-07,-5.764738268588144e-07,-5.537288723338912e-08,-5.471002026403181e-08,-6.7469710531442e-07,-2.9975327962914405e-07,-9.768604829890786e-07,4.2709472758850805e-07,3.2885915671338746e-07,-2.274928736811182e-07,-1.9313307761991835e-07,-1.5197600760231053e-07,-1.6973467281715172e-07,-2.0249485253671322e-07,-9.093945383433553e-08,5.866885504974287e-07,-6.717452711628002e-08,3.7095552503247524e-07
-5.227792247109981e-07,-5.849695414526651e-07,-5.8401326939827034e-08,-1.9291786398804304e-08,-8.03625264928167e-07,-3.12619412451577e-07,-1.0154470420130155e-06,4.165832932155052e-07,3.250185705812015e-07,-2.3387881829798212e-07,-2.0131786042047846e-07,-1.5996575467937993e-07,-1.6281503223330967e-07,-2.098858711006041e-07,-9.17887988428202e-08,7.39006108557411e-07,-7.468224099267828e-08,4.529902802711048e-07
-5.204469627301337e-07,-5.717025092254001e-07,-6.074292099264748e-08,2.4094342650689248e-08,-9.062391166598746e-07,-3.364841911530095e-07,-9.275536040704499e-07,4.0474240126434467e-07,3.040460080611416e-07,-2.3612671323625697e-07,-2.094989419914429e-07,-1.7042063508371779e-07,-1.554186306132834e-07,-2.204454219771956e-07,-9.683587971294732e-08,8.684039046843974e-07,-8.515927525187421e-08,5.128906985510478e-07
-5.143899225371712e-07,-5.405452363544284e-07,-6.258615174225653e-08,6.685742338822577e-08,-9.508461963785197e-07,-3.6657454226390417e-07,-7.102798319309076e-07,3.902494632550065e-07,2.707261930210626e-07,-2.37427249164317e-07,-2.173456765961968e-07,-1.800351047656415e-07,-1.4926494886864658e-07,-2.332342667020551e-07,-1.0335488655422206e-07,9.776391442819829e-07,-9.51639984657182e-08,5.55100637549667e-07
-5.084813636284124e-07,-4.982861884067969e-07,-6.551167544039318e-08,1.0126078789133639e-07,-9.236558269924912e-07,-3.9698747735601585e-07,-3.889149829865205e-07,3.723203689648652e-07,2.3151218810404506e-07,-2.406487039220096e-07,-2.234117098204065e-07,-1.8767578525335714e-07,-1.4539643113269776e-07,-2.485198001710803e-07,-1.0924314389723235e-07,1.0669418904475013e-06,-1.0294680575865973e-07,5.84786179909691e-07
-5.06914725272349e-07,-4.5345325466892476e-07,-7.232227019463711e-08,1.2312227265269314e-07,-8.321424102646173e-07,-4.22137833938832e-07,-3.491649315458556e-08,3.5055223469690136e-07,1.9162001576911933e-07,-2.479568559829755e-07,-2.2648196661007046e-07,-1.9473179883223354e-07,-1.4466686883754602e-07,-2.672796243214535e-07,-1.1381277687741359e-07,1.136796840262777e-06,-1.0889534052917516e-07,6.064188380992855e-07
-5.131190841162026e-07,-4.1499272113825654e-07,-8.551769580134671e-08,1.3238631271510632e-07,-7.010894583533019e-07,-4.371186764416171e-07,2.710132223372916e-07,3.253596514179872e-07,1.5450777317854257e-07,-2.595851502583969e-07,-2.260914610079055e-07,-2.032922516415073e-07,-1.4784429411979507e-07,-2.893679511612261e-07,-1.17425519962025e-07,1.1892569183737253e-06,-1.1454018462670231e-07,6.23295763531836e-07
-5.284263906252678e-07,-3.9079377134474e-07,-1.0548379497748449e-07,1.3124975533848392e-07,-5.643988485866841e-07,-4.3865824041712477e-07,4.6293946057382574e-07,2.982785048054467e-07,1.217431582272891e-07,-2.7325334144370284e-07,-2.2232164985443286e-07,-2.1414196220566284e-07,-1.5550486548717878e-07,-3.122632243417692e-07,-1.2049232727899123e-07,1.230226655260241e-06,-1.212773647763081e-07,6.375240744768096e-07
-5.518045451812773e-07,-3.8673851949716176e-07,-1.3043742623656167e-07,1.2154086133482782e-07,-4.5577025799202047e-07,-4.269134358816628e-07,5.024426051989326e-07,2.7146834922308193e-07,9.373855391143883e-08,-2.8548160987435124e-07,-2.1569084050082964e-07,-2.2648189617756965e-07,-1.678539462372582e-07,-3.3172942676411165e-07,-1.228923639336236e-07,1.2651029257979352e-06,-1.2996428517569013e-07,6.501653389040962e-07
-5.810119700631218e-07,-4.0608225781304064e-07,-1.5832938410269314e-07,1.032935808326082e-07,-3.9866057281626004e-07,-4.0581751393545805e-07,4.015777286866457e-07,2.4659549749389726e-07,7.133753815640259e-08,-2.940769016635649e-07,-2.0750332788566847e-07,-2.390969437774607e-07,-1.84440119883124e-07,-3.438744941277558e-07,-1.2423360920892826e-07,1.3038228764741863e-06,-1.4131691191711552e-07,6.605279237966128e-07
-6.139242693755717e-07,-4.4840044817716864e-07,-1.887576289606527e-07,7.467815105711188e-08,-3.987178801109708e-07,-3.807370717401027e-07,2.1246824173037387e-07,2.2409043771624983e-07,5.37804117183066e-08,-2.9967981766088064e-07,-2.0010272634164167e-07,-2.5117525137934056e-07,-2.038924426705059e-07,-3.469270053318537e-07,-1.243973472701946e-07,1.3480236811123903e-06,-1.5592841291842025e-07,6.662361315745276e-07
-6.485051382290912e-07,-5.082697638531145e-07,-2.2269500798904717e-07,3.264760295969742e-08,-4.432309764558272e-07,-3.554605140313988e-07,9.121838270261547e-09,2.0386604295053585e-07,4.1481709849045686e-08,-3.0490441661658886e-07,-1.961797079269103e-07,-2.6172771588524776e-07,-2.2379457206450774e-07,-3.4149777343349865e-07,-1.2363497473177627e-07,1.393309733300003e-06,-1.7349251780367344e-07,6.643924989936677e-07
-6.814169419245578e-07,-5.7476677531293e-07,-2.6008813477359975e-07,-2.518738785101759e-08,-5.084339145601934e-07,-3.313799331102607e-07,-1.549170974142294e-07,1.8731321634141438e-07,3.5715588964163775e-08,-3.1181117010333754e-07,-1.972938754780767e-07,-2.6856276874036577e-07,-2.406210533771852e-07,-3.29591494395652e-07,-1.2209272270380082e-07,1.417903079270939e-06,-1.918717712878891e-07,6.533281070735245e-07
-7.069398858059622e-07,-6.329978750381697e-07,-2.978125156032748e-07,-9.682450452902999e-08,-5.69899296165087e-07,-3.090663569339925e-07,-2.4676182997638757e-07,1.7882120490089168e-07,3.718839324612276e-08,-3.199998649265844e-07,-2.028490602546023e-07,-2.686275327611147e-07,-2.498534576285364e-07,-3.136633706216262e-07,-1.1933459954900759e-07,1.4183703758682529e-06,-2.0726760427069491e-07,6.343312584145902e-07
-7.178089678535986e-07,-6.676836518052866e-07,-3.2983930469724275e-07,-1.7241081653169414e-07,-6.095371299831047e-07,-2.8992158705314605e-07,-2.618219656467255e-07,1.8527492325538248e-07,4.660938742014652e-08,-3.2680516970412446e-07,-2.1029208747803994e-07,-2.600354369863124e-07,-2.4665670712333613e-07,-2.9646056840646574e-07,-1.146034594103901e-07,1.3941036391643768e-06,-2.156718675595187e-07,6.118931766000751e-07
-7.07877235031374e-07,-6.674137167699789e-07,-3.499444221545325e-07,-2.3467048621934698e-07,-6.179969742997629e-07,-2.761856051184023e-07,-2.2082228822266853e-07,2.1356010999974726e-07,6.4450363648657e-08,-3.2878963037522025e-07,-2.159571992350348e-07,-2.440687633632761e-07,-2.271164021413606e-07,-2.81082288664493e-07,-1.0783408220814451e-07,1.3489943657974658e-06,-2.1467100961472485e-07,5.919689887089394e-07
-6.747256834104773e-07,-6.274813013186922e-07,-3.5428211677821456e-07,-2.6405210382354805e-07,-5.937949988522661e-07,-2.6997003469135437e-07,-1.3147710127859467e-07,2.6734195787519406e-07,9.085827264811032e-08,-3.2264555685816314e-07,-2.1550549695205208e-07,-2.251562726928889e-07,-1.894087554083174e-07,-2.7050179851182543e-07,-1.0046880923381612e-07,1.2921137508094319e-06,-2.0443159862137068e-07,5.789835501149442e-07
-6.203235608518133e-07,-5.500972763105198e-07,-3.4168569195453257e-07,-2.4546082795174677e-07,-5.400994379747387e-07,-2.7280961859748323e-07,-3.075992514820264e-08,3.4474311592678626e-07,1.2569818788954194e-07,-3.049509164736779e-07,-2.0401332288995488e-07,-2.0866809107091798e-07,-1.3434145521526263e-07,-2.6682907204813215e-07,-9.528231598507521e-08,1.21467742870676e-06,-1.8741653505236564e-07,5.731574708669384e-07
-5.496628262706069e-07,-4.4251225087521857e-07,-3.124532156421681e-07,-1.733209993393354e-07,-4.61661828032316e-07,-2.8564574228614634e-07,9.532332279268182e-08,4.3787979852334233e-07,1.6835532316406878e-07,-2.721879082148696e-07,-1.7674591661809482e-07,-1.985634824703879e-07,-6.530326361708858e-08,-2.7111306155065933e-07,-9.547328097987505e-08,1.1109520602579622e-06,-1.6743637138480666e-07,5.689469075376528e-07
-4.6914330179655713e-07,-3.147932023633753e-07,-2.680080406020217e-07,-5.421858744464106e-08,-3.6530899300627094e-07,-3.084747437056857e-07,2.3351659912332883e-07,5.359613940119586e-07,2.159376255119534e-07,-2.2241021252211044e-07,-1.3112806766816295e-07,-1.96708166904298e-07,1.2070830480024525e-08,-2.837725082509592e-07,-1.0367929259238663e-07,9.503782798022282e-07,-1.4875951891743824e-07,5.569333789504534e-07
-3.860218585531403e-07,-1.7861269580871907e-07,-2.1220261508107976e-07,9.344179903513772e-08,-2.622941778274911e-07,-3.4029928576198136e-07,2.860382064251252e-07,6.216674545584979e-07,2.623063141828501e-07,-1.5781255326979464e-07,-6.904828637736325e-08,-2.0354409036343039e-07,9.043958722820814e-08,-3.0489415939926055e-07,-1.2117179268336512e-07,7.442643148601332e-07,-1.3529276728590162e-07,5.182995453776432e-07
-3.0826097951983385e-07,-4.6662999507001916e-08,-1.5234984539604352e-07,2.4404873979482236e-07,-1.673570812752218e-07,-3.8007077447268207e-07,1.6564311101808611e-07,6.651651266720725e-07,2.987904424180498e-07,-8.576491738358503e-08,2.236308987365766e-09,-2.1843722265161212e-07,1.617839713601045e-07,-3.337189402437256e-07,-1.4729699849652512e-07,5.885577626119891e-07,-1.2948896126619545e-07,4.317373174585275e-07
-2.433392843178931e-07,6.886712820195083e-08,-9.75154627546316e-08,3.7310712531831407e-07,-9.452682667636832e-08,-4.275208129690699e-07,5.785901268547939e-08,7.091621272663235e-07,3.164359733764498e-07,-1.662156612003083e-08,7.191259269577054e-08,-2.3898345127881525e-07,2.1920577430421536e-07,-3.6764989442680685e-07,-1.7944187308969125e-07,4.587258723317094e-07,-1.3119418631554242e-07,3.342917025695245e-07
-1.95959610827639e-07,1.589082173788684e-07,-5.4748615319116886e-08,4.6505999995168043e-07,-5.38921752478345e-08,-4.823975411478271e-07,3.070483658409655e-08,6.93893399167482e-07,3.113952636838033e-07,4.050001112698216e-08,1.2950863429449892e-07,-2.6047042574133844e-07,2.5898772845700734e-07,-4.0194494904227247e-07,-2.1382218745208667e-07,3.443461015567636e-07,-1.3739884033340532e-07,1.793737964248215e-07
-1.6644278030641404e-07,2.195650821030101e-07,-2.651918717809759e-08,5.162011129771626e-07,-5.057094510800744e-08,-5.423563787710241e-07,2.1739173931121295e-08,6.611487228231882e-07,2.88785345569701e-07,8.078175104171813e-08,1.6855154240462191e-07,-2.7708243779761375e-07,2.815780076862639e-07,-4.3087863241351277e-07,-2.46862245804413e-07,2.590051084397314e-07,-1.436023878945583e-07,6.4040062796336116e-09
-1.5145221082284276e-07,2.5189246343754985e-07,-1.1414592129095182e-08,5.323642690658929e-07,-8.466978032368271e-08,-6.015230419785407e-07,4.401053218098241e-08,6.170746810705466e-07,2.6074668006910394e-07,1.0369570991408292e-07,1.8800473949057414e-07,-2.8469069826953407e-07,2.9067618900004494e-07,-4.500413903001789e-07,-2.763415021627056e-07,9.430823678576357e-08,-1.4625669024567375e-07,-1.6783481737752692e-07
-1.4664179409760116e-07,2.5960244437072366e-07,-6.93186216053171e-09,5.242278950070245e-07,-1.5150802453769317e-07,-6.51576355604119e-07,-5.134201863596181e-08,5.733475565774558e-07,2.3701609951125413e-07,1.1105315340653482e-07,1.9129103826191833e-07,-2.8305401932511745e-07,2.911631276552747e-07,-4.5848407850600465e-07,-3.015442331137374e-07,-7.763592876609916e-08,-1.446560274580704e-07,-3.2592209838610476e-07
-1.4900431653823362e-07,2.4671996370939496e-07,-1.1300595145911037e-08,5.02984398875427e-07,-2.4230447741507556e-07,-6.850948049382944e-07,-3.8686550284192133e-07,5.367830872267576e-07,2.2169341611714463e-07,1.0565638032372112e-07,1.842106114858594e-07,-2.7534694668493866e-07,2.8743157307970153e-07,-4.591615297318522e-07,-3.223838291208222e-07,-1.4841529192821366e-07,-1.4084974397982205e-07,-4.510371907013323e-07
-1.5698210398299222e-07,2.1709498854171996e-07,-2.251134514452116e-08,4.778253626870943e-07,-3.4512624578066046e-07,-6.990234262683503e-07,-7.324943832955834e-07,5.097744908643954e-07,2.118960633401022e-07,9.153972589825308e-08,1.731925687079518e-07,-2.65316089594919e-07,2.8293826768809487e-07,-4.572168682248278e-07,-3.382637864027245e-07,-2.4438720739102663e-07,-1.375435231843548e-07,-4.6023694844914096e-07
-1.6863674633975511e-07,1.7595038573371207e-07,-3.626918819213333e-08,4.5551057524870423e-07,-4.458298212485378e-07,-6.960681076589013e-07,-1.0462781872837548e-06,4.928480539796447e-07,2.0001595971890753e-07,7.450052847563319e-08,1.6431583742730786e-07,-2.546935168926738e-07,2.805893736759609e-07,-4.5735488870887483e-07,-3.4761138189223016e-07,-3.548969896363142e-07,-1.3583927178359455e-07,-4.871345538687408e-07
-1.8008088539299945e-07,1.3158999925494673e-07,-4.598514607674575e-08,4.4117454042436396e-07,-5.299054080025635e-07,-6.833193229684157e-07,-1.3592492364329803e-06,4.860831269969939e-07,1.7857518886409067e-07,6.132781378056859e-08,1.625584667899221e-07,-2.4306150164673205e-07,2.83135583978919e-07,-4.620255449777698e-07,-3.484742939577632e-07,-4.059255191814331e-07,-1.3455555044927952e-07,-5.070937973709378e-07
-1.8594499748498018e-07,9.507192076868573e-08,-4.547402305575043e-08,4.391635891548842e-07,-5.859446803083599e-07,-6.691923483297319e-07,-1.5645309686082953e-06,4.88333110912479e-07,1.430628264732752e-07,5.782271253939774e-08,1.7081307823144294e-07,-2.2969698226928002e-07,2.930950091575996e-07,-4.7115748700681923e-07,-3.3983667890137395e-07,-4.35543604416911e-07,-1.3114181486051113e-07,-4.874053419236797e-07
-1.8150551388890612e-07,7.743317495939287e-08,-3.216777629108554e-08,4.531131954007902e-07,-6.094156110699294e-07,-6.604247281318157e-07,-1.6911186994550699e-06,4.964561237038863e-07,9.45983544132539e-08,6.714448248971179e-08,1.8901865347561304e-07,-2.1510271861697268e-07,3.122281192883905e-07,-4.829873477257109e-07,-3.228224757277542e-07,-5.692684007562856e-07,-1.232170499186218e-07,-4.5917196772793783e-07
-1.6451216322921171e-07,8.627118455269281e-08,-7.919868263241037e-09,4.849418726739379e-07,-6.04435755624559e-07,-6.601497493765573e-07,-1.7900827349476868e-06,5.069899510287416e-07,4.289361158076735e-08,8.975939171591494e-08,2.1442723292975584e-07,-2.0070063015897826e-07,3.409229944344437e-07,-4.950388105076282e-07,-3.0093217921618345e-07,-6.759307548531988e-07,-1.0945218796086834e-07,-4.0950442183045874e-07
-1.3535484008162545e-07,1.2368035945316097e-07,2.3076675787525932e-08,5.331977670793123e-07,-5.829079378707127e-07,-6.672156658597609e-07,-1.8052719330978393e-06,5.195300409633913e-07,6.425585450982798e-09,1.2455145019879123e-07,2.4330482090674176e-07,-1.874153720997055e-07,3.778350076880163e-07,-5.047359068827655e-07,-2.7907403641908665e-07,-7.742789279307239e-07,-8.958381500494112e-08,-3.465274318486479e-07
-9.61386180972067e-08,1.8602235663173066e-07,5.6887521493779996e-08,5.919721176525957e-07,-5.610244781492587e-07,-6.768344464953524e-07,-1.6621697150993092e-06,5.384359891766627e-07,5.632406656825582e-09,1.6934018329139758e-07,2.726614726708576e-07,-1.750433281464008e-07,4.1976976550753155e-07,-5.098412005969048e-07,-2.6195530074031563e-07,-8.007400114224238e-07,-6.413808744110989e-08,-2.8321208848253636e-07
-5.015507125203204e-08,2.6490184785144474e-07,9.065637821674649e-08,6.514949572752895e-07,-5.533230374800715e-07,-6.826531969840829e-07,-1.4506567697632687e-06,5.706891339365476e-07,5.3853535181032257e-08,2.199228366085166e-07,3.003757598578025e-07,-1.6314763947657717e-07,4.6165482712500453e-07,-5.089920434263038e-07,-2.5263842098159573e-07,-7.48586001828551e-07,-3.44659126915204e-08,-1.799296606324348e-07
-2.1464667559046904e-09,3.487429810718607e-07,1.216489567174221e-07,7.008338430700067e-07,-5.668251324490665e-07,-6.794529006560827e-07,-1.1870636573354844e-06,6.212961127222624e-07,1.5032701241860094e-07,2.690338386105811e-07,3.239427560457525e-07,-1.521850378685737e-07,4.969211015736686e-07,-5.020604904679426e-07,-2.517016431113531e-07,-6.79678737092984e-07,-3.0279683315767386e-09,-9.56902617549481e-08
4.189606056539886e-08,4.25026996659012e-07,1.4670032576568387e-07,7.318963428672708e-07,-5.984333334763522e-07,-6.648243378160412e-07,-9.050700681191975e-07,6.896392579653776e-07,2.805002087688584e-07,3.0750446552596306e-07,3.3968368902181885e-07,-1.4313842942009524e-07,5.189275093894564e-07,-4.897618643999705e-07,-2.5703998923493956e-07,-5.854462101186285e-07,2.6898834783145773e-08,-3.1044445351843374e-08
7.660649508723559e-08,4.834210720076613e-07,1.632613928157408e-07,7.427474325383116e-07,-6.362708051720407e-07,-6.390282507149896e-07,-6.106195097138153e-07,7.690008068750986e-07,4.229546475749336e-07,3.2784819249035756e-07,3.4377475520240816e-07,-1.3572476613453417e-07,5.232719286165762e-07,-4.7266052135001284e-07,-2.643383827752673e-07,-5.242187512776148e-07,5.239848348890522e-08,3.0981839363774264e-08
9.983391167372901e-08,5.185110229012976e-07,1.711697505872632e-07,7.384174876514919e-07,-6.640434871380215e-07,-6.039448336716096e-07,-3.515456000894325e-07,8.489031469473205e-07,5.569372807554189e-07,3.276255482643517e-07,3.3450264085223784e-07,-1.2723174245480555e-07,5.096915645231543e-07,-4.507302916011949e-07,-2.683638962131906e-07,-4.566811933721205e-07,7.220162744843639e-08,7.889680361289075e-08
1.1342073452301885e-07,5.303022679203008e-07,1.7294874109684446e-07,7.286849221086863e-07,-6.677794773688047e-07,-5.624048152331429e-07,-1.7414758007611736e-07,9.184405224623811e-07,6.659076402725751e-07,3.098113932135066e-07,3.1384487443524836e-07,-1.1363445839286539e-07,4.822874802007874e-07,-4.242300078404304e-07,-2.6482807116771947e-07,-3.713971302829392e-07,8.695472800543371e-08,1.311299679729538e-07
1.211588109821321e-07,5.21743778590092e-07,1.7138319369794237e-07,7.236781748054543e-07,-6.424371012372423e-07,-5.181635591199247e-07,-1.063760977181805e-07,9.69115817868105e-07,7.386540804845578e-07,2.801869620840057e-07,2.8700429087296614e-07,-9.22958962597073e-08,4.4801865771077474e-07,-3.950716343695497e-07,-2.5196262423021056e-07,-2.7711759472451486e-07,9.836897064662598e-08,1.8949111302685507e-07
1.258188930204956e-07,4.963518409392262e-07,1.6713083924510371e-07,7.294925691249774e-07,-5.932222607076924e-07,-4.7581303404085845e-07,-1.8129910589520408e-07,9.967487005796668e-07,7.69292832904618e-07,2.4430475443994634e-07,2.602651826508858e-07,-6.392033010298218e-08,4.1448647775606736e-07,-3.671466484288929e-07,-2.30958205710775e-07,-1.5227025698084944e-07,1.0816938603262106e-07,2.4925770440388953e-07
1.2798465355455936e-07,4.578162727958125e-07,1.5863375856000806e-07,7.464966920504911e-07,-5.324562498767098e-07,-4.400036857034092e-07,-3.0601598725112995e-07,1.002462441634517e-06,7.598759823257145e-07,2.0634330749808826e-07,2.388089430268393e-07,-3.2106085554994344e-08,3.8806033571129745e-07,-3.450574413484481e-07,-2.0512993372742073e-07,-5.503743148197831e-08,1.1753963791085697e-07,3.086557688193901e-07
1.2733020545105936e-07,4.1148128633752557e-07,1.4491919597991515e-07,7.710414196927168e-07,-4.734161087253786e-07,-4.1415171533824833e-07,-4.3743882283931795e-07,9.923489110949792e-07,7.22541023807246e-07,1.697263626683711e-07,2.2569277942605426e-07,-1.1476611268688521e-09,3.727149019637122e-07,-3.3221422633890186e-07,-1.7856538704767746e-07,2.8232676660770562e-08,1.2698526235459824e-07,3.643067820568458e-07
1.2435536837278917e-07,3.659258750712085e-07,1.280258838850425e-07,7.984212700947284e-07,-4.2560539810903913e-07,-3.992765125376187e-07,-5.373663443640196e-07,9.753545798808544e-07,6.764645594793684e-07,1.3758124487833484e-07,2.2190807900595398e-07,2.5713884867163576e-08,3.6947376371592096e-07,-3.2980497040231696e-07,-1.5519629741379542e-07,1.1125130038808598e-07,1.3612338288085258e-07,4.127778484038538e-07
1.2039209931971378e-07,3.30942181600459e-07,1.1291125209119861e-07,8.245496660165399e-07,-3.9428910485122846e-07,-3.935086074020308e-07,-6.066319152014256e-07,9.598928657886543e-07,6.437903341967265e-07,1.1181779332422716e-07,2.2665610810681134e-07,4.632832500367229e-08,3.763021018618732e-07,-3.3726635210874797e-07,-1.3846342338461867e-07,1.835793015725117e-07,1.4336625965440503e-07,4.504788796305825e-07
1.1584810228705694e-07,3.134680865065235e-07,1.0462363016270856e-07,8.46138642951983e-07,-3.8189925582269033e-07,-3.926765305800738e-07,-6.172369183693024e-07,9.506821200674758e-07,6.388754289883339e-07,9.166168252192384e-08,2.3734979669420146e-07,5.887079253796858e-08,3.88435365132511e-07,-3.534432591464262e-07,-1.3104665535374355e-07,2.3815309883158795e-07,1.4606419649501945e-07,4.7372152646350147e-07
1.0871841394734833e-07,3.1431827107846087e-07,1.0464409509404557e-07,8.603150678602645e-07,-3.888573663016402e-07,-3.9180674034327264e-07,-5.461682004913723e-07,9.474525561030167e-07,6.630013597617358e-07,7.346409955903096e-08,2.49699851577457e-07,6.199770764449979e-08,3.9938926171495716e-07,-3.770399680012836e-07,-1.3417444071318528e-07,2.6865257812648594e-07,1.4143220846195446e-07,4.794811273803047e-07
9.512258896157116e-08,3.274445822122533e-07,1.0995289196817006e-07,8.637941958251909e-07,-4.1366487221268887e-07,-3.864008745086483e-07,-4.088485060072519e-07,9.462640375736015e-07,7.04707395524134e-07,5.245853085295095e-08,2.5862656717621167e-07,5.62770749138238e-08,4.0278257485611365e-07,-4.059347318987066e-07,-1.4667648898239776e-07,2.7497349699557744e-07,1.2796823541861033e-07,4.6679887493113873e-07
7.167996597784898e-08,3.4173538260559634e-07,1.1561196146445881e-07,8.518834791972459e-07,-4.5366762113951666e-07,-3.7270621612329734e-07,-2.2051204635307443e-07,9.42472974070356e-07,7.443583855683474e-07,2.5105887500868052e-08,2.5989956163280607e-07,4.528605515586702e-08,3.943869335680331e-07,-4.3645426369494376e-07,-1.647402623100178e-07,2.6296282981636804e-07,1.0645975278907005e-07,4.38030593660473e-07
3.7722537802743594e-08,3.441294677192691e-07,1.1785200759268597e-07,8.188563378733884e-07,-5.050804695217029e-07,-3.476659672526047e-07,-2.6346185120459996e-08,9.332209126162702e-07,7.626816447609988e-07,-9.825185562097767e-09,2.5136912719000703e-07,3.460745203468678e-08,3.733330876921831e-07,-4.63963155106473e-07,-1.8310985375198584e-07,2.554716554938705e-07,7.97555282560859e-08,3.988437323054289e-07
-4.450847688798e-09,3.232096760970169e-07,1.1413391939791804e-07,7.608944067297351e-07,-5.618684773641261e-07,-3.0958002981036833e-07,1.5844920284347955e-07,9.179503605815062e-07,7.48658935612418e-07,-5.189053513291779e-08,2.328800898309054e-07,2.8886571712194637e-08,3.417910747064791e-07,-4.847468283911793e-07,-1.971422560321611e-07,2.552770602425836e-07,5.1370156341831256e-08,3.5677645437115697e-07
-5.106904504613309e-08,2.7247161109228e-07,1.0276323975505926e-07,6.799969384757176e-07,-6.155514369839557e-07,-2.5937719575746385e-07,3.3645215454314723e-07,8.973761372004643e-07,7.026308235161561e-07,-1.0008762286014049e-07,2.052053284088825e-07,2.923520356835485e-08,3.034219696820446e-07,-4.976781069673792e-07,-2.0440803119793415e-07,2.630530439879876e-07,2.3943992665827808e-08,3.193355141350717e-07
-9.84400171233976e-08,1.9269234895490313e-07,8.301663901054697e-08,5.85402645705193e-07,-6.574041405536461e-07,-2.0141998314875318e-07,5.206333450594686e-07,8.727289178048949e-07,6.339575561874784e-07,-1.5298075472039238e-07,1.6922772362307896e-07,3.332696487547763e-08,2.617402340798156e-07,-5.041889483089244e-07,-2.0501992242287485e-07,2.835656726790442e-07,-1.297366925360376e-09,2.9265587099309126e-07
-1.432800354530079e-07,9.213389092418933e-08,5.6341475895301627e-08,4.911466167319247e-07,-6.812194423272251e-07,-1.4304867068721116e-07,7.023188103095725e-07,8.462836744485011e-07,5.565063957528755e-07,-2.078142613978449e-07,1.2633802629395203e-07,3.802578310390583e-08,2.1937989837769003e-07,-5.066483520484875e-07,-2.0072123479155471e-07,3.1816602278226284e-07,-2.4018067905712328e-08,2.8110704713606927e-07
-1.8227674332235012e-07,-1.579184945192786e-08,2.7218072581014e-08,4.1156953286813574e-07,-6.84025155666223e-07,-9.292618771284413e-08,8.609820849260896e-07,8.219356698309479e-07,4.864895371817419e-07,-2.601094504957754e-07,7.948773496539449e-08,4.192516617367425e-08,1.7820949754556488e-07,-5.06662493929236e-07,-1.9347369294414427e-07,3.730719805074628e-07,-4.415851270208183e-08,2.870057956780684e-07
-2.1230474181069535e-07,-1.1646514174546204e-07,1.6530381116837166e-09,3.569251252402754e-07,-6.656830869667597e-07,-5.8647121998116094e-08,9.816939039665818e-07,8.039850302985346e-07,4.332190990039049e-07,-3.0494561647744036e-07,3.3235497369211996e-08,4.561414667070385e-08,1.395324796915218e-07,-5.046092903273058e-07,-1.845777333699733e-07,4.522517239517418e-07,-6.193556194710351e-08,3.101682893133307e-07
-2.318261651593426e-07,-1.9844262330160372e-07,-1.6279941293902984e-08,3.303400535238498e-07,-6.295107545715119e-07,-4.418544725274938e-08,1.0521398136472526e-06,7.943897700842232e-07,4.0027473472875373e-07,-3.3931819350182065e-07,-7.881793435760448e-09,5.002348966787243e-08,1.0393557270078685e-07,-5.003876211823513e-07,-1.7477952810792594e-07,5.526264603069773e-07,-7.812349843186279e-08,3.4780570574042175e-07
-2.4227872219321477e-07,-2.5649122526967987e-07,-2.712383144484546e-08,3.2721083458101276e-07,-5.831729212005706e-07,-4.799166877606436e-08,1.0676680667616067e-06,7.90915513560991e-07,3.8516027069007606e-07,-3.636110191047087e-07,-4.1390635083249656e-08,5.498263349513687e-08,7.111057594386088e-08,-4.943052805500444e-07,-1.6475686014438655e-07,6.646651572564599e-07,-9.367078040533421e-08,3.9516966451920087e-07
-2.4769586627928107e-07,-2.9219656730270175e-07,-3.5194779149662514e-08,3.3711532608322493e-07,-5.391695307812336e-07,-6.287199501400907e-08,1.0237572668050274e-06,7.882173681236835e-07,3.792169126728792e-07,-3.8075580913902407e-07,-6.752199505678334e-08,5.9520250503239e-08,4.018162354046744e-08,-4.871070251300195e-07,-1.5509599826339304e-07,7.754770905600951e-07,-1.0879374055782196e-07,4.469046473471306e-07
-2.5232221640375045e-07,-3.1236245126031665e-07,-4.494259719564894e-08,3.4724655744028184e-07,-5.131901559615804e-07,-7.814662152713471e-08,9.229619212306417e-07,7.811957842066331e-07,3.730661911003615e-07,-3.9385407909029347e-07,-8.820694894671274e-08,6.330421433255472e-08,1.0439813722322754e-08,-4.792399968220736e-07,-1.4570946667069474e-07,8.749807623311523e-07,-1.2243586473111716e-07,4.985674384418853e-07
-2.5802178714312263e-07,-3.258788168806983e-07,-5.769288811880622e-08,3.466938594086407e-07,-5.186567034442968e-07,-8.282375600678021e-08,7.873509134580231e-07,7.677571112930101e-07,3.5923998183900854e-07,-4.0450292750607077e-07,-1.0589337930368548e-07,6.727966405429651e-08,-1.8217440097316613e-08,-4.703697324436678e-07,-1.3545222317134802e-07,9.605328830255907e-07,-1.3272867376452212e-07,5.478346147234158e-07
-2.635131206382571e-07,-3.4051739442945984e-07,-7.15534601650578e-08,3.307214572422134e-07,-5.594420149251982e-07,-6.853264180994373e-08,6.552963892477563e-07,7.487797286052134e-07,3.3504572640496945e-07,-4.130958953256422e-07,-1.233743213995542e-07,7.257397783418451e-08,-4.5543958787237775e-08,-4.598221358265324e-07,-1.2256146266840944e-07,1.0370013218909281e-06,-1.381458460916886e-07,5.949324190908464e-07
-2.6577892172970686e-07,-3.6052522608294655e-07,-8.370505462326606e-08,3.0278577551250216e-07,-6.248592868421384e-07,-3.283351198179108e-08,5.639407181711948e-07,7.258544544475135e-07,3.0175602342999357e-07,-4.200887653767549e-07,-1.4394502147475165e-07,7.89645446856465e-08,-7.140571123128392e-08,-4.474917874806214e-07,-1.0566665979638748e-07,1.1129420748950507e-06,-1.3829208925213353e-07,6.421698679101005e-07
-2.6206759349949614e-07,-3.8542611934811644e-07,-9.207573090239179e-08,2.725433868903044e-07,-6.899292824846882e-07,1.7516262812615014e-08,5.298701828980894e-07,6.992673250230287e-07,2.630553931531545e-07,-4.262450771563934e-07,-1.7039704150163843e-07,8.493906254182347e-08,-9.559139880372941e-08,-4.341547778070226e-07,-8.444115629374314e-08,1.195851416039636e-06,-1.3355443088142527e-07,6.928891185346707e-07
-2.506624869761039e-07,-4.100811391683462e-07,-9.494021258734475e-08,2.511966366498118e-07,-7.223875606687116e-07,6.68406417632243e-08,5.387601482280884e-07,6.679181586359479e-07,2.2220004748851453e-07,-4.313681770796807e-07,-2.0284816387654736e-07,8.954536397970718e-08,-1.1692021492600924e-07,-4.2076519606959135e-07,-5.9460556213029524e-08,1.2895808442799102e-06,-1.2406979037192807e-07,7.503701611947632e-07
-2.3038696724838166e-07,-4.2590844712836155e-07,-9.007236251160741e-08,2.472581782060261e-07,-6.956336651683042e-07,9.63023406018594e-08,5.49560825131151e-07,6.311425190486033e-07,1.8157809160167008e-07,-4.3318830921230694e-07,-2.3733706697843595e-07,9.393346888625362e-08,-1.3271545037687704e-07,-4.075461576638871e-07,-3.186766675214577e-08,1.3945905931707013e-06,-1.0933442692446764e-07,8.169436932068333e-07
-2.0052857288171065e-07,-4.232633675280013e-07,-7.533630913211569e-08,2.6441712857970193e-07,-6.013543103570353e-07,9.192277727469561e-08,5.137458100324508e-07,5.886042530958296e-07,1.4279772946008654e-07,-4.2820902962471593e-07,-2.669760699322136e-07,1.0067341820910107e-07,-1.3969943133577107e-07,-3.940844814348701e-07,-3.466575031434922e-09,1.5092879074889044e-06,-8.917174115041022e-08,8.932100906005703e-07
-1.6222053331735448e-07,-3.949058209129054e-07,-5.1179814266871004e-08,3.011708699589086e-07,-4.53994465986892e-07,4.999724801541884e-08,3.9980763012957413e-07,5.415548339057334e-07,1.0648575703933204e-07,-4.142663892559819e-07,-2.852699095382088e-07,1.1127981460776429e-07,-1.3601801532980291e-07,-3.805999168889934e-07,2.2956093989166443e-08,1.6303847329757184e-06,-6.527271508468101e-08,9.775134791633182e-07
-1.200730803780857e-07,-3.398738161447522e-07,-2.2316163361907077e-08,3.5134671104819243e-07,-2.848432432736582e-07,-2.237508109919901e-08,2.0873510167921954e-07,4.927185636094358e-07,7.421576205792103e-08,-3.925636344305922e-07,-2.892690790580412e-07,1.243248312060884e-07,-1.228080532321187e-07,-3.6909059498933953e-07,4.376724258152278e-08,1.7526101981667644e-06,-4.176277490006377e-08,1.0660559927749376e-06
-8.182792472967841e-08,-2.6576118999527853e-07,3.8597624745349684e-09,4.0574437204697e-07,-1.3182721330918268e-07,-1.1090042281462338e-07,-3.1748894727751135e-08,4.460113578721761e-07,4.815640232457694e-08,-3.6716414751109674e-07,-2.8045929418087906e-07,1.360876840173831e-07,-1.0395591617166165e-07,-3.628718011057082e-07,5.5521756671758525e-08,1.8695020321391982e-06,-2.39606437887008e-08,1.1538446963368908e-06
-5.5419247158870106e-08,-1.8747649498777911e-07,2.127657342091125e-08,4.552878212306469e-07,-2.7191092421002306e-08,-1.994195958100979e-07,-2.7977275502671485e-07,4.0703759247588383e-07,3.039785473030101e-08,-3.4247522837620866e-07,-2.633012377322237e-07,1.4314966413063885e-07,-8.428851418613195e-08,-3.6457364220224094e-07,5.649835164523871e-08,1.975734865395596e-06,-1.6084997724592122e-08,1.236288439731715e-06
-4.5489691104935004e-08,-1.2231430240589777e-07,2.8383314152160665e-08,4.945636234101967e-07,1.1591062248291669e-08,-2.744111000635291e-07,-4.92024443756328e-07,3.818718201747693e-07,2.331096568310594e-08,-3.213130775329807e-07,-2.429962297029331e-07,1.4439426707361521e-07,-6.767305120676016e-08,-3.742828085848509e-07,4.761541791079732e-08,2.0692056814486752e-06,-1.96354129968594e-08,1.3102739394675717e-06
-5.206638411059114e-08,-8.387468610779498e-08,2.7655721711665224e-08,5.232196911641747e-07,-1.593183506331518e-08,-3.2714651651427465e-07,-6.306335015712022e-07,3.748590513633768e-07,2.7606732744712874e-08,-3.0512327544443987e-07,-2.2392306303896278e-07,1.407631709732566e-07,-5.623288151569329e-08,-3.894220690814663e-07,3.196556706101492e-08,2.151163770110671e-06,-3.339299861685606e-08,1.3743729769948416e-06
-7.199280737977348e-08,-7.767458356038523e-08,2.2503179387595024e-08,5.438089014667631e-07,-9.624358603504552e-08,-3.5370994200248616e-07,-6.661047177514005e-07,3.864069634268977e-07,4.1755156130967946e-08,-2.952881931286612e-07,-2.0902940718596368e-07,1.336713416264824e-07,-5.069995594085285e-08,-4.063013172510044e-07,1.346846074006547e-08,2.22490659003412e-06,-5.447972073523978e-08,1.4286036070775766e-06
-1.0122305424848047e-07,-1.0007817526316962e-07,1.4446939763302285e-08,5.58215890424068e-07,-2.077666290533761e-07,-3.5441449682689544e-07,-5.868500203496995e-07,4.1294113152970456e-07,6.313561271549115e-08,-2.934362164036754e-07,-1.9974401255362373e-07,1.241905587500541e-07,-5.1071330231718675e-08,-4.217613487910668e-07,-4.10563510031076e-09,2.294513179726016e-06,-7.915248035939149e-08,1.4741895433957608e-06
-1.3577470723877187e-07,-1.4040246095150172e-07,3.0154849575664187e-09,5.660944155088663e-07,-3.266709891535994e-07,-3.333779403974065e-07,-4.1036963364336666e-07,4.4845897691915026e-07,8.944150883127448e-08,-3.0013405242302176e-07,-1.9603898535564552e-07,1.1376459187823654e-07,-5.6836804973962765e-08,-4.336001141800692e-07,-1.7268056694096964e-08,2.3644959113834045e-06,-1.0294279812821422e-07,1.5135715464724442e-06
-1.7115718474057685e-07,-1.845666094804077e-07,-1.2387727642593254e-08,5.663061805201962e-07,-4.327386158266439e-07,-2.976484050658024e-07,-1.8267176202587608e-07,4.870343788220492e-07,1.1831713094168028e-07,-3.1344926765900665e-07,-1.967250653684728e-07,1.0515538014110864e-07,-6.679220322618165e-08,-4.401492269852995e-07,-2.28877924927222e-08,2.439037951572817e-06,-1.209987378058011e-07,1.55032140113838e-06
-2.020055505332847e-07,-2.1939599608978274e-07,-3.1090044231221926e-08,5.593424825619592e-07,-5.140593372485744e-07,-2.559253768861467e-07,4.189607782625881e-08,5.24163968478432e-07,1.4732971096530865e-07,-3.2925862326476186e-07,-2.0034304963774164e-07,1.0197317154626925e-07,-7.902816660116846e-08,-4.4030214060136536e-07,-1.8910377978965905e-08,2.5210933977118736e-06,-1.2935971010242425e-07,1.5884508227532901e-06
-2.2326789312403876e-07,-2.3637141486257053e-07,-5.145975921455989e-08,5.482244016908099e-07,-5.683471429060457e-07,-2.1759253710961122e-07,2.2139572998637143e-07,5.562756338521792e-07,1.7316217407851995e-07,-3.4347141814585436e-07,-2.0639847827341112e-07,1.0671208683529575e-07,-9.146518539619478e-08,-4.3444092098232176e-07,-5.271107657419486e-09,2.610355203737243e-06,-1.2661389095957752e-07,1.6310687183227847e-06
-2.323030785106675e-07,-2.3341747317389044e-07,-7.216751493691415e-08,5.367139193212313e-07,-5.996932209457757e-07,-1.9153892018703068e-07,3.348767022385471e-07,5.802475287932923e-07,1.9305872514779888e-07,-3.5431979049637596e-07,-2.1583630467806305e-07,1.1901974190324743e-07,-1.0253364874456555e-07,-4.251784370851252e-07,1.6012624018438053e-08,2.7020058074879928e-06,-1.1460667589050583e-07,1.679178820460684e-06
-2.2996817311520742e-07,-2.1399351911184872e-07,-9.252688637642089e-08,5.263246246023834e-07,-6.133950919747073e-07,-1.838993767415719e-07,3.7861814896562697e-07,5.941076421486025e-07,2.083871222410738e-07,-3.626292239690484e-07,-2.300043768159147e-07,1.361044282398767e-07,-1.113064633092946e-07,-4.16498606957473e-07,4.19467708323898e-08,2.788764856539349e-06,-9.74424514723542e-08,1.7313642483831142e-06
-2.1952122336070944e-07,-1.8404321633447758e-07,-1.1119636201455187e-07,5.157737902001239e-07,-6.132221851416866e-07,-1.9527635323986797e-07,3.586476185655536e-07,5.986145108461791e-07,2.247106187552813e-07,-3.700004422249085e-07,-2.4878127809631443e-07,1.5474849423493245e-07,-1.1708397936019252e-07,-4.11541446991036e-07,7.010261998903847e-08,2.8641059707307875e-06,-7.933659339041286e-08,1.7844386244129764e-06
-2.042524691817442e-07,-1.4887893506559214e-07,-1.244812446170504e-07,5.03777779974198e-07,-6.026059243615471e-07,-2.1916785930730873e-07,2.874977662271061e-07,5.985429971596277e-07,2.479828498020588e-07,-3.7693192609199797e-07,-2.694639384748341e-07,1.7320175477016566e-07,-1.1910568612663236e-07,-4.1102107445037823e-07,9.942635378915122e-08,2.924854483888867e-06,-6.28642714788405e-08,1.8345623555889874e-06
-1.8599373231314104e-07,-1.1195561922655794e-07,-1.276914466110842e-07,4.915989865395644e-07,-5.879359003126973e-07,-2.4384785756148645e-07,1.8278140907837498e-07,6.011150028724388e-07,2.806790919221981e-07,-3.826838116089236e-07,-2.8752601907857876e-07,1.909815709446814e-07,-1.1675172238959035e-07,-4.1362788243832205e-07,1.2974683273970572e-07,2.9716490775483993e-06,-4.90342719676425e-08,1.8781729715787988e-06
-1.6565352391711703e-07,-7.55929668104363e-08,-1.1815800401711108e-07,4.80969460708973e-07,-5.804181791854661e-07,-2.5829296469056116e-07,6.427801141716555e-08,6.122943999151828e-07,3.2083483933194017e-07,-3.8661966030516944e-07,-2.9873268435563904e-07,2.0728647968438895e-07,-1.0995828921012309e-07,-4.1764128333379697e-07,1.6038429027475839e-07,3.007363517795059e-06,-3.807893712378462e-08,1.9124867173590013e-06
-1.447323554542679e-07,-4.1858680678161e-08,-9.854937858212182e-08,4.74931405230281e-07,-5.932288730299614e-07,-2.583622843079696e-07,-5.1217305860787885e-08,6.343384746147088e-07,3.641914820061817e-07,-3.8927998139975284e-07,-3.010973678572317e-07,2.202482948191845e-07,-9.945315506828734e-08,-4.2202006762443004e-07,1.8916051103229973e-07,3.0350525225024526e-06,-3.055252597680116e-08,1.9357663319287057e-06
-1.2574410260943543e-07,-1.1961128869917737e-08,-7.532621441852678e-08,4.756977663790355e-07,-6.346403308361007e-07,-2.4804719144712913e-07,-1.5707074668920019e-07,6.651044135646826e-07,4.05790696961777e-07,-3.9195284720066175e-07,-2.954978189500563e-07,2.2787338647154307e-07,-8.660124653513026e-08,-4.261742860154924e-07,2.1293211272748192e-07,3.0570795474236134e-06,-2.701540870832737e-08,1.947546499646652e-06
-1.1088671317804635e-07,1.2305261891471363e-08,-5.552856493829977e-08,4.82622882427558e-07,-7.007712842593405e-07,-2.3555274713744515e-07,-2.5722992040101876e-07,7.010664841419548e-07,4.428883471191681e-07,-3.9535096146237966e-07,-2.848414027909678e-07,2.2963601298384335e-07,-7.292775836334765e-08,-4.291785359954223e-07,2.29106445775158e-07,3.075027346561434e-06,-2.687938053809149e-08,1.9488176282100293e-06
-1.005116809659222e-07,3.202737757328473e-08,-4.3193176201056186e-08,4.961013483466044e-07,-7.738599846639328e-07,-2.287215887534321e-07,-3.5506244835569665e-07,7.386918310277181e-07,4.743426544764614e-07,-3.990813375750228e-07,-2.726575919489931e-07,2.267991002698448e-07,-5.973893991172143e-08,-4.297212027918037e-07,2.3656775804924975e-07,3.089288334222959e-06,-2.809811369365255e-08,1.941761044054585e-06
-9.32046676559122e-08,4.8715903395010046e-08,-3.823989376460649e-08,5.16705242344333e-07,-8.286349666429255e-07,-2.329436338917561e-07,-4.41885871363726e-07,7.74850597587063e-07,5.002450930880968e-07,-4.0262620578373407e-07,-2.62079656377108e-07,2.210515296641081e-07,-4.8190066540991564e-08,-4.270715644230611e-07,2.3545943940791698e-07,3.098755708520361e-06,-2.7978239719368844e-08,1.9288994098061477e-06
-8.749021443409817e-08,6.219516223223985e-08,-3.913003950660355e-08,5.434395449593895e-07,-8.431768014082193e-07,-2.5085151240737343e-07,-4.969627814190948e-07,8.068176699368695e-07,5.208322766806616e-07,-4.0670793800026857e-07,-2.554282736690071e-07,2.1283117516405705e-07,-3.953172901075373e-08,-4.2199618017328505e-07,2.2663090064183598e-07,3.1012271942406626e-06,-2.4754903376208735e-08,1.912212995386357e-06
-8.34172173985271e-08,7.11494246065042e-08,-4.494427084909118e-08,5.747041367761295e-07,-8.085046385194621e-07,-2.8204607305595374e-07,-5.020939918095333e-07,8.321018771177946e-07,5.365909859445884e-07,-4.1328836420378566e-07,-2.539708655226064e-07,2.0129990573249023e-07,-3.4928119693773494e-08,-4.1650610975229267e-07,2.1157498298930764e-07,3.094078852199935e-06,-1.839880687295395e-08,1.8928672974926983e-06
-8.213059800191584e-08,7.288934903384239e-08,-5.590830300094582e-08,6.069166876047524e-07,-7.314982605881106e-07,-3.223449681037802e-07,-4.520429535255839e-07,8.497993378771665e-07,5.473571263579038e-07,-4.238722803219563e-07,-2.5760387530109285e-07,1.860557026690594e-07,-3.474077889037162e-08,-4.1260171444183674e-07,1.9282603597138085e-07,3.075407993613593e-06,-1.0697001668554334e-08,1.8716448072340335e-06
-8.493002681385191e-08,6.560985450616155e-08,-6.911785704239202e-08,6.356806776520905e-07,-6.300302685606345e-07,-3.63455145110588e-07,-3.539933727893958e-07,8.617380678831558e-07,5.522037113780984e-07,-4.377293940052382e-07,-2.64707259083627e-07,1.68999541644521e-07,-3.788611234684465e-08,-4.111885989498649e-07,1.7414387168313767e-07,3.0450921789264915e-06,-3.6968743646120053e-09,1.8495409447424766e-06
-9.003903809485301e-08,4.943725163431839e-08,-8.156504260874991e-08,6.537279177291757e-07,-5.251066247695974e-07,-3.94719187943215e-07,-2.217885221209119e-07,8.721141065252826e-07,5.476475485740406e-07,-4.5189979554592445e-07,-2.7259224880686313e-07,1.5388960389831783e-07,-4.193462577683594e-08,-4.120449127427682e-07,1.597873298004219e-07,3.0057431651316074e-06,1.3157102251634698e-09,1.8278810697754307e-06
-9.388612185853281e-08,2.8571660192020235e-08,-8.927243588443857e-08,6.564738398888945e-07,-4.3731044124972077e-07,-4.09498947447453e-07,-7.034525791567511e-08,8.848548311740091e-07,5.346239182892624e-07,-4.632091940846809e-07,-2.7853110460059546e-07,1.439647097941348e-07,-4.408248483742031e-08,-4.1474365262495836e-07,1.528712134379527e-07,2.96266500518495e-06,3.660693513061025e-09,1.807774305012985e-06
-9.330150220941801e-08,9.732202165002722e-09,-8.926283133699184e-08,6.434141527054879e-07,-3.8303003346157607e-07,-4.0583321123120826e-07,8.69328486508643e-08,9.011891758944594e-07,5.140226088814604e-07,-4.7068056298869487e-07,-2.808779408560222e-07,1.3959941194341946e-07,-4.254832775596432e-08,-4.1963588078984695e-07,1.5387942595763102e-07,2.9222670505116516e-06,2.8839900172057386e-09,1.7894519265706625e-06
-8.91635107866568e-08,-4.070738455466993e-09,-8.385266416957576e-08,6.215062992527665e-07,-3.73929368051061e-07,-3.9018793219658766e-07,2.3797756816385597e-07,9.16972193105535e-07,4.859359680888329e-07,-4.762846456931595e-07,-2.7981281070851044e-07,1.3789210068661493e-07,-3.761983639668488e-08,-4.278406613916226e-07,1.6068267956398136e-07,2.88868955122786e-06,-1.316515121297777e-09,1.7722475293373517e-06
-8.567188831008549e-08,-1.2021226281867099e-08,-7.76950653573905e-08,6.002964638482803e-07,-4.185265742856625e-07,-3.7260979574967387e-07,3.689097129101619e-07,9.289933395998084e-07,4.517188877353121e-07,-4.834329725306258e-07,-2.773147121083389e-07,1.3579646265624017e-07,-3.1729898219971526e-08,-4.4002501378874513e-07,1.701766388715353e-07,2.863081265143699e-06,-8.259069599875768e-09,1.7554266275681354e-06
-8.761598322444766e-08,-1.4888647487266355e-08,-7.595744996348456e-08,5.848142535552452e-07,-5.182000119329355e-07,-3.629066736167743e-07,4.615091323090118e-07,9.354082723290019e-07,4.1445193314251767e-07,-4.94687751021069e-07,-2.761025054251819e-07,1.3159494145104918e-07,-2.857790633252537e-08,-4.550390786781724e-07,1.8020270741194697e-07,2.8407674099053696e-06,-1.557336829448676e-08,1.7392518053539401e-06
-9.799673596638679e-08,-1.5654818803673508e-08,-8.163378889270694e-08,5.74160269473291e-07,-6.649366515498172e-07,-3.644455142323067e-07,4.947592406041741e-07,9.377515093574942e-07,3.849264605346392e-07,-5.106863937594956e-07,-2.781616740466869e-07,1.2621515893214704e-07,-3.1821711336416224e-08,-4.6980497682838317e-07,1.902805541735322e-07,2.822438808852689e-06,-1.9919765269139594e-08,1.7251952512234404e-06
-1.1640012959131529e-07,-1.8202153206567452e-08,-9.503534165599808e-08,5.599108428844272e-07,-8.37997504894735e-07,-3.729519073283777e-07,4.557530814352783e-07,9.374681697605892e-07,3.675761577738298e-07,-5.30902468802015e-07,-2.840817210498367e-07,1.217249493664758e-07,-4.398004573831662e-08,-4.808700972537801e-07,2.0064114097252112e-07,2.806940075148861e-06,-1.9032154057307924e-08,1.7147671018905997e-06
-1.4124837173018215e-07,-2.8764366098163187e-08,-1.1600648220027235e-07,5.320478491683215e-07,-1.00365419269867e-06,-3.8199914091247345e-07,3.534629836653083e-07,9.350559019234426e-07,3.6356705586790535e-07,-5.550686766008865e-07,-2.934711218698252e-07,1.1913273197328203e-07,-6.558949958853316e-08,-4.866695706469292e-07,2.0852879843587146e-07,2.79160137142957e-06,-1.3575002383694333e-08,1.7074830002793878e-06
-1.71458998913459e-07,-5.2071050945958785e-08,-1.4349856316359042e-07,4.847036720735924e-07,-1.1248644219071111e-06,-3.8687034677288745e-07,2.2476977185010327e-07,9.298595488423148e-07,3.6793954363744553e-07,-5.8203988985239e-07,-3.053304976583766e-07,1.1506563138215503e-07,-9.46809829709655e-08,-4.899918062747995e-07,2.1158762775713853e-07,2.774630330621171e-06,-7.106556479176467e-09,1.6994630990141813e-06
-2.0635575399866244e-07,-9.089441515107435e-08,-1.779216649352712e-07,4.201433569678161e-07,-1.176872694724802e-06,-3.8892577720825195e-07,1.2364979573041956e-07,9.200378799514023e-07,3.688764202992672e-07,-6.123857279238684e-07,-3.17493094105591e-07,1.075954014857576e-07,-1.2629309074473306e-07,-4.955276330907027e-07,2.0515679270249652e-07,2.7142920402401367e-06,-3.94607009770894e-09,1.6847209419531494e-06
-2.4317640355391313e-07,-1.4199570797480778e-07,-2.145527235063087e-07,3.502381915878785e-07,-1.1560404847586655e-06,-3.933706443040755e-07,9.381795700713406e-08,9.059832595997798e-07,3.5699602018746046e-07,-6.414314187456401e-07,-3.258022625756162e-07,9.359708088495428e-08,-1.5227051686010557e-07,-5.062999123106534e-07,1.849972639563858e-07,2.615232035300094e-06,-6.596445094345416e-09,1.6509545428215966e-06
-2.7543062261267524e-07,-1.9354277646199542e-07,-2.4592852073194866e-07,2.978891511141735e-07,-1.077518677595524e-06,-4.080687472010089e-07,1.411377466058195e-07,8.895011298225846e-07,3.250994915096386e-07,-6.602384306127291e-07,-3.2444659320660007e-07,7.273489184449703e-08,-1.6235954343150454e-07,-5.266938431485359e-07,1.4816176811646825e-07,2.4377777093146093e-06,-1.4959158412248966e-08,1.5899410082156066e-06
-2.940145809599931e-07,-2.3125392142713774e-07,-2.6323381171640603e-07,2.8473889268999785e-07,-9.703241757831992e-07,-4.344196706197406e-07,2.287986455720473e-07,8.733235242149069e-07,2.7022640283460065e-07,-6.598982729490521e-07,-3.0794323817181903e-07,4.696990274353266e-08,-1.4682320585488412e-07,-5.587003444318369e-07,9.207317546338917e-08,2.2583021375026574e-06,-2.5989752195134547e-08,1.5008265063275486e-06
-2.9111011017916615e-07,-2.409476140121762e-07,-2.5480965546723196e-07,3.1811418532328206e-07,-8.626083917760514e-07,-4.702397385260955e-07,3.0007208107734294e-07,8.585289863276021e-07,1.9031736758282135e-07,-6.331013014534485e-07,-2.739402572513299e-07,1.5939340463853596e-08,-1.0181886438626045e-07,-6.027586660647852e-07,2.0396809996840494e-08,2.1114267314084896e-06,-3.7424281844550894e-08,1.3805571568634973e-06
-2.644165902013657e-07,-2.1386638557857868e-07,-2.3363786203948115e-07,3.809374706444657e-07,-7.730442290230557e-07,-5.128745128215535e-07,3.105753481994837e-07,8.409232933072056e-07,8.448679323005674e-08,-5.833655726126438e-07,-2.2532845937401856e-07,-2.0264252461552822e-08,-3.293559182930849e-08,-6.55375012032696e-07,-6.03459609814152e-08,1.983473875698519e-06,-4.8477663334838815e-08,1.2305392460441522e-06
-2.1933091716192065e-07,-1.4910493735672384e-07,-2.0632524514939579e-07,4.651198571359092e-07,-7.118054539343325e-07,-5.570150094285102e-07,2.4913511028873147e-07,8.159791011194264e-07,-1.615643092828424e-08,-5.234957002418463e-07,-1.7056565507180329e-07,-6.512906613979724e-08,4.528826816638523e-08,-7.113618941519212e-07,-1.2627399616919554e-07,1.839528569517633e-06,-5.908953431943768e-08,1.0604128379485472e-06
-1.6689961981281484e-07,-6.137860720514181e-08,-1.7831292290705812e-07,5.519773401684009e-07,-6.679162249024141e-07,-5.861720381934343e-07,1.353673642139519e-07,7.780067376569626e-07,-1.1627083776671182e-07,-4.820111373117313e-07,-1.203808853712665e-07,-1.054004173306633e-07,1.1377859905517463e-07,-7.506296846748011e-07,-1.5728735508902606e-07,1.5791366548878955e-06,-6.922795431715376e-08,8.833524936411502e-07
-1.1920128013043732e-07,2.317828037442073e-08,-1.5973885815892748e-07,6.304548782970886e-07,-6.401796682030947e-07,-6.052887878538987e-07,8.402692206418879e-10,7.242138332557566e-07,-2.1770624014249045e-07,-4.852674392782781e-07,-8.959498842758804e-08,-1.3616569115321423e-07,1.501138497367628e-07,-7.378356016390062e-07,-1.3876357335209534e-07,1.3118859134184958e-06,-7.757772215633592e-08,7.064854858077977e-07
-8.5870217586452e-08,8.653370190824156e-08,-1.6190148601576938e-07,6.753697925645559e-07,-6.428736801838583e-07,-6.215972894971901e-07,-1.235637238971244e-07,6.741693835805953e-07,-3.095965225454446e-07,-5.190036508888965e-07,-1.0121040801439586e-07,-1.520743457362761e-07,1.2686363882391797e-07,-7.142704084984676e-07,-1.3908988128602402e-07,1.1529583498546768e-06,-8.215427764270968e-08,5.958226190804534e-07
-7.173203526213202e-08,1.1759501186821677e-07,-1.8992367899034541e-07,6.341758787390638e-07,-6.690968030968235e-07,-6.254500477570838e-07,-2.1836439899629823e-07,6.202619758308834e-07,-3.641646653636072e-07,-5.577567629696575e-07,-1.1477879043596417e-07,-1.592782141823609e-07,8.646942946813823e-08,-6.769302186490221e-07,-1.46475337148272e-07,1.0411449530380601e-06,-8.14510372806054e-08,5.721093494854464e-07
-7.710355995046643e-08,1.0948604465309841e-07,-2.445224037181807e-07,4.949220051621917e-07,-6.9559268883945e-07,-6.120672095631965e-07,-2.805349757278614e-07,5.56251711033757e-07,-3.60646455014007e-07,-5.719443893017036e-07,-1.7602606942694262e-07,-1.770492826056964e-07,-1.8009824605448944e-08,-6.629019561426427e-07,-1.4732849983353875e-07,1.0316892419742946e-06,-7.37254819844924e-08,5.420855555835357e-07
-9.959871638906435e-08,6.368977611994102e-08,-3.330683409067564e-07,3.3404890644815196e-07,-7.170477745842028e-07,-5.7473989808405e-07,-3.2309149232693526e-07,4.72115547306896e-07,-3.0733380460065395e-07,-6.497774986198526e-07,-2.4553970626761117e-07,-1.4731294226772704e-07,-1.3521034806119543e-07,-6.470224012649025e-07,-1.3111906077338942e-07,1.0140597576861452e-06,-5.984562290427194e-08,5.222119959865496e-07
-1.35497435680296e-07,-1.5705864855875976e-08,-3.949020284250442e-07,1.7971161090141363e-07,-7.160152820411012e-07,-4.771160749516308e-07,-3.615805351561604e-07,3.919053632808277e-07,-1.3841001580818445e-07,-7.454217688328535e-07,-3.1363795724950223e-07,-1.1687671115242304e-07,-2.446967756955904e-07,-6.017098928753948e-07,-9.978878820821127e-08,1.0071284972624426e-06,-3.9795963894753545e-08,5.26677782154268e-07
-1.8166276186895398e-07,-1.4097827161781864e-07,-4.3775859201217366e-07,6.091638064418406e-08,-6.94113527767347e-07,-3.810967547698988e-07,-4.013272377807229e-07,3.574077167030676e-07,-6.671869615549215e-08,-8.085407385526426e-07,-3.6738352142955684e-07,-1.1654544302786748e-07,-2.9171235756678885e-07,-5.524629799464095e-07,-4.6105083106881236e-08,1.0068715910328655e-06,-1.2494369364040653e-08,5.368507442362318e-07
-2.3629347018376369e-07,-2.9329458629906575e-07,-4.81522158458243e-07,-6.580710501879976e-09,-7.336528359015465e-07,-3.758590114103421e-07,-4.2925372873713877e-07,3.9668694549290025e-07,-7.20341003623475e-08,-8.447222250243818e-07,-3.9941908315472054e-07,-1.0913133534211435e-07,-2.904705365923756e-07,-5.112833573211515e-07,-5.253664788871047e-09,1.0427586055758624e-06,2.2349582509154142e-08,5.970369634818081e-07
-3.006171541475562e-07,-4.548668012548675e-07,-5.113403822897927e-07,-1.74397037071055e-07,-7.652140329312566e-07,-4.1486890972779985e-07,-4.136414612313508e-07,4.667227721570284e-07,1.9692191364738045e-08,-8.68307195091896e-07,-4.076006571540594e-07,-1.0830560642787982e-07,-2.823896468984026e-07,-4.7059287567915174e-07,2.157879296566261e-08,1.0793238181425323e-06,6.485097543741577e-08,6.372399990589385e-07
-3.753585952059012e-07,-6.266414146370528e-07,-5.696655017969967e-07,-3.975578251629318e-07,-6.980582155962889e-07,-4.0934779759074095e-07,-3.165113587475011e-07,4.97260354843846e-07,1.3615753480826168e-07,-8.433673494223737e-07,-3.975157992283743e-07,-1.0601278004232467e-07,-2.832406603338372e-07,-4.5833412432732173e-07,2.8462980738109912e-08,1.118951073943109e-06,1.1104744207177833e-07,7.005432437887968e-07
-4.5916662073688523e-07,-7.954952913979352e-07,-6.402698776527742e-07,-6.092145207001649e-07,-6.080332341035543e-07,-2.839596376348768e-07,-1.1271914775609406e-07,5.348824594016187e-07,2.411754203846529e-07,-8.095914417544014e-07,-3.7766963264735007e-07,-9.507831660587968e-08,-2.074914287456971e-07,-4.6723554451073797e-07,1.7230777333124495e-08,1.1497117720630041e-06,1.5910898920817763e-07,7.876223822717647e-07
-5.460067895250042e-07,-9.456909470376915e-07,-6.885175563346806e-07,-8.120394993524375e-07,-4.931246353686041e-07,-1.3487447174668745e-07,2.0684610429040205e-07,5.388923582193035e-07,3.1546771543094705e-07,-7.694932798334189e-07,-3.589676397435673e-07,-8.209432402842163e-08,-1.2092236553468436e-07,-4.880843433556466e-07,4.265400935868334e-09,1.1895809026308091e-06,1.9704964835495895e-07,8.5971361404869e-07
-6.2527651123864e-07,-1.0630278928814225e-06,-6.676514128748113e-07,-8.376638897261936e-07,-3.6459711505134776e-07,-6.664630450259641e-09,6.183287200854577e-07,5.547010672846481e-07,3.3559707508340637e-07,-7.41128542473661e-07,-3.446142050376331e-07,-6.001742547087081e-08,-9.364903044334061e-08,-5.152430650416952e-07,1.7727829879518487e-09,1.2826680669267402e-06,2.2559904651116132e-07,9.414286499220802e-07
-6.777644281479358e-07,-1.1362531139217358e-06,-6.710305985077228e-07,-8.438063995034573e-07,-2.8235035335478424e-07,9.930568386807321e-08,1.066708344947556e-06,6.363239250200315e-07,4.109900332158706e-07,-7.299683678410581e-07,-3.349720153468011e-07,-3.185393232613424e-08,-1.3439167450912857e-07,-5.362269238326441e-07,2.0863216779324028e-08,1.360503105236198e-06,2.4859449505759033e-07,1.0369354214642262e-06
-6.946794849403851e-07,-1.1235902018855008e-06,-6.709858487018577e-07,-9.831841518674197e-07,-2.3748250276045292e-07,1.2034233201583726e-07,1.4852383391812151e-06,6.911935018624166e-07,4.964132024592166e-07,-7.358992144877282e-07,-3.6374575386418077e-07,-1.8244836697870236e-09,-1.6121782528926345e-07,-5.44068736404177e-07,6.224369518944582e-08,1.3735456565763446e-06,2.6754623085588467e-07,1.1501195971054171e-06
-6.793526250541115e-07,-1.0494777282838634e-06,-6.726855761411144e-07,-1.0400708324796357e-06,-2.078448391467007e-07,1.0742971727744066e-07,1.8001790718042348e-06,7.19709133099897e-07,6.046465975583536e-07,-7.581678195267027e-07,-4.1125349540589756e-07,2.5873130577319053e-08,-1.8903104813137485e-07,-5.353403456302909e-07,1.1731671211352029e-07,1.4977036500020617e-06,2.8672199649536033e-07,1.286173235340746e-06
-6.483775843212739e-07,-9.698938731497077e-07,-6.73793903752226e-07,-9.484020796014881e-07,-1.8948747565327118e-07,8.51783207027108e-08,1.951616572025327e-06,7.468377721253117e-07,6.350360868994203e-07,-7.891469955697024e-07,-4.5903034138128354e-07,4.725593574391996e-08,-2.9379820780660656e-07,-5.109311267791699e-07,1.759950043805201e-07,1.740398533850393e-06,3.00241369958183e-07,1.426699876006015e-06
-6.149206046387339e-07,-9.03799887395001e-07,-6.320843354204792e-07,-8.607425723942861e-07,-1.8420279373188135e-07,6.065364218182409e-08,1.912505299280859e-06,7.557954734040754e-07,7.097806926304788e-07,-8.210912994321945e-07,-4.9114706712479e-07,6.442955503991474e-08,-3.9940108843065285e-07,-4.753347323672827e-07,2.2603458041624227e-07,1.9788991272738095e-06,3.0595272610591157e-07,1.5529031582379682e-06
-5.89845900397349e-07,-8.963377420800976e-07,-5.720486344722194e-07,-7.902981617232319e-07,-1.8322816952696658e-07,3.653484636500962e-08,1.6981486522386905e-06,7.810159589506027e-07,8.308682101715864e-07,-8.591976658182138e-07,-5.142287838738193e-07,8.015574491898767e-08,-4.5575658769308456e-07,-4.3689523716338957e-07,2.5945778118274526e-07,2.1315215620591575e-06,2.9486472946649343e-07,1.66278573680574e-06
-5.780058917743138e-07,-9.346959719563942e-07,-5.357802617401078e-07,-7.019493933140498e-07,-1.8510177050387507e-07,2.0318361028501027e-08,1.3598434817107328e-06,8.50553227379604e-07,9.497390180107294e-07,-8.914119121450691e-07,-4.872669024786187e-07,9.948349467804004e-08,-4.2485373069580853e-07,-4.280473406272926e-07,2.7403741182330037e-07,2.2538360222386625e-06,2.6101510558031897e-07,1.7281076510730802e-06
-5.752439858975087e-07,-9.65442501252368e-07,-5.128451716524417e-07,-7.207495134778907e-07,-1.8777329787002898e-07,1.941687077503651e-08,9.576244951944593e-07,8.520751015573657e-07,9.824905004352563e-07,-9.197148639973041e-07,-4.0621222840191636e-07,1.1923924059398916e-07,-3.4197427112503336e-07,-4.6473772192370786e-07,2.674388908267417e-07,2.4125627848922256e-06,2.314323981186723e-07,1.7807680544925405e-06
-5.783902215134519e-07,-9.475686425236309e-07,-5.253986311770196e-07,-7.644502828961547e-07,-1.8723018391689878e-07,2.957383016173401e-08,5.614237537589558e-07,8.433091157650486e-07,9.440883726580628e-07,-9.205218561716201e-07,-3.4926963674713304e-07,1.2641341072676397e-07,-2.782524727695594e-07,-5.013515931100713e-07,2.4397663776317856e-07,2.5610478639449485e-06,2.0000494809091072e-07,1.8216914410876557e-06
-5.814641376392478e-07,-8.558534856234831e-07,-5.631195952488161e-07,-7.789825088256185e-07,-1.9218494749687084e-07,4.962591911466495e-08,2.288764988199537e-07,9.514629222889256e-07,8.579267610090368e-07,-8.396770725813217e-07,-3.249580899079629e-07,9.561359205730744e-08,-2.591504166789663e-07,-5.379671871362801e-07,2.109904443771479e-07,2.6684694360418193e-06,1.737029230497924e-07,1.866422483575242e-06
-5.829263249962712e-07,-7.549298479801732e-07,-5.767366790504079e-07,-6.866139414983575e-07,-2.221850148390447e-07,6.527392372818671e-08,-1.3553080248707734e-09,9.973965796042199e-07,7.546265862397996e-07,-6.86730898109132e-07,-2.88056977918063e-07,4.8837763288209225e-08,-1.9702442104447632e-07,-5.730065618305019e-07,1.959547461375642e-07,2.730465098514702e-06,1.4622549363326077e-07,1.9459580258467998e-06
-5.703655032933686e-07,-6.673015681626264e-07,-5.305947372622794e-07,-5.394551725228847e-07,-2.916846104197864e-07,7.786655539821494e-08,-8.655933169995283e-08,1.0465061698328078e-06,7.031139602005801e-07,-5.888587319883105e-07,-2.111966578605392e-07,1.3602373774032625e-08,-1.1075611872910883e-07,-6.035362291854481e-07,2.2046340137562534e-07,2.817848190765829e-06,1.0672916793764554e-07,2.0540408939058977e-06
-5.513114311157976e-07,-6.613838430948457e-07,-4.847169291387546e-07,-4.568749801739037e-07,-4.0274065993730043e-07,9.907285998442374e-08,-2.7288498869308623e-08,1.1340403576668231e-06,7.714395567171487e-07,-5.400430988561792e-07,-1.3863998915662726e-07,-9.691447779865125e-09,-4.486403568642636e-09,-6.126775401816578e-07,2.9976913401410476e-07,2.9417278615252048e-06,6.949248180281353e-08,2.2479923547327317e-06
-5.447687739487399e-07,-5.368633771629966e-07,-4.3039204212300033e-07,-1.906593391514437e-07,-5.46398895411428e-07,1.4822928708647138e-07,1.6714548867061393e-07,1.2386917958546703e-06,8.651682927179965e-07,-5.586546233855282e-07,-1.219824409863055e-07,-2.495453015355592e-08,3.4325324451149516e-08,-6.620500138216e-07,3.700172055744002e-07,3.0550161779106224e-06,3.202652037854304e-08,2.3969517091269293e-06
-5.612753879359597e-07,-3.531292689676668e-07,-3.452094272105321e-07,7.506101179045798e-08,-6.918805111034335e-07,2.3427044748376855e-07,4.260218596274017e-07,1.3430483699857495e-06,9.524538862131118e-07,-6.112164158109084e-07,-1.558183466877669e-07,-1.7546277446646656e-08,7.516212219628093e-08,-7.147950145737312e-07,4.3090683688372027e-07,3.1563806140639223e-06,-2.1210452258928183e-08,2.4536353413388817e-06
-5.877939070834278e-07,-2.1600418260168472e-07,-2.883950270326886e-07,1.4030493807188633e-07,-7.964321784456407e-07,3.525635693314203e-07,7.097658555413638e-07,1.4951139469436596e-06,9.856678967432646e-07,-6.505202472903606e-07,-1.553465073486728e-07,1.4206600870776863e-08,1.329234006550036e-07,-7.35264189408394e-07,4.840111359916866e-07,3.2378300099562473e-06,-6.957660951659534e-08,2.463747802311475e-06
-6.224958603879483e-07,-1.2477844332143725e-07,-2.75520622495668e-07,2.036901241577856e-07,-8.234668373132259e-07,4.870115085019992e-07,1.0023209942458723e-06,1.6312860955082575e-06,9.589812665251304e-07,-6.775875817888758e-07,-1.6921433884752643e-07,3.3852279321858396e-08,1.7513292649841013e-07,-7.653167783066653e-07,5.395455506617893e-07,3.2746107918188215e-06,-1.1691369771758736e-07,2.4457040769136586e-06
-6.118013761135852e-07,-5.338835224913728e-08,-2.55659599637224e-07,2.4194832612184334e-07,-7.551486426814232e-07,6.106365542746667e-07,1.2721013427214828e-06,1.7091312022948867e-06,9.954685618030821e-07,-7.021715614327904e-07,-1.7811271544731596e-07,6.320430479507757e-08,1.5174805387240068e-07,-7.950393303609855e-07,6.157226809502785e-07,3.2610915018524527e-06,-1.6332086421736183e-07,2.4438052188807947e-06
-5.335492592613754e-07,-5.941150798290361e-08,-2.2953075315317632e-07,4.297224190392471e-07,-6.004734719679751e-07,6.992790895883692e-07,1.5550265845322006e-06,1.7817350447325786e-06,1.1404103392644156e-06,-7.475298305041832e-07,-2.087077328750495e-07,9.494587810026193e-08,6.947249447156401e-08,-8.18428069612238e-07,6.715615970535136e-07,3.207557061636393e-06,-1.988760143022137e-07,2.429924873797889e-06
-4.6328253170770664e-07,-1.0107416101380706e-07,-2.1307119783783268e-07,5.185122991383964e-07,-3.899859751743982e-07,7.391635080635263e-07,1.776583865336452e-06,1.8334025489128292e-06,1.1913544942818276e-06,-8.357544619126642e-07,-2.689647360155655e-07,1.0001124458821009e-07,-8.910272040818967e-09,-8.55925699043836e-07,6.607375032492495e-07,3.115993492637471e-06,-2.2125192056908875e-07,2.332922745059467e-06
-4.292264182382683e-07,-1.0556610925842902e-07,-2.3737641904485225e-07,5.34648781251381e-07,-1.6318261230828067e-07,7.319487144135054e-07,1.97592196302598e-06,1.844669642640516e-06,1.256309469183924e-06,-9.040017825307776e-07,-3.1241808093717135e-07,4.618708318803131e-08,1.4794926017099892e-08,-8.533114603529789e-07,6.749519802697176e-07,2.9951501144930806e-06,-2.590803322643764e-07,2.2408815482138076e-06
-4.0275372633753733e-07,-8.842867138891486e-08,-2.4219063989088026e-07,4.4475252227433343e-07,4.406458786879063e-08,6.945868876660791e-07,2.0341371958094866e-06,1.8700511069805867e-06,1.305868432878825e-06,-8.934959798884223e-07,-3.2527550845787136e-07,-4.204460813344068e-09,5.345434585931803e-08,-8.436582591704535e-07,6.799092345637175e-07,2.863724153614323e-06,-2.90848088852592e-07,2.1930190838784044e-06
-3.578415486375394e-07,-4.5679410334162174e-08,-1.945631335266557e-07,3.3427313407130993e-07,2.0852926264596098e-07,6.520860368787095e-07,2.173600967418634e-06,1.8840907734761653e-06,1.3672871335273558e-06,-9.00773561295194e-07,-3.555253232375673e-07,-4.56435522870495e-08,9.561817028425368e-08,-8.047546521243634e-07,6.602066031817976e-07,2.7243434973555303e-06,-3.092260622647048e-07,2.1260308615129027e-06
-3.0114852652767396e-07,3.419290170895795e-08,-1.3670648057595747e-07,2.2983902675539625e-07,3.213873689666041e-07,6.273979681982017e-07,2.2286304870184796e-06,1.8526680218522727e-06,1.4877268106593627e-06,-8.817237490602006e-07,-3.621540866713581e-07,-8.820983129326784e-08,1.3540859168070055e-07,-7.982367683208748e-07,6.445811229542165e-07,2.5874079909966244e-06,-2.9746799011408236e-07,2.119305880287938e-06
-2.183002208067466e-07,1.2383880799651313e-07,-8.298040832535004e-08,1.0215996120390394e-07,3.8295001308462957e-07,6.322826485252819e-07,2.156517835480943e-06,1.8260855415486526e-06,1.6023681828571826e-06,-8.458319324582046e-07,-3.835950664446359e-07,-1.1412120985808041e-07,2.02686136968004e-07,-8.005900063040879e-07,6.42634889137536e-07,2.444479901197839e-06,-2.8228258820915486e-07,2.1203829481576443e-06
-1.313567463321524e-07,2.163311773084307e-07,-2.8490265554330582e-08,1.6189884303941783e-08,3.975089848755981e-07,6.634033678208527e-07,2.092333510812098e-06,1.822940821998462e-06,1.709527587818187e-06,-7.998249862151156e-07,-3.6546971346544415e-07,-1.1745702060668754e-07,3.03473908108214e-07,-7.830706116283193e-07,6.77263336576536e-07,2.285890624387019e-06,-2.803291642085381e-07,2.1222218822405236e-06
-5.5397572898881224e-08,3.303774123090215e-07,2.3180696179393978e-08,3.712346002016789e-08,3.7434023868801105e-07,7.054620125363502e-07,2.16550283174443e-06,1.8413695514884513e-06,1.8338204423584018e-06,-7.467663678166845e-07,-2.815135545693475e-07,-1.3333080882627589e-07,4.531080170581026e-07,-7.713997234556622e-07,6.792590113771805e-07,2.116067936114327e-06,-2.7017151745931006e-07,2.1104945588562215e-06
-3.396475386650968e-09,4.570039370611885e-07,1.0341621716240135e-07,8.516386690162424e-08,3.314604437336188e-07,7.390334243300125e-07,2.089347371298421e-06,1.876333506743272e-06,1.9462904409947423e-06,-7.5240331424804e-07,-1.9616099463407397e-07,-1.5873733362609858e-07,5.616729452306937e-07,-7.82806911689428e-07,6.654873840567171e-07,1.9418567336452723e-06,-2.917945007640347e-07,2.062758225018667e-06
1.4048367248533816e-08,5.856424935496507e-07,2.107453010831042e-07,2.555407691584336e-07,2.929904312519336e-07,7.48325633711421e-07,2.0802771642655867e-06,1.9327418671511476e-06,1.9886661887444453e-06,-6.971962888934793e-07,-1.3752459572113693e-07,-2.057046984943158e-07,5.900422891590728e-07,-7.878649534066528e-07,6.245376553794354e-07,1.7486174258511195e-06,-3.114401988050214e-07,1.984334273874673e-06
-4.044546036069735e-09,6.986156261190377e-07,2.711228722910068e-07,4.004592882028354e-07,2.7758284102859113e-07,7.260493352849159e-07,2.327740187767354e-06,1.9983889994303256e-06,2.030131975440621e-06,-6.140624048075281e-07,-9.558365997743057e-08,-2.6514791387528215e-07,6.135418877945524e-07,-8.30761733749762e-07,5.700987198919978e-07,1.6014037588716485e-06,-3.2816954291986723e-07,1.8718418822781556e-06
-5.1856265150877896e-08,7.695047221022436e-07,3.0157980235195257e-07,4.869899047421179e-07,2.871665446726276e-07,6.754284256013424e-07,2.3554150267992523e-06,2.03266416379054e-06,2.0899123665756926e-06,-5.337941691289002e-07,-9.124865647743139e-08,-3.337828958442878e-07,6.385304818280203e-07,-8.881473987130384e-07,5.247145126611994e-07,1.5034820442384599e-06,-3.482696101365093e-07,1.7656390633557877e-06
-4.7691927361211563e-08,7.334898384567672e-07,3.348046287056863e-07,4.654094039726179e-07,3.07038157215223e-07,6.09100477275658e-07,2.2320198254553363e-06,2.040503949391702e-06,2.118553803153101e-06,-4.7094253041072376e-07,-1.2454391129124627e-07,-3.989487341619398e-07,6.693844888431819e-07,-9.334142061311534e-07,4.931369004941254e-07,1.4253573739373688e-06,-3.7586643892406576e-07,1.6740113652401277e-06
-1.5696666691412445e-09,6.284293674479975e-07,3.7183589936624246e-07,3.8231987440602785e-07,3.175121567516397e-07,5.446812957886128e-07,2.283491115937604e-06,2.0328099511586167e-06,2.165697253137629e-06,-4.770926837033355e-07,-1.5142210105491162e-07,-4.2638697485367006e-07,6.764278912222888e-07,-9.281687909937098e-07,4.6524147161824225e-07,1.378642810860995e-06,-4.0226759144197397e-07,1.5827400600830386e-06
4.009242451859152e-08,6.750676734713852e-07,4.18350358600966e-07,2.590798807160891e-07,3.06446963116006e-07,4.978635502272756e-07,2.3340649631740368e-06,1.9629493334028023e-06,2.199087496488187e-06,-4.598815668798503e-07,-1.7727324811268987e-07,-4.7268184052755554e-07,6.567839157993325e-07,-9.366744582900406e-07,4.168301007795841e-07,1.3171410079287452e-06,-4.219132755658716e-07,1.489061428700009e-06
9.092756783729535e-08,7.939285147085395e-07,4.62364562824415e-07,2.0962371175583803e-07,2.7303606761961825e-07,4.767053071622112e-07,2.2958048036573737e-06,1.8697251072407803e-06,2.2094341276901906e-06,-3.9597838801475807e-07,-2.3539539901099805e-07,-5.343601581124707e-07,5.653520574562147e-07,-9.436839629685716e-07,3.933377502196857e-07,1.2058103772300861e-06,-4.3304132440953006e-07,1.382893991854722e-06
8.306696846715352e-08,8.28293340802948e-07,4.811442761555874e-07,1.1347049132773685e-07,2.2311319732625284e-07,4.794130953980483e-07,2.3222720024945237e-06,1.8029361771894169e-06,2.2277522245083125e-06,-4.324211236556442e-07,-2.999475915846609e-07,-6.013382909310154e-07,4.622557443549114e-07,-9.183957779051007e-07,3.9172403151744187e-07,1.013032394138338e-06,-4.323237178206352e-07,1.2402850526979304e-06
4.025252031288581e-08,7.816904114588482e-07,4.3323011808634164e-07,-9.116072992266711e-08,1.632878652442454e-07,4.959214686091271e-07,2.2749629914648495e-06,1.7681563284169874e-06,2.2299629853091367e-06,-4.902619268285091e-07,-3.7617482644751604e-07,-6.342209461085771e-07,3.62518973848246e-07,-8.657831320771657e-07,3.787989757067206e-07,8.585986222976696e-07,-4.288604313435772e-07,1.0588308390235472e-06
5.73078944637857e-09,6.870710597972284e-07,3.835827032153432e-07,-3.223004972397792e-07,9.880796264480451e-08,5.123458352564674e-07,2.1823359763185398e-06,1.7640222861420016e-06,2.2630878512090846e-06,-5.366591391930177e-07,-4.500247405094828e-07,-6.558353836354664e-07,2.6847352271829907e-07,-8.298194786058431e-07,3.3557292641101946e-07,7.123456046308629e-07,-4.267812971972848e-07,9.413174186722733e-07
-4.827852885467664e-08,5.892169561703638e-07,3.4835070930470634e-07,-5.321009628687062e-07,3.297078254050892e-08,5.143237292653951e-07,2.1090541318651167e-06,1.7556695127648372e-06,2.3174930976615244e-06,-5.78131922558337e-07,-4.823476608578369e-07,-6.803846946366548e-07,2.2570809144034166e-07,-8.082425048255938e-07,2.9300376841363144e-07,5.359835110843165e-07,-4.2727439254633894e-07,8.757762282376905e-07
-8.782095518024911e-08,4.7108460765732657e-07,3.2040539670256615e-07,-7.11684691577764e-07,-3.504197695938689e-08,4.910231331025615e-07,2.0393618925283353e-06,1.7521325924435767e-06,2.3555904353568542e-06,-5.70503938833344e-07,-4.851211507028074e-07,-7.019087301581693e-07,2.2026560470941062e-07,-8.006946200531079e-07,2.565057977261832e-07,3.482112632336638e-07,-4.295800350203619e-07,8.270302942272959e-07
-1.0886966270325018e-07,3.904138129004725e-07,3.2351927050835664e-07,-7.965344546198233e-07,-1.0807042691963113e-07,4.3706118315174127e-07,2.0063740982236885e-06,1.7482225697811891e-06,2.346251570308407e-06,-5.469129099723846e-07,-4.658612127427189e-07,-7.320281164947589e-07,2.3535150824290853e-07,-8.106964148202954e-07,2.011608221933277e-07,1.7220451618156415e-07,-4.352358728728497e-07,7.282700396822078e-07
-1.2210143408810416e-07,3.5960599857048544e-07,3.419665981452947e-07,-7.884985161000004e-07,-1.8878403109229693e-07,3.520945883715406e-07,2.004828768722058e-06,1.7313552735537746e-06,2.3089058789351083e-06,-5.161976970433298e-07,-4.342485551242128e-07,-7.692203009611322e-07,2.644017230560323e-07,-8.358231892588949e-07,1.2933254294959523e-07,-3.52886344151018e-08,-4.4483359215753145e-07,5.053107106861608e-07
-1.3214589104447852e-07,3.4707823666341935e-07,3.6001850323924836e-07,-7.088461769665886e-07,-2.7443303715831364e-07,2.399549894015664e-07,2.025130112925549e-06,1.729586135013506e-06,2.2508252642575453e-06,-4.80403817477337e-07,-4.0964483495650287e-07,-8.095678219357005e-07,2.911222820833826e-07,-8.73415301316891e-07,5.3594895897094475e-08,-2.3955533539755457e-07,-4.5773872009424325e-07,2.7690108026966157e-07
-1.4839545023931303e-07,3.45005870195258e-07,3.7297448575020025e-07,-5.876506353947139e-07,-3.5642781056618744e-07,1.0770024554208695e-07,2.016464867551757e-06,1.733577062993223e-06,2.209844455791591e-06,-4.5952473255911135e-07,-3.970878389233679e-07,-8.551570746591242e-07,3.1234878453342715e-07,-9.169889450794618e-07,-1.1232916200176257e-08,-3.841165906773315e-07,-4.7363497980850914e-07,1.1663509863263834e-07
-1.7556282668418565e-07,3.29179473781847e-07,3.859776096703436e-07,-4.758729746199111e-07,-4.2618007288695707e-07,-3.442636428059162e-08,1.918383205551243e-06,1.6711367177219997e-06,2.1578531052036595e-06,-4.429073189101643e-07,-3.9731568622268584e-07,-8.909080048763653e-07,3.274207556657327e-07,-9.590466205504452e-07,-6.636913943785578e-08,-5.659703365045827e-07,-4.89961119980013e-07,-5.2447307270897966e-08
-2.2120988155348354e-07,3.0956470436743277e-07,3.9293497023763757e-07,-4.0591678546026014e-07,-4.805326487137796e-07,-1.7303665893708342e-07,1.7700959059992548e-06,1.5911301672241492e-06,2.0904512389703445e-06,-4.271454289355939e-07,-4.085702845116034e-07,-9.224752842839027e-07,3.3483895388188297e-07,-9.923612227336722e-07,-1.081499440686332e-07,-7.1003678040946e-07,-5.046832129586409e-07,-1.8203378070920507e-07
-2.6613772055597603e-07,2.696273188306735e-07,3.8932304763217397e-07,-3.9409261765591163e-07,-5.238096917018456e-07,-2.932771960206111e-07,1.5973592941928536e-06,1.5026283520208598e-06,2.0245650242463064e-06,-4.11282439575992e-07,-4.2537369266269486e-07,-9.497191621711975e-07,3.3536360970166994e-07,-1.011595542260512e-06,-1.321373288252314e-07,-8.381025010918391e-07,-5.161649119735911e-07,-3.4285367145241205e-07
-3.109558427636433e-07,1.992870746948951e-07,3.751252147680672e-07,-4.4638074142267716e-07,-5.638786540304431e-07,-3.820370807250985e-07,1.397276095600632e-06,1.409069092676442e-06,1.96940887096534e-06,-3.922125435946761e-07,-4.4150942388956455e-07,-9.719875065708644e-07,3.3087211585759507e-07,-1.0151835368806932e-06,-1.3894392133412547e-07,-9.384085960524722e-07,-5.248652670588952e-07,-5.023311581958903e-07
-3.649719892423733e-07,1.0774462836550895e-07,3.5038931700635276e-07,-5.548712713195825e-07,-6.053774782540051e-07,-4.331222390110078e-07,1.1465888516666847e-06,1.364299224106976e-06,1.9484617253969607e-06,-3.704973138983928e-07,-4.5179388897139064e-07,-9.931773137043429e-07,3.241482107910238e-07,-1.0054945168433468e-06,-1.3011030816743766e-07,-1.0596666480462126e-06,-5.321037457691093e-07,-6.551068413593944e-07
-4.2155601533099715e-07,-1.1079789837875932e-10,3.1688795552572976e-07,-6.978619739010258e-07,-6.435963048543854e-07,-4.49180159400448e-07,8.613033774894861e-07,1.3392009606153249e-06,1.9494307751706346e-06,-3.467818065096024e-07,-4.5288210587633756e-07,-1.0111387383544774e-06,3.188254891009014e-07,-9.876749974081836e-07,-1.0983340942910553e-07,-1.299865809981694e-06,-5.388189453231325e-07,-7.64565798457303e-07
-4.7590454747029836e-07,-1.0237874229908393e-07,2.8366087009173136e-07,-8.395922997645708e-07,-6.658938981021499e-07,-4.3984825587463816e-07,5.616324014931984e-07,1.3115085797130005e-06,1.965921157452084e-06,-3.216195438294152e-07,-4.4368874167361397e-07,-1.0247219090061781e-06,3.1863968933460563e-07,-9.679734348351828e-07,-8.2637407508824e-08,-1.475127383030141e-06,-5.454565164487544e-07,-8.448666016779923e-07
-5.25580309679109e-07,-1.908038443993023e-07,2.625803234681155e-07,-9.462911484314711e-07,-6.596195676303733e-07,-4.186220715268186e-07,2.9507309341224056e-07,1.2552405822136258e-06,1.9732322966387194e-06,-2.958852238662079e-07,-4.2582668251304905e-07,-1.0314950706960257e-06,3.2598651463186125e-07,-9.522808129268963e-07,-5.259075417590393e-08,-1.6618194633005426e-06,-5.518650220483735e-07,-9.08046916606606e-07
-5.632584559986273e-07,-2.496729230826811e-07,2.5264623989287166e-07,-9.937636728281255e-07,-6.199022242847906e-07,-3.9944123447278114e-07,1.402118695682084e-07,1.2257592909083765e-06,1.997740055731044e-06,-2.7145578784844854e-07,-4.037202561161766e-07,-1.0316772023462797e-06,3.406146797925317e-07,-9.448623326253804e-07,-2.3636873396303837e-08,-1.8369835339285027e-06,-5.579902824051416e-07,-9.514856674577615e-07
-5.866491893094502e-07,-2.8394292227698893e-07,2.566083911933031e-07,-9.90374237181955e-07,-5.517154486318617e-07,-3.938561587879641e-07,6.740389324791529e-08,1.212617321221306e-06,2.0017579237950793e-06,-2.514990570110145e-07,-3.8366284237298325e-07,-1.0265256459675577e-06,3.5942811766326214e-07,-9.469278593747186e-07,7.423558972934984e-10,-1.975909483009086e-06,-5.640023914975938e-07,-1.012235038955435e-06
-6.056113547297931e-07,-3.0077372523323997e-07,2.70569443277293e-07,-9.485409669837097e-07,-4.649754219322962e-07,-4.0814927560895213e-07,6.884669884823724e-08,1.2060789229041689e-06,1.982511170116225e-06,-2.390517519858663e-07,-3.715148049828005e-07,-1.0197199640099035e-06,3.7770605188209353e-07,-9.554488087525695e-07,1.8272850299408246e-08,-2.1267664800278666e-06,-5.697240423621243e-07,-1.085823252325434e-06
-6.229935068154938e-07,-2.9529444945154314e-07,2.853053945400747e-07,-8.870390291491345e-07,-3.6838916853922703e-07,-4.427096810665104e-07,1.5635428092096316e-07,1.212411897343453e-06,1.9627118051219687e-06,-2.349700061296653e-07,-3.699340930180758e-07,-1.0209285842371313e-06,3.9108639518399995e-07,-9.634992254613477e-07,2.8624050890466906e-08,-2.2098285364292777e-06,-5.735513095708957e-07,-1.1705909048188377e-06
-6.423907777873205e-07,-2.852063040999267e-07,2.971257230619393e-07,-8.269271233154557e-07,-2.6924029935647945e-07,-4.929506064505746e-07,2.8530007137518047e-07,1.2258485829491907e-06,1.9297858225416684e-06,-2.3722263329828474e-07,-3.7691554107578286e-07,-1.0259594699904075e-06,3.970936367476528e-07,-9.628895857539736e-07,3.2253017554886254e-08,-2.2940830778190115e-06,-5.733705457722428e-07,-1.2333260999517885e-06
-6.618117877942493e-07,-2.8005233117961287e-07,3.054097732703066e-07,-7.898537481795055e-07,-1.7644393470492288e-07,-5.509052129834453e-07,4.2928107238372674e-07,1.243447632513372e-06,1.8965835465178196e-06,-2.422794617429519e-07,-3.8677154017609205e-07,-1.0298829465956732e-06,3.953034263385688e-07,-9.480849466689226e-07,3.081713633218253e-08,-2.372277499500986e-06,-5.680540976755167e-07,-1.2773359714233197e-06
-6.721610819832116e-07,-2.830499124261245e-07,3.109144040077913e-07,-7.686563667235141e-07,-1.0146299603494649e-07,-6.065609628530033e-07,5.505277918469846e-07,1.2704993543418362e-06,1.882851940020962e-06,-2.473253486156991e-07,-3.930360272891284e-07,-1.0322234067931325e-06,3.86193632991803e-07,-9.190411333446547e-07,2.459002503059812e-08,-2.424935070580081e-06,-5.600933182755566e-07,-1.3102440930471852e-06
-6.749654992128267e-07,-2.9415974095294154e-07,3.1497154359769456e-07,-7.461254972881044e-07,-5.358620051392112e-08,-6.493596176186417e-07,5.923366058657518e-07,1.284838175921556e-06,1.91290188211444e-06,-2.513080852430033e-07,-3.9152788659638575e-07,-1.0320681954397968e-06,3.696329842449525e-07,-8.811113286598411e-07,1.1670416549034883e-08,-2.4714165145884966e-06,-5.536542572139842e-07,-1.3564576959588337e-06
-6.720830276654676e-07,-3.094278678975576e-07,3.1899785230606956e-07,-7.041373706392083e-07,-3.5256647133499353e-08,-6.717112173327092e-07,5.329560917373065e-07,1.2639393912123441e-06,1.9357192241122545e-06,-2.541586673726511e-07,-3.8180457079342905e-07,-1.0331822824676323e-06,3.440996650098997e-07,-8.42303313365946e-07,4.068430631351722e-09,-2.460121907484293e-06,-5.526794225028563e-07,-1.400549769381391e-06
-6.6449722173752e-07,-3.218075980134376e-07,3.2247963761580536e-07,-6.179375329519934e-07,-4.326398548541688e-08,-6.730412719931883e-07,3.697786702589838e-07,1.1933299036713768e-06,1.949948206861084e-06,-2.554418999742577e-07,-3.6652253050153027e-07,-1.0291798521682466e-06,3.072309304650131e-07,-8.107125405622074e-07,-1.2813056057032265e-08,-2.4040023062661486e-06,-5.58984489946631e-07,-1.4055767547637432e-06
-6.536522740294076e-07,-3.2384479083820774e-07,3.254003671379469e-07,-4.826867060895873e-07,-7.232977104652379e-08,-6.607851025404279e-07,1.1037912111209555e-07,1.1176775818035897e-06,1.912806310049004e-06,-2.5418940335687333e-07,-3.49577493186651e-07,-1.0179533604258207e-06,2.5751827701611146e-07,-7.913026064184672e-07,-5.6934179930845004e-08,-2.301817469556141e-06,-5.709703762199107e-07,-1.398982756345903e-06
-6.387667841414381e-07,-3.1493481145064404e-07,3.283515096070972e-07,-3.052574327866665e-07,-1.1577274123724522e-07,-6.488882369656871e-07,-2.2058390969603882e-07,1.0454773579003193e-06,1.7612664660115202e-06,-2.5032587719121453e-07,-3.342564115042135e-07,-9.987540517972896e-07,1.9609164370789334e-07,-7.866686160020605e-07,-1.0642596365508354e-07,-2.1957057885272325e-06,-5.857022364759825e-07,-1.3645508379639293e-06
-6.206388806724326e-07,-2.9486540815492594e-07,3.3278894965194093e-07,-1.0240394792578508e-07,-1.6277945355468528e-07,-6.458346877648805e-07,-5.584742202625073e-07,9.574172899631043e-07,1.6982273725993794e-06,-2.4629101500687134e-07,-3.2214039050057925e-07,-9.724502190854029e-07,1.27298019213889e-07,-7.977776187053185e-07,-1.4049209923398332e-07,-2.084970150666409e-06,-6.000912902070156e-07,-1.2788960217078451e-06
-6.054877411334897e-07,-2.6598926655502744e-07,3.3831357254859815e-07,8.698085198364776e-08,-1.9829409213718078e-07,-6.583509958036432e-07,-8.583681318555173e-07,8.603208040166496e-07,1.6169204045173828e-06,-2.467777184625958e-07,-3.129348810478719e-07,-9.449850678231943e-07,5.7742189623358835e-08,-8.233300362817891e-07,-1.6137646525593357e-07,-1.9413285090131387e-06,-6.151169094489452e-07,-1.1724039571002021e-06
-6.01823529560922e-07,-2.3787916114152595e-07,3.429088488132207e-07,2.3440621288829887e-07,-2.101987659267585e-07,-6.887783869371174e-07,-1.106060354647421e-06,7.399016030197703e-07,1.4518170455786731e-06,-2.56073162208069e-07,-3.049890396996842e-07,-9.187627775818937e-07,-5.274496094793149e-09,-8.590914391381726e-07,-1.823915769392437e-07,-1.7947531566701774e-06,-6.280363489864189e-07,-1.0600632003871793e-06
-6.095439385152405e-07,-2.1279098929349758e-07,3.445241191686215e-07,3.2228922548383015e-07,-2.0028692747457766e-07,-7.285010377950855e-07,-1.2528999896616365e-06,6.500648856800903e-07,1.2955992700235315e-06,-2.7509833426595735e-07,-2.9609396210667636e-07,-8.925091447608699e-07,-5.499641092272948e-08,-8.989184861853496e-07,-1.991239974072205e-07,-1.6557408678222962e-06,-6.38366759109901e-07,-9.481225157377584e-07
-6.262086378901031e-07,-1.9195832324669664e-07,3.455850707729682e-07,3.3908664315732827e-07,-1.8725099637483802e-07,-7.662216649935882e-07,-1.2754278404768786e-06,5.997236698642664e-07,1.191240091499873e-06,-3.008655153660507e-07,-2.8440262572605936e-07,-8.641059394942047e-07,-8.622834420641491e-08,-9.353275034490928e-07,-2.07651193094367e-07,-1.5494624545687774e-06,-6.428392825440713e-07,-8.576446965739821e-07
-6.449811067650307e-07,-1.691759845527869e-07,3.49385114783296e-07,3.240411224586047e-07,-1.9626595149123117e-07,-7.961411066772962e-07,-1.2685129936947555e-06,5.613715980139796e-07,1.0701939831828831e-06,-3.2885765933906334e-07,-2.694609031944945e-07,-8.316193052840757e-07,-9.651034833113279e-08,-9.61764714302624e-07,-2.0778761580838126e-07,-1.469085472399374e-06,-6.378280530149418e-07,-7.897655081891601e-07
-6.542851510517445e-07,-1.300062857082701e-07,3.578774602411729e-07,2.9727641057636127e-07,-2.449211165787411e-07,-8.140987423879743e-07,-1.3548841821909616e-06,4.886185446673705e-07,1.0126498707107141e-06,-3.56028659827447e-07,-2.528795623670177e-07,-7.958566762418584e-07,-8.703337184390158e-08,-9.755538330223781e-07,-1.998827789080065e-07,-1.407533601959636e-06,-6.243337675584495e-07,-7.262274912556233e-07
-6.473929965820201e-07,-6.758143466158709e-08,3.709746328781599e-07,2.7426723434266745e-07,-3.3151341238600856e-07,-8.251287284330128e-07,-1.6735806843111855e-06,4.3709480629050024e-07,9.522716949489623e-07,-3.8159086390234856e-07,-2.3788398293933318e-07,-7.553505094065168e-07,-6.234111350075185e-08,-9.775780697210467e-07,-1.8648542174720396e-07,-1.3576343982123386e-06,-6.036920164629345e-07,-6.623019883266824e-07
-6.215876320033109e-07,2.2861078013293415e-08,3.855402560521312e-07,2.712372419316495e-07,-4.5332203189519947e-07,-8.382189480055306e-07,-1.7659351433707533e-06,4.387959915617208e-07,8.994143126710977e-07,-4.0524382770561974e-07,-2.2772348608020213e-07,-7.166812291419526e-07,-2.8574590750629796e-08,-9.695899912113936e-07,-1.7064701443070511e-07,-1.3132261353713208e-06,-5.803719600296936e-07,-6.092662026905972e-07
-5.796279236506737e-07,1.3769076406088502e-07,3.994309252077914e-07,2.9840673984953896e-07,-5.919140924828768e-07,-8.610389862474732e-07,-1.7165366383316273e-06,4.6291612282196213e-07,8.191928379738527e-07,-4.2523225815962494e-07,-2.2395826011024779e-07,-6.831368476901064e-07,8.815387060230558e-09,-9.54705958303228e-07,-1.5488838426790376e-07,-1.2622349205515843e-06,-5.590113479765494e-07,-5.593778640051934e-07
-5.285155832376143e-07,2.666910468892669e-07,4.1069564942569916e-07,3.4302229864543146e-07,-7.231499661276295e-07,-8.97578956634027e-07,-1.6438241900534007e-06,4.968511384121985e-07,7.286741412942844e-07,-4.3846221106236227e-07,-2.2570963342861717e-07,-6.526322471287512e-07,4.648696083156427e-08,-9.374777863654256e-07,-1.40444719572552e-07,-1.2061405044297696e-06,-5.352961932945003e-07,-5.163845475530327e-07
-4.759702464103258e-07,3.9419743605395154e-07,4.2010595608839653e-07,3.9532583433096924e-07,-8.287852374218774e-07,-9.478420106065905e-07,-1.4105762788600851e-06,5.328567878541231e-07,6.538832212541874e-07,-4.4251659218026147e-07,-2.301790338449976e-07,-6.239812029986836e-07,8.301207577522293e-08,-9.197165410767831e-07,-1.2762368113093254e-07,-1.1483826208222832e-06,-5.101071062052889e-07,-4.594982066699921e-07
-4.2816726290175977e-07,5.085036541752557e-07,4.267825770014559e-07,4.520197683557312e-07,-8.953684797993628e-07,-1.009599578926479e-06,-1.1222702534468955e-06,5.721583866135822e-07,6.122239645058074e-07,-4.3879009866878133e-07,-2.338567185198223e-07,-5.960093498556623e-07,1.1758040339585668e-07,-9.045050677522352e-07,-1.1710480203085471e-07,-1.083578181316152e-06,-4.865609856321062e-07,-4.0106727540600136e-07
-3.9120110292789885e-07,5.999558669741677e-07,4.2862502230758825e-07,5.062155234392019e-07,-9.223753373827853e-07,-1.0785063887795952e-06,-8.435775769340351e-07,5.974053680287649e-07,6.080654273998341e-07,-4.2636219196643894e-07,-2.333897471113015e-07,-5.745620847927075e-07,1.4895465585190425e-07,-8.894909862208906e-07,-1.097988690580751e-07,-1.0219086072261278e-06,-4.6646584286370073e-07,-3.705638534053425e-07
-3.699094976888043e-07,6.618337206936234e-07,4.247503988856669e-07,5.637758354365777e-07,-9.1705984739944e-07,-1.1431817977050872e-06,-5.839372007088303e-07,6.110048208137817e-07,6.443456351033205e-07,-4.0856962097487553e-07,-2.2563413789544815e-07,-5.608604874566647e-07,1.7560716975975454e-07,-8.774112201972641e-07,-1.0679162581772963e-07,-9.64067084855726e-07,-4.5363057672693685e-07,-3.3758048593871007e-07
-3.646934997662006e-07,6.95487663364066e-07,4.169998461344813e-07,6.011007567693392e-07,-8.908931369116341e-07,-1.1965752513459249e-06,-3.961588556746789e-07,6.235654652076859e-07,7.043044329776486e-07,-3.8509307143326263e-07,-2.076575803868208e-07,-5.552375883395494e-07,1.9674553856825527e-07,-8.688402147077092e-07,-1.0817794720993392e-07,-9.072467239417265e-07,-4.5171140837133727e-07,-3.1177009723446505e-07
-3.6881900610428075e-07,7.135683548338879e-07,3.9902059120796343e-07,6.122121369828775e-07,-8.496939998927817e-07,-1.2419473268539622e-06,-2.926694170854154e-07,6.281892145770456e-07,7.668705410749215e-07,-3.5227468853270466e-07,-1.7764418740216837e-07,-5.566914671930763e-07,2.1323554596347442e-07,-8.631068420336368e-07,-1.1332694498496211e-07,-8.539109664843304e-07,-4.5256959159690447e-07,-3.1096075628538913e-07
-3.7581951416759433e-07,6.996009244214024e-07,3.75013214039775e-07,6.294143729609964e-07,-7.982190123855075e-07,-1.2766879901127848e-06,-3.1384162199751313e-07,6.258274547126369e-07,8.212129745934524e-07,-3.0881860121011144e-07,-1.3635568367848202e-07,-5.61901989040475e-07,2.2768339054498815e-07,-8.579442163002587e-07,-1.225595078267174e-07,-8.303490731559114e-07,-4.324970587024076e-07,-3.095940424601233e-07
-3.790693676087463e-07,6.651433592017494e-07,3.475621146242705e-07,6.458369080848223e-07,-7.428580942963293e-07,-1.2841295003574193e-06,-4.200912350705149e-07,6.381226533997015e-07,8.555906914620142e-07,-2.535643068681981e-07,-8.79975042701047e-08,-5.724518467543765e-07,2.4346254012346144e-07,-8.439436677754741e-07,-1.361725346842281e-07,-8.238746440407622e-07,-3.9502379697920456e-07,-2.6877983832169295e-07
-3.860324613150308e-07,6.255922129747022e-07,3.231266329471104e-07,6.581886520260172e-07,-6.863514752902148e-07,-1.2766733127028886e-06,-5.320545000123803e-07,6.478101830122891e-07,8.694622221996364e-07,-1.9036176365185152e-07,-4.129116767842746e-08,-5.889084608914575e-07,2.603678934146105e-07,-8.176151143828977e-07,-1.519247611920354e-07,-8.202037843121504e-07,-3.399157886472028e-07,-1.8535907072018841e-07
-3.90551703303749e-07,5.846602777399342e-07,3.007172349388095e-07,6.735664998190838e-07,-6.28308880503915e-07,-1.2656420042118628e-06,-5.91931958293029e-07,6.482581414782231e-07,8.655633194734362e-07,-1.1362624836346712e-07,-3.558402261022004e-09,-6.029670925575506e-07,2.77162243518225e-07,-7.604606159181968e-07,-1.704093156205705e-07,-8.122801449294785e-07,-2.8289487665522474e-07,-4.934274103064526e-08
-3.7240204307747464e-07,5.648946857586852e-07,2.754983301031293e-07,6.806486193667715e-07,-5.626466750737962e-07,-1.2459543399730082e-06,-6.017907925031481e-07,6.440025688424782e-07,8.456579903900071e-07,-5.780768084735171e-08,1.9121521773290246e-08,-6.178414414296565e-07,2.889781600255146e-07,-6.806221784755397e-07,-1.8540992710634527e-07,-7.276853845568913e-07,-2.3716897689817798e-07,7.90660864380194e-08
-3.363545812852053e-07,5.53852878444576e-07,2.4818060047981616e-07,6.219087361964059e-07,-4.810664458174752e-07,-1.2245127543873638e-06,-5.885620847984341e-07,6.27165907404992e-07,8.08401216587879e-07,-2.9025022410796776e-08,2.034813657777373e-09,-6.101743575602023e-07,2.829609104013209e-07,-6.298431592687649e-07,-1.5990203252300786e-07,-6.058598219356646e-07,-1.919682655703228e-07,1.4430816293377018e-07
-2.898190184564624e-07,5.334511879629969e-07,2.1403109193448106e-07,5.846351187902649e-07,-3.916101128164944e-07,-1.188927734562307e-06,-6.185620259273419e-07,6.021113439640106e-07,7.671962088313335e-07,-4.2016338977875773e-08,-4.2097276433219837e-08,-5.800362888020998e-07,2.474440089720889e-07,-5.856730722193346e-07,-1.2948486556676646e-07,-5.019406043897632e-07,-1.65076368084565e-07,2.209039816527775e-07
-2.6513898272094295e-07,4.752065623944281e-07,1.8596644989983084e-07,5.527132054734743e-07,-2.880837705361916e-07,-1.1311145968535918e-06,-7.348519165620248e-07,5.957448112607308e-07,7.593812415450975e-07,-7.401456999940064e-08,-8.369451576300136e-08,-5.688048493816956e-07,1.7489257544842194e-07,-5.449904015844725e-07,-1.1202163517187983e-07,-4.115660822827917e-07,-1.0872964830864334e-07,3.7471875270110445e-07
-3.111272018102946e-07,4.091820125078056e-07,1.528936978540736e-07,4.836099661537208e-07,-1.8761970385648294e-07,-1.0461838327524935e-06,-8.653404424449309e-07,6.186307650912611e-07,7.708524499982514e-07,-8.011070319863971e-08,-1.573995280004711e-07,-5.73129921897935e-07,7.094354089943114e-08,-5.106870668095196e-07,-4.7939352571246176e-08,-2.266291801377363e-07,-4.896379668337952e-08,4.917394890089185e-07
-3.996545372225532e-07,3.162905813356261e-07,1.1632314395829539e-07,5.053677259553441e-07,-1.0946838694117297e-07,-9.682823345374598e-07,-9.489883039745897e-07,6.615621507612428e-07,8.721615604828306e-07,-1.406010599253266e-07,-2.4806305623866835e-07,-5.476187511724431e-07,-4.605088391347894e-08,-4.370948397027567e-07,2.9746056116791297e-08,-3.878874305773216e-08,-3.536429328798402e-09,5.390383697599821e-07
-4.729499333889224e-07,2.0920662982565172e-07,5.429008636338566e-08,4.840409720972335e-07,-5.945366021270541e-08,-8.914576780830498e-07,-9.929567879385637e-07,7.519719526882749e-07,9.21231297539285e-07,-2.2405849778561198e-07,-2.8535534304671556e-07,-5.206614995152912e-07,-1.321278020886606e-07,-3.68546613867225e-07,6.931442793257083e-08,3.446991703030862e-08,3.880883939608041e-08,5.385727162417434e-07
-4.924731451279992e-07,9.634529115770282e-08,-2.822417760047764e-08,4.196609236656304e-07,-3.678464054480851e-08,-8.043793395777039e-07,-9.252911364293634e-07,7.969526713824573e-07,8.883295482547473e-07,-2.728686139300512e-07,-2.4342490496150976e-07,-5.090822645977258e-07,-1.4938052994366389e-07,-3.323062660126125e-07,8.446980450078734e-08,1.299285879094587e-08,7.92765691634879e-08,4.95973604838592e-07
-5.122262087291902e-07,-5.946030923661483e-08,-9.825394239993733e-08,3.067581484864268e-07,-2.571366376116576e-08,-6.994543966789567e-07,-8.645325571362351e-07,8.172919228213673e-07,8.991599209163155e-07,-2.6236378417506926e-07,-2.1059271648925313e-07,-5.117504358708778e-07,-9.024867945668383e-08,-3.089150638380542e-07,7.385556115876615e-08,-3.144932219851446e-08,1.0804070702571545e-07,4.713320940267238e-07
-5.836022033260562e-07,-2.0697231157569814e-07,-1.543224717855294e-07,1.198816992545657e-07,-2.057751257400018e-08,-5.895431652091731e-07,-8.252779118066197e-07,8.380877656538726e-07,9.752441057766316e-07,-2.911382002449022e-07,-1.954693256512176e-07,-5.042894249119214e-07,-2.8148648662143962e-08,-2.8556183577945085e-07,7.131125733820382e-08,-6.561696801909762e-08,1.3444171947206493e-07,4.308631259598654e-07
-6.607122429088073e-07,-3.190897619538879e-07,-1.7754918681181529e-07,-3.916615725119776e-08,-4.0867956608152945e-09,-4.807628519993913e-07,-7.731641576754602e-07,8.340335857834812e-07,9.743636993856934e-07,-3.0342434271105136e-07,-1.965954077164919e-07,-4.934128322111188e-07,-2.190858354191205e-09,-2.7291924022132185e-07,8.157504169182991e-08,-1.1682064984061194e-07,1.6852390304561333e-07,3.7250946604679684e-07
-7.138422624734489e-07,-3.568046737130524e-07,-1.5902389413601297e-07,-7.548346706279136e-08,2.9222331619849e-08,-3.539931423949049e-07,-7.441267614252012e-07,8.296384521062503e-07,1.0185428656196025e-06,-2.067693218909008e-07,-1.6959743493415653e-07,-4.866335552619347e-07,5.784657370599635e-08,-2.3543748621293123e-07,3.331351585658305e-08,-1.7287843859695938e-07,1.839589309751315e-07,2.784600166954014e-07
-7.005166815899171e-07,-2.993088832410579e-07,-1.6286508221164482e-07,3.050901538217954e-08,7.274658213138768e-08,-2.2261634422294436e-07,-5.824521682733653e-07,8.793835192313874e-07,1.0817976007582484e-06,-1.0173126828477615e-07,-1.0044465073195571e-07,-5.264353787544772e-07,1.8300726260437915e-07,-1.9949409868130284e-07,-1.1416412952018552e-08,-2.8409925190440555e-07,2.0219136297978795e-07,1.676280877119599e-07
-6.73090950620829e-07,-2.6029191100602416e-07,-1.7506281066296404e-07,9.474876883665558e-09,1.0947897271967157e-07,-1.0745981798284517e-07,-3.936326665617408e-07,9.228427993625117e-07,1.1423413681658766e-06,-5.056678047516518e-08,-2.4063399801672017e-08,-5.577192687709597e-07,3.139828716817221e-07,-1.9847516760436654e-07,-2.2284167355609577e-08,-3.777463339583183e-07,2.1264346084053349e-07,1.006271892714444e-07
-6.681432344811113e-07,-2.5980161275031625e-07,-1.8546660768283652e-07,-4.052383967609658e-08,1.2556151382388714e-07,-6.032692569488465e-08,-4.0273094612810415e-07,9.570932187207351e-07,1.2455518412427049e-06,-1.9195243298903066e-08,2.9553294846782604e-08,-5.554887030592696e-07,3.7925640687616877e-07,-2.2777653113562856e-07,-2.5115246930834922e-08,-3.959497437466945e-07,2.2205273466525345e-07,1.1219875977031972e-07
-6.485879785196232e-07,-2.77441599676145e-07,-2.166812501811564e-07,-1.0351160204767635e-07,7.590732156438824e-08,-3.2524919877558273e-09,-5.767918124784236e-07,9.764453413977124e-07,1.3620228343890698e-06,-2.6072634299097915e-09,6.435615270533155e-08,-5.484770025856399e-07,4.134146713886164e-07,-2.3874505650494387e-07,-4.1526853558471965e-08,-3.235136127175286e-07,2.3121288348689872e-07,1.3574736879403072e-07
-6.155680467643817e-07,-2.8719804792947227e-07,-2.2616275478450137e-07,-1.433022172062024e-07,-3.199744829581792e-10,5.42117431415008e-08,-7.080099337131439e-07,1.0280465663293413e-06,1.4304597811963037e-06,-7.074637660042423e-08,9.051321968926569e-08,-5.341440527299523e-07,4.4511033027887054e-07,-2.6423103673900557e-07,-4.718515413717246e-08,-2.973015917471225e-07,2.2928884521740191e-07,1.8180739953497452e-07
-6.05070173562162e-07,-2.9774667657150323e-07,-1.9897975762397938e-07,-1.7755880892346565e-07,1.3604211104199285e-08,6.659094371157144e-08,-6.69267299562692e-07,1.0795218186635598e-06,1.4725443430939524e-06,-1.1783708959673903e-07,5.244927541049751e-08,-5.122014891442812e-07,4.4360587399697694e-07,-2.5707869813123427e-07,-1.652417987917819e-08,-2.1535466310684395e-07,2.2601757268688188e-07,2.3827610361846803e-07
-5.584691671812764e-07,-2.010792370677092e-07,-1.34022932735175e-07,-1.6848841096454826e-07,1.248725317377971e-07,8.384696170403859e-08,-5.857480070825444e-07,1.1430073310208899e-06,1.502202692049508e-06,-1.466406185042085e-07,-1.5237808709041922e-08,-4.7260328234760647e-07,3.765785847503297e-07,-2.2352756720338458e-07,3.5748641885877514e-08,-1.0577847960728755e-07,2.4495362766315576e-07,3.0112359844825324e-07
-4.920535188367297e-07,-6.656603175305617e-08,-1.198479668388399e-07,-1.2789814324459692e-07,2.4669427460285975e-07,1.5391116289610444e-07,-4.296858791692721e-07,1.190416995355857e-06,1.571245731387478e-06,-1.584211494860071e-07,-8.294563387664663e-08,-4.24852457458879e-07,2.7923917049568824e-07,-1.9179949802576316e-07,7.065373272583132e-08,-2.9429220752265203e-08,2.7277033028712194e-07,4.1014599161551065e-07
-4.5553331271544024e-07,-2.5866939814544727e-08,-1.278452001650718e-07,-1.475473390029962e-07,2.9867885088078137e-07,1.4225425226956152e-07,-3.570429102807033e-07,1.2174315330090873e-06,1.6398183644894032e-06,-1.5405803153648684e-07,-8.911620790204428e-08,-3.9378914397261167e-07,2.2574142646183063e-07,-1.722786056135761e-07,9.009880808977682e-08,7.960954697458018e-08,2.800556076617756e-07,5.054391496556531e-07
-4.3774108628664465e-07,9.316207323487056e-11,-1.2048787847418293e-07,-1.0631571385653637e-07,2.6125352819096705e-07,1.042654401194393e-07,-3.3910184722303536e-07,1.2568844154706044e-06,1.7204323521727785e-06,-1.2589200716882788e-07,-6.10106216800001e-08,-3.945480495083663e-07,2.3109922218481574e-07,-1.656515203208022e-07,8.389556937759802e-08,1.9002897951816803e-07,2.925711505454185e-07,5.470203201494445e-07
-3.8892753751035523e-07,7.634761913054505e-08,-8.614132489987e-08,-2.080561947977714e-08,2.5286675332803626e-07,7.55544005361916e-08,-4.0699028103278677e-07,1.2993920741427325e-06,1.717398662801464e-06,-7.503685765887082e-08,-2.0628494767620786e-08,-4.207628173026893e-07,2.52082622962218e-07,-2.0411729949909585e-07,7.975414074590057e-08,2.421252626215635e-07,3.09418672412001e-07,5.988848405928485e-07
-3.272696956087596e-07,1.5342413374220157e-07,-5.59182313201367e-08,9.17772912111657e-08,2.4351815307704445e-07,7.5680307857657e-08,-4.1625403045154e-07,1.332258529073996e-06,1.765656842510468e-06,-6.423098802980341e-09,7.810000539460503e-09,-4.406980386999525e-07,3.4406767853756446e-07,-2.1978823913914044e-07,3.96285332643394e-08,2.9132373159593307e-07,3.2173342081637467e-07,6.280002136463994e-07
-2.850754071263477e-07,1.6311799401703883e-07,-1.1250367672029681e-07,1.2511365639798623e-07,2.004248834016128e-07,1.0373353248959543e-08,-5.553518794843392e-07,1.367899290403675e-06,1.84635266783217e-06,7.466300373031884e-08,1.0077141145887629e-07,-4.5250501957494776e-07,4.667700666123548e-07,-2.2980194614260842e-07,-7.1182076608809344e-09,3.088369843979699e-07,3.2445989814175936e-07,6.341519412723512e-07
-3.148072727109338e-07,1.2198294086618045e-07,-1.4933349192044663e-07,6.064093615712938e-08,2.3243206479382593e-07,5.5655527828442106e-08,-7.094301815080779e-07,1.410443320782185e-06,1.8527179277172001e-06,1.613799824409999e-07,2.0495794149891622e-07,-4.5905766289402625e-07,5.806142619438138e-07,-3.0313580798694615e-07,-4.362832259963113e-08,3.3428081597943954e-07,3.207313743192924e-07,6.405443772651116e-07
-3.6121136510984913e-07,5.777802299906806e-08,-1.346456608893956e-07,2.089244266393484e-08,3.0598668242598953e-07,1.376093851700793e-07,-6.965543125252817e-07,1.4741419191405142e-06,1.8541687753306604e-06,2.4334463341274945e-07,2.7141592661479655e-07,-4.832535015133179e-07,6.29332023933345e-07,-3.8529254744087446e-07,-5.31455863121415e-08,3.784368432076541e-07,3.2650723034473573e-07,6.567310314891903e-07
-3.881264758755256e-07,-2.4949482250448686e-09,-1.600057215236354e-07,2.4435856061680382e-08,3.596656001962568e-07,1.8975446608616142e-07,-5.68824435962082e-07,1.498530369491691e-06,1.966818925419837e-06,3.2031954999617655e-07,2.9066342128783144e-07,-5.257898683557969e-07,6.227301672330819e-07,-4.220509938771087e-07,-1.9936662295311876e-08,4.087677143074124e-07,3.372638164276213e-07,6.711318999704732e-07
-4.0938945520287087e-07,-7.3128525739866885e-09,-1.7213460567798753e-07,-4.8997533665041255e-08,3.7422353878358864e-07,2.3326222370624588e-07,-1.9435355908765884e-07,1.490835810578078e-06,1.9388601758425676e-06,3.7713930315521314e-07,3.079989021114499e-07,-5.574698382908333e-07,6.023585279424954e-07,-3.975562867663263e-07,-5.8381634044130465e-09,4.874763923027712e-07,3.546749606485888e-07,6.980239637340578e-07
-4.4631767025853257e-07,7.99426123343299e-08,-1.217798057665832e-07,2.8192208080946358e-08,3.618681403988089e-07,2.5459249296665427e-07,2.593347579604368e-07,1.5014865780711338e-06,1.9294586931317914e-06,4.069834138649511e-07,3.1056457619703127e-07,-5.707256835483054e-07,6.161291414954091e-07,-3.706537468167757e-07,1.1031649989408148e-08,5.631149656877096e-07,3.727122415039518e-07,7.084796937572633e-07
-3.8088045567857743e-07,1.3223431882966671e-07,-1.0318180009705663e-07,1.2676466102296174e-07,3.1904000201688056e-07,2.5551182515960207e-07,7.313652696938875e-07,1.478922601948055e-06,1.939209040688442e-06,3.559188913478324e-07,3.0628420490273353e-07,-5.95962121240431e-07,5.472641988742002e-07,-3.4309295055192004e-07,3.2828790303652816e-08,6.563602695424641e-07,4.176916924579551e-07,7.691209259158436e-07
-2.8240848701942174e-07,1.12184668374721e-07,-1.3634184017032244e-07,1.0442103567250795e-07,2.552841171039056e-07,2.460290509176161e-07,1.1846809834411515e-06,1.4282053011529998e-06,1.922199661714581e-06,3.394402598449886e-07,2.486954637430392e-07,-6.146944496056398e-07,4.320109842632202e-07,-3.177641403220562e-07,4.90026593623615e-08,7.638817221020642e-07,4.437429420529344e-07,9.233629893635237e-07
-2.2474479461168385e-07,6.352293025537907e-08,-1.6838800595686787e-07,1.408647938741197e-07,1.9108497845746e-07,2.9435312942075383e-07,1.5334840647765429e-06,1.4267525359200765e-06,1.961474890671028e-06,3.37089524687947e-07,1.9340690424561756e-07,-6.250594504354031e-07,3.857139382676305e-07,-2.9228246753378616e-07,8.443012476877176e-08,8.752080326830643e-07,4.4908809130138704e-07,1.031627982884649e-06
-2.0158782194171707e-07,-6.495289266456163e-08,-2.3053906155040927e-07,2.497640266578031e-08,1.406764696458477e-07,3.0722597665643496e-07,1.6642711853280144e-06,1.4513845503587107e-06,1.957947685985103e-06,3.7118834156123084e-07,1.9784038269700286e-07,-6.057258826026574e-07,3.5479556379230554e-07,-2.5856993207657134e-07,1.1359304241460694e-07,1.0140618725495587e-06,4.4014260748155147e-07,1.0985065109316889e-06
-2.0020316692141817e-07,-2.066424691171152e-07,-3.2081953657263995e-07,-1.5449667016161233e-07,1.0333753091720964e-07,3.837177378457083e-07,1.6113336708398813e-06,1.475380603625352e-06,1.911311375289644e-06,4.206644962468419e-07,2.1243866934257168e-07,-5.571737184113434e-07,3.166296916177077e-07,-2.181601980633101e-07,1.3273555591495277e-07,1.1407246141641201e-06,4.2732391453087573e-07,1.1287860459328024e-06
-1.8664392848987265e-07,-2.626491578187381e-07,-3.827416456860648e-07,-2.285908288182475e-07,7.13339232019499e-08,4.6657749299077544e-07,1.675817416145986e-06,1.5615747103615587e-06,2.024160447570842e-06,4.722381910610359e-07,2.7001949740322734e-07,-5.192921848130923e-07,3.5962910146005326e-07,-1.9524022786641126e-07,1.751527961367964e-07,1.286875168988614e-06,4.1857860550836133e-07,1.1375255192988278e-06
-1.736845529947485e-07,-2.531247540715898e-07,-4.105039635793389e-07,-2.4999322503201057e-07,3.1885927093110624e-08,5.490423184802454e-07,1.486053992081827e-06,1.6406774730251433e-06,2.158112379712512e-06,5.387017037838258e-07,3.237872905314082e-07,-5.044048351613538e-07,4.3586061635753403e-07,-1.6589171277589669e-07,1.7264447414439388e-07,1.3371039849770514e-06,3.985469032842509e-07,1.1204889573865814e-06
-1.737043137178023e-07,-2.134838437387985e-07,-4.019163590927982e-07,-2.5221875576788926e-07,-2.328105844747952e-08,6.346390548526526e-07,1.1420630769260215e-06,1.7315513150000675e-06,2.2442000654367863e-06,5.544583216699652e-07,3.4446374764801445e-07,-4.736621342028833e-07,4.825072501157473e-07,-1.7456509624142237e-07,1.377079739154921e-07,1.3335862567422037e-06,3.8000723397680257e-07,1.09136520928742e-06
-2.433925946845042e-07,-2.2640056366451979e-07,-3.723965916768907e-07,-3.9076653144113726e-07,-8.39196304386671e-08,7.30748839477278e-07,8.521716237347028e-07,1.7711482923098556e-06,2.3295890200740024e-06,5.32354011048554e-07,3.0280439759581367e-07,-4.494425595734755e-07,4.904055086280161e-07,-2.1893889660380012e-07,1.1560438149273062e-07,1.3217286801481787e-06,3.5231249559242274e-07,1.0546563879517424e-06
