0,1,2,3,4,5,6,7,8,9,10,11,12,13,14,15,16,17
-1.704260978981372e-07,2.8202163435685967e-08,-2.2878922303959494e-07,-2.9799347573909426e-07,-5.173189449470616e-07,2.8384206120859006e-08,-4.2991774580416006e-07,6.016637379869678e-07,8.494211887326726e-07,7.030411194344173e-08,-3.4002929819217727e-07,7.519290155460203e-07,-1.501097750519239e-08,-4.755390622969946e-07,7.035314339989205e-08,-8.442198062197092e-07,-1.8824409874967555e-07,-3.437960384135605e-07
-1.6147393410263803e-07,-1.2281800490121182e-08,-2.643941696645499e-07,-2.8806955262085125e-07,-5.526894069743247e-07,-1.1645623944163836e-08,-4.5982606325516436e-07,6.123284674591447e-07,8.890901157116181e-07,2.2661335036117377e-08,-2.8750823879256754e-07,7.245642677825009e-07,3.55263557831212e-08,-4.1269158311777373e-07,-2.543071485605261e-08,-7.980015821239859e-07,-1.8971145048480803e-07,-3.2442392951835097e-07
-1.6035483644899017e-07,-4.39528822455743e-08,-2.481112772085219e-07,-2.442305134642797e-07,-5.681215084345219e-07,-5.8740059827798746e-08,-4.96613756018534e-07,5.330476038454914e-07,8.540716374558849e-07,-2.8133283038323382e-09,-2.123228981668242e-07,6.144080187425641e-07,5.6321830957718486e-08,-3.626447801022278e-07,-1.341230493429778e-07,-8.146419663247025e-07,-1.9152854301563038e-07,-2.8966747904891e-07
-1.5739299643019652e-07,-6.66803980982378e-08,-2.152746789768187e-07,-1.7151270018876643e-07,-5.671224444959837e-07,-1.1625733963113028e-07,-5.249775311682215e-07,3.6446541726664923e-07,7.358611387806161e-07,-5.266127544325567e-08,-1.630981194785719e-07,4.995012353887149e-07,5.3403677128427704e-08,-3.2006159731429686e-07,-1.6869730904831227e-07,-8.665269392310045e-07,-1.8877131059634693e-07,-2.5143150004727943e-07
-1.2760603262571104e-07,-7.9888268784115e-08,-1.7474274147566277e-07,-9.700430096528672e-08,-4.987352898739317e-07,-1.817894066631765e-07,-5.294880875569118e-07,2.3159153316833022e-07,5.985984202277454e-07,-9.675854507666555e-08,-1.0527684865900693e-07,4.3998270628164996e-07,3.653483112712151e-08,-3.351831839871328e-07,-2.9405640583915936e-07,-8.485021079985924e-07,-1.8101418548241824e-07,-2.103775261781469e-07
-1.1106908709239763e-07,-8.176299170233421e-08,-1.2911100340436814e-07,-4.900215309699123e-08,-3.644998204804491e-07,-2.4445960299127084e-07,-5.055194637976665e-07,1.5710383833199996e-07,4.647912755867606e-07,-1.375438661660465e-07,-2.4754908442277005e-08,4.0904447304064444e-07,1.5599732226460123e-08,-3.1773472679578895e-07,-4.1303897833839437e-07,-6.490841477959411e-07,-1.6309025771303466e-07,-1.751780394733058e-07
-6.976102483124644e-08,-7.161351564455532e-08,-8.497405834548834e-08,-3.480142415769747e-08,-2.798037045972791e-07,-2.874184196624205e-07,-4.181518716095648e-07,8.628311444481763e-08,3.2402021525170764e-07,-1.2359198153323543e-07,-1.5540678158332868e-08,3.5289881453332125e-07,-2.0415700272595464e-09,-2.796971566703548e-07,-3.589656957687392e-07,-3.614540439340426e-07,-1.3764712119105676e-07,-1.381722704158315e-07
4.6502696181212494e-10,-5.0914527556193366e-08,-5.553283571224189e-08,-1.0689025776941403e-08,-2.5491617501655166e-07,-2.9464702537372027e-07,-2.7989590312439497e-07,2.1343230555794137e-08,1.584116574931449e-07,-4.688610543250912e-08,-1.4270636791437952e-08,1.9412006463387945e-07,-1.376955494594667e-08,-2.3853559436852484e-07,-2.4672624233871515e-07,-7.225692279474964e-08,-1.0003542108843882e-07,-7.259573813157476e-08
-3.052325095425462e-09,-2.2793426889136938e-08,-3.034029797835733e-08,-1.9117921743608455e-08,-1.2730941745155622e-07,-2.573812071104737e-07,-1.1088366926872217e-07,-9.519600504994479e-08,-1.264223183014039e-07,-4.562777568793865e-09,-8.172828955431977e-09,-3.595020216412115e-08,-1.8821601758666066e-08,-1.5173921539171533e-07,-1.5589817539539023e-07,3.025436695040975e-08,-5.936672244748338e-08,7.967319004219918e-09
-2.49870201361377e-08,7.944460909135612e-09,2.3563009726201544e-09,-1.6957573096029235e-08,4.6995411173053556e-08,-1.7640130537248834e-07,7.553937505920767e-08,-2.476268060574342e-07,-3.85442747715612e-07,3.329649854800895e-08,-3.2172715995203896e-09,-2.450931557289418e-07,-1.8996577314053263e-08,-5.013388656652122e-08,-8.468648488427307e-08,1.4404829773649558e-07,-5.6167617209088644e-09,5.900671313513444e-08
5.816540436351204e-09,3.6497898974843245e-08,3.033204725464724e-08,5.123433660693399e-08,2.322291148689717e-07,-6.120027659764357e-08,2.627920511350965e-07,-3.3857338327046777e-07,-5.462258099780574e-07,8.498476904623145e-08,3.5496257425992346e-08,-4.267242540180485e-07,-1.884416459719745e-08,3.760185718905085e-08,-1.0707350799770712e-07,3.359082004306556e-07,5.5531343666566195e-08,1.0148233198213274e-07
1.0091349031648791e-07,5.8338853726132547e-08,1.0126827887036744e-07,1.3086192608480845e-07,4.272295137353629e-07,7.322835236010349e-08,4.385067561128063e-07,-3.6497091459339327e-07,-6.940364249763112e-07,8.550840248848978e-08,1.1760971862880586e-07,-5.543756645594011e-07,-2.120279162046568e-08,1.9095118743864707e-07,-8.872132359282295e-08,5.671829342977807e-07,1.2426628294793217e-07,1.8952602701188532e-07
1.493990047088363e-07,7.104418246622751e-08,1.9904470279837876e-07,1.910636204883163e-07,5.812421553764963e-07,2.1153163926920063e-07,6.027113431380444e-07,-3.727998124210254e-07,-7.457248370799651e-07,6.013140677118222e-08,1.6520697774186547e-07,-6.330128405022898e-07,-2.5438473706219187e-08,4.151738211839484e-07,1.4298682735357984e-07,8.262591856512341e-07,2.0192615129635928e-07,2.710458636096078e-07
1.88693955799646e-07,7.556259052307074e-08,2.872904485249599e-07,2.458534488487095e-07,7.120902015729353e-07,3.42668170712341e-07,7.259875653413297e-07,-3.6992533644776364e-07,-7.743365752151774e-07,3.886950688321325e-08,2.2841094886224123e-07,-6.842922257758491e-07,-2.823633891907998e-08,5.887859583420737e-07,3.9838323186596765e-07,1.0177589500054756e-06,2.7775172906264045e-07,3.4163816419516596e-07
2.440265954430884e-07,7.568187605799087e-08,3.653476550110832e-07,2.791311570863379e-07,8.209995264331418e-07,4.623487375993233e-07,8.03050088346901e-07,-3.8885938096977213e-07,-8.096629203239452e-07,2.5914078064845734e-08,2.974458859682603e-07,-7.161113409519441e-07,-2.4249369242479972e-08,7.839845985711294e-07,6.066579569705419e-07,1.1552922417397218e-06,3.439870229580176e-07,3.9856125366730757e-07
2.9680874099465814e-07,7.661578531718188e-08,4.4563085237354764e-07,3.3123415173443993e-07,9.097307891116987e-07,5.717791611124573e-07,8.466869124699582e-07,-4.2987530424939376e-07,-7.924140156496795e-07,4.314777074280802e-08,3.3002193860898183e-07,-6.908889122486974e-07,-1.0775007586288454e-08,9.274633638864811e-07,8.590367278125596e-07,1.1779833396109547e-06,4.015633425582854e-07,4.3641484862150607e-07
3.2468363130683674e-07,8.221523356459873e-08,5.198946320905581e-07,3.52572833140596e-07,1.0025731612287051e-06,6.742895139115172e-07,8.614123097494163e-07,-4.38026618653662e-07,-6.959745801066401e-07,7.544092644208853e-08,3.362541879600494e-07,-6.478431221005428e-07,1.0884742021731158e-08,1.0231025043993354e-06,1.0115369166903584e-06,1.1941182500168511e-06,4.638257789703107e-07,4.875418584956922e-07
3.3741490388665455e-07,9.322265996999478e-08,5.852081436733953e-07,3.6678829209549864e-07,1.0833279025824142e-06,7.725214483326413e-07,8.732150659285242e-07,-4.160431345908522e-07,-5.395527106362684e-07,1.0119449779077932e-07,3.353953286144416e-07,-5.977514247333009e-07,3.650626793431589e-08,1.0815476355250033e-06,1.1559213269394704e-06,1.2400452286649458e-06,5.147519930891323e-07,5.284087595329518e-07
3.436681248736004e-07,1.0760030925835301e-07,6.554290515284197e-07,4.275881371794197e-07,1.1750252571963594e-06,8.666652575094514e-07,9.004667945457661e-07,-3.6488777419514904e-07,-3.7009255763534243e-07,1.2011455628237108e-07,3.4478851973063795e-07,-5.405140803101715e-07,6.046613691870265e-08,1.1487498927790423e-06,1.300117142529679e-06,1.2451771640805146e-06,5.655700946377297e-07,5.539796869986516e-07
3.6585519540293665e-07,1.21483287920176e-07,6.894297092463415e-07,4.3140088370460863e-07,1.2270209827805455e-06,9.539177525157485e-07,9.328408072241835e-07,-3.2183418406053395e-07,-2.1961787860865674e-07,1.3862340897915006e-07,3.5263377485979216e-07,-5.026196004501567e-07,7.761760640235772e-08,1.1900143762224625e-06,1.4352857497675028e-06,1.2552640485261878e-06,6.001920756428088e-07,5.550046815991481e-07
3.847891413415464e-07,1.3167012451060325e-07,6.931433184109692e-07,3.821360997255211e-07,1.2621885939342053e-06,1.0290925177493574e-06,9.444180059903345e-07,-2.8556004371014895e-07,-1.505555558992823e-07,1.5105062036238438e-07,3.487852151701253e-07,-4.828551524529934e-07,8.481919954809119e-08,1.2309593691059512e-06,1.5302123369082106e-06,1.3249600413428747e-06,6.166128309283894e-07,5.282831373505183e-07
4.13003780428617e-07,1.3690397548724655e-07,6.946193757005616e-07,3.4469674104748434e-07,1.246471903322264e-06,1.0866805581687466e-06,9.772850448208794e-07,-2.7295942913079133e-07,-1.1979960371082999e-07,1.546835276503331e-07,3.4639467119681893e-07,-4.931251977541533e-07,8.137739281709252e-08,1.275161913637235e-06,1.5672932003461444e-06,1.4161499601062726e-06,6.202370654039315e-07,5.139785537215437e-07
4.46090739243654e-07,1.3952013429878754e-07,6.740063605327784e-07,2.9594562143614827e-07,1.1614278934587546e-06,1.1232781951779478e-06,9.947509903528117e-07,-2.590223908389868e-07,-1.0225641546367074e-07,1.5551078725702817e-07,3.648795599179679e-07,-5.456849374496453e-07,7.215480383940142e-08,1.306796909541203e-06,1.5628301161083021e-06,1.5063338135269352e-06,6.199081347460173e-07,4.994112396134457e-07
4.7822358837576e-07,1.4461908208399077e-07,6.048180389733051e-07,2.5959462146927795e-07,1.2388735750946098e-06,1.138779154127096e-06,9.87000780994365e-07,-2.2874641599738087e-07,-9.650776453336738e-08,1.5508846091878404e-07,3.879582876454062e-07,-6.512805451302952e-07,6.61344220254207e-08,1.3387654710546353e-06,1.5195388896385959e-06,1.563974861735888e-06,6.426607580930541e-07,4.883392365548145e-07
5.084974455053395e-07,1.5742244041532352e-07,5.008582712792167e-07,2.9545850810668625e-07,1.4106193560106718e-06,1.1355986214250913e-06,9.691814687077452e-07,-1.8965766042846357e-07,-6.811514635122213e-08,1.569788293234529e-07,4.0319272133506524e-07,-7.935963950519826e-07,7.30064078881443e-08,1.3690040554348023e-06,1.469091118826032e-06,1.4753396378662076e-06,6.779798294390115e-07,4.606658851388932e-07
5.151660354435299e-07,1.7967490065209939e-07,3.9420754943730457e-07,3.761063224775385e-07,1.4775977024345054e-06,1.1166594594052452e-06,9.035204695133022e-07,-7.853608645599326e-08,-1.764104207925175e-08,1.942337459410114e-07,4.1407070934733733e-07,-9.515504498671471e-07,9.966801105495209e-08,1.3823058434074923e-06,1.4202600149442556e-06,1.2877507153821855e-06,6.971691572810543e-07,4.2121145889580727e-07
4.983090554017136e-07,2.0680216808912825e-07,3.239105310259811e-07,4.2391019990665265e-07,1.4083956948300362e-06,1.084266406562744e-06,8.120014785727417e-07,6.373577203113733e-08,6.941949143599767e-08,2.5641389091466046e-07,4.181443745707995e-07,-1.1048294491907349e-06,1.4522575595607212e-07,1.3761096352026568e-06,1.4027114851091302e-06,1.0795088831178821e-06,6.812669390011212e-07,3.6352556822733167e-07
4.6682102198887665e-07,2.2879942849929424e-07,3.466325726310743e-07,4.363475654084358e-07,1.2758420822325428e-06,1.0405275984087874e-06,7.195329450638046e-07,2.5849615056247117e-07,1.770192542923227e-07,3.100806281870595e-07,3.8686030839516995e-07,-1.2186389518359728e-06,2.1469468986167115e-07,1.3636516947938737e-06,1.433193739200402e-06,9.957299943608704e-07,6.462404463554051e-07,2.7197643816281776e-07
4.190780703225537e-07,2.3530000937722488e-07,3.848638490306111e-07,3.8179020587896824e-07,1.1650084111434692e-06,9.88694288826182e-07,6.494064346896602e-07,4.667539788258541e-07,2.940277021754482e-07,3.607450427514738e-07,3.558724028529913e-07,-1.2433371164911522e-06,3.015242837237089e-07,1.3435773466762717e-06,1.5305345409410796e-06,9.364068860391881e-07,6.122510553643132e-07,1.6505903167808513e-07
3.6797156528205757e-07,2.2143559572525424e-07,4.0177751278263337e-07,2.745038650751437e-07,1.051522368968613e-06,9.340914115790255e-07,5.787532773823675e-07,6.834638627967699e-07,3.999075569533909e-07,4.188675785453054e-07,3.033059251793606e-07,-1.2823018073964956e-06,4.0727017523364246e-07,1.3240208827520017e-06,1.6837749011603058e-06,7.677217390585251e-07,5.775408022572693e-07,8.900936457151888e-08
3.19893034462657e-07,1.8929856459366587e-07,3.9466491897902e-07,1.2257220752647196e-07,9.731751849712864e-07,8.832362120811131e-07,5.196302078385293e-07,7.722638262785583e-07,4.7423626599766515e-07,4.853204903546286e-07,2.538181750911947e-07,-1.2172829253509524e-06,5.232898710138597e-07,1.3124386056275922e-06,1.8599834400977758e-06,6.294574579089013e-07,5.638242284756728e-07,1.1637854500470576e-08
2.76568186447751e-07,1.4620163691373682e-07,4.3392208118869034e-07,-2.2783847361681826e-08,8.847122820792092e-07,8.419188528353266e-07,4.768841897393535e-07,7.943408487581787e-07,5.220534040028592e-07,5.416125388130324e-07,2.0248071872200846e-07,-1.1330364708482643e-06,6.425888788111493e-07,1.306502974697567e-06,2.029816099272821e-06,6.189257615736868e-07,5.573949708885667e-07,-4.19718913251175e-08
2.417777251042581e-07,1.0112273329343763e-07,5.42323202907646e-07,-9.366933257901166e-08,9.107680534902382e-07,8.140112330960125e-07,4.3976173135355276e-07,8.016668423757782e-07,5.448724108064155e-07,5.734208138380986e-07,1.499739795105149e-07,-1.0295922262788392e-06,7.119933254105623e-07,1.3054516927001074e-06,2.162634980519336e-06,7.378197934480313e-07,5.558082397131475e-07,-1.0981701031268729e-07
2.202846954687767e-07,6.171042165221281e-08,7.051327653252706e-07,-1.2897738376864822e-07,9.562525782148797e-07,8.015792303321796e-07,4.368277390740614e-07,8.749811745143161e-07,5.527716515615168e-07,5.622299055667873e-07,1.0227944673260731e-07,-9.166750006315773e-07,6.945385771412092e-07,1.3093300096318885e-06,2.2423664757610383e-06,8.333794313744964e-07,5.54791142741641e-07,-1.6881750475786086e-07
2.1055719758965476e-07,3.3480174723519267e-08,8.58786904011054e-07,-1.6190859177654757e-07,9.986133653215627e-07,8.054559811464124e-07,4.5016851476384073e-07,9.315759520540982e-07,5.506000397431577e-07,5.386658790822746e-07,4.97497196938938e-08,-8.00509853567008e-07,6.164394199541836e-07,1.3115941907516909e-06,2.265048001598611e-06,9.016048510814905e-07,5.659155881260191e-07,-2.0627570108578028e-07
2.1116403790512993e-07,1.9036096384185574e-08,9.948564332787978e-07,-2.0880132911458717e-07,1.0300604752268002e-06,8.252885176537414e-07,4.687530094997033e-07,9.561367033131357e-07,5.645835776976658e-07,5.154548482592028e-07,3.795519847923875e-08,-6.869439837601495e-07,5.252523254620231e-07,1.305454448714414e-06,2.2350426452929626e-06,9.614747882425503e-07,5.793606452804553e-07,-1.829902979110871e-07
2.1743929607228635e-07,1.7938049002903103e-08,1.0868087331062481e-06,-2.4363220978015407e-07,1.0454847441064866e-06,8.592912450507371e-07,4.884183703313892e-07,9.655264788705345e-07,5.83338815915225e-07,5.059149562858758e-07,2.6669418546521453e-08,-5.838211386599699e-07,4.0348280701262204e-07,1.281329664451908e-06,2.1643767379870405e-06,1.0032005794041504e-06,5.910655650022193e-07,-1.5463546328775056e-07
2.2737068841622435e-07,2.6959726968569744e-08,1.1431921983671193e-06,-2.7073823803704617e-07,1.0397794433024948e-06,9.040621400246975e-07,5.084114003000551e-07,9.388153273678808e-07,5.999389153932858e-07,5.142230645667772e-07,2.9972399721745515e-08,-4.999266582997785e-07,2.881719870290809e-07,1.2352284628053203e-06,2.0697234643228604e-06,1.0237633493940348e-06,6.016163261093563e-07,-1.3779735701410535e-07
2.4256334941978783e-07,4.142176194285762e-08,1.1780687773314742e-06,-3.186020713337742e-07,9.98994038999882e-07,9.549738982809519e-07,5.310796765365755e-07,8.937439495709431e-07,6.156737201730588e-07,5.426988233588898e-07,3.560805252295699e-08,-4.4184326872589415e-07,1.9426705676189726e-07,1.1687495469763432e-06,1.9687272941914316e-06,1.0191810958313953e-06,6.089008203872762e-07,-1.2478064458746276e-07
2.638797320442301e-07,5.657789715777229e-08,1.191706788669403e-06,-3.7394034508808577e-07,9.308242196397613e-07,1.0065908350464917e-06,5.50675081947381e-07,8.348842736745458e-07,6.214740796497819e-07,5.935276138297038e-07,3.355911947078877e-08,-4.1138750279320154e-07,1.1889550150006207e-07,1.0868310966947329e-06,1.8759788475606972e-06,9.877734749829233e-07,6.153109777332904e-07,-1.4787191663039535e-07
2.9215661420722856e-07,6.81458629189838e-08,1.200705863436321e-06,-4.3821577486808445e-07,8.456489504625361e-07,1.0534627208712395e-06,5.657318583291982e-07,7.975806040991947e-07,6.203681905049343e-07,6.561406253778909e-07,3.1754569621694873e-08,-4.041146009835108e-07,5.8761012146247064e-08,9.982274210081646e-07,1.8001292901416136e-06,9.164131811343603e-07,6.207853089106313e-07,-1.8909610914792614e-07
3.2353754643468e-07,7.273883500522528e-08,1.2050719649397505e-06,-5.123767810128956e-07,7.619131089953309e-07,1.0915436675013245e-06,5.687381425430341e-07,7.836761107842182e-07,6.13838181468803e-07,7.247096558604137e-07,9.570980516134398e-09,-4.108643946644753e-07,-7.012305273598529e-09,9.145182348314277e-07,1.7433043357538543e-06,8.229571696906673e-07,6.23240438869205e-07,-2.2991176889455148e-07
3.534030251721945e-07,6.809638915280989e-08,1.2027901646259155e-06,-5.800641681458818e-07,6.825429771144792e-07,1.1200259777047451e-06,5.63625244471457e-07,7.747697163275684e-07,5.860665978454343e-07,7.942470603486945e-07,-2.8992005794452918e-08,-4.205859380277545e-07,-7.408048097373863e-08,8.412762042787959e-07,1.7028971922037548e-06,7.304779369090016e-07,6.164839832076537e-07,-2.680478149723064e-07
3.774705943524356e-07,5.39750766457309e-08,1.1962811198542788e-06,-6.47750625622183e-07,6.128603589447024e-07,1.142243264533154e-06,5.565487002466466e-07,7.298234014515449e-07,5.482590327589252e-07,8.583752576724144e-07,-6.476309072133251e-08,-4.2395034881445127e-07,-1.2284407616180513e-07,7.827264706552604e-07,1.6747043378517744e-06,6.56232141009299e-07,6.022304861108444e-07,-2.965173934943082e-07
3.9755369992245894e-07,3.2646667840094845e-08,1.1863582172572144e-06,-7.030049104558759e-07,5.554536840921697e-07,1.1638696331380662e-06,5.527707914395276e-07,6.623572440304228e-07,5.110670206507362e-07,9.163557290221876e-07,-9.470414468668476e-08,-4.163900417043362e-07,-1.5685780009539558e-07,7.429760748925431e-07,1.6556911834939074e-06,6.173912117640121e-07,5.824966816266165e-07,-3.140139685346335e-07
4.118087380093201e-07,8.321086827692836e-09,1.1749695607535068e-06,-7.387577616521439e-07,5.141706341078422e-07,1.1889342704628893e-06,5.597430303913324e-07,5.832763352295269e-07,4.770149194971104e-07,9.67824521748328e-07,-1.0830380957319284e-07,-3.9965375563593706e-07,-1.7731134481771994e-07,7.201005330964214e-07,1.6444411380598262e-06,6.175620310508223e-07,5.58933307329963e-07,-3.219865541181568e-07
4.2104942185801435e-07,-1.4692697683422205e-08,1.1632773848529089e-06,-7.584088937537036e-07,4.951339987960729e-07,1.2161152197752888e-06,5.807465422248369e-07,5.269782412759747e-07,4.51517856357684e-07,1.0136878009732912e-06,-1.0712011541040066e-07,-3.811844491704595e-07,-2.0058371058824805e-07,7.094143085771397e-07,1.6390263401861382e-06,6.508633552163982e-07,5.348459146494634e-07,-3.2295292605945286e-07
4.28163489938061e-07,-3.4365534539740255e-08,1.1502509519147747e-06,-7.590309309991306e-07,4.978478089478253e-07,1.2384312637127065e-06,6.145738518292062e-07,4.800969405854202e-07,4.2941781162819133e-07,1.0551766812068718e-06,-1.0114526322327439e-07,-3.706795031921602e-07,-2.3097916490050921e-07,7.038927906179039e-07,1.6353609853685602e-06,7.048308511400699e-07,5.115621141365499e-07,-3.1975306455112345e-07
4.3459375953758545e-07,-5.1209800038017124e-08,1.1333715130608673e-06,-7.492634605552204e-07,5.186581240507076e-07,1.2466204703348025e-06,6.558940206986706e-07,4.2963092688348537e-07,4.0399655255913926e-07,1.0932403817934886e-06,-9.554444108400384e-08,-3.7560166135212075e-07,-2.640956566588017e-07,6.964510999409814e-07,1.6290502660546925e-06,7.633005859607278e-07,4.91196936814895e-07,-3.1662800018080034e-07
4.4389273094808053e-07,-6.644947750139123e-08,1.110954114053575e-06,-7.378258665467121e-07,5.487085566067547e-07,1.2337588077997729e-06,6.981673922732024e-07,3.812129495068499e-07,3.7305104934663666e-07,1.1292637889907527e-06,-9.05201882235044e-08,-3.962631911473206e-07,-2.951262935264838e-07,6.831484163779436e-07,1.6190834762244183e-06,8.127539722068008e-07,4.766911485530243e-07,-3.161054364676599e-07
4.5846471924840883e-07,-7.988441805175454e-08,1.0843960121239913e-06,-7.217332796297994e-07,5.787351836253343e-07,1.1983203453196171e-06,7.366918944242175e-07,3.3505206216910964e-07,3.43659915917842e-07,1.1645816011951372e-06,-8.670934964373004e-08,-4.253158536892425e-07,-3.1217080142790836e-07,6.655833240332909e-07,1.609022795343698e-06,8.472581807739959e-07,4.701202763692749e-07,-3.187874968602832e-07
4.777449503373528e-07,-8.900041173965254e-08,1.0580541213434092e-06,-7.134254468343164e-07,6.051125146434217e-07,1.1442606202644702e-06,7.68720550802326e-07,3.0576696345945636e-07,3.1460871396641634e-07,1.1989585157242092e-06,-8.230629963677049e-08,-4.508416290181081e-07,-3.101204957751647e-07,6.474517117247724e-07,1.6045123054434454e-06,8.700478848886956e-07,4.712819326950775e-07,-3.2504085144351357e-07
4.97027931266445e-07,-9.034481178414825e-08,1.0358769192809544e-06,-7.210658921857807e-07,6.24495694003083e-07,1.07904320375654e-06,7.93790280829858e-07,2.9592654937891125e-07,2.9609521505469177e-07,1.2285765466792264e-06,-7.707004137487601e-08,-4.613388226072396e-07,-2.8478447868236935e-07,6.31808531466105e-07,1.6103780656908579e-06,8.912626942742368e-07,4.772333316048714e-07,-3.355110894694652e-07
5.100220132710156e-07,-8.16996056400778e-08,1.0201516134669516e-06,-7.392223671238798e-07,6.342200329049594e-07,1.0113583148006464e-06,8.11631101491267e-07,3.0677361775018074e-07,2.9524840070369525e-07,1.2467435126762488e-06,-7.439275260481974e-08,-4.4888011493725553e-07,-2.3470942059894348e-07,6.208245529558035e-07,1.6304636061296649e-06,9.230905272559793e-07,4.8371866306302e-07,-3.504743999801273e-07
5.108130206756487e-07,-6.381646916078914e-08,1.011764415462422e-06,-7.696694569067844e-07,6.34518879564731e-07,9.495079275170159e-07,8.219046373617986e-07,3.293393917161734e-07,3.1155081030534064e-07,1.247593001949599e-06,-7.382689893457104e-08,-4.1019040878406425e-07,-1.6117177952465136e-07,6.158888582704628e-07,1.6690771093752374e-06,9.74522477764806e-07,4.874095263703739e-07,-3.686047261409887e-07
4.965846666064578e-07,-3.999512428543087e-08,1.010403505731727e-06,-8.06129435395913e-07,6.280422323711182e-07,9.003084102260112e-07,8.273757247394866e-07,3.666278740231654e-07,3.454338110751872e-07,1.2294428131301104e-06,-7.18220612025624e-08,-3.4722260484316066e-07,-7.107656383673557e-08,6.186758836517027e-07,1.730419869543538e-06,1.0477554173565038e-06,4.872238778241756e-07,-3.8664159256351295e-07
4.688523073648334e-07,-1.4475602998140146e-08,1.0157313600983567e-06,-8.395129681035209e-07,6.22175274759842e-07,8.677981708467567e-07,8.333152101621038e-07,4.1757777386504953e-07,3.914763900638317e-07,1.196515457381806e-06,-6.640152070750753e-08,-2.668467991771676e-07,2.5684663343063302e-08,6.303714926359512e-07,1.8148848095236684e-06,1.1370654340915584e-06,4.838943518840394e-07,-4.007547829100945e-07
4.311907177303796e-07,8.489376583919875e-09,1.0267654590883487e-06,-8.635425515574624e-07,6.258978456263958e-07,8.519579319596095e-07,8.452497156566699e-07,4.733498834958123e-07,4.4176078898799994e-07,1.1569110344314586e-06,-5.67115654393581e-08,-1.8081063866945755e-07,1.1826771335790914e-07,6.495465619303264e-07,1.915061539451359e-06,1.2299274411960595e-06,4.784163350545629e-07,-4.087413348516086e-07
3.8708970835261035e-07,2.531343167904986e-08,1.0406996376326793e-06,-8.72469203512601e-07,6.431461491066064e-07,8.483405400019885e-07,8.658378859958214e-07,5.301705806561384e-07,4.914832433668582e-07,1.1182266064486188e-06,-4.308476088618328e-08,-1.0353177738170038e-07,1.9448115944882555e-07,6.710688741736048e-07,2.0154512181587427e-06,1.3102195390393045e-06,4.7085421691762404e-07,-4.1113905652665245e-07
3.378772321717423e-07,3.254427717202972e-08,1.0531956243957104e-06,-8.662055635179301e-07,6.72744144433635e-07,8.495142166361696e-07,8.928714450302903e-07,5.72371190399435e-07,5.289387376926863e-07,1.0846554405146306e-06,-2.974101525905378e-08,-4.7610152100573367e-08,2.4533676482372367e-07,6.876014550121458e-07,2.0975670168681497e-06,1.3632807712028656e-06,4.605571630739784e-07,-4.1024769577572184e-07
2.84103605309957e-07,2.7574774996680013e-08,1.0604591156530208e-06,-8.464315108115195e-07,7.120056090950789e-07,8.4804254926115e-07,9.205358949694894e-07,5.897819405332344e-07,5.452791792018974e-07,1.056882761284289e-06,-1.9962938608059957e-08,-1.940923820264959e-08,2.6758172554810266e-07,6.930739310265598e-07,2.1475891864981493e-06,1.3812855508927303e-06,4.473627623061832e-07,-4.0804157305344035e-07
2.2727938418412508e-07,9.987671090071016e-09,1.061066624488689e-06,-8.210724694353171e-07,7.538296918424039e-07,8.392497124539764e-07,9.433196818856705e-07,5.814038901387065e-07,5.385096197208515e-07,1.0338784859715901e-06,-1.4459634431955073e-08,-1.7379737656503275e-08,2.641724665144953e-07,6.854906269657055e-07,2.1611784000334757e-06,1.3661765640803125e-06,4.323555719003596e-07,-4.048333767858145e-07
1.7037124647830836e-07,-1.7974395519546693e-08,1.0563590382015477e-06,-7.98383634627063e-07,7.935225951029648e-07,8.220932535030602e-07,9.57555135094666e-07,5.506044645324353e-07,5.09733051404164e-07,1.014194757754238e-06,-1.2091495292582565e-08,-3.4224269876694955e-08,2.428691600709888e-07,6.669749348359903e-07,2.1427832160164826e-06,1.3279523877060407e-06,4.17308571997823e-07,-3.9969987280215e-07
1.1715682482158031e-07,-5.189198620605403e-08,1.0483692587399033e-06,-7.823016970038786e-07,8.267240490178523e-07,7.977715699277242e-07,9.619298231677072e-07,5.063081447954814e-07,4.646333315732076e-07,9.958584065680455e-07,-1.2548726254915969e-08,-6.137614363353059e-08,2.1256679754792262e-07,6.413513740570598e-07,2.10140184282852e-06,1.278848653958911e-06,4.0330736192021065e-07,-3.9220075461036094e-07
7.024023692575157e-08,-8.727050382559114e-08,1.0376356519175432e-06,-7.787526398742028e-07,8.482524868034718e-07,7.674856640132078e-07,9.554274445520476e-07,4.5720705223565653e-07,4.093364116255986e-07,9.755139773458245e-07,-1.4529566729334992e-08,-9.280993259804127e-08,1.7889646612469748e-07,6.114915615497983e-07,2.0462790843928384e-06,1.2272516580243883e-06,3.8987292798209353e-07,-3.8389544439148336e-07
3.023424895250304e-08,-1.211578241605964e-07,1.0220489809282299e-06,-7.888850248093142e-07,8.536845999208743e-07,7.312951239795416e-07,9.361666518522135e-07,4.0917659680648734e-07,3.4832651471388175e-07,9.488704567798648e-07,-1.9818241732103388e-08,-1.2615128873619854e-07,1.4406072020873438e-07,5.785751840296323e-07,1.9847103237627143e-06,1.1790295549966115e-06,3.7549153307994364e-07,-3.7830206924228857e-07
-3.3515770218218683e-09,-1.5250686422474128e-07,9.981370966711526e-07,-8.126747329766899e-07,8.38466916527493e-07,6.888370210821387e-07,9.02886249146012e-07,3.648847296265262e-07,2.8392151232408364e-07,9.127734925740551e-07,-2.959196379620241e-08,-1.6109843817135813e-07,1.082987183482686e-07,5.447624498820785e-07,1.922067092966869e-06,1.1303232200901776e-06,3.5909546805693147e-07,-3.792889234065205e-07
-3.044221261178181e-08,-1.8144351125014237e-07,9.637493484786721e-07,-8.50650393890309e-07,8.015085386002897e-07,6.410123045440147e-07,8.56644845592009e-07,3.2749899114993154e-07,2.1990450583105784e-07,8.673644752848179e-07,-4.380410936635677e-08,-1.9761635630387663e-07,7.17042401266136e-08,5.118259459237571e-07,1.8623188411887564e-06,1.0781814655009424e-06,3.4105479303150737e-07,-3.892206702097128e-07
-5.010979835669953e-08,-2.0842230292237075e-07,9.200523841838559e-07,-8.985117581187131e-07,7.463186848385765e-07,5.908638534280215e-07,8.0261241626712e-07,2.981118444628414e-07,1.5868713856037216e-07,8.161724279119559e-07,-6.193828837368788e-08,-2.3517750496317008e-07,3.544083737388767e-08,4.820462967875161e-07,1.8074519910451626e-06,1.0218938791324838e-06,3.2278479409483223e-07,-4.0819310872260804e-07
-6.167361913348381e-08,-2.340190168032448e-07,8.713242447479897e-07,-9.51689052118681e-07,6.769106643355208e-07,5.430623591805642e-07,7.453017179475224e-07,2.7508976766866063e-07,1.0084626676997393e-07,7.641670606518402e-07,-8.342311211001529e-08,-2.733870491378576e-07,1.1473270966588722e-11,4.5661187254618005e-07,1.7565011444921096e-06,9.600662460676609e-07,3.0552204825817095e-07,-4.345479980128958e-07
-6.655039445121429e-08,-2.590780169053481e-07,8.235932339046447e-07,-1.008656354240475e-06,5.984170531742645e-07,5.021779777612337e-07,6.884584728712903e-07,2.545698609546307e-07,4.5663051067379674e-08,7.160446837551773e-07,-1.0976608453833252e-07,-3.127760543485609e-07,-3.553067041326128e-08,4.3391966567924013e-07,1.7059928006078766e-06,8.905474494742197e-07,2.896299498010801e-07,-4.657971308419929e-07
-6.841429049095251e-08,-2.849223566236681e-07,7.829289704758866e-07,-1.0657989377567857e-06,5.177825221813944e-07,4.70917324672202e-07,6.345794043977949e-07,2.3086710935537736e-07,-9.504672919475737e-09,6.74989365545854e-07,-1.4349884831964941e-07,-3.5465076608870403e-07,-7.127974559647903e-08,4.084194753132041e-07,1.6518524345185987e-06,8.136908592901743e-07,2.751983253110975e-07,-4.990778794883253e-07
-7.14066762914163e-08,-3.127309976199953e-07,7.531232685461192e-07,-1.122146941904915e-06,4.4258020741779915e-07,4.490421685550583e-07,5.850678262429927e-07,1.999927795117664e-07,-6.684399230336777e-08,6.43213907025386e-07,-1.858530783560912e-07,-4.003181639291106e-07,-1.0960485604731136e-07,3.781963615828227e-07,1.5912615042768646e-06,7.308971455086141e-07,2.6326589802592826e-07,-5.311349117268465e-07
-7.769061821849058e-08,-3.424814251226962e-07,7.398862366207362e-07,-1.1770086131248123e-06,3.8199601858612686e-07,4.337662509603318e-07,5.426590418171472e-07,1.6213036499632868e-07,-1.2635678416040804e-07,6.229769807884489e-07,-2.346785771955716e-07,-4.5001600926502875e-07,-1.5166294386339906e-07,3.4493110103536694e-07,1.5236828849603247e-06,6.460456110893134e-07,2.561887651898075e-07,-5.584827721719586e-07
-8.652430337154672e-08,-3.7266822817240243e-07,7.436751535047965e-07,-1.227365885277179e-06,3.4538545669190175e-07,4.2089196883668437e-07,5.111785283382703e-07,1.2177905959388984e-07,-1.8427198934305852e-07,6.161236462344987e-07,-2.8537474220169116e-07,-5.025152095415034e-07,-1.9389914100829903e-07,3.1216936285212423e-07,1.4514236227687624e-06,5.700771121935704e-07,2.5639927124693133e-07,-5.781841191452751e-07
-9.562838642814081e-08,-4.006881175495589e-07,7.615623117997031e-07,-1.268413994894513e-06,3.5682312940956336e-07,4.0645758725929736e-07,4.94199229646378e-07,8.582224784029206e-08,-2.3836236467055297e-07,6.223645106438122e-07,-3.324384208126361e-07,-5.550663394612762e-07,-2.3447085309468754e-07,2.8292950069016927e-07,1.3799487445825032e-06,5.142169382733559e-07,2.6435178801220483e-07,-5.888891373449262e-07
-1.041218063650023e-07,-4.238378468486447e-07,7.88775264116463e-07,-1.2976811171786514e-06,3.9945804545697063e-07,3.8834575527121223e-07,4.9183901367723e-07,5.842185805238624e-08,-2.82549515203407e-07,6.376641664311831e-07,-3.719921586976005e-07,-6.018531077366431e-07,-2.70402959154523e-07,2.6019009181090245e-07,1.317568950045642e-06,4.859970586092516e-07,2.774095436519326e-07,-5.912236117694261e-07
-1.1406175178383529e-07,-4.400722182906237e-07,8.179752723235305e-07,-1.3160093347466714e-06,4.628130382376219e-07,3.674060628301064e-07,5.094905465896561e-07,4.6891313206409584e-08,-3.1102868562548083e-07,6.547491333963339e-07,-4.026765851639758e-07,-6.380651668689716e-07,-2.987390589836526e-07,2.434958047201205e-07,1.273739944390072e-06,4.871523994183336e-07,2.9086076785091466e-07,-5.870521526662299e-07
-1.2913563930802296e-07,-4.481924135630122e-07,8.469643590114871e-07,-1.325074929142986e-06,5.297867887993198e-07,3.4788523706459506e-07,5.328692229236822e-07,5.3501230095355936e-08,-3.2072705955711915e-07,6.662026122790431e-07,-4.242890762648515e-07,-6.569306796288124e-07,-3.180381342139476e-07,2.3102865059611312e-07,1.2554266107616832e-06,5.133144291081989e-07,3.0046960221899706e-07,-5.782921433323729e-07
-1.5175676978688433e-07,-4.4788778091920695e-07,8.74422074621192e-07,-1.32882849787505e-06,5.9017010886237e-07,3.3601030338205934e-07,5.633560661353469e-07,7.775006395012796e-08,-3.095708194031249e-07,6.684009566266726e-07,-4.3628553204735787e-07,-6.549283689541076e-07,-3.2795439542044056e-07,2.2522056441768048e-07,1.2629159437490803e-06,5.550244329018916e-07,3.0458001918150927e-07,-5.663925565693942e-07
-1.8087000354759578e-07,-4.3985963995725113e-07,9.028117762988239e-07,-1.3277333064351625e-06,6.499380757995767e-07,3.368507294124429e-07,6.101377312361275e-07,1.1856462117331393e-07,-2.770086681712878e-07,6.62961406425723e-07,-4.39047016395233e-07,-6.370297781157591e-07,-3.3014271604934017e-07,2.2614402038687963e-07,1.2881677590246235e-06,6.085081273803826e-07,3.0420290847829997e-07,-5.52767544065206e-07
-2.127588227700496e-07,-4.2616155369359295e-07,9.358648337147447e-07,-1.3203348388517605e-06,7.099421008919076e-07,3.506896596006449e-07,6.703186115715135e-07,1.6986884927378816e-07,-2.3084832108422655e-07,6.546464121854069e-07,-4.343206798548974e-07,-6.154591707827008e-07,-3.301019306080112e-07,2.3181554966887343e-07,1.3170560608604702e-06,6.26556287079015e-07,3.013570911934008e-07,-5.394347738867118e-07
-2.4391574794270924e-07,-4.1057610557240323e-07,9.754556438807645e-07,-1.305301985715802e-06,7.759457026768724e-07,3.711681921530793e-07,7.471854097814214e-07,2.2298857334300917e-07,-1.8143991040659202e-07,6.47901174741554e-07,-4.2559503800770345e-07,-6.070610114750693e-07,-3.3738636179819675e-07,2.276440098213976e-07,1.3339795249612436e-06,6.182509093156862e-07,2.9747788147700955e-07,-5.28840591545068e-07
-2.729987056778068e-07,-3.983688619862605e-07,1.0173912572302055e-06,-1.279918548122873e-06,8.270993529465521e-07,3.87208108901811e-07,8.473255100100981e-07,2.681588180173599e-07,-1.390641546050034e-07,6.447882465609047e-07,-4.1722100313490007e-07,-6.263979924522141e-07,-3.60816297749985e-07,2.1192116420451284e-07,1.3269655599746138e-06,5.895671791086959e-07,2.934313057826711e-07,-5.225416091683544e-07
-2.9989932272817253e-07,-3.9471914868547953e-07,1.0595673695111426e-06,-1.243975242550984e-06,8.774005139449356e-07,3.879187454566748e-07,9.471952145959356e-07,2.987019012080871e-07,-1.1437006050788703e-07,6.456548443064954e-07,-4.1210941968806753e-07,-6.796389796665481e-07,-4.0497762508223396e-07,1.856802468562922e-07,1.2918236233459955e-06,5.350848002100226e-07,2.9077522918774916e-07,-5.196670995394776e-07
-3.2323446435122884e-07,-4.0235310209020814e-07,1.1014916447973474e-06,-1.1987071335455362e-06,9.386838283877464e-07,3.6774531403489505e-07,1.0449414914515746e-06,3.124377645527955e-07,-1.1206564878987057e-07,6.508044657981486e-07,-4.103395314491419e-07,-7.609932500586203e-07,-4.6671214940847803e-07,1.5846167479921345e-07,1.23338895773618e-06,4.804205714808872e-07,2.924568484342885e-07,-5.16735194453012e-07
-3.3914877520534256e-07,-4.1994909921299703e-07,1.1419761067901295e-06,-1.137642915328678e-06,1.0361543892187532e-06,3.286147156488045e-07,1.1497062385864765e-06,3.1357636415874633e-07,-1.3100151543835997e-07,6.608667217737995e-07,-4.0991818728105633e-07,-8.596869329898352e-07,-5.390991044664574e-07,1.338659876521058e-07,1.1553718272584543e-06,4.5487754400107504e-07,3.017364323753705e-07,-5.09499302300839e-07
-3.4241201403975666e-07,-4.424894977235398e-07,1.1827620782332947e-06,-1.067254716328477e-06,1.1603363900073787e-06,2.746867000578452e-07,1.2558317841774716e-06,3.061391502094529e-07,-1.6963285915947376e-07,6.761442638654275e-07,-4.096747825860322e-07,-9.611500322205392e-07,-6.126439112144253e-07,1.0509440674266699e-07,1.0708268882699427e-06,4.492712482652042e-07,3.199609774648303e-07,-4.972263202162864e-07
-3.290221829743748e-07,-4.6407473172137387e-07,1.2386360529901417e-06,-9.969928028863447e-07,1.2641679147486843e-06,2.1249498892649057e-07,1.3222403480354022e-06,2.938641108909207e-07,-2.233714267127496e-07,6.952510858330039e-07,-4.102026817224162e-07,-1.0558894716052105e-06,-6.810358430789041e-07,7.232880214441463e-08,9.82873763914226e-07,3.704409840480832e-07,3.444879026908022e-07,-4.815902160858069e-07
-2.9819654918651976e-07,-4.806571846660089e-07,1.2824531569053337e-06,-9.322583917938884e-07,1.3011499259433803e-06,1.4382655172577062e-07,1.3541223771067821e-06,2.764223286135964e-07,-2.887089190135923e-07,7.150614250773012e-07,-4.1424706196158333e-07,-1.1452968188360884e-06,-7.383489821035163e-07,-9.451946951428421e-09,8.785808203185716e-07,2.9856075365293474e-07,3.706645854788815e-07,-4.6767744600779383e-07
-2.5230422789614824e-07,-4.910015396478119e-07,1.308026861172291e-06,-8.732768749195049e-07,1.2218611763634876e-06,6.303056205567937e-08,1.2994141851805081e-06,2.4844383827036256e-07,-3.7503055198215734e-07,7.324249689451832e-07,-4.2447884773330263e-07,-1.2366813360197204e-06,-7.835147202530786e-07,-1.4740979567691953e-07,7.477441132937251e-07,1.1082467930235555e-07,3.918172706030637e-07,-4.6127819930537136e-07
-1.9516610357211257e-07,-4.955972256678565e-07,1.3224056400777262e-06,-8.525641486445211e-07,1.1053800686578369e-06,-3.701978750928514e-08,1.132951950141341e-06,2.0393995522952502e-07,-4.586657442748878e-07,7.458922640883084e-07,-4.4081855481032153e-07,-1.3490976456358737e-06,-8.167782771696125e-07,-2.1570544345452948e-07,5.588321927362318e-07,-2.96124935453511e-07,4.027583734541236e-07,-4.680670040954764e-07
-1.3098012877886303e-07,-4.950778838473074e-07,1.3226926797617792e-06,-8.396257382781754e-07,1.03081208250007e-06,-1.7155926710774346e-07,1.0828603421909388e-06,1.6007796203500465e-07,-5.453441592994711e-07,7.558475913801327e-07,-4.6055993100634576e-07,-1.517093148123516e-06,-8.385190828138308e-07,-2.680124826470796e-07,2.9438764248554697e-07,-4.3928312153293825e-07,4.0871357297784776e-07,-4.924611078983035e-07
-6.427884839409237e-08,-4.895181210690353e-07,1.317983038070804e-06,-8.449271763490263e-07,9.822634537288013e-07,-3.4941551583415037e-07,1.0320666120941075e-06,8.125659249573826e-08,-6.458474809451898e-07,7.626875296595926e-07,-4.803958929870801e-07,-1.7359807366299822e-06,-8.518466193646223e-07,-3.444746162427862e-07,-4.397745567020146e-08,-5.227387684719668e-07,3.955319646661595e-07,-5.340056647042221e-07
-6.152678947613e-10,-4.78662339428062e-07,1.3143024466331898e-06,-8.754217521265811e-07,9.28169103556858e-07,-5.676531870366766e-07,9.768149575156864e-07,-2.7203432145731847e-08,-7.56247817858244e-07,7.64594984224695e-07,-4.987557020810575e-07,-1.976216445165839e-06,-8.596835346603492e-07,-3.914800965675365e-07,-3.7898369353238787e-07,-6.758634276408418e-07,3.593691892810803e-07,-5.887475852095269e-07
5.330244962223517e-08,-4.626810784113856e-07,1.3002338434163155e-06,-9.248528905293159e-07,9.358967533364315e-07,-7.889409103203473e-07,9.878551886494523e-07,-1.2539950687196357e-07,-8.512952825098965e-07,7.568268585838532e-07,-5.157159962365768e-07,-2.212777510689451e-06,-8.65192465062095e-07,-4.611307677194548e-07,-6.351383798268709e-07,-9.204935792275498e-07,3.2219285796432625e-07,-6.371007595236081e-07
9.143148361779933e-08,-4.4227009179213655e-07,1.2124615025764207e-06,-9.849893022401193e-07,9.099134155448296e-07,-9.644335999895315e-07,9.471315617667777e-07,-2.1474636759995073e-07,-9.17263185506858e-07,7.336122913415775e-07,-5.324934265782133e-07,-2.3419824443359337e-06,-8.676387479585641e-07,-5.811387543995422e-07,-7.113731089851262e-07,-1.1215967609437252e-06,2.909769239435715e-07,-6.557279070104521e-07
1.1134881038112875e-07,-4.1840637025097376e-07,1.097927796435597e-06,-1.0652249922251782e-06,8.436647430018267e-07,-1.0351965599717121e-06,8.734548060526e-07,-2.0372073957389135e-07,-8.894311753630756e-07,6.911879894247076e-07,-5.492698574653612e-07,-2.357253147500945e-06,-8.656675789939292e-07,-6.239509298378807e-07,-7.604510363676193e-07,-1.2634695513166826e-06,2.81968239557766e-07,-6.22902400755392e-07
1.1601924506671728e-07,-3.9220135095597087e-07,9.8719775127753e-07,-1.166306648448722e-06,7.761426050867789e-07,-1.056171616256405e-06,7.472186311388979e-07,-8.588001838711405e-08,-7.934128506714042e-07,6.297019321961522e-07,-5.651456294796347e-07,-2.37851728191568e-06,-8.565574131842116e-07,-6.518291073960344e-07,-8.241242441735743e-07,-1.410127968499208e-06,2.895959341065956e-07,-5.834881631203269e-07
1.1229093848404169e-07,-3.6519626279952055e-07,8.607615827768991e-07,-1.2892525138291073e-06,6.957844850610983e-07,-1.083240929345887e-06,5.999531849089799e-07,2.5246964585937995e-08,-7.238337421505118e-07,5.527000481172801e-07,-5.801586281971633e-07,-2.4066455421918947e-06,-8.406292411309531e-07,-7.130284287478428e-07,-7.861985095056422e-07,-1.6467977279473955e-06,3.0153918841075566e-07,-5.488388942495448e-07
1.0665919231831438e-07,-3.3997212428442066e-07,7.941052880397937e-07,-1.415575406096725e-06,5.845000912271413e-07,-1.0822222223888495e-06,4.4531927634416e-07,6.075991783945077e-08,-6.689719524350566e-07,4.651278080425707e-07,-5.963731004126636e-07,-2.403292888514298e-06,-8.214793798512196e-07,-7.472064323705023e-07,-7.800859632860445e-07,-1.7753024424668673e-06,3.142532646743433e-07,-5.181443233948237e-07
1.0117540640518998e-07,-3.203251586495287e-07,7.564070290962708e-07,-1.5366244672639653e-06,4.5432656688127325e-07,-1.0860788527216683e-06,2.9145948976166165e-07,1.3711382675490935e-07,-6.251123321685015e-07,3.719333712041462e-07,-6.177604753025904e-07,-2.3467586901082305e-06,-8.051262905601812e-07,-7.861676815844873e-07,-7.8926147052888e-07,-1.8888796015877532e-06,3.5232147434347924e-07,-4.637805470566478e-07
9.285451703222186e-08,-3.1030337762608185e-07,6.418253963299821e-07,-1.6153787344171647e-06,3.785903852658339e-07,-1.0812031129291538e-06,1.7625746710458945e-07,2.118562157292971e-07,-6.029348332773745e-07,2.7797943978123964e-07,-6.479442310049378e-07,-2.1830853557430963e-06,-7.97298546734091e-07,-7.977716642987782e-07,-6.162910685111587e-07,-1.8005942496157046e-06,3.8812680022039835e-07,-3.8513334191187205e-07
7.669056894981275e-08,-3.121738051434069e-07,5.176307103093224e-07,-1.6153244042864344e-06,3.7089920668461544e-07,-9.669768773775544e-07,7.395613403544061e-08,3.35139729252327e-07,-4.897868833859056e-07,1.887663483591992e-07,-6.874657519606621e-07,-2.0058666657432196e-06,-8.016092979258511e-07,-8.194807636443358e-07,-4.94140044269084e-07,-1.763802811666262e-06,3.830559275792497e-07,-2.954489737512368e-07
4.948759645781528e-08,-3.245840590299027e-07,3.805959239656516e-07,-1.5925770597214926e-06,3.4037297947721723e-07,-7.932900548293011e-07,-4.178792562178666e-09,4.3400501921066063e-07,-2.7684799248138414e-07,1.103237736962303e-07,-7.329100492587867e-07,-1.93891873693673e-06,-8.1756479640283e-07,-8.257629376457045e-07,-4.819819133499975e-07,-1.806818568229405e-06,3.6791448477101336e-07,-2.3721924666686075e-07
1.1313552429551134e-08,-3.4265132343503374e-07,2.6649849537115354e-07,-1.5699090217660638e-06,2.3000169387893575e-07,-6.598150078205543e-07,-6.119134771569784e-08,4.860578394164619e-07,-1.3673115701740552e-07,4.752221522440208e-08,-7.78459988636419e-07,-1.8798463808381534e-06,-8.417871354029744e-07,-8.41569316813179e-07,-3.9181032996642784e-07,-1.7343954383848446e-06,3.6274515634925227e-07,-1.8128182669593238e-07
-3.599143267831254e-08,-3.5989834423286054e-07,2.3498158441977998e-07,-1.5659788920409615e-06,1.2329403503597983e-07,-5.64378511999021e-07,-1.1468560536287868e-07,5.412225035995056e-07,-1.7597396353507218e-09,1.8255192318818882e-09,-8.183633606421199e-07,-1.8537838871984425e-06,-8.684579029757578e-07,-8.393572064517909e-07,-3.3268162284314236e-07,-1.7060798282056337e-06,3.3173614408866314e-07,-1.7008740705002608e-07
-9.094507238726499e-08,-3.7051466483718474e-07,2.0516611501310304e-07,-1.4923059239280172e-06,2.3894427960035456e-08,-5.492284475724113e-07,-1.341880777194577e-07,6.014216881997973e-07,1.478342052109852e-07,-2.9385899720982143e-08,-8.482938467222943e-07,-1.891737548616949e-06,-8.881024655479151e-07,-8.191798838282487e-07,-5.406549289413517e-07,-1.8345047222445348e-06,2.800367700010644e-07,-1.8035804160855172e-07
-1.5250749021759277e-07,-3.7070068938015174e-07,1.3005126760634252e-07,-1.3762602677065056e-06,-5.136328720667325e-08,-5.951559206026141e-07,-1.502151267206248e-07,6.538615685486587e-07,2.2519858754109718e-07,-5.088944761138252e-08,-8.654321855282351e-07,-2.0248941151807533e-06,-8.908495309025978e-07,-8.209259611468827e-07,-8.00950951217692e-07,-1.8932526605196587e-06,2.2896841185229008e-07,-2.0463977839020852e-07
-2.184472957327518e-07,-3.5921831229347217e-07,3.068615376002857e-08,-1.3045437013147735e-06,-5.748158516927092e-08,-6.681563565096743e-07,-1.5473905112157662e-07,6.399478195121616e-07,1.9390944282419134e-07,-6.690943023470177e-08,-8.68444141267133e-07,-2.189343249984211e-06,-8.685999049578705e-07,-8.497135780362449e-07,-8.676854627339493e-07,-1.7969825733334895e-06,2.0990900998682383e-07,-2.367228034274044e-07
-2.841992932017553e-07,-3.3771198550722654e-07,-5.994718446366562e-08,-1.235427538846132e-06,-3.663341296993099e-08,-7.468539517366502e-07,-1.5478841613025312e-07,5.99870902907026e-07,1.7393199062240245e-07,-8.003432110407945e-08,-8.582467637367607e-07,-2.1813473814621653e-06,-8.189380234851511e-07,-8.364661698715795e-07,-8.055683460465859e-07,-1.6765334242791203e-06,2.1872591379999387e-07,-2.66857002034328e-07
-3.4346496024418136e-07,-3.1065619924895863e-07,-3.664639997136329e-08,-1.1618323202243369e-06,2.8860776661254287e-09,-7.998835266848384e-07,-1.0755573365543777e-07,5.881295189802305e-07,1.826330224531911e-07,-9.200988563358959e-08,-8.389783110601514e-07,-2.108942089111912e-06,-7.455251344083074e-07,-7.622827293590875e-07,-7.7312408177497e-07,-1.6277027589031548e-06,2.1896746975225476e-07,-2.9239680405767405e-07
-3.9006986436199455e-07,-2.8462585006409007e-07,6.429920613219288e-08,-1.1368759026160357e-06,9.803418914094399e-08,-8.214150852828037e-07,-3.9427228396221134e-08,5.88995186547835e-07,2.004546671320199e-07,-1.046001892279594e-07,-8.172134607099328e-07,-2.110555675327122e-06,-6.619999486873411e-07,-7.179083195913158e-07,-7.798586230167599e-07,-1.4528767938538997e-06,2.4062765401741724e-07,-3.116813778202655e-07
-4.19547621542646e-07,-2.6662592344157424e-07,1.5835124520960842e-07,-1.1287417085586222e-06,1.4428708020334188e-07,-8.143612648419986e-07,2.5247857851754467e-08,5.506500898363254e-07,2.3366004067915184e-07,-1.190354422585077e-07,-7.999429548152663e-07,-2.0019843150197465e-06,-5.833653429724496e-07,-6.557576189554409e-07,-5.588308978059315e-07,-1.2016524446216279e-06,2.834810591628273e-07,-3.2221455181527643e-07
-4.296531516980567e-07,-2.6202698115708504e-07,1.9178282436182152e-07,-1.1364364489778785e-06,1.8191656409591505e-07,-7.820017249344485e-07,8.38149801745589e-08,6.035233940914203e-07,2.633030717517626e-07,-1.3512496984873118e-07,-7.920118656826598e-07,-1.828421847652884e-06,-5.225447240087915e-07,-5.768261538664492e-07,-2.8076557731384105e-07,-9.665459108598512e-07,3.312277128152289e-07,-3.2228535475396615e-07
-4.2036975074995455e-07,-2.731732372024861e-07,1.768655415965625e-07,-1.1624815250372992e-06,2.1221557042246552e-07,-7.281343266489416e-07,1.0663525132358902e-07,7.161751705484937e-07,2.796489478211956e-07,-1.5130436417460466e-07,-7.947302348555219e-07,-1.6883472427640022e-06,-5.142546715869041e-07,-4.710342997877553e-07,-8.577862772183509e-08,-8.453086635064497e-07,3.61929036100678e-07,-3.110329529604748e-07
-3.9444370594820296e-07,-2.991061665968163e-07,1.5870695036434818e-07,-1.184366957439863e-06,2.2169207664880475e-07,-6.541886065943966e-07,1.2931475379686247e-07,8.260012657643283e-07,2.9784303084525784e-07,-1.6617037468816662e-07,-8.065012289475989e-07,-1.593610609800617e-06,-5.694866074903326e-07,-3.523539057913208e-07,3.268539386408814e-08,-8.17620605486032e-07,3.645726753555761e-07,-2.893766260706236e-07
-3.581130563268878e-07,-3.3611130514873124e-07,2.025832603978552e-07,-1.2037654394682482e-06,2.1803161592550283e-07,-5.604248563387709e-07,1.4887553737255776e-07,9.155103333865283e-07,3.2198714350070214e-07,-1.799519103086838e-07,-8.240543879024867e-07,-1.5343282678923823e-06,-5.962681128962329e-07,-2.610268089569849e-07,9.154629248347189e-08,-8.543850159407242e-07,3.5757409363107874e-07,-2.6014204652380333e-07
-3.207834956106235e-07,-3.78488305423818e-07,1.8697677041252557e-07,-1.214438698968945e-06,1.9172037036752216e-07,-4.4836389682114193e-07,1.675662812148261e-07,9.769155341236066e-07,3.6335511528682283e-07,-1.9451254126948403e-07,-8.43184793801206e-07,-1.5164626170419366e-06,-6.536516049205024e-07,-1.9112063175284378e-07,9.309902985394535e-08,-9.391976278121199e-07,3.443198259713752e-07,-2.268186821222082e-07
-2.92432767494926e-07,-4.198898364457281e-07,1.2446772499418015e-07,-1.2060659955754079e-06,1.5818370115056374e-07,-3.223402586012082e-07,1.6403843311989054e-07,1.0237632622197415e-06,4.293113095377686e-07,-2.119238048335197e-07,-8.589474638794557e-07,-1.530815331104161e-06,-7.621974664217818e-07,-9.050252491909827e-08,6.004719030125757e-08,-1.0402026485955593e-06,3.13208367059849e-07,-1.9207158532374947e-07
-2.802564804684722e-07,-4.5447615533581633e-07,6.996454683063095e-08,-1.1748460727625954e-06,1.0171750375748627e-07,-1.897740940114195e-07,1.653066038739532e-07,1.0662388360764357e-06,5.255228784009767e-07,-2.3312598410444902e-07,-8.664527635647922e-07,-1.564734574971844e-06,-8.934041969425977e-07,-6.167555226358344e-08,1.923556399387363e-08,-1.1243654988813022e-06,2.675225566302524e-07,-1.574774156409391e-07
-2.8667843341175e-07,-4.783119399139989e-07,1.057982872115512e-08,-1.1204848056683068e-06,7.028000381497153e-08,-6.031528715912578e-08,1.8994974386410897e-07,1.1071323539038266e-06,6.365950272186372e-07,-2.578100882041245e-07,-8.62606692662669e-07,-1.6001314535643257e-06,-9.946438900196208e-07,-8.958063188868463e-08,-8.945936529905518e-09,-1.1679427405078993e-06,2.33085835370121e-07,-1.244275045711174e-07
-3.094443411171782e-07,-4.89987019593806e-07,-4.1398387251016095e-08,-1.0482280163641646e-06,7.535729326345457e-08,5.621818915366205e-08,2.3635742195522446e-07,1.1505321368122694e-06,7.480877146480603e-07,-2.8505764682565534e-07,-8.477593683456527e-07,-1.6241223118484329e-06,-1.0634290620376278e-06,-1.3558540986089862e-07,-1.6580707380578233e-08,-1.1643700957625487e-06,2.0466906195044696e-07,-9.477015659121495e-08
-3.427152555412455e-07,-4.910511806605759e-07,-5.0691070950266096e-08,-9.67531586187418e-07,1.0723410619245735e-07,1.5291820256046445e-07,3.1291077814800337e-07,1.1961350998409921e-06,8.488158794083744e-07,-3.1364016447513483e-07,-8.255578905373804e-07,-1.6316079377347385e-06,-1.1030958869935974e-06,-1.7207987100300056e-07,-6.72825741414298e-09,-1.1249063458651773e-06,1.8213456499776785e-07,-7.016223602113305e-08
-3.784828828551027e-07,-4.851536882096454e-07,-3.436440693155142e-08,-8.888937718658406e-07,1.6644220685225028e-07,2.2859181238537338e-07,3.9562114688030686e-07,1.2404699020841907e-06,9.275920565570673e-07,-3.4141115804539155e-07,-8.008566248976291e-07,-1.6247207787851136e-06,-1.1168519326664593e-06,-1.9466049132197748e-07,1.3006680907312056e-08,-1.071834001961504e-06,1.6997433976141506e-07,-5.0723957333143426e-08
-4.075583281489932e-07,-4.766037693657283e-07,-5.253012632607441e-09,-8.207820938938888e-07,2.3112660613307772e-07,2.8852821313066424e-07,4.7390964502478617e-07,1.2822470603807447e-06,9.840971421218415e-07,-3.6481666096669235e-07,-7.777488110194566e-07,-1.6118554490337033e-06,-1.115276603213719e-06,-2.131624447066861e-07,3.606312404484597e-08,-1.029087568680961e-06,1.6747531766828403e-07,-3.457107750587553e-08
-4.2110637592476497e-07,-4.694639384240127e-07,2.195397678877601e-08,-7.685510374405038e-07,2.830643456003231e-07,3.395864655038736e-07,5.497517831116129e-07,1.303260624598079e-06,1.02227561561898e-06,-3.7963769333647905e-07,-7.593583822121777e-07,-1.6053449756608937e-06,-1.1142777197019218e-06,-2.3200967239452658e-07,5.8214842702507505e-08,-1.0152288378337093e-06,1.7316475928659752e-07,-1.8910726148027983e-08
-4.141464072195384e-07,-4.6713750221594515e-07,2.7331559595859284e-08,-7.320634414374889e-07,3.0729598153799365e-07,3.9329711588117936e-07,6.229740584847687e-07,1.3021715128187713e-06,1.0481911739820102e-06,-3.828730934274877e-07,-7.487125003929309e-07,-1.618277225590213e-06,-1.133004321576101e-06,-2.564827940544539e-07,7.629384382804037e-08,-1.0396487073971256e-06,1.8381375788978225e-07,-1.6348493718836374e-09
-3.865658727369028e-07,-4.7226957272346044e-07,1.0141723210659887e-08,-7.102212773562488e-07,2.9851503923193425e-07,4.5667474576154004e-07,6.809357430329852e-07,1.2804727270931286e-06,1.069041291508327e-06,-3.744773795880637e-07,-7.48975075840699e-07,-1.659519655894536e-06,-1.1824553987970473e-06,-2.928805387665501e-07,8.725753928622558e-08,-1.100562820847861e-06,1.9501639279917442e-07,1.815778999776031e-08
-3.441211713143084e-07,-4.857477114662477e-07,-3.280460928114402e-08,-6.999421641512137e-07,2.4842185940446513e-07,5.274022364699257e-07,7.176659870943365e-07,1.2352426290707749e-06,1.0912600393913165e-06,-3.5786883274955106e-07,-7.603066505379169e-07,-1.7279786359848638e-06,-1.2589743150549865e-06,-3.4420131527253076e-07,9.422628565557644e-08,-1.1854273458384028e-06,2.02989439459819e-07,4.0947478111779784e-08
-2.9955687970592316e-07,-5.052401193779862e-07,-1.0146251011594618e-07,-6.952158466352911e-07,1.727637003575873e-07,5.982686732350256e-07,7.339037775847055e-07,1.1763688571532936e-06,1.119970837308066e-06,-3.3899567859275784e-07,-7.798783994776323e-07,-1.8098753033068285e-06,-1.3505396109823373e-06,-4.0722698939768627e-07,1.0143237606463615e-07,-1.2719096718119555e-06,2.0633142825204568e-07,6.756644473093594e-08
-2.589408926239975e-07,-5.248405775255675e-07,-1.8347262402801003e-07,-6.890512503447315e-07,9.364183582770587e-08,6.540897067467249e-07,7.336054510519738e-07,1.1165745884744657e-06,1.1581685855081e-06,-3.2459867356893116e-07,-8.014639235474909e-07,-1.8825808424311903e-06,-1.4322632161827018e-06,-4.7300182416807147e-07,1.1422902941831872e-07,-1.333401340814043e-06,2.0620412416228512e-07,9.868189657216719e-08
-2.2640727603204298e-07,-5.373877143263691e-07,-2.6601721700677913e-07,-6.745837336072024e-07,4.802697629105045e-08,6.797965081633962e-07,7.344806791070544e-07,1.0662272705196442e-06,1.2055005019739278e-06,-3.2042742061245355e-07,-8.180933653025416e-07,-1.924077673377688e-06,-1.4470868605986158e-06,-5.309043019527268e-07,1.3624265672931443e-07,-1.3521969097634544e-06,2.0475752475263992e-07,1.3326754111512782e-07
-2.4132784319449757e-07,-5.38096225036659e-07,-3.572080654420552e-07,-6.481115229925892e-07,8.409399325302747e-08,6.669528491492712e-07,7.528929535123006e-07,1.0314764170099805e-06,1.2575917755843775e-06,-3.299203874798933e-07,-8.261773771318901e-07,-1.92263344886441e-06,-1.4364799817018191e-06,-5.735700552179732e-07,1.6451841300842274e-07,-1.3223229552475684e-06,2.032689386120018e-07,1.6768759661429238e-07
-2.9335436290215797e-07,-5.269150414044197e-07,-3.837017565640236e-07,-6.105720469087164e-07,1.0591701500751343e-07,6.161981130019476e-07,7.954332835858503e-07,1.0094691559215855e-06,1.3070227047147723e-06,-3.532250245424199e-07,-8.261467336823556e-07,-1.881115150864975e-06,-1.429439849713961e-06,-5.99319289387724e-07,1.9207639643366346e-07,-1.2502540264458085e-06,2.0163025079375166e-07,1.966977507038642e-07
-3.4047521958552514e-07,-5.08186717415865e-07,-3.812807564426126e-07,-5.686084577582207e-07,1.3658465513223536e-07,5.364529053072157e-07,8.625997924707857e-07,1.002726158765099e-06,1.3459998865203719e-06,-3.863839246630512e-07,-8.211376186382157e-07,-1.8142399014484795e-06,-1.3636758596416632e-06,-6.10965678480294e-07,2.1135142448222758e-07,-1.1526701900580515e-06,1.9926893661768307e-07,2.158703578788823e-07
-3.8603046653401083e-07,-4.883508531332329e-07,-2.967483192287522e-07,-5.278468648363198e-07,2.687482383184589e-07,4.426957456100399e-07,9.453853361817426e-07,9.995721493765527e-07,1.3693327433927106e-06,-4.2207872333343135e-07,-8.145086757343887e-07,-1.7413812779328125e-06,-1.2641881350378987e-06,-6.128594061420063e-07,2.1839621285726883e-07,-1.0496560045325745e-06,1.961480310709744e-07,2.2350058180064815e-07
-4.3094543039024123e-07,-4.732467334774728e-07,-2.3249604072210817e-07,-4.942858783189694e-07,4.2972891831489383e-07,3.5181589968301585e-07,1.0290982232794464e-06,9.91857327502221e-07,1.3760045499464625e-06,-4.5233899438863655e-07,-8.09199609289141e-07,-1.6794990139455262e-06,-1.1801400605849957e-06,-6.089657929826823e-07,2.1311716182079665e-07,-9.599331308980186e-07,1.9270805418353813e-07,2.2056452153490046e-07
-4.677028527364069e-07,-4.6662245631470614e-07,-1.843216663525718e-07,-4.734224812044979e-07,5.401370779680422e-07,2.773298855607418e-07,1.0991902341107558e-06,9.630430881357903e-07,1.3673978816862615e-06,-4.7189054399048495e-07,-8.066209805665092e-07,-1.6393448852854264e-06,-1.127219746265536e-06,-6.029753166913665e-07,1.9840408945768778e-07,-8.974145773570411e-07,1.8896338688978907e-07,2.0921522536507655e-07
-4.7259071326105144e-07,-4.6989424203295563e-07,-1.4073468328488652e-07,-4.6888861690606825e-07,5.318969942585644e-07,2.242870924107987e-07,1.143903947618798e-06,9.112045434111251e-07,1.3504931262124677e-06,-4.803100290021956e-07,-8.08356960749141e-07,-1.6249165049570054e-06,-1.1038675821157778e-06,-5.989685494129128e-07,1.7645352053374286e-07,-8.68892607177519e-07,1.839249246281249e-07,1.9154018593164208e-07
-4.6837677781646996e-07,-4.826074080626107e-07,-1.2318707315092396e-07,-4.835784970826586e-07,4.488766595927958e-07,1.9516174917175573e-07,1.1557234019175847e-06,8.427263678990186e-07,1.3317818943182746e-06,-4.816996248967009e-07,-8.162056852456877e-07,-1.6342533183653605e-06,-1.1143733826798524e-06,-6.007418062108997e-07,1.4760919030653165e-07,-8.734097311868571e-07,1.7616873600405368e-07,1.6967289808417757e-07
-4.499918549392272e-07,-5.026889044421075e-07,-1.4274618468708666e-07,-5.173193346217071e-07,3.519242751346986e-07,1.8591165455161403e-07,1.134697214884989e-06,7.528706964345745e-07,1.317740907524011e-06,-4.821946271564042e-07,-8.303946013152103e-07,-1.6605564501872888e-06,-1.154041564625841e-06,-6.099156373781909e-07,1.1131217436724702e-07,-9.018526465060764e-07,1.6510295999641515e-07,1.466842659851154e-07
-4.261970540237894e-07,-5.266561698592402e-07,-1.947529823194053e-07,-5.655477047997605e-07,3.314805464014959e-07,2.143729623062836e-07,1.0888075400954122e-06,6.836925658916743e-07,1.3146393948392496e-06,-4.870087816377675e-07,-8.493867516394345e-07,-1.6944388196519936e-06,-1.2104592589918156e-06,-6.2411601514e-07,7.058267946961282e-08,-9.422395222804818e-07,1.5168364554317992e-07,1.2679823179291647e-07
-4.0160550718942183e-07,-5.508393185079666e-07,-2.712806593864581e-07,-6.201115032758746e-07,2.73352475537008e-07,2.542916442787307e-07,1.0304586343095285e-06,6.459202039103215e-07,1.3221898500234878e-06,-4.987437210103787e-07,-8.707118856720119e-07,-1.7279971027290024e-06,-1.269445025193792e-06,-6.397240464590403e-07,3.035398857718362e-08,-9.84802068779928e-07,1.3784347125043277e-07,1.1429783576251401e-07
-3.7818539848330314e-07,-5.733639480102907e-07,-3.64422738372302e-07,-6.70288512421029e-07,1.3067279111721496e-07,2.8763496388198766e-07,9.716260862956212e-07,5.951052365519806e-07,1.3391469798198905e-06,-5.172269116702603e-07,-8.925128604204039e-07,-1.758950418949285e-06,-1.3221844054776634e-06,-6.534545153942381e-07,-4.530518851938831e-09,-1.0252235562839263e-06,1.2519172522408223e-07,1.1207764509394455e-07
-3.561939396393092e-07,-5.95349522212298e-07,-4.6975991717883635e-07,-7.067604759095971e-07,-3.034705625587967e-08,3.1332732161191014e-07,9.19258699923742e-07,5.448655973822555e-07,1.3466782876008819e-06,-5.402105480852906e-07,-9.141596845942668e-07,-1.7915041738692086e-06,-1.3716615686168169e-06,-6.6329216400889e-07,-3.1045304707098884e-08,-1.0648447508316767e-06,1.1426853030839786e-07,1.212311472207001e-07
-3.3577441790559795e-07,-6.198665034223497e-07,-5.859501536824135e-07,-7.200498107456564e-07,-1.5039251465118477e-07,3.148762921913375e-07,8.745594032999164e-07,4.631031534296139e-07,1.3440121953241178e-06,-5.641707616343378e-07,-9.343624523019046e-07,-1.8326380381734551e-06,-1.4188399740645048e-06,-6.696699594519666e-07,-4.647619538689145e-08,-1.1064784962931037e-06,1.0489274938269981e-07,1.417002211629368e-07
-3.180649521592825e-07,-6.494145652240573e-07,-7.12122199950673e-07,-7.026067533667498e-07,-2.2794577200958427e-07,3.3761175529976954e-07,8.355358180241019e-07,3.0629287905170134e-07,1.324112396982378e-06,-5.853201561583433e-07,-9.495265170579802e-07,-1.8861320197850092e-06,-1.4577434537718662e-06,-6.745486729824259e-07,-4.583475765827592e-08,-1.1487644463720737e-06,9.683416748417978e-08,1.7261979201157373e-07
-3.056796573833768e-07,-6.840389963566712e-07,-8.417555684325469e-07,-6.507528138221607e-07,-1.6216573846406683e-07,4.263053540809982e-07,7.999009256894008e-07,2.0478103857388326e-07,1.1928927660831408e-06,-6.008208199177122e-07,-9.542633601759173e-07,-1.9481479724832924e-06,-1.4962496731142642e-06,-6.786323197517215e-07,-1.970138687242482e-08,-1.181074393803217e-06,8.991957617048544e-08,2.1148095059485516e-07
-3.0258645836289827e-07,-7.214322596271141e-07,-9.625958561541675e-07,-5.65639776104503e-07,-5.8238199205051273e-08,6.073277925851046e-07,7.664540921758264e-07,1.388776540092996e-07,1.0450620590575316e-06,-6.098101860319377e-07,-9.44454445487579e-07,-2.0070696253828157e-06,-1.5234038377172662e-06,-6.832220317446652e-07,4.588046198493183e-08,-1.1874654476481892e-06,8.375658065857027e-08,2.5309238576558186e-07
-3.1294950129645507e-07,-7.584300193880553e-07,-1.0611421965353929e-06,-4.555482705892085e-07,-7.399312233974469e-08,7.39007683229394e-07,7.350454942296627e-07,8.310662204295376e-08,8.475257282479302e-07,-6.1302780989236e-07,-9.190812073836552e-07,-2.047569497543024e-06,-1.5346175711271195e-06,-6.898292513967585e-07,1.635315949940199e-07,-1.1541159039972128e-06,7.790215662969717e-08,2.9020463324472975e-07
-3.3910203296012643e-07,-7.921366323108808e-07,-1.1242002256796957e-06,-3.3388599517809695e-07,-1.1270363861609387e-07,8.338891032730793e-07,7.064982405573774e-07,5.600903156282969e-09,6.485529284066272e-07,-6.113539596326792e-07,-8.811966687176465e-07,-2.0563242983413318e-06,-1.5264895716936945e-06,-6.976546060047702e-07,3.3895435132449235e-07,-1.0761151741139144e-06,7.264277475834452e-08,3.161491415678354e-07
-3.7963723441509623e-07,-8.200329167067351e-07,-1.145506774176837e-06,-2.1664822333521732e-07,-9.279976464806827e-08,9.101619438440529e-07,6.829359509228008e-07,-1.0739088937289011e-07,4.194575596217694e-07,-6.045661107714295e-07,-8.36177372946134e-07,-2.026452333834284e-06,-1.4889670249016559e-06,-7.036895430175578e-07,5.671787018197153e-07,-9.59687783177701e-07,6.948708933741107e-08,3.2748167601963815e-07
-4.2927123236677707e-07,-8.397917917561568e-07,-1.1253183814368523e-06,-1.1579391626601694e-07,1.6603078158662107e-08,1.0052967642216508e-06,6.672535651259833e-07,-2.2790043792717075e-07,2.2340867121811338e-07,-5.912982718821901e-07,-7.891942614205603e-07,-1.9599782492257598e-06,-1.4239740352452959e-06,-7.038673607484093e-07,8.323638762586174e-07,-8.191134033845589e-07,7.044537322389579e-08,3.244074857900756e-07
-4.809441140023866e-07,-8.501438051560002e-07,-1.0728738298446741e-06,-3.923263244750583e-08,1.6581893174475687e-07,1.1783458954889315e-06,6.608568866193706e-07,-3.2274822291952664e-07,1.5848849802624737e-07,-5.704071844302294e-07,-7.450708313883513e-07,-1.868336241847944e-06,-1.3342383862398297e-06,-6.959094622602283e-07,1.1098286518373973e-06,-6.732915204168974e-07,7.63853817528983e-08,3.090749447080031e-07
-5.291691013333997e-07,-8.521454162701202e-07,-1.0038541818195526e-06,8.030957673312158e-09,3.2664790453283666e-07,1.405248988008009e-06,6.614557675915114e-07,-3.8859852940422306e-07,1.4761536644362347e-07,-5.423138410085898e-07,-7.091242675649607e-07,-1.7694451384623906e-06,-1.2336554133423134e-06,-6.816583934551589e-07,1.3706431697379117e-06,-5.419236678524607e-07,8.594230743377245e-08,2.83830797667711e-07
-5.725457167375658e-07,-8.493759151250828e-07,-9.349754797988948e-07,2.6719011533425513e-08,4.854209901218493e-07,1.6065054044899543e-06,6.627379199054506e-07,-4.806734445748132e-07,9.844625862703648e-08,-5.097739875395518e-07,-6.843294321909858e-07,-1.6809211876552018e-06,-1.1388477557098436e-06,-6.662242253813912e-07,1.589532450255692e-06,-4.3978745191551685e-07,9.619041231182277e-08,2.510184646997601e-07
-6.135829031983916e-07,-8.47196749416718e-07,-8.783665719769825e-07,2.1581535700243932e-08,5.817329331997046e-07,1.7520720879278363e-06,6.602382799386958e-07,-5.581800456643145e-07,3.969857005350783e-08,-4.771143481479658e-07,-6.723571961191329e-07,-1.6129031743741352e-06,-1.0600167718348073e-06,-6.534134200835454e-07,1.7536022417453522e-06,-3.7354680319080016e-07,1.0455335678110357e-07,2.131516160067192e-07
-6.556344909581295e-07,-8.476826104046616e-07,-8.365582920598489e-07,6.594397182947837e-09,6.14674045781185e-07,1.9251476540746468e-06,6.532457690749544e-07,-6.450695637573631e-07,2.832829845514824e-09,-4.483823816184873e-07,-6.702619986892188e-07,-1.5659549658771233e-06,-9.999359394851578e-07,-6.431397928644709e-07,1.8676667904958293e-06,-3.320725101024052e-07,1.101269419735827e-07,1.7623183810852176e-07
-6.992348695309192e-07,-8.497142540938233e-07,-8.024377597482742e-07,-1.961991192957359e-08,6.171541246334589e-07,2.0144365540542846e-06,6.440539585089266e-07,-6.88611956984921e-07,4.2605260822924795e-08,-4.2601189343416503e-07,-6.718114755333281e-07,-1.5353446312923455e-06,-9.47754539607931e-07,-6.320260194301341e-07,1.9451836985507052e-06,-3.019648670743883e-07,1.1335011016446026e-07,1.4416961721413566e-07
-7.407922680195555e-07,-8.508385113885786e-07,-7.718053596594861e-07,-4.421518741567416e-08,6.080725609504177e-07,2.077252830814268e-06,6.36696766481175e-07,-7.400483408864445e-07,8.298206540925137e-08,-4.1074149372955027e-07,-6.692933014993565e-07,-1.5170785773464356e-06,-9.061417623535301e-07,-6.163554381625589e-07,2.011069769535223e-06,-2.7026451315513737e-07,1.1483998568675217e-07,1.1954337766762596e-07
-7.742627302853926e-07,-8.493153357569783e-07,-7.447561503453709e-07,-5.47572030944629e-08,6.115988589944441e-07,2.121178004003172e-06,6.316796296346228e-07,-7.458351815779047e-07,1.44727464860439e-07,-4.022280015060795e-07,-6.665641284946299e-07,-1.5103454429630947e-06,-8.734194996099957e-07,-5.941707291202619e-07,2.058859057466548e-06,-2.1833086688054e-07,1.1489790842872333e-07,1.0466733168145577e-07
-7.941233229492184e-07,-8.449019016173854e-07,-7.254301154107057e-07,-4.7735338740011425e-08,6.307872527613265e-07,2.1363141506556853e-06,6.283075473649735e-07,-7.137377140860565e-07,2.2499686142076342e-07,-3.987449500428607e-07,-6.618947335467431e-07,-1.5153469856987397e-06,-8.491423283058056e-07,-5.644740275334717e-07,2.100814815578877e-06,-1.4120593313818498e-07,1.1404541867746033e-07,1.0082619144099824e-07
-7.977140193194756e-07,-8.426182533662519e-07,-7.141818685539981e-07,-1.846134554751257e-08,6.620788550827131e-07,2.1459014966596557e-06,6.272917402555725e-07,-6.699692293413691e-07,2.774595210609829e-07,-3.981711210565381e-07,-6.528099619990824e-07,-1.5295092014459804e-06,-8.346846792882646e-07,-5.260382333510945e-07,2.1512345406984534e-06,-5.402749622764631e-08,1.1360056296501255e-07,1.0900248300423971e-07
-7.863651889779501e-07,-8.467385553061497e-07,-7.053210159307872e-07,3.100691717114409e-08,7.065494116285264e-07,2.1702094949301077e-06,6.312895432797488e-07,-6.172510738226836e-07,3.1426433497154505e-07,-3.9809075034338796e-07,-6.415840875489778e-07,-1.5455173878955238e-06,-8.236898233368789e-07,-4.780358327210621e-07,2.214246169613401e-06,5.616241382095374e-08,1.1540752805704977e-07,1.3070801309524862e-07
-7.652819715527553e-07,-8.590517797710354e-07,-6.883401643999789e-07,9.416513660154598e-08,7.609415740479721e-07,2.213471069869012e-06,6.440281959149404e-07,-5.964584351370989e-07,3.4128299889165244e-07,-3.9546841514158436e-07,-6.248781216572077e-07,-1.5525958964180257e-06,-8.148322010236568e-07,-4.1919363305234783e-07,2.307173362147399e-06,1.9957791341541507e-07,1.2104698164680023e-07,1.6543260939788383e-07
-7.41829908328398e-07,-8.806529571478243e-07,-6.515755600709026e-07,1.591519091800844e-07,8.256757773858932e-07,2.2731649462860746e-06,6.682941428046333e-07,-5.88945278764329e-07,3.615330984828947e-07,-3.8851373189132675e-07,-6.021135454164323e-07,-1.5383773554409083e-06,-8.056938750609644e-07,-3.5047347486003426e-07,2.437179774184304e-06,3.7604718136577363e-07,1.3151399944849544e-07,2.096369805096751e-07
-7.223258890887228e-07,-9.070210136742983e-07,-5.896338415013669e-07,2.3108611796861088e-07,8.938304405177862e-07,2.3484132480629888e-06,7.046992631187146e-07,-5.555399272393106e-07,3.876537920464312e-07,-3.7679777266408993e-07,-5.74393549727128e-07,-1.4965866725434613e-06,-7.952894604004932e-07,-2.729748008823107e-07,2.602890284699192e-06,5.862685723295341e-07,1.4759550989025266e-07,2.598297754101927e-07
-7.089599369585987e-07,-9.338258609635961e-07,-5.047857478447251e-07,2.9468564824477096e-07,9.564844995980182e-07,2.429807779100095e-06,7.5121621444513e-07,-5.045585575819628e-07,4.161739890150436e-07,-3.607266752728257e-07,-5.438577764453511e-07,-1.4276242154987736e-06,-7.803926648456932e-07,-1.8662886802216288e-07,2.7938867672506985e-06,8.15601906354107e-07,1.7008346013638162e-07,3.1337220383044095e-07
-6.9935386446568e-07,-9.56994081941989e-07,-4.098092514820895e-07,3.428234007857036e-07,1.0116402752652118e-06,2.500435156514361e-06,8.04376809765522e-07,-4.5701317446507086e-07,4.411196746893168e-07,-3.395973483854417e-07,-5.071346688006407e-07,-1.3380351964895964e-06,-7.56933694483689e-07,-9.233500151437812e-08,2.9972725292279415e-06,1.040088839549555e-06,1.991398892767994e-07,3.657686389006152e-07
-6.891767823058532e-07,-9.751687029191427e-07,-3.1926603277776474e-07,3.6737523656582947e-07,1.0479036450725163e-06,2.5575802792346366e-06,8.593994419243965e-07,-4.1231556827887474e-07,4.617486198350982e-07,-3.1613237192688913e-07,-4.6975703217252026e-07,-1.2394593988587839e-06,-7.240824637585138e-07,5.0174874905146e-09,3.188518345206571e-06,1.2370030692147883e-06,2.334275383116401e-07,4.149281320309554e-07
-6.755252770451547e-07,-9.881632174912452e-07,-2.474301531552329e-07,3.677271772138864e-07,1.0563321527906613e-06,2.6029219101881317e-06,9.08612195566211e-07,-3.630161059051054e-07,4.769814016611321e-07,-2.939200711455279e-07,-4.363729353809045e-07,-1.1454793721550246e-06,-6.848008831554419e-07,1.0274699092367911e-07,3.342695158485735e-06,1.3902127569767295e-06,2.7022939606062764e-07,4.607600570123316e-07
-6.584994669620973e-07,-9.98192250014888e-07,-2.039638399038412e-07,3.5213543006441566e-07,1.035987543278748e-06,2.631276540453062e-06,9.593257138163105e-07,-3.122720531700471e-07,4.997995948385605e-07,-2.732154053930389e-07,-4.2222522629853897e-07,-1.064522739981533e-06,-6.424245747665592e-07,1.9303297817675752e-07,3.4479517158386847e-06,1.4940222393975635e-06,3.066965404002333e-07,5.019675874801507e-07
-6.403455587277154e-07,-9.997712266248869e-07,-1.895265950656203e-07,3.2622523734024637e-07,9.888387537829594e-07,2.629459700066195e-06,1.0099057555603086e-06,-2.610805893537328e-07,5.316686600026031e-07,-2.536529292025993e-07,-4.256424689578688e-07,-1.0009005301135872e-06,-5.990036215738495e-07,2.746348344214721e-07,3.508009250184651e-06,1.5581588241074117e-06,3.409038918276833e-07,5.451408045788701e-07
-6.237949426654913e-07,-9.962780530195567e-07,-1.9798384190965196e-07,2.880278364480406e-07,9.401505088481224e-07,2.6059639227593882e-06,1.0602567130893593e-06,-2.0775064333611707e-07,5.676409529695179e-07,-2.3477467046714924e-07,-4.4331673614789523e-07,-9.568698644907246e-07,-5.648609918447711e-07,3.38394698147343e-07,3.4987484122094695e-06,1.5505393567682547e-06,3.7157892246615257e-07,5.748950586315707e-07
-6.112288977921425e-07,-9.911098819678993e-07,-2.4085741460210547e-07,2.676588944796763e-07,8.998153537461343e-07,2.569316497928506e-06,1.1143585157240516e-06,-1.8964075850503444e-07,6.025800722924734e-07,-2.1666873609324384e-07,-4.7347229034075835e-07,-9.327838234615314e-07,-5.429963540120579e-07,3.820560322628015e-07,3.4326553407455427e-06,1.4927601365412584e-06,3.970852750296767e-07,5.914260090350863e-07
-6.045984923121085e-07,-9.869953793892098e-07,-3.0407133003476896e-07,2.4493291915419733e-07,8.706242256536947e-07,2.5446829859284552e-06,1.1595576468778058e-06,-2.1197949555784927e-07,6.098676251131048e-07,-2.0410414064588805e-07,-5.132191806174531e-07,-9.293817881078924e-07,-5.379746073929457e-07,4.0533082604654136e-07,3.3047577819675634e-06,1.4142336741036223e-06,4.1526959000853437e-07,5.990156708601138e-07
-6.049886162241092e-07,-9.862533022629415e-07,-3.740409247339292e-07,2.1702932044307523e-07,8.150730035316473e-07,2.5388041708439885e-06,1.194471154594073e-06,-2.3977147082505977e-07,6.333681789881289e-07,-2.1767327203766168e-07,-5.451734923460938e-07,-9.44857662832863e-07,-5.542937867930387e-07,4.027538114288364e-07,3.1751833284462815e-06,1.3133911412576523e-06,4.2472076078894143e-07,5.937298792767552e-07
-6.116450744845988e-07,-9.837492642091976e-07,-4.306690706900598e-07,1.7132505559634017e-07,7.421593554963613e-07,2.548438679073347e-06,1.21736555659595e-06,-2.602548301059171e-07,6.866759074881158e-07,-2.6024357124830124e-07,-5.681938658199541e-07,-9.706836276540414e-07,-5.825845704035417e-07,3.815858746088824e-07,3.0777791742826655e-06,1.2166474924921427e-06,4.26205511215206e-07,5.820262971495367e-07
-6.217099674093636e-07,-9.625402956006406e-07,-4.689155553790859e-07,8.308854304044944e-08,6.352580176264319e-07,2.5417871415740285e-06,1.2173504741555467e-06,-2.657666237059547e-07,8.048872537738636e-07,-3.3057451110187703e-07,-6.095586359877425e-07,-9.921726482897038e-07,-6.023261575593859e-07,3.5266903169398026e-07,3.0180761538262893e-06,1.184753207378002e-06,4.2280203326103466e-07,5.596962071225688e-07
-6.315053419236371e-07,-8.946057191663919e-07,-4.985802205142022e-07,4.682771508745816e-08,4.5953531945699324e-07,2.5045976457214844e-06,1.1696574020177702e-06,-1.7723684549368697e-07,1.0031058363938178e-06,-4.1714883117156525e-07,-6.26466438975393e-07,-9.845276995120825e-07,-5.90243597619735e-07,3.4994484675666774e-07,3.001790006852116e-06,1.1897325738241045e-06,4.186762005385018e-07,5.222782087069198e-07
-6.382689445402709e-07,-7.819804325409116e-07,-5.314914653156883e-07,1.6275355934470354e-08,4.096919540624443e-07,2.4196691120103796e-06,1.0727102706428558e-06,-1.1427755695737933e-07,1.1137042024972522e-06,-4.7403612169310746e-07,-6.590465995713424e-07,-9.076899216976615e-07,-5.109486067249623e-07,3.7259921960448905e-07,2.996511016808992e-06,1.1712433091371285e-06,4.1768855723183486e-07,4.6097506456199845e-07
-6.405881200969297e-07,-6.953173769348012e-07,-5.743981271384598e-07,2.2241369771481905e-09,3.7089007502680766e-07,2.307940012067015e-06,9.296925111460507e-07,-7.726429622999593e-08,1.1867682160828698e-06,-5.542021254529264e-07,-7.42261024286993e-07,-8.257593007707145e-07,-3.6901753247450717e-07,4.228555397286411e-07,2.9480568104721476e-06,1.1907336099139502e-06,4.227146565927764e-07,3.7535440047725924e-07
-6.365574058340096e-07,-6.400605616452069e-07,-5.988384163925564e-07,-2.0197287584068248e-08,3.105720552420095e-07,2.2103644981027153e-06,7.46727634971594e-07,-5.7378888878179875e-08,1.2416260427308318e-06,-6.969035258560875e-07,-7.627842138450115e-07,-6.733604592987115e-07,-2.521042799653603e-07,4.870762687774322e-07,2.7733483990727962e-06,1.2009869698843095e-06,4.352957329567548e-07,2.9996236174569047e-07
-6.216988554467478e-07,-6.117189879957475e-07,-6.200515065637129e-07,-4.260638070607942e-08,3.0728046029562234e-07,2.145658132974234e-06,5.618644351517463e-07,-2.4264938879959552e-08,1.313132815364625e-06,-7.986091648758781e-07,-7.859560932469601e-07,-5.147550043189233e-07,-1.7966481785567402e-07,5.157346018607296e-07,2.756478406201829e-06,1.1689356309974567e-06,4.54866294765986e-07,2.380422118659119e-07
-5.890618704466151e-07,-5.858330481748189e-07,-6.584035877110419e-07,-9.311490705701805e-08,2.7083598847380086e-07,2.090114302085624e-06,3.853644186997047e-07,-3.303462755104668e-09,1.5125041142902424e-06,-8.562680470888167e-07,-8.26311812166515e-07,-3.7909784396739533e-07,-1.1562618272730691e-07,6.332911485001495e-07,2.692388570513797e-06,1.111505059641092e-06,4.778556594684869e-07,2.3418780496825213e-07
-5.322500350883655e-07,-4.794521094371263e-07,-7.570103003563766e-07,-1.87280391240839e-07,2.9221730938723454e-07,2.061796871228869e-06,2.261607923128858e-07,4.897690155558462e-08,1.651239129952091e-06,-8.724928939610993e-07,-8.48095158708417e-07,-3.5081903713903544e-07,-3.9152918433143136e-08,7.401802357639149e-07,2.7258152554539912e-06,1.0113434120998473e-06,4.978520177818959e-07,2.0585282256649667e-07
-4.496719352436415e-07,-3.4669423428831566e-07,-8.721091696211848e-07,-2.707784389825857e-07,2.7149777609517743e-07,2.014313053880603e-06,1.212856655374785e-07,8.755149380464247e-08,1.6533352421530098e-06,-8.875718922462663e-07,-8.742921915395881e-07,-3.77196452818546e-07,7.10332624981802e-09,7.100991710411509e-07,2.742019911347315e-06,8.506095173346993e-07,5.075555017636015e-07,1.0819702339091971e-07
-3.4553128237419665e-07,-2.9391731132047085e-07,-9.797250894352741e-07,-2.831145034210768e-07,1.947351498168377e-07,1.9415933807393334e-06,6.677424343945075e-08,1.22896858464063e-07,1.6546613682093197e-06,-9.165698618419731e-07,-9.189825268101194e-07,-3.862410952096663e-07,-1.929183867650325e-08,6.615176029667892e-07,2.5709419401133223e-06,6.559375439598652e-07,5.018541680189903e-07,1.552963563297284e-09
-2.3622952709092745e-07,-2.8669083299439856e-07,-9.858455382209652e-07,-2.9598820975980804e-07,1.4268206029986347e-07,1.8860159128540455e-06,5.1449491277684407e-08,1.3095276104737784e-07,1.6803118970240687e-06,-9.232627557824716e-07,-9.514291403230009e-07,-4.3878179489173713e-07,-4.612393330936742e-08,6.144372043377387e-07,2.4039155738654047e-06,5.026990162002848e-07,4.801345958137404e-07,-3.520888979632222e-08
-1.3667526260887579e-07,-2.775214408675322e-07,-9.140334923863982e-07,-2.555708511464817e-07,1.2926222350706955e-07,1.8360457791682534e-06,6.749792446240733e-08,1.381965442921241e-07,1.680538865412066e-06,-9.016131790953885e-07,-9.699573928932194e-07,-5.331814640911269e-07,-1.9074901506540805e-08,5.813734355561375e-07,2.2939973221354514e-06,4.12055734215134e-07,4.4606531983466805e-07,-8.118099646013673e-08
-6.104237675036448e-08,-2.419556435003151e-07,-8.617216574572571e-07,-2.1557911609716932e-07,1.1888545384004153e-07,1.806504291553807e-06,1.0572865535850487e-07,1.2704090887512243e-07,1.7033914879850208e-06,-8.21373811443769e-07,-9.76053160225233e-07,-6.408833946352781e-07,-3.7475800727270165e-08,5.741985527858402e-07,2.183541023594734e-06,3.2638510276400976e-07,4.04888902343497e-07,-1.0340337294192453e-07
-5.456082491165631e-08,-1.9062227789122954e-07,-8.452444286090328e-07,-2.013188520969248e-07,1.4344972889621557e-07,1.780046594550699e-06,1.5206538393101827e-07,1.37541477274805e-07,1.6873545567605107e-06,-7.38521213948559e-07,-9.76003839729698e-07,-7.092726236763726e-07,-6.19059066565593e-08,5.735039630764567e-07,2.0050216684925815e-06,2.2436662394763041e-07,3.603483325402954e-07,-9.927945943833936e-08
-6.097447767345705e-08,-1.2598361424215608e-07,-8.633314343130358e-07,-1.957545600599233e-07,1.723842384349372e-07,1.7581443118251126e-06,2.1455090059800215e-07,1.6011467049452306e-07,1.6663334770773917e-06,-6.827649672735608e-07,-9.77403202464873e-07,-7.64493207531952e-07,-8.836570169240492e-08,5.400369967224049e-07,1.7027806664402413e-06,1.8231851776875178e-07,3.137272405072438e-07,-1.2767359802609143e-07
-5.281266707673963e-08,-9.276028725885817e-08,-8.856663248907177e-07,-2.1074170256285353e-07,1.3749035236619212e-07,1.7145000064716013e-06,2.7617667694803754e-07,1.7710440896577566e-07,1.560174938735197e-06,-6.529814821178067e-07,-1.0078829266095192e-06,-8.512195977153103e-07,-1.5923727548984509e-07,4.646121125202876e-07,1.505373645363661e-06,1.8363196500489155e-07,2.6547537481622447e-07,-1.8184119627868508e-07
-9.506294113654211e-08,-1.3004518526692494e-07,-8.344930285444367e-07,-1.5413695612908035e-07,9.605684126511535e-08,1.635437380478968e-06,3.0696732255524246e-07,1.722953564591479e-07,1.3923482785994158e-06,-6.835245095845015e-07,-1.0399876462135028e-06,-1.0050389180716849e-06,-2.1931658877194985e-07,3.8572542744920336e-07,1.4186315123273848e-06,1.594825739997629e-07,2.1740498493900516e-07,-2.1038330108076392e-07
-1.7291019235505889e-07,-2.0746609961796398e-07,-7.638505754902056e-07,-9.13161172779479e-08,3.8911823628280565e-08,1.5832117389429816e-06,3.4213134558533906e-07,1.1926378411030718e-07,1.2876994370331054e-06,-7.380252474516549e-07,-1.0181626878371706e-06,-1.2030318683975491e-06,-2.6914115182718726e-07,3.176119784600767e-07,1.3862764610175656e-06,1.037099330076463e-07,1.731101074814817e-07,-2.2010111480686623e-07
-2.444084010247925e-07,-2.417288861774496e-07,-7.124711375475648e-07,-8.199816064716058e-08,4.5613554475408e-08,1.601611565017816e-06,3.8443307062310775e-07,6.783215635442681e-08,1.2250787194199938e-06,-7.884658321307743e-07,-9.939961345321477e-07,-1.366229385517538e-06,-3.268344844915805e-07,1.9899221075661912e-07,1.395090910587909e-06,2.606813006495156e-08,1.3624206770107254e-07,-1.8194139152229011e-07
-3.0456797184048404e-07,-2.2742651795668706e-07,-6.912210314877434e-07,-6.330732447235844e-08,9.510132030639446e-08,1.6741390332141674e-06,4.361249678197116e-07,3.216765563101474e-08,1.1246447052295816e-06,-8.22636497136146e-07,-9.774789378868478e-07,-1.4862384809481468e-06,-3.922171037858829e-07,1.7186627566613369e-07,1.465984209938637e-06,-4.712347333495678e-08,1.0834913385066679e-07,-1.3697938264336327e-07
-3.6375755534746927e-07,-2.1119541604512407e-07,-6.681540032866488e-07,2.4154568794951685e-08,1.8327322083339522e-07,1.7028304523488204e-06,5.084423888980962e-07,-3.287583437635462e-08,1.012488407594351e-06,-8.450300350428183e-07,-9.724001722097677e-07,-1.4918726408326405e-06,-4.4790939174482784e-07,1.9692687711184872e-07,1.5031309627193037e-06,-1.0342671316795391e-07,8.82924499250054e-08,-9.002251399597767e-08
-4.2091207396533574e-07,-1.9605060327898023e-07,-6.661166166712842e-07,7.514527610181762e-08,2.7570536262787454e-07,1.6789225391967775e-06,6.011071769339186e-07,-1.2987952871368294e-07,9.234962471103364e-07,-8.728602932683026e-07,-9.73276472780121e-07,-1.5151928741844805e-06,-4.794175060148775e-07,1.9765078223550616e-07,1.4885530438895498e-06,-1.473902680371733e-07,7.367290348901361e-08,-5.280894773090167e-08
-4.730517323399874e-07,-2.0069710340606248e-07,-6.04215294779951e-07,1.1413083496812394e-07,3.2285223920468734e-07,1.699642637036639e-06,7.146980534017737e-07,-2.013808954088649e-07,8.439810811209964e-07,-9.069337455315823e-07,-9.54470257158297e-07,-1.6490319942839915e-06,-5.077716134722718e-07,1.3214778338731768e-07,1.4447543493119404e-06,-1.9316831490388445e-07,6.280792598801878e-08,-3.6102597783376664e-08
-5.11905504220435e-07,-1.7033490351746224e-07,-4.948191653012679e-07,1.993515052830644e-07,3.796021346360243e-07,1.6787700462391385e-06,8.904072541096707e-07,-2.9675713862764915e-07,8.404185518231612e-07,-9.454512546656691e-07,-9.254681129704806e-07,-1.736124082270579e-06,-5.227337557375825e-07,7.108471126901498e-09,1.356375539316827e-06,-2.672324804311001e-07,5.548885779058155e-08,-1.9994253406870905e-08
-5.281011254561548e-07,-1.3705651760116427e-07,-3.869118927419284e-07,2.8813057893342375e-07,3.706255785977234e-07,1.667650862287588e-06,1.0959538025239256e-06,-3.6936389480211115e-07,8.726741211201097e-07,-9.74624918790436e-07,-8.839915779185987e-07,-1.7830466801703079e-06,-5.187576513289626e-07,-1.1346162780769696e-07,1.2372962655773803e-06,-3.848769570376668e-07,5.212592652765263e-08,-8.110317289262132e-09
-5.173605730401268e-07,-6.842687601109722e-08,-2.54220105447737e-07,3.8894930330919446e-07,2.871682601198404e-07,1.7090334890852495e-06,1.2639848296229942e-06,-4.214619434529124e-07,8.912977556197192e-07,-9.447403269445425e-07,-8.356202210178333e-07,-1.7739416753441196e-06,-4.564581953492548e-07,-2.771040791600194e-07,1.081377145754736e-06,-5.270685961552273e-07,5.235852084958263e-08,3.905562984734797e-09
-4.839324061878578e-07,5.739617103554553e-09,-1.5880379801974622e-07,4.88209293516421e-07,3.225515834631191e-07,1.6838154267879187e-06,1.369295470268734e-06,-4.138007781253332e-07,9.264197426618354e-07,-8.821064582863449e-07,-7.865350075341015e-07,-1.7165238935240006e-06,-3.693630198929218e-07,-3.853014933303461e-07,9.213346775199201e-07,-6.77882150635498e-07,5.4556107191792764e-08,1.8375338421336058e-08
-4.3883692764147796e-07,6.61907502184546e-08,-8.688586922983735e-08,5.559085991530634e-07,4.224941122077721e-07,1.6864055031277391e-06,1.4044451854814857e-06,-4.092869152154913e-07,8.873501776601853e-07,-8.084683103065967e-07,-7.384585754057855e-07,-1.662701279425381e-06,-2.864385314528196e-07,-4.1027276142051447e-07,7.791591395206726e-07,-8.119152725027247e-07,5.6715522956135294e-08,2.523576371059383e-08
-3.943804885929424e-07,1.194334631273934e-07,-3.4814138767943384e-08,5.969161516176142e-07,5.246101617298063e-07,1.6441905192389777e-06,1.4566145762483777e-06,-4.1069440872730816e-07,8.116871572757389e-07,-7.463838988627549e-07,-6.984109355149717e-07,-1.5932997295965592e-06,-2.1400107933420334e-07,-4.022325688028603e-07,6.667060963169686e-07,-9.01394791813704e-07,5.7823171146212113e-08,1.1519097876407401e-08
-3.5889498750424723e-07,1.4208902419901868e-07,-1.3528420802246651e-08,5.882759022384349e-07,6.234489890379756e-07,1.5575551430025031e-06,1.569941906312479e-06,-4.183267035542482e-07,7.268208664925748e-07,-6.954740645610524e-07,-6.732454787946255e-07,-1.558939397379567e-06,-1.884746359238644e-07,-3.705323417763308e-07,5.911350611399913e-07,-9.371471492925241e-07,5.821592507505153e-08,-1.554571298303918e-08
-3.3470728004062576e-07,1.4227604042479841e-07,-3.4274237228872834e-08,5.53777564913037e-07,7.133253500696121e-07,1.4599313358751223e-06,1.6646435212252798e-06,-4.793988163223254e-07,6.328994458109937e-07,-6.555642998524731e-07,-6.692636671635711e-07,-1.558615285631442e-06,-2.2217860388923068e-07,-4.1035723762549033e-07,5.524126201559783e-07,-9.235476286555798e-07,5.849422054921648e-08,-5.667668159549026e-08
-3.196644657001897e-07,1.3431260703192242e-07,-8.56684281357621e-08,4.915085686011606e-07,7.598983206406408e-07,1.3487188184154995e-06,1.6841874945974844e-06,-5.601219230492166e-07,5.412885535555183e-07,-6.300521721843745e-07,-6.794666865359985e-07,-1.5609674541996002e-06,-2.422414528061152e-07,-4.660121070013389e-07,5.403777412644278e-07,-8.743213980124963e-07,5.8046667783549575e-08,-1.0819426060370406e-07
-3.10283653078968e-07,1.194993747654393e-07,-9.341350084896666e-08,4.5402539818171115e-07,7.773508561312508e-07,1.2898212514644451e-06,1.6675299551537602e-06,-6.158537064889329e-07,4.7169021026368816e-07,-6.093191974646288e-07,-6.968017817509218e-07,-1.5794997474907399e-06,-2.538504024817469e-07,-4.3998250711504866e-07,5.419017809761595e-07,-8.029715290986853e-07,5.4715824946751564e-08,-1.6187547770155175e-07
-3.0418585074392496e-07,1.0334344740364226e-07,-1.1382310480784867e-07,4.064733759853128e-07,7.900826314358266e-07,1.2727443419430978e-06,1.637325189814602e-06,-6.532242269441393e-07,4.144248062153346e-07,-5.952020379205366e-07,-7.1804679063679e-07,-1.6007836025401495e-06,-2.7111754049548477e-07,-3.800501946312418e-07,5.483208397563009e-07,-7.366306556963884e-07,4.6097737735349634e-08,-2.1663531057717078e-07
-3.006033803006993e-07,8.142732177024046e-08,-1.0784099940829776e-07,3.6079114256267504e-07,7.856800207739058e-07,1.2726931599608708e-06,1.5914356575618376e-06,-6.915799433254176e-07,3.6900461798721383e-07,-5.923963736236551e-07,-7.339714889042179e-07,-1.6281836357937164e-06,-2.9684991258421203e-07,-3.1367623843153867e-07,5.492755164802574e-07,-6.896387195427006e-07,3.1366695130689955e-08,-2.685040512796262e-07
-2.995009663055049e-07,5.376512801968096e-08,-1.0659401533554109e-07,3.302016644199345e-07,8.193829752453056e-07,1.2875566336024809e-06,1.4964926617491883e-06,-7.307042112975593e-07,3.3621956952551195e-07,-5.999047334952293e-07,-7.453724805421388e-07,-1.665490682374867e-06,-3.3490795568662144e-07,-2.3635821140295065e-07,5.492017426450992e-07,-6.657776990370548e-07,1.1969540717717744e-08,-3.143101529269703e-07
-3.008518732480939e-07,2.3600405916886656e-08,-1.3605203318766372e-07,2.8774352496764835e-07,8.400772979063236e-07,1.2979756930402221e-06,1.4109249888789419e-06,-7.747342638864704e-07,3.131581424628944e-07,-6.155953698404407e-07,-7.52615172774548e-07,-1.7048969445193791e-06,-3.736583006821859e-07,-1.9377035072736368e-07,5.527793018263431e-07,-6.653495080147157e-07,-9.383895352739078e-09,-3.498076853625834e-07
-3.047341014742244e-07,-6.227603601985426e-09,-1.568515875722144e-07,2.533027721676585e-07,8.623546785272408e-07,1.3071052015699302e-06,1.3444281783929057e-06,-8.155086070571407e-07,2.982903052675699e-07,-6.354213405260641e-07,-7.535999149307852e-07,-1.7421495324693076e-06,-4.056208664287773e-07,-1.7086777296757475e-07,5.576357239178018e-07,-6.816347107114087e-07,-3.043383394135999e-08,-3.765720154812222e-07
-3.11683996659345e-07,-3.29579161827452e-08,-1.8863853548577245e-07,2.017719541505544e-07,8.517872384329675e-07,1.3143401022180877e-06,1.2827254537643423e-06,-8.439912004071581e-07,2.8648439985854437e-07,-6.553225131421685e-07,-7.506147822519551e-07,-1.7761615996443254e-06,-4.2235802420949603e-07,-1.620319656809096e-07,5.540808470836906e-07,-7.104123308938925e-07,-5.0222396201729835e-08,-3.982369022638644e-07
-3.2242568659602154e-07,-5.754101660526084e-08,-2.2335527155050985e-07,1.4826384693643741e-07,8.055192108928105e-07,1.3158525258642906e-06,1.2476043133310897e-06,-8.699758676100329e-07,2.723527948901167e-07,-6.72278356633118e-07,-7.514004096862805e-07,-1.8084678307433808e-06,-4.4700208788447855e-07,-1.6739164227680544e-07,5.329902299630738e-07,-7.520144008415457e-07,-6.846374667407327e-08,-4.177384375428699e-07
-3.370430917622923e-07,-8.330852665349896e-08,-2.932099321306597e-07,7.705090832905383e-08,7.429206176972831e-07,1.308201974816924e-06,1.1874269667016711e-06,-8.894404672023329e-07,2.5236001499942213e-07,-6.843560065514238e-07,-7.55347900089869e-07,-1.8409062283712255e-06,-4.822020734042233e-07,-1.7470988413407873e-07,4.929395049644131e-07,-8.08541612916524e-07,-8.433458503206684e-08,-4.372033517563475e-07
-3.545226890775275e-07,-1.134599269913463e-07,-3.6093985897508804e-07,1.8245047255755405e-08,6.579580693415011e-07,1.2922256197322574e-06,1.10711424352099e-06,-9.040801107631007e-07,2.2526833068500082e-07,-6.89881882184094e-07,-7.602814718364096e-07,-1.8721072013935925e-06,-5.222448266661544e-07,-1.818678627080145e-07,4.43429614277486e-07,-8.794177449910178e-07,-9.609072882940958e-08,-4.5501782188433987e-07
-3.7360271573493143e-07,-1.4875269865377857e-07,-4.4832083671414867e-07,-3.259883308571967e-08,5.593786502813773e-07,1.2711410530259918e-06,1.023729370864479e-06,-9.117825864569553e-07,1.9209984638883376e-07,-6.888500900205605e-07,-7.656671679905283e-07,-1.8969267639998358e-06,-5.610572007143623e-07,-1.8619391810083382e-07,3.988135118466057e-07,-9.522041501403655e-07,-1.0194363310817603e-07,-4.681816326237254e-07
-3.941222216935678e-07,-1.8661652996441252e-07,-5.222619791799967e-07,-8.357380380702375e-08,4.5684348799845534e-07,1.2464010587518928e-06,9.723050775810306e-07,-9.195673192838871e-07,1.5463250345028904e-07,-6.836600988276112e-07,-7.670260840503605e-07,-1.9092684690127728e-06,-5.859574542346072e-07,-1.8163762568532596e-07,3.797146482744925e-07,-1.0114082658317575e-06,-1.0128329584116873e-07,-4.7481087118586924e-07
-4.1728295784753394e-07,-2.227404551702424e-07,-5.644309892218619e-07,-1.2172955760154414e-07,3.7022155571095135e-07,1.2187480509668581e-06,9.391654052080818e-07,-9.263901468234236e-07,1.139737938663598e-07,-6.781188914349696e-07,-7.639642194047272e-07,-1.9057182522255585e-06,-5.927898953165971e-07,-1.6887077492260232e-07,3.985128408577609e-07,-1.0442814380755025e-06,-9.490837647787776e-08,-4.751512149720835e-07
-4.4428703254847734e-07,-2.530967979962153e-07,-5.966965491455736e-07,-1.571947441453299e-07,2.8288470469271886e-07,1.1862611188165836e-06,9.154399133796119e-07,-9.327570278302217e-07,7.05647985962914e-08,-6.754173907880437e-07,-7.58994241931814e-07,-1.8866833580116654e-06,-5.799088878897229e-07,-1.5305380428803728e-07,4.5380814204556116e-07,-1.0433405052863116e-06,-8.389144605079974e-08,-4.7108698531691546e-07
-4.742499976572442e-07,-2.7453980308702723e-07,-6.069499301711652e-07,-1.91551763775283e-07,2.3343787185523396e-07,1.1460925030798567e-06,9.003911153084646e-07,-9.379745327573964e-07,2.5605940761547383e-08,-6.761346285158428e-07,-7.541452922681186e-07,-1.8543518100503242e-06,-5.474079530755642e-07,-1.368024381756652e-07,5.349419675328062e-07,-1.0098996876141388e-06,-6.819027298816913e-08,-4.644689475056606e-07
-5.032320757605362e-07,-2.8402355685250463e-07,-6.068647133349496e-07,-2.3226671264785192e-07,2.1095932015294704e-07,1.0955907311478687e-06,8.780956782546777e-07,-9.159175893616955e-07,-1.7372733031649297e-08,-6.778976276728809e-07,-7.508116830515254e-07,-1.8096982041956448e-06,-4.9906948261567e-07,-1.2274583960494993e-07,6.243810387445665e-07,-9.516605695854917e-07,-4.6474626020409064e-08,-4.5599001185259423e-07
-5.256425207762893e-07,-2.7801073927495094e-07,-5.979659062597795e-07,-2.7846869971373667e-07,1.9636802788361222e-07,1.0332867307109557e-06,8.56603633804562e-07,-8.709815674216993e-07,-5.209077290484261e-08,-6.771791049295236e-07,-7.516626218332481e-07,-1.7509657096463135e-06,-4.3509212111246637e-07,-1.1398078283397469e-07,7.067820413291331e-07,-8.80428813406904e-07,-1.7459038846267815e-08,-4.4542605242474855e-07
-5.374881952157771e-07,-2.531337813747508e-07,-5.89759292307019e-07,-3.428292479374817e-07,1.9211081027446548e-07,9.576648053307362e-07,8.323117622183593e-07,-7.788243955086746e-07,-7.071476897596143e-08,-6.721649596077315e-07,-7.58631160135698e-07,-1.6743722648104013e-06,-3.531282755127571e-07,-1.0633405107665188e-07,7.745840634392466e-07,-8.078702875978976e-07,1.8430842481770765e-08,-4.326651548015173e-07
-5.391074304025139e-07,-2.0769434268003093e-07,-5.742804944149552e-07,-4.2447003315971235e-07,1.8537155490196007e-07,8.692136529461551e-07,7.99806618164576e-07,-6.700683914386658e-07,-6.634472034941784e-08,-6.644282921173713e-07,-7.743904678177912e-07,-1.5763273393606175e-06,-2.560757120114857e-07,-9.624432707856456e-08,8.290571240205001e-07,-7.441406622300929e-07,5.8590320180042034e-08,-4.1830120421943506e-07
-5.351678198960236e-07,-1.4306624604686243e-07,-5.627072526159558e-07,-5.211766417771842e-07,1.7205485316952481e-07,7.715261114485518e-07,7.508570221163125e-07,-5.973402922754784e-07,-3.6116669231466757e-08,-6.579151518635107e-07,-7.983205498693628e-07,-1.4559167574503645e-06,-1.4862996733645182e-07,-8.18910505050517e-08,8.735191358792827e-07,-6.937557636324048e-07,9.935877923781136e-08,-4.0323709507196773e-07
-5.318580073721908e-07,-6.410177255294789e-08,-5.545892413267832e-07,-6.331153762690524e-07,1.5068703862754854e-07,6.700964530887553e-07,6.939630187137046e-07,-5.748838060181838e-07,1.6004988104688322e-08,-6.562242633092095e-07,-8.26805753461334e-07,-1.3166310155948418e-06,-3.9657565952997464e-08,-5.952143033107346e-08,9.105572480697217e-07,-6.55126429488204e-07,1.3756225339443287e-07,-3.8806258949918385e-07
-5.335528548802548e-07,2.1686568600451408e-08,-5.448753578655147e-07,-7.508495305318099e-07,1.2361201304967057e-07,5.708602228340848e-07,6.36496782794949e-07,-4.3201941868116064e-07,7.822520497180609e-08,-6.604646139569727e-07,-8.550340621282538e-07,-1.166865945257815e-06,5.966409091562526e-08,-2.818775845479471e-08,9.402479566730634e-07,-6.233269214060397e-07,1.7101485235322774e-07,-3.7326862907469757e-07
-5.412986659841211e-07,1.0570326646768011e-07,-5.327622681308567e-07,-8.489607301382057e-07,7.919029388108975e-08,4.774721037470987e-07,5.814727196964962e-07,-2.7877868304830703e-07,1.3341518103697476e-07,-6.692961847864415e-07,-8.78254315812781e-07,-1.0190819928590627e-06,1.3908750670970076e-07,9.713248405756418e-09,9.59844950528553e-07,-5.920191227353199e-07,1.9777338354502853e-07,-3.601907928296228e-07
-5.537534978737605e-07,1.7983809097373095e-07,-5.174048460044474e-07,-9.347217747437769e-07,1.900463334919846e-08,3.9037415550124986e-07,5.325019619369519e-07,-1.8626567499048233e-07,1.6672412534232358e-07,-6.807406328990556e-07,-8.934573891055027e-07,-8.874043979571965e-07,1.9282202455298253e-07,4.953615105203884e-08,9.668570561543837e-07,-5.562832277518944e-07,2.1535074525097267e-07,-3.5149308885517443e-07
-5.692723768104114e-07,2.377455567110651e-07,-5.029714331491081e-07,-9.944554325477295e-07,-5.3634700711021625e-08,3.0824631982688e-07,4.854410512585543e-07,-1.1602144469287978e-07,1.6564347511054754e-07,-6.939319616495694e-07,-9.029798336668817e-07,-7.835964865735987e-07,2.1835241837621765e-07,8.547509910227172e-08,9.60923247575111e-07,-5.141741780988721e-07,2.2122914658530252e-07,-3.5031761283661576e-07
-5.870625234451859e-07,2.7607949679925515e-07,-4.940153488076057e-07,-1.035149486594517e-06,-1.3830125967290195e-07,2.3034883429317848e-07,4.3696321313370846e-07,-4.114859811024183e-08,1.3656132290985778e-07,-7.094791913502878e-07,-9.108408620642794e-07,-7.124325411468536e-07,2.18647820728093e-07,1.1152236947226425e-07,9.452110803900543e-07,-4.6671438169616027e-07,2.1462550408266968e-07,-3.585619086532694e-07
-6.064886503053171e-07,2.957615639645705e-07,-4.940669540496194e-07,-1.0637394178882805e-06,-2.2387506623280082e-07,1.5826015909940094e-07,3.873172429060802e-07,-3.832466501821044e-08,9.952712918366603e-08,-7.285054172943868e-07,-9.1977159355342e-07,-6.689948598506472e-07,2.0445786465235402e-07,1.260781518000082e-07,9.263688134479282e-07,-4.169348185764237e-07,1.9793108754747342e-07,-3.7570154483147936e-07
-6.256791124010765e-07,3.0246712707971394e-07,-5.005321036814484e-07,-1.0771896682688153e-06,-3.046211208162763e-07,9.544170945213144e-08,3.3978425839202567e-07,-5.3165047558936e-08,6.750732248921243e-08,-7.5142173447161e-07,-9.321415224355372e-07,-6.403229489695472e-07,1.897293077009562e-07,1.3201888418242926e-07,9.119141839705481e-07,-3.6902068810046506e-07,1.7628921994497687e-07,-3.99174182267316e-07
-6.411626101141623e-07,3.0525330320642376e-07,-5.09642648182682e-07,-1.084243624092053e-06,-3.759767577646709e-07,4.5077345265607914e-08,2.989288414404808e-07,2.892269708555103e-08,1.2835668575680897e-07,-7.773264953778884e-07,-9.489746636104714e-07,-6.114663772299865e-07,1.8722203724324768e-07,1.3316199068544611e-07,9.057222070192208e-07,-3.2863874277791225e-07,1.5533632202068323e-07,-4.260620544410006e-07
-6.489921841516092e-07,3.1318804705684774e-07,-5.174660724910855e-07,-1.0888497256873214e-06,-4.359380801245117e-07,7.993515442329975e-09,2.666401249464949e-07,1.4381001298510194e-07,2.711479811587709e-07,-8.041892732773763e-07,-9.712861878817138e-07,-5.730111270220297e-07,2.0337094346306373e-07,1.3130240645338752e-07,9.03831207382235e-07,-3.0379588864070924e-07,1.3868225666525721e-07,-4.5477925485416263e-07
-6.463412306745537e-07,3.315230235701695e-07,-5.244146898872477e-07,-1.1001819461889697e-06,-4.898683369573386e-07,-1.7737892343990643e-08,2.3974786653062406e-07,2.6888480888600973e-07,3.9465662758917214e-07,-8.287190964470956e-07,-1.0007210918091904e-06,-5.260561146870995e-07,2.3613424749561913e-07,1.2402808099316352e-07,8.934811692585883e-07,-3.0435931071022304e-07,1.2688645832355535e-07,-4.853969828043072e-07
-6.322417069388164e-07,3.597113172406165e-07,-5.333700438895536e-07,-1.1152905519333787e-06,-5.46459416143725e-07,-3.5219422570998503e-08,2.1105392611284017e-07,4.3191507617640684e-07,5.33639475506009e-07,-8.466023150634216e-07,-1.0384759545051591e-06,-4.822992265458805e-07,2.7594030232430944e-07,1.0590867990138017e-07,8.568054086028804e-07,-3.3955974675476235e-07,1.1828537683935104e-07,-5.183443990236956e-07
-6.073603299434497e-07,3.922787195604787e-07,-5.47913493088966e-07,-1.1369015922598122e-06,-6.146023607024895e-07,-4.6571633307915026e-08,1.731505640279205e-07,6.518935725026086e-07,7.382630747936295e-07,-8.531610940216868e-07,-1.0828368918248993e-06,-4.5958527604314353e-07,3.108674153527714e-07,7.156403729938818e-08,7.778480369662147e-07,-4.146280159733536e-07,1.1046782274637862e-07,-5.526755091654268e-07
-5.738412221913919e-07,4.218577729932704e-07,-5.7062032358029e-07,-1.158125307004908e-06,-6.961295226798206e-07,-5.187345707214237e-08,1.2255985740157442e-07,8.12602756921774e-07,9.621823633822405e-07,-8.454038418222986e-07,-1.1296358231593076e-06,-4.7515897115132487e-07,3.29974960904513e-07,1.82036803706325e-08,6.494010486757352e-07,-5.277164316951347e-07,1.011751752055145e-07,-5.853510977669638e-07
-5.357062809837796e-07,4.426103178726315e-07,-6.000679769846088e-07,-1.1695383818117023e-06,-7.88271855952624e-07,-4.9945456199211536e-08,6.184202261575908e-08,9.136760774092981e-07,1.1532697924307007e-06,-8.240480785033308e-07,-1.1738416071918216e-06,-5.389939119773668e-07,3.2595067420573063e-07,-5.5806700320834986e-08,4.7637962906776794e-07,-6.679427586290984e-07,8.863583672513666e-08,-6.118488524714524e-07
-4.987605095784096e-07,4.525367187497075e-07,-6.314792331746462e-07,-1.165329692101215e-06,-8.791407612693745e-07,-4.0085427572639183e-08,-9.779432967715478e-10,9.618030620708678e-07,1.2788407734038572e-06,-7.939362573465881e-07,-1.210938462327429e-06,-6.494440519291382e-07,2.97905255227453e-07,-1.4449266443907633e-07,2.7503902805474504e-07,-8.162159142472685e-07,7.205258099226202e-08,-6.273588731528206e-07
-4.689766401434253e-07,4.5358673886555936e-07,-6.574620709243459e-07,-1.136353498522127e-06,-9.538047544396535e-07,-2.284961607391062e-08,-5.4845308119204764e-08,1.0090726878163781e-06,1.3299521763643463e-06,-7.621253913541535e-07,-1.2378971506854219e-06,-7.925884328025957e-07,2.4894422095146556e-07,-2.349162141394267e-07,6.951462733284323e-08,-9.501770346753559e-07,5.231223647811551e-08,-6.27905885464294e-07
-4.4984212411121107e-07,4.5038756145069834e-07,-6.700410275767475e-07,-1.0812244850390058e-06,-9.954067797648372e-07,6.598271743635471e-10,-8.905421887635709e-08,1.112977455052021e-06,1.3577291324650104e-06,-7.345970842211405e-07,-1.2528830375473259e-06,-9.455665871864269e-07,1.8545453377694514e-07,-3.1706324919786085e-07,-1.1297254216261502e-07,-1.0515655672817237e-06,3.205814682713017e-08,-6.113728663200706e-07
-4.407298716085804e-07,4.479200370438561e-07,-6.637241870578831e-07,-1.022098908134207e-06,-9.923226234112152e-07,2.990038577411891e-08,-9.681175309819233e-08,1.214664751337219e-06,1.3669583320079247e-06,-7.144049404678027e-07,-1.255166732357783e-06,-1.0832773669720128e-06,1.1445824293813484e-07,-3.5007569564421765e-07,-2.478606686276599e-07,-1.111746285910334e-06,1.4532864629371021e-08,-5.784487494689503e-07
-4.3770642803567976e-07,4.491773680270766e-07,-6.379491439470037e-07,-9.323451235409013e-07,-9.440260850858683e-07,6.495391198981592e-08,-7.783302075332553e-08,1.3096285149216619e-06,1.3449076957393864e-06,-7.01904522453097e-07,-1.2456268509256543e-06,-1.1862777743845276e-06,4.293291200459039e-08,-3.091980829658961e-07,-3.1897766196408507e-07,-1.1329588928415388e-06,1.909375518206662e-09,-5.329073075938885e-07
-4.361179372110982e-07,4.5422548893654723e-07,-5.976164069368118e-07,-8.405483230162117e-07,-8.591970579998894e-07,1.0562752843016855e-07,-3.8542230253049626e-08,1.3847484448371216e-06,1.2966298612678282e-06,-6.962204516432911e-07,-1.2267001060263076e-06,-1.2461464709568648e-06,-2.414341708069398e-08,-3.2874514798801835e-07,-3.218485573295861e-07,-1.1255561134861474e-06,-5.428200481692442e-09,-4.804489058732252e-07
-4.328084026800678e-07,4.6110977670013214e-07,-5.507154507853502e-07,-7.351066244738217e-07,-7.541219001703191e-07,1.5078671229987134e-07,1.0727216954992064e-08,1.4245964714843526e-06,1.2330344904673583e-06,-6.96312318297402e-07,-1.2011196198469446e-06,-1.2655206631444508e-06,-8.24534003643122e-08,-3.206182031365481e-07,-2.631683478924209e-07,-1.1029065117354244e-06,-8.101305907944406e-09,-4.2643990509131944e-07
-4.2663230944643625e-07,4.6800775006832884e-07,-5.044020721808715e-07,-6.180484956675398e-07,-6.448003458126544e-07,1.9858849405499718e-07,6.015899826270409e-08,1.3970518857480019e-06,1.1588443721225253e-06,-7.009180619136024e-07,-1.1707673110892387e-06,-1.2541557094539776e-06,-1.273927155905314e-07,-2.497904409817865e-07,-1.5816161150378725e-07,-1.0768263432824804e-06,-6.536602961135339e-09,-3.7424679811793286e-07
-4.174505288215504e-07,4.7473843807534017e-07,-4.6262306976435587e-07,-5.12796558126504e-07,-5.433735837703065e-07,2.4704258947223854e-07,1.0358661837852701e-07,1.3384074112060093e-06,1.082038361121451e-06,-7.078628793298234e-07,-1.1365519445141621e-06,-1.224730795899106e-06,-1.5663963289498308e-07,-1.4466426846127476e-07,-2.795107339793614e-08,-1.05551441476034e-06,-7.742407427057533e-10,-3.2548668420614805e-07
-4.050957637546027e-07,4.823796636860333e-07,-4.267194301940267e-07,-4.175965217051286e-07,-4.573361234687074e-07,2.9432112907835084e-07,1.385011026672681e-07,1.2694985519945438e-06,1.0104691773862284e-06,-7.140133532449625e-07,-1.097746977010203e-06,-1.1901158386752522e-06,-1.712614504303394e-07,-6.658410119962674e-08,1.0368336055162274e-07,-1.0436324114111038e-06,8.718450322912018e-09,-2.8145513491319047e-07
-3.8943201010939505e-07,4.918686600999466e-07,-3.975176276622672e-07,-3.381163728164615e-07,-3.9319635606262804e-07,3.392491653537105e-07,1.667262755318684e-07,1.2030951814110902e-06,9.495655340376363e-07,-7.163894794468526e-07,-1.0572961911892279e-06,-1.1611146617698317e-06,-1.7645777882005367e-07,-1.3951060121528472e-08,2.153787429157352e-07,-1.0423667236588183e-06,2.0567952940881538e-08,-2.437765436189159e-07
-3.7084868137816257e-07,5.033754116565968e-07,-3.733472501490727e-07,-2.6979572634899626e-07,-3.473756142624954e-07,3.822816364486018e-07,1.883948557505273e-07,1.1465151213271301e-06,9.018124415108974e-07,-7.134794514709697e-07,-1.0191053847094165e-06,-1.1439221164847923e-06,-1.7737022916504632e-07,1.7175899040568523e-08,2.9356038366890414e-07,-1.0485513868647167e-06,3.319692189022708e-08,-2.134954486596888e-07
-3.501415506674819e-07,5.169755183543122e-07,-3.5231916094003763e-07,-2.3830966097228874e-07,-3.164809208242921e-07,4.264174214098634e-07,2.052010301139445e-07,1.0848324528180313e-06,8.678093156382006e-07,-7.054915733601591e-07,-9.864215518483708e-07,-1.1384792470773576e-06,-1.764413433889156e-07,2.497862834465338e-08,3.3490030395745566e-07,-1.054522284179538e-06,4.592126315713616e-08,-1.898115035230847e-07
-3.280159527628984e-07,5.335841926143042e-07,-3.3476723351172325e-07,-2.2175319483809837e-07,-2.921976844291607e-07,4.766410101236118e-07,2.2031478049843995e-07,1.023216032119995e-06,8.470908845658157e-07,-6.939668281780003e-07,-9.583070178892996e-07,-1.1394280313042718e-06,-1.719466840351482e-07,1.660546985106484e-08,3.445994275481889e-07,-1.0501737795858059e-06,5.904120270401175e-08,-1.700956416712825e-07
-3.053205534456917e-07,5.549043804259796e-07,-3.1337059433566755e-07,-2.1856171751381582e-07,-2.846285621762062e-07,5.372879372738229e-07,2.4146828208629394e-07,9.676525143443659e-07,8.375440265477377e-07,-6.813750256056203e-07,-9.319866819118136e-07,-1.1395592528988272e-06,-1.612447159071886e-07,1.4538572225118942e-09,3.323063604771077e-07,-1.026338357898813e-06,7.270662713079471e-08,-1.514615067983321e-07
-2.839723365640163e-07,5.822553162902857e-07,-2.817080666298942e-07,-2.2622939096240754e-07,-2.7609982303357065e-07,6.089809236258644e-07,2.759956602947184e-07,9.4434586799441e-07,8.341524498069606e-07,-6.707827348473174e-07,-9.042373132731568e-07,-1.1335380029738245e-06,-1.4395792111609815e-07,-1.3464955213558834e-08,3.083064157599198e-07,-9.77750940623363e-07,8.585587917847006e-08,-1.3261184405673915e-07
-2.674318741652577e-07,6.152482706340138e-07,-2.3518441404639087e-07,-2.2590716480791183e-07,-2.469859284596714e-07,6.877864258240935e-07,3.2923515455212244e-07,9.260456969827609e-07,8.289811186674092e-07,-6.647139221967757e-07,-8.765478623702486e-07,-1.1193811169344469e-06,-1.2344429081165582e-07,-2.569831197481197e-08,2.8130664283087666e-07,-9.052083167057951e-07,9.653768669799005e-08,-1.1456033872514279e-07
-2.5898686910158343e-07,6.514436274395566e-07,-1.749540450005093e-07,-2.2889806808567545e-07,-1.7317462005395831e-07,7.67543003732566e-07,3.9831915130574594e-07,8.960352891110117e-07,8.134582569452882e-07,-6.632411352600938e-07,-8.679884346494106e-07,-1.0973706898725553e-06,-1.0554262977762049e-07,-3.636105140962669e-08,2.578620555723933e-07,-8.170837643190558e-07,1.0332732223677238e-07,-1.0018505252654352e-07
-2.599656231712817e-07,6.86709531475455e-07,-1.0784799489592879e-07,-2.3865365962867714e-07,-4.974112993601311e-08,8.432338659403409e-07,4.500663266713516e-07,8.581801166402122e-07,7.818520401252689e-07,-6.62662283835596e-07,-8.80758813947647e-07,-1.0683686441155603e-06,-9.590288909620958e-08,-4.7936982587412997e-08,2.427471638324207e-07,-7.292865713436095e-07,1.0622768687353893e-07,-9.35960763524286e-08
-2.690830020830749e-07,7.156549723802756e-07,-6.941680448606293e-08,-2.48418067999554e-07,4.782026934901054e-08,9.125191686581048e-07,4.7054156622295653e-07,7.9687013787107e-07,7.337783659655142e-07,-6.56475743752597e-07,-9.298186236572463e-07,-1.0331217580972288e-06,-9.845220296165909e-08,-6.28272137043859e-08,2.391608065341773e-07,-6.624016238029562e-07,1.0603501895610622e-07,-9.972093616316092e-08
-2.841030782072365e-07,7.320519455951931e-07,-1.0478326180764507e-07,-2.900603157839493e-07,4.6679266985381515e-08,9.74607040522684e-07,4.1038666728886634e-07,7.222976255447074e-07,6.746283458630071e-07,-6.387156703877411e-07,-1.0055159294626227e-06,-9.920807582661455e-07,-1.1414824929152232e-07,-8.374764159937377e-08,2.48389567780234e-07,-6.360423094355344e-07,1.0295567971106644e-07,-1.2341938153403448e-07
-3.0491184285372e-07,7.30003419694188e-07,-2.077959090319175e-07,-3.570566763238876e-07,-3.756476586092103e-08,1.027623843610449e-06,3.011926968256315e-07,6.446076149946941e-07,6.142866383489455e-07,-6.080183548348022e-07,-1.0440014885905302e-06,-9.445081075069788e-07,-1.3908934160002422e-07,-1.0734563865321023e-07,2.7008260021709926e-07,-6.619752551178357e-07,9.617125617898981e-08,-1.674626868226853e-07
-3.347064570175668e-07,7.064097971941374e-07,-3.264135255668404e-07,-3.96842835429762e-07,-1.3792788461719598e-07,1.0665756060722908e-06,2.0580427263670444e-07,5.638710404096269e-07,5.648289519749342e-07,-5.698487383109361e-07,-1.0712081793718205e-06,-8.871305273268737e-07,-1.631016026131382e-07,-1.3188090905287503e-07,3.0394585325294316e-07,-7.38199974393744e-07,8.502522496620897e-08,-2.2993371328483057e-07
-3.776981889339175e-07,6.636703721904447e-07,-4.043148904434757e-07,-4.301464050758603e-07,-1.8397031609889158e-07,1.0832162885058674e-06,1.5220634947355166e-07,4.916277331124794e-07,5.374169359175915e-07,-5.348977401263425e-07,-1.0898336773182623e-06,-8.142898892995654e-07,-1.711091504541553e-07,-1.4962832726827062e-07,3.510741361465492e-07,-8.469328194486784e-07,7.068383345054244e-08,-3.0288036982655644e-07
-4.3465705529085477e-07,6.104516334211186e-07,-4.5870574810049526e-07,-4.616612141092851e-07,-1.8638012011642422e-07,1.0676640954444656e-06,4.2676593060016134e-08,4.723767524324012e-07,5.385994064031594e-07,-5.14734272592875e-07,-1.1665441617028412e-06,-7.213676664002767e-07,-1.4633224292769065e-07,-1.497382608580328e-07,4.122543129070708e-07,-9.597888949958578e-07,5.645447003245578e-08,-3.7400891378044994e-07
-5.000361064582594e-07,5.589029771310821e-07,-5.851930975496983e-07,-4.822388866656016e-07,-2.3415816843458603e-07,1.011797094481085e-06,-1.3947841238604526e-07,4.995756513864337e-07,5.670697953904046e-07,-5.162181978645662e-07,-1.2530664977266575e-06,-6.105398995656295e-07,-8.337500843844619e-08,-1.2778821191898933e-07,4.835551006916542e-07,-1.0497257664845435e-06,4.61105098838608e-08,-4.312085193176057e-07
-5.630610228229744e-07,5.191076669423244e-07,-6.95569396159658e-07,-5.907358272683493e-07,-3.5102807251487266e-07,9.139116936491693e-07,-2.9495844426691137e-07,5.509339826620288e-07,6.125981533543317e-07,-5.378774080015297e-07,-1.3190075033603348e-06,-4.946016032573595e-07,4.583649037368877e-09,-8.195291611008523e-08,5.533311260448333e-07,-1.102891199231086e-06,4.1515694220879817e-08,-4.671097603702094e-07
-6.125485789618028e-07,4.941953694873853e-07,-7.5799246022825e-07,-6.970360046348334e-07,-5.120027727025163e-07,7.821067512743221e-07,-3.8412725059693113e-07,6.668249827315298e-07,6.582997233583081e-07,-5.708687891583111e-07,-1.3692612196538868e-06,-3.944412857158058e-07,9.809473554012715e-08,-2.5282297965015604e-08,6.048023387723771e-07,-1.1219500388856437e-06,4.166274267439772e-08,-4.805912731785178e-07
-6.419707093530444e-07,4.798401182153531e-07,-8.422280333852615e-07,-7.51572650461468e-07,-5.577338743924295e-07,6.333449179045701e-07,-4.5775805769579245e-07,7.760062101409318e-07,6.857572087437879e-07,-6.036232394106379e-07,-1.4127781891517098e-06,-3.305383741374082e-07,1.615106774738966e-07,3.4787359322405394e-08,6.231497521006998e-07,-1.1194339710925603e-06,4.386729442842118e-08,-4.749804230545971e-07
-6.51287307514444e-07,4.682519825677227e-07,-9.079746956656957e-07,-8.066169724353345e-07,-6.220825573291468e-07,4.879678838981368e-07,-4.98650442384329e-07,8.362110157230195e-07,6.808022772021173e-07,-6.267207797315797e-07,-1.4272743318221107e-06,-3.144668754378527e-07,1.3227804753318604e-07,6.757429634367238e-08,6.008639393064112e-07,-1.1081132534483942e-06,4.5699637810984945e-08,-4.554035939849929e-07
-6.453115519515345e-07,4.5293568093999246e-07,-8.702094674123763e-07,-8.73358195547477e-07,-6.841567043935676e-07,3.6285904501529925e-07,-5.54971447961642e-07,8.249469451336879e-07,6.372559437100181e-07,-6.360628529113209e-07,-1.4127068604905868e-06,-3.4614177661552374e-07,1.313661884517255e-07,6.178037402785658e-08,5.371289232422782e-07,-1.0958847685813318e-06,4.584403650806931e-08,-4.2736739230478597e-07
-6.308261746406275e-07,4.307676381967846e-07,-7.993782511723586e-07,-9.430772684392444e-07,-7.863467498763733e-07,2.6644661733778527e-07,-5.3067383595491e-07,7.688884821141528e-07,5.572538667904442e-07,-6.321181466273376e-07,-1.3796836546227292e-06,-4.1695051870985544e-07,1.1993646676955828e-07,-5.924976096118851e-09,4.3411971524591203e-07,-1.086064924053518e-06,4.369030691242981e-08,-3.964727082476729e-07
-6.144424862599593e-07,4.013384640474012e-07,-7.425674205751617e-07,-1.0105423089136814e-06,-8.452226456940969e-07,1.9730940669423014e-07,-4.6436963365889053e-07,7.274860754342776e-07,4.489931142010476e-07,-6.179078242580546e-07,-1.3618795911625541e-06,-5.146415078020235e-07,3.0130830635210825e-08,-7.985268018020967e-08,2.957018596367339e-07,-1.0793181997768493e-06,3.8839308304102166e-08,-3.680393551624968e-07
-6.015443335101353e-07,3.658122445409413e-07,-7.167370809104392e-07,-1.072318946009643e-06,-8.206980104123044e-07,1.4683835403484198e-07,-4.2190251050401577e-07,6.793637879095e-07,3.2394694636772937e-07,-5.970252761889902e-07,-1.3521668816474489e-06,-6.266594569887027e-07,-8.269933629867186e-08,-1.4424342032730014e-07,1.2957096669545907e-07,-1.0747382941411757e-06,3.129720613794466e-08,-3.4617205409429125e-07
-5.953048043613879e-07,3.264422606070955e-07,-7.128540595963333e-07,-1.0445467121012585e-06,-7.826578961358075e-07,1.0473269368537696e-07,-3.76761672407009e-07,5.462010688641538e-07,1.9479756383162433e-07,-5.717256601879607e-07,-1.3396000342006367e-06,-7.416242734316088e-07,-1.732426826419454e-07,-2.604178345094168e-07,-5.076079251136382e-08,-1.070490005725318e-06,2.1847076071275845e-08,-3.330682015007246e-07
-5.960094920649143e-07,2.8633206424960485e-07,-7.252090692558946e-07,-9.946090165216536e-07,-7.275042618992655e-07,6.427775973123101e-08,-3.278071022932587e-07,3.7386392424000597e-07,7.370870397997323e-08,-5.426771088528735e-07,-1.323198237962246e-06,-8.505269447945584e-07,-2.4298487875627144e-07,-3.912302999647525e-07,-2.2723076611210177e-07,-1.0651916040464447e-06,1.1765478302119301e-08,-3.293119518867432e-07
-6.013935326509252e-07,2.4858506612936943e-07,-7.464082130438271e-07,-9.263019026511998e-07,-6.332926526355897e-07,2.4249611820763055e-08,-3.186275711328643e-07,2.3720090872469637e-07,-2.975812414885677e-08,-5.085417095905158e-07,-1.301060258073451e-06,-9.480869242739968e-07,-2.982648132553356e-07,-4.904460773633976e-07,-3.815088293071007e-07,-1.0595286659408953e-06,2.042520292973787e-09,-3.3451965774234257e-07
-6.081079539604329e-07,2.1524812170503707e-07,-7.681813718542513e-07,-8.33860702070118e-07,-5.895598735815827e-07,-1.3236996532278773e-08,-3.3167670810072994e-07,9.581414038097577e-08,-1.1070563584770714e-07,-4.6910853117666996e-07,-1.2737970839117747e-06,-1.0328816025481568e-06,-3.403907655579558e-07,-6.030756825256359e-07,-5.002899245676355e-07,-1.0561728041327656e-06,-6.929610251294331e-09,-3.4717262228855817e-07
-6.134898495773759e-07,1.873619088664325e-07,-7.84666625187704e-07,-7.608902382589346e-07,-5.738305586380733e-07,-4.505920103914798e-08,-3.598408510465186e-07,4.182423231022866e-09,-1.7005622582046406e-07,-4.2626881827839825e-07,-1.2435939587848156e-06,-1.105736425326343e-06,-3.7286733166188026e-07,-6.956916379780725e-07,-5.793897153796797e-07,-1.0577651447976639e-06,-1.4845923698550439e-08,-3.6390364303574045e-07
-6.16295814317194e-07,1.6611953495571867e-07,-7.920551653249355e-07,-6.966141944858674e-07,-5.763346193588851e-07,-7.510750452272959e-08,-3.953267292715104e-07,-6.591140380472724e-08,-2.1439734598603933e-07,-3.8330640674589017e-07,-1.2120235896449547e-06,-1.167538915890315e-06,-3.955184850301939e-07,-7.670631960523409e-07,-6.241060056166094e-07,-1.0649262399944395e-06,-2.0977058010986376e-08,-3.7978797000705947e-07
-6.164536835921778e-07,1.5364199822739818e-07,-7.876876659692911e-07,-6.374914178328511e-07,-6.034169554919244e-07,-1.137451283579542e-07,-4.216714620518912e-07,-1.3752542260369404e-07,-2.542040327969234e-07,-3.4394748927618627e-07,-1.1795635329884353e-06,-1.2176676335986715e-06,-4.0588646864194175e-07,-8.356998665390508e-07,-6.445632300307737e-07,-1.0751969959804016e-06,-2.4454443255446774e-08,-3.901713041262145e-07
-6.148554115768296e-07,1.5244300669160572e-07,-7.70430622488277e-07,-5.814376024253735e-07,-6.403408267335987e-07,-1.6848152807352793e-07,-4.4031818320357266e-07,-2.1016220025265474e-07,-3.001513845798173e-07,-3.1079512495146904e-07,-1.1462677424275255e-06,-1.2531199792352882e-06,-4.008274479810908e-07,-8.899188973246464e-07,-6.486773212624263e-07,-1.0821079739555165e-06,-2.4927639680400825e-08,-3.925901705796896e-07
-6.134960506822403e-07,1.6420823048561119e-07,-7.416104053892958e-07,-5.327357882686806e-07,-6.840724297812626e-07,-2.4259358857573205e-07,-4.551249897732241e-07,-3.079272572362826e-07,-3.5857968901497063e-07,-2.8501375262068863e-07,-1.1123571422402047e-06,-1.2685009631128769e-06,-3.79100945598864e-07,-9.328257588300206e-07,-6.379552018201692e-07,-1.0749086105594343e-06,-2.2561107206295566e-08,-3.870657001077634e-07
-6.150113464914452e-07,1.8894606915216602e-07,-7.047587064773676e-07,-4.923158583609147e-07,-7.287609997934021e-07,-3.316716780971805e-07,-4.6804349229979896e-07,-4.212453923490171e-07,-4.288738940174764e-07,-2.662873879239906e-07,-1.0781961880535086e-06,-1.2575384067873089e-06,-3.3955669969727455e-07,-9.569523321246938e-07,-6.091246295559053e-07,-1.0408561833893724e-06,-1.729202255723814e-08,-3.7478040899779043e-07
-6.213531115027466e-07,2.2494598942090578e-07,-6.639234579611405e-07,-4.6225248243582884e-07,-7.644795435470077e-07,-4.248309313558751e-07,-4.803698608349139e-07,-5.348787180000593e-07,-5.049722098594593e-07,-2.538048411326514e-07,-1.043541661935245e-06,-1.2159273533728932e-06,-2.834400556644063e-07,-9.526450887482437e-07,-5.596470590650702e-07,-9.70406310037981e-07,-8.439283178413231e-09,-3.568731133384494e-07
