0,1,2,3,4,5,6,7,8,9,10,11,12,13,14,15,16,17
-8.031084690696017e-08,1.5640511304494303e-07,4.8257456779213845e-08,-1.3501347603631844e-07,2.8916779291956986e-07,-3.306307045994438e-07,-3.428651700195944e-07,-1.5128001458689924e-07,1.0137435369816073e-07,-5.625855394922488e-07,-1.6391469893585111e-07,-1.6354675720739217e-07,2.7618966433115223e-07,2.1728572410230497e-07,-6.726001136197156e-08,-1.7233737139216584e-07,-2.430473667944753e-07,-1.2764515153176754e-07
-2.792187877501549e-08,1.4527119631002856e-07,7.598125611003453e-08,-1.0712332424137777e-07,2.3635650593842776e-07,-2.1205982900935391e-07,-2.986100958701189e-07,-1.0149495366069693e-07,1.0374631352213577e-07,-3.9001831230441217e-07,-7.691666172496813e-08,-3.308405654198634e-08,1.5983284741187726e-07,1.646283228137739e-07,-4.4939472671595716e-08,-1.3679142259643583e-07,-1.934073611897934e-07,-1.0156032914118789e-07
1.6049266632571007e-08,1.380047316247804e-07,8.97409261974874e-08,-8.312569872893124e-08,1.7493254345935063e-07,-1.0300014432781001e-07,-2.585852999396093e-07,-5.900855889759076e-08,9.57072612266463e-08,-2.243362996993461e-07,-7.987569862865664e-09,8.759024130448458e-08,5.118732865853505e-08,9.148774482821982e-08,-3.132554715987498e-08,-1.067514021139527e-07,-1.4344138972602643e-07,-7.60955598068301e-08
5.058090975390494e-08,1.2908802310387358e-07,8.901600200724927e-08,-5.883187898532319e-08,1.0393828898377355e-07,-1.3504328410930926e-08,-2.2451689988725042e-07,-2.3800431023266476e-08,8.036889358456578e-08,-8.161160744106573e-08,3.7493306478961055e-08,1.799534389084915e-07,-3.693552862771901e-08,1.7346141783235495e-08,-2.00600802927878e-08,-8.106559695862836e-08,-9.8187231280407e-08,-5.1968582014207654e-08
7.394093141943036e-08,1.1962056321319932e-07,7.577159100144371e-08,-4.170560054584772e-08,3.87975703899614e-08,4.98802845251006e-08,-1.9747656989086652e-07,3.4445256036840736e-09,6.897368026404583e-08,2.8375899153607353e-08,5.999739015700678e-08,2.3009492599412542e-07,-9.516873614091276e-08,-4.038468506976068e-08,-7.293394365357164e-09,-5.9331899656427236e-08,-6.18308698104228e-08,-3.043606187426506e-08
8.428822254984713e-08,1.0776119496180453e-07,5.669610936882048e-08,-3.2947343785397944e-08,-1.4322768140794049e-08,9.071253803012255e-08,-1.6408874237330274e-07,1.413594533514018e-08,6.145433511940433e-08,1.0046428859710169e-07,6.480051749613946e-08,2.3211928813069636e-07,-1.2025404425355496e-07,-6.475633749230604e-08,8.890977898351093e-09,-4.116857567809938e-08,-3.588736998902285e-08,-1.254767622370122e-08
8.047865110611181e-08,9.537986108220108e-08,3.596976783968173e-08,-4.657604792375168e-08,-3.71792178889644e-08,1.0611413556633613e-07,-1.2653594183305226e-07,7.893271326661651e-09,6.273392577910021e-08,1.342302973519662e-07,5.907008270416156e-08,1.899577330445676e-07,-1.1559684099952913e-07,-6.119034342006096e-08,2.5002690090168764e-08,-2.5634091817739705e-08,-1.8608453927338532e-08,1.120949954833402e-09
6.860506719112221e-08,8.4972296753358e-08,1.449767404006218e-08,-6.991607152254899e-08,-2.0481599386486852e-08,9.896325421820504e-08,-8.159764194803147e-08,-2.631366400561496e-08,7.083034324537075e-08,1.4146012017765765e-07,4.9072507842930334e-08,1.160726303830311e-07,-9.009993320602749e-08,-3.2225044788221636e-08,3.978857015507401e-08,-1.0216854389259567e-08,-4.217542699400158e-09,1.12892565829755e-08
4.902196013677339e-08,6.024368772675612e-08,-7.144727345323095e-09,-7.216411301456719e-08,2.4966721833349615e-08,7.526045854176912e-08,-1.9021750991296068e-08,-4.383071986641799e-08,6.073693093816281e-08,1.3112795529795057e-07,3.863901553825059e-08,3.0230842339057955e-08,-5.566735354170415e-08,1.3448410564452175e-08,5.426674200598631e-08,9.083707099084776e-09,1.3434941044938815e-08,1.9874629384939617e-08
2.5681330053899733e-08,1.4553346391557546e-08,-3.04383751944824e-08,-4.841413078094002e-08,5.295161724865181e-08,3.075878650682998e-08,5.315038077224478e-08,-3.3654858882763054e-08,3.9138486324012925e-08,1.1088771734579719e-07,2.8690487544844567e-08,-4.672546153324137e-08,-2.3893166904827257e-08,6.217199546729407e-08,6.141721474803177e-08,3.549429311946602e-08,3.9438294316355205e-08,2.8585943005712993e-08
2.0810011010298093e-09,-3.8219101543054265e-08,-4.397121475323199e-08,5.038096481571608e-09,4.2183865388960404e-08,1.0113894744301105e-08,1.2796547942801645e-07,5.579381580801868e-09,4.09005426517542e-09,9.342480376063281e-08,1.7800875869638945e-08,-9.961106009625621e-08,-2.4805266344229744e-09,6.437349180798796e-08,5.468112555697087e-08,6.926051512163196e-08,7.490013287648351e-08,3.839091523813071e-08
-2.3814480760569304e-08,-9.701577985631134e-08,-4.9060350174140593e-08,8.168876379305948e-08,-1.1400044870748557e-08,1.1238773639241719e-08,1.9727369896375376e-07,7.139282080250958e-08,-4.555648669792827e-08,8.560599322796299e-08,4.044504485337023e-09,-1.2662407449164017e-07,6.798915822067567e-09,4.2385308678247945e-08,2.6172729109255208e-08,1.0317926476776854e-07,1.1323582636574299e-07,4.9595008732555615e-08
-3.896450635614502e-08,-1.5459192334002507e-07,-5.326015465496999e-08,1.4402762696224443e-07,-1.0282270301755939e-07,2.0606541304965712e-08,2.5297379873497883e-07,9.785813640673253e-08,-9.887560452190155e-08,9.421996895748771e-08,-1.2687280010073044e-08,-1.3224999834259727e-07,8.079991935610489e-09,-1.6946173391413386e-08,-1.7666978307790195e-08,1.304209380104149e-07,1.4813822587401994e-07,6.132900455204485e-08
-5.294768378195077e-08,-1.9739358204488324e-07,-6.551927318232742e-08,1.560330769975364e-07,-1.9489508513000695e-07,3.107857630168519e-08,3.086479032460146e-07,7.73023178753154e-08,-1.5298561964421232e-07,1.1196762349434264e-07,-2.9220316724561487e-08,-1.3079846230853012e-07,8.04801389887556e-09,-1.3777096868775974e-07,-6.413001675073513e-08,1.3847575055000046e-07,1.6689138251279673e-07,6.978100919253926e-08
-8.274873788072638e-08,-2.530816173381563e-07,-9.799559947010961e-08,1.5477060430130955e-07,-2.608501317490293e-07,4.89025218267372e-08,3.414827876159475e-07,6.8097367369141e-08,-1.9795089056940593e-07,1.313621708858312e-07,-3.852810107589141e-08,-1.4201853624602843e-07,1.1543183016758191e-08,-1.7553858775698673e-07,-6.015909334802183e-08,1.1263534156968384e-07,1.5228091040181515e-07,6.862993773104781e-08
-1.4401920548332517e-07,-3.109980100900732e-07,-1.3854108856941006e-07,1.5425951702928267e-07,-3.2134335597845586e-07,8.556524114224466e-08,4.318040639921662e-07,9.36794346232624e-08,-2.537859765333328e-07,9.542492068673447e-08,-3.0354059783060424e-08,-1.9136069333678235e-07,1.841618523382414e-08,-1.443149994390082e-07,4.2614544694297185e-08,3.474740436465877e-08,9.03078720247341e-08,5.165670621717717e-08
-2.2035360552902564e-07,-3.845512636943069e-07,-1.7495473409437655e-07,1.7258346852952398e-07,-3.5650327729570177e-07,1.5293487007499896e-07,5.846353730506193e-07,2.1725014555209048e-07,-3.081231431077213e-07,-7.539568749103498e-08,6.537944413949088e-09,-3.0285057328786336e-07,2.1341488295424077e-08,1.2314917067068343e-07,2.587281924381293e-07,-1.1082712819525995e-07,-2.9298989252231922e-08,1.47438940049917e-08
-2.935472580496422e-07,-5.411883850591343e-07,-1.6678966504379216e-07,3.129843765779741e-07,-3.7960789255694235e-07,3.6987252333542654e-07,7.201139033012997e-07,4.834807242498446e-07,-4.378407197477406e-07,-2.734185074402992e-07,8.049696163554883e-08,-4.807039259587454e-07,5.625272968614448e-09,6.59757589469266e-07,4.829636019132549e-07,-3.2198691895519697e-07,-1.9510130444577752e-07,-4.192995068982711e-08
-3.3231476472001227e-07,-6.728616506483278e-07,-8.195901676290331e-08,4.446896959610014e-07,-5.70793920161792e-07,5.769280560712247e-07,8.638827012123801e-07,7.416436724506278e-07,-5.38551762268066e-07,-5.36183920472732e-07,1.9307899007376929e-07,-7.139800473391976e-07,-4.6920519624516256e-08,1.158454181273852e-06,6.239802787336661e-07,-5.784378163433158e-07,-3.876722997046754e-07,-1.1238522035031603e-07
-1.9503707169766308e-07,-7.850901425575154e-07,2.4304384652225475e-08,5.430342643372478e-07,-7.638375270216608e-07,7.783776168939075e-07,9.97859106209563e-07,9.189056874266371e-07,-6.196026645554204e-07,-7.432331966593502e-07,3.3699621654927286e-07,-9.291165983695442e-07,-1.5033244513637053e-07,1.4608994878608214e-06,8.667932090283765e-07,-8.141437859412464e-07,-5.340974081554243e-07,-1.8369406513330372e-07
-8.377489467951443e-08,-8.769770408341696e-07,1.5314178652013617e-07,6.35844221363966e-07,-9.240624579933958e-07,9.723465256650666e-07,1.134167325817326e-06,1.0929585356736476e-06,-7.019331793190454e-07,-9.784924450463423e-07,4.966751031809758e-07,-1.0026080044274945e-06,-3.068714759955762e-07,1.8997992260528222e-06,1.1468625860971676e-06,-9.663556559903219e-07,-5.898096890071437e-07,-2.387498488837259e-07
2.9700242408057208e-08,-9.682219682149113e-07,2.8238984078162615e-07,7.106954739541884e-07,-1.0662456485286314e-06,1.1127033758702667e-06,1.2840018684721814e-06,1.2345982627898354e-06,-7.55845278950347e-07,-1.3159936946355178e-06,6.52026470912221e-07,-9.888502153650472e-07,-5.029310818945647e-07,2.393484250318779e-06,1.3081443130059398e-06,-9.23340956852605e-07,-5.801497463405981e-07,-2.62179903055315e-07
1.4941949590418966e-07,-1.047862684645923e-06,3.986517000452594e-07,7.847285074985268e-07,-1.1995414609529946e-06,1.2542144109633028e-06,1.4237932626371237e-06,1.3388968927480247e-06,-8.163518133666485e-07,-1.5049488363868517e-06,7.849974018963449e-07,-9.030979370500482e-07,-7.10797867438329e-07,2.770553042176341e-06,1.3581379729341497e-06,-8.976993609120422e-07,-5.380503389701719e-07,-2.4624991258591606e-07
2.1639679926002587e-07,-1.1545440298975848e-06,4.995693857708735e-07,8.554615239168969e-07,-1.3088547044150865e-06,1.4213057187721396e-06,1.5437179036540578e-06,1.4255249081767418e-06,-8.985298360209539e-07,-1.5768585365963879e-06,8.856280277189416e-07,-8.330416608549039e-07,-8.965454925711815e-07,2.97730947366176e-06,1.3510148539260095e-06,-8.777690258737359e-07,-5.869378748953519e-07,-1.9402055272590478e-07
3.0538352487555823e-07,-1.2492884361534921e-06,5.960257532457052e-07,9.010378181322141e-07,-1.3913744699056313e-06,1.6297140790380822e-06,1.6373288334728907e-06,1.521806365502624e-06,-1.0180995303440062e-06,-1.5863007209479487e-06,9.531139243889044e-07,-7.773783751316826e-07,-1.030704257469749e-06,3.060986794073974e-06,1.363445860207139e-06,-8.757973932062454e-07,-5.437882498346449e-07,-1.1906714066906716e-07
4.930578434608396e-07,-1.267002164822376e-06,6.878571261093872e-07,9.436819092290431e-07,-1.5483808431166302e-06,1.8182806729946752e-06,1.608267278698619e-06,1.5806958973542146e-06,-1.0906678035209468e-06,-1.6152344033540115e-06,9.917054521116314e-07,-6.863144186608137e-07,-1.0959366564043972e-06,3.186771021884959e-06,1.3814133600239198e-06,-8.107828077701538e-07,-4.5507184529483145e-07,-4.122554898286024e-08
6.686924372125135e-07,-1.2709931656640038e-06,7.963260599757727e-07,9.036846289239677e-07,-1.6558849696430762e-06,1.916548553962081e-06,1.589829628847923e-06,1.5625090861899438e-06,-1.1481166365773991e-06,-1.6495069555745287e-06,1.0059954213910232e-06,-5.094443412623278e-07,-1.0889714155038381e-06,3.2677096589560674e-06,1.324949340687075e-06,-6.390253195785584e-07,-3.994020315485742e-07,2.109165992989672e-08
7.330234121643802e-07,-1.281312405581854e-06,8.658567973105964e-07,8.739813511380327e-07,-1.6884420029262992e-06,2.0066361893948887e-06,1.6440540922573663e-06,1.5243558521380025e-06,-1.1792427220056392e-06,-1.6060547184235275e-06,9.992601442524867e-07,-3.0540436502898285e-07,-1.0180682276884331e-06,3.2389438815416258e-06,1.2395941353548314e-06,-3.836152184209065e-07,-3.6093582158960135e-07,5.65748983707601e-08
7.736743110574195e-07,-1.2579963571574735e-06,9.107224024230934e-07,8.532084262207851e-07,-1.7222392430730068e-06,2.0303454937199785e-06,1.5752350764749997e-06,1.4829558307770355e-06,-1.1645663313231477e-06,-1.5120667105141298e-06,9.746461946953294e-07,-1.3062121338556468e-07,-9.002284530124271e-07,3.1501693530494405e-06,1.073421008397965e-06,-1.5417919498512056e-07,-3.9042242158474487e-07,6.28005849314968e-08
8.798568815914857e-07,-1.2729146745519392e-06,9.622335788914568e-07,8.517358235422424e-07,-1.7479869042128536e-06,2.1793757868500313e-06,1.6115658240282514e-06,1.5035983805450974e-06,-1.1430008166803996e-06,-1.3295060288719679e-06,9.370545232071544e-07,-2.2023296434065686e-09,-7.574432300744083e-07,2.8468208759795267e-06,9.168145337151107e-07,4.6170797402209706e-08,-4.544890270025813e-07,4.698011205588649e-08
9.090279642097186e-07,-1.2936436952505595e-06,1.0101805603666203e-06,8.950327299322563e-07,-1.7618862387255986e-06,2.3573054156355095e-06,1.6809054557872346e-06,1.6442968635701737e-06,-1.176178030492367e-06,-1.1808280763292135e-06,8.937367284700188e-07,5.441741364410743e-09,-6.101462058784772e-07,2.511809623808808e-06,7.893550904256502e-07,1.8264838512871494e-07,-4.6473628459318393e-07,2.455282100493207e-08
9.963349154983692e-07,-1.2208097411482764e-06,1.0594157861571126e-06,8.706363459074052e-07,-1.8382165662222564e-06,2.4640315506711583e-06,1.719997639939278e-06,1.7199734029375523e-06,-1.223795304446297e-06,-1.0662097586372325e-06,8.528912987603396e-07,-1.1539006965917598e-08,-4.742433420161124e-07,2.174448683594709e-06,6.755903630427984e-07,2.7819937770494455e-07,-3.839073534737374e-07,1.4215936715116889e-08
1.1305443942377112e-06,-1.121543916533446e-06,1.0445341963947092e-06,8.552543071675423e-07,-1.8433348834250738e-06,2.4872092885246153e-06,1.7395838550494636e-06,1.7227737152667642e-06,-1.2613705583833934e-06,-9.561456697573421e-07,8.212454784814843e-07,-1.9980238018117466e-08,-3.6004699887457715e-07,1.8175025372272667e-06,6.267331808012836e-07,3.780547083891018e-07,-2.2547299093842506e-07,3.108763770672231e-08
1.1580857097378014e-06,-1.0886931638283492e-06,1.0472680748437284e-06,8.348126285708463e-07,-1.6974157378015897e-06,2.446603914195614e-06,1.7419194763774111e-06,1.679235373308556e-06,-1.265996646494103e-06,-8.96982729690307e-07,8.02341669241247e-07,5.130679377006551e-10,-2.721945158861121e-07,1.5773773777472058e-06,6.09337959627043e-07,5.017968918977287e-07,-4.8457391993037986e-08,8.174800338059018e-08
1.1474067124149026e-06,-1.001098139570889e-06,1.041251598948622e-06,7.960658442770832e-07,-1.594607380234431e-06,2.3629305916859027e-06,1.7703255788508031e-06,1.661550921043422e-06,-1.2453770962129884e-06,-8.519413825726324e-07,7.959296965635995e-07,6.52496266454449e-08,-2.1042771604296732e-07,1.4270956335059603e-06,5.9416653308074e-07,6.705279697951765e-07,4.002633125539616e-08,1.622709291771406e-07
1.1099945257834628e-06,-9.089866610121132e-07,9.739633177805664e-07,7.112868230884345e-07,-1.6120300683700789e-06,2.2743375015384067e-06,1.7794380102535397e-06,1.6550136722420652e-06,-1.206790895480378e-06,-8.06803139428596e-07,7.980517567340979e-07,1.595258054842162e-07,-1.7070278322591454e-07,1.3103707323048238e-06,5.738350337157273e-07,8.684072458649075e-07,2.590066315333467e-07,2.596461857374641e-07
1.031295789138113e-06,-8.032128721235751e-07,9.193603757970025e-07,7.233539021561253e-07,-1.5781115955805439e-06,2.2082663993426768e-06,1.7399416334908312e-06,1.6629788492038563e-06,-1.139676080347892e-06,-7.989333124216721e-07,8.022584810679742e-07,2.646244725543975e-07,-1.4667941644831536e-07,1.2232497481256936e-06,5.308315294029069e-07,1.0686181525207692e-06,5.191905383485839e-07,3.5610173166047876e-07
9.513966998828754e-07,-6.636690360138694e-07,8.176704137348503e-07,7.576424718523254e-07,-1.5330257332453527e-06,2.1623913251690525e-06,1.7324476975118847e-06,1.7164576619550303e-06,-1.0596949387859863e-06,-8.232295304181505e-07,8.020855538536172e-07,3.676053122449599e-07,-1.3059055130547163e-07,1.1358864914477478e-06,4.6713824033402115e-07,1.2490363934750455e-06,7.251175142861774e-07,4.3503686353387117e-07
8.929225606916498e-07,-5.033874049581244e-07,7.007814060984129e-07,6.57396731237887e-07,-1.4122917972700735e-06,2.144320952232411e-06,1.7002325544274846e-06,1.784940051733551e-06,-9.472271217185133e-07,-8.650482653577931e-07,7.933363757854991e-07,4.5655567966338705e-07,-1.1494161218944667e-07,1.0476145810078975e-06,3.8861409414184134e-07,1.3935306251879302e-06,9.063098910648999e-07,4.854279141602903e-07
8.242054061048893e-07,-3.1346296853498333e-07,6.931135268198443e-07,5.126088992926092e-07,-1.2611144495394707e-06,2.1403599614642242e-06,1.587682015401407e-06,1.8322366546881382e-06,-8.464722711361827e-07,-9.364691326465948e-07,7.748909695138665e-07,5.21289311518203e-07,-9.479666926638997e-08,9.657122594224586e-07,3.020127418400443e-07,1.4956336047673236e-06,9.531633670762932e-07,5.024499668077762e-07
7.535153166436036e-07,-1.6129913281354526e-07,6.838694292606984e-07,3.535562585958e-07,-1.1556531210101603e-06,2.118328921363116e-06,1.4533635439863022e-06,1.857674510355709e-06,-7.749526394572598e-07,-1.0322849004334004e-06,7.485954637365706e-07,5.537190362360767e-07,-6.86075616991559e-08,8.848437394116857e-07,2.1709468001167167e-07,1.556623251105662e-06,9.516412282721975e-07,4.867440039295677e-07
6.645242103285741e-07,-7.91834416437706e-08,6.808050051659339e-07,1.695631096175129e-07,-1.1599966423206185e-06,2.067455769752084e-06,1.2999462837750122e-06,1.859868290277154e-06,-6.907025480454014e-07,-1.1421978673293567e-06,7.188216933554352e-07,5.506556177485039e-07,-3.7858556482453766e-08,8.016690628608047e-07,1.431588211413988e-07,1.5821700624812654e-06,9.805805050561129e-07,4.4313050833842996e-07
5.510065326797059e-07,-7.203424451828356e-08,6.548014613341736e-07,2.2501774140392508e-09,-1.2456817656136282e-06,1.986752155712836e-06,1.1336222580280227e-06,1.8256393518996325e-06,-6.10223389864333e-07,-1.2614449981123298e-06,6.911012098544319e-07,5.158163518718268e-07,-6.173791440445111e-09,7.154102181193005e-07,8.605612170222057e-08,1.5784034760821174e-06,1.0137796236123072e-06,3.7818407769263306e-07
4.167791963749989e-07,-8.675807263781598e-08,5.710224370592246e-07,-1.7453157513847687e-07,-1.2537165681991905e-06,1.8787765810318116e-06,9.594307024471513e-07,1.7843632255858615e-06,-5.292392868533526e-07,-1.3807898846194777e-06,6.698807831923807e-07,4.5799361490567e-07,2.1323447770312454e-08,6.244429409742541e-07,4.6336980526079015e-08,1.5495871069567296e-06,1.0236886417308402e-06,2.982197625770537e-07
2.886104652694185e-07,-8.631336239907164e-08,4.714176445395102e-07,-3.226035468778987e-07,-1.2253480225544492e-06,1.7729333604703026e-06,8.159027977785689e-07,1.7505939899595917e-06,-4.5526214173217544e-07,-1.4834402151466438e-06,6.568739409632647e-07,3.892500106106099e-07,4.016348892501097e-08,5.27034553380879e-07,2.0742044500678332e-08,1.4995190345861686e-06,9.868219759365493e-07,2.094100078375099e-07
1.650344873743051e-07,-1.1400867273072156e-07,3.5980889637017003e-07,-4.628136089983627e-07,-1.1448324631911037e-06,1.6792198942830036e-06,7.022650024373967e-07,1.626671133314902e-06,-4.071740015881791e-07,-1.5407863023971973e-06,6.509453048999278e-07,3.2195748159904317e-07,4.8488405097136485e-08,4.241494664914347e-07,4.501455264093548e-09,1.4338310006015039e-06,9.359599433625989e-07,1.18273119468915e-07
4.510113539560694e-08,-1.3265429933521725e-07,2.4637026429032923e-07,-5.465211463395969e-07,-1.047627889017581e-06,1.5897855948011444e-06,5.80239484153527e-07,1.4924592918630918e-06,-3.751280241800908e-07,-1.5651950093862098e-06,6.489840285845162e-07,2.6505080969611484e-07,4.707542549660604e-08,3.183106334651779e-07,-6.700235227676083e-09,1.359502908463107e-06,8.246521517009e-07,3.087093496110765e-08
-4.853537530928057e-08,-1.236717111472849e-07,1.5552506345865574e-07,-6.041248784766018e-07,-9.397687247176272e-07,1.5110009101700177e-06,4.983799886749633e-07,1.368775695156175e-06,-3.538631874945472e-07,-1.5489325068624622e-06,6.473007238893297e-07,2.2265817424187537e-07,3.9051091771860265e-08,2.1405408192425394e-07,-1.573154787763381e-08,1.2829578343137638e-06,6.790181628364644e-07,-4.799320852035832e-08
-1.2375414223028568e-07,-1.0781452728416687e-07,8.595920985252866e-08,-6.41724692842836e-07,-8.221288812880729e-07,1.4535464178555033e-06,4.4096295319184393e-07,1.242929675342494e-06,-3.3870738216132e-07,-1.5357489052995176e-06,6.432021352524059e-07,1.94577342995766e-07,2.9180811516066712e-08,1.1771671433323675e-07,-2.3143665100938522e-08,1.2091353831769224e-06,5.725269172400855e-07,-1.1476895196864408e-07
-1.77047281491757e-07,-5.740811867608522e-08,3.843914888008888e-08,-6.7769395122526e-07,-7.202468499282695e-07,1.4184126505214631e-06,3.996157499999748e-07,1.1436065714627434e-06,-3.3087871443180787e-07,-1.5337389101111127e-06,6.360532688541835e-07,1.7809135073422936e-07,2.2059194146839476e-08,3.621765537486434e-08,-2.686785059658252e-08,1.1409303168457832e-06,4.858430847089079e-07,-1.6780931910371551e-07
-2.0470842867825316e-07,1.243300861143991e-08,1.4078881574400089e-08,-7.204217209262199e-07,-6.175614713655291e-07,1.409735841578721e-06,3.5735436810854507e-07,1.0519411652297553e-06,-3.2540890783753533e-07,-1.5206997252655944e-06,6.273121042463515e-07,1.6943714206375585e-07,2.0165948288361217e-08,-2.6048416346141413e-08,-2.35376738157978e-08,1.0787283242537615e-06,4.083057620286543e-07,-2.0726355383205522e-07
-2.1463750903065162e-07,9.252543617050875e-08,3.372081587111558e-09,-7.380103056070606e-07,-5.260939121738832e-07,1.4275957415000281e-06,3.215092745041574e-07,9.591524401204361e-07,-3.183274992045606e-07,-1.4591611241713473e-06,6.19398719334104e-07,1.6459586232893643e-07,2.2470343576613962e-08,-7.096332885457281e-08,-9.157623312783609e-09,1.0203502982071037e-06,3.339943856128408e-07,-2.3490777104890577e-07
-2.1811735667258147e-07,1.6094165494685406e-07,-4.684823914075431e-09,-7.954456718083468e-07,-4.346515778950409e-07,1.430806691504068e-06,2.758384327381645e-07,8.617753517964907e-07,-3.1248849513486814e-07,-1.352561676686603e-06,6.141781754786656e-07,1.5955131996664302e-07,2.3804565625687387e-08,-1.0715976484260482e-07,1.9786396808246246e-08,9.614768938404875e-07,2.397065115069248e-07,-2.542842430885477e-07
-2.1868781498005986e-07,2.527501823997739e-07,-1.126243064866152e-08,-8.057788201970006e-07,-3.1861841543692797e-07,1.4188935824625498e-06,2.269040631715747e-07,7.727496298640696e-07,-3.0477748223763544e-07,-1.2061811610285458e-06,6.117112480381835e-07,1.507540114725651e-07,1.5571545077931815e-08,-1.503459864290961e-07,6.409830404457398e-08,8.968032182439986e-07,1.2359494143768552e-07,-2.6983770872528915e-07
-2.2084317330136424e-07,3.517769623565816e-07,-2.4265322311995708e-08,-7.740033475861852e-07,-1.8755305101981672e-07,1.3869858402891344e-06,2.0426131956030094e-07,6.710876589490804e-07,-2.97715697251392e-07,-1.0023160756573447e-06,6.103231163877461e-07,1.3650962421135524e-07,-1.1391009002093977e-08,-2.1789111192544714e-07,1.2029569305676612e-07,8.226662027144653e-07,-1.1323477061115794e-08,-2.8462508414962714e-07
-2.2912249287000661e-07,4.4035198694705044e-07,-4.9274037207854735e-08,-7.621703596962029e-07,-3.6092629134297506e-08,1.3185052061073021e-06,1.9195592616628254e-07,5.554456382158972e-07,-2.9290262460542604e-07,-9.154624831937538e-07,6.080812134320586e-07,1.1807064100382633e-07,-6.258997348526961e-08,-3.196175012284189e-07,1.8060288881819413e-07,7.407537022079065e-07,-1.5823086106529238e-07,-2.9799297189718044e-07
-2.422523195955798e-07,5.331192372981115e-07,-8.770438312117679e-08,-8.060365086668886e-07,1.3390748187318057e-07,1.236978948658361e-06,1.9365946502999923e-07,4.2731168045170206e-07,-2.8638716353088583e-07,-8.731481092915694e-07,6.028857054685145e-07,9.934969342285332e-08,-1.3438157559608081e-07,-4.524457332783982e-07,2.340034054849185e-07,6.590101403153506e-07,-2.9852201376190645e-07,-3.0522212047448757e-07
-2.5795414392999665e-07,6.126445981069822e-07,-1.353971015567254e-07,-8.217472043118403e-07,3.222332246004844e-07,1.1360745136654066e-06,1.7545154825161913e-07,2.875328382560233e-07,-2.906820271326485e-07,-6.313878401683537e-07,5.98091930306266e-07,8.535760681017864e-08,-2.1813905583193605e-07,-5.978400450365754e-07,2.6920370760991073e-07,5.902355746888521e-07,-3.968160920284463e-07,-2.9871979157673923e-07
-2.705187499744188e-07,6.751450131080393e-07,-1.84677443581194e-07,-8.185816939589839e-07,5.165682070795453e-07,1.0148592941406375e-06,1.988274120464257e-07,1.577210162638472e-07,-2.9040998705025364e-07,-3.4689406457770646e-07,5.967471535261185e-07,8.072718415179501e-08,-2.9876350516010783e-07,-7.240911200924174e-07,2.788270363565342e-07,5.495057334596102e-07,-4.267033634611114e-07,-2.6993387361221477e-07
-2.7127809278024037e-07,7.256653798700134e-07,-1.7812474254357652e-07,-7.85983468220447e-07,6.780663060748863e-07,8.88406230863282e-07,2.7055760784357563e-07,5.665154202269519e-08,-2.7762859286731595e-07,-7.825740949895983e-08,6.002350300371822e-07,8.85886212608516e-08,-3.5567241120171816e-07,-7.929924003594075e-07,2.615126174660998e-07,5.500643437568122e-07,-3.5975542079815173e-07,-2.1202091009112294e-07
-2.510406739818364e-07,7.71560659124631e-07,-6.608946435119965e-08,-6.750131071263177e-07,8.027025625027321e-07,7.805304806247772e-07,3.765201125702333e-07,-1.1946255611002788e-08,-2.525002226278354e-07,6.435428383327522e-08,6.25009681643016e-07,1.1034153285608063e-07,-4.069388677137226e-07,-7.679005948844433e-07,2.2284437617730702e-07,6.003171111336201e-07,-3.3316927164772373e-07,-1.2162684129914905e-07
-2.0201959780249836e-07,8.05102900525188e-07,5.48060420640289e-08,-5.862336970083163e-07,8.873819829078852e-07,7.129281865842722e-07,5.056407921478774e-07,1.7621119294424633e-08,-2.0665585065978462e-07,2.5449534294084296e-07,6.641463083972852e-07,1.4617730813202152e-07,-4.000383531140806e-07,-6.213180174389711e-07,1.7420213480735768e-07,7.025388215307851e-07,-3.4370524926858025e-07,4.631010135821912e-10
-1.200630112168073e-07,8.368740168278843e-07,2.2408626556598778e-07,-5.16126918664844e-07,9.343193306773383e-07,7.011405193580864e-07,6.346827883211302e-07,1.3589249161857505e-07,-1.4634147538610285e-07,4.5124084402519976e-07,6.601347989075336e-07,1.956307595760193e-07,-2.7025512454969657e-07,-3.425414718886139e-07,1.2991316025463748e-07,8.532143155215617e-07,-2.8008397792536664e-07,1.4895093047225618e-07
-6.4855129045198286e-09,8.768522938656676e-07,3.0794567175490617e-07,-4.482323398348494e-07,9.481412060371057e-07,7.516129440368648e-07,7.534393303865149e-07,3.154833671369432e-07,-7.093996487819213e-08,6.728915602382763e-07,6.846045435688303e-07,2.5760405895683826e-07,-7.507089869586448e-08,5.141257600788835e-08,1.0488707565799432e-07,1.0438478163101063e-06,-1.3793218708242913e-07,3.1438682726686596e-07
1.314708666401961e-07,9.242838957826411e-07,3.775035690159866e-07,-3.068310891781279e-07,9.339738818169178e-07,8.492297429212133e-07,8.707164223313766e-07,5.406237974218549e-07,2.0690715511121407e-08,8.607013676704675e-07,7.293909792142628e-07,3.2988272668210677e-07,1.2321234979482025e-07,5.274600307269973e-07,1.1187722350886225e-07,1.2628558987799334e-06,1.037766542673077e-08,4.847311772769618e-07
2.821886663016904e-07,9.924262071659722e-07,5.42327903293487e-07,-1.5638727661323995e-07,9.174378197044663e-07,9.78543554149591e-07,1.0189320680839555e-06,7.696590767955678e-07,1.2820665842827188e-07,8.586467084453195e-07,7.726838537647622e-07,4.0881148725703433e-07,3.0999283363715046e-07,1.0266092024601597e-06,1.5840656955654834e-07,1.4975500403649426e-06,1.9404602946078139e-07,6.476909549416002e-07
4.3242439039600955e-07,1.0781913721051845e-06,7.531461922930535e-07,-1.048058578322445e-08,9.095736122643483e-07,1.1198275160970875e-06,1.1516598212182172e-06,9.77400495550647e-07,2.423756703703981e-07,8.095499200556787e-07,8.14620142691253e-07,4.896387133667501e-07,4.969440414692322e-07,1.4867014264806564e-06,2.4483666232754846e-07,1.734966264119496e-06,3.986646227106832e-07,7.926885226750357e-07
5.705512366917564e-07,1.1648057156010371e-06,9.642604324395053e-07,1.3613050818877477e-07,9.090169948465816e-07,1.2508277175270828e-06,1.2775429987937306e-06,1.14756048523181e-06,3.514858837194144e-07,7.484075799174381e-07,8.614734036962091e-07,5.680346547570105e-07,6.881466679382673e-07,1.9204245884380796e-06,3.637850211363535e-07,1.9625324093525457e-06,5.679148836709094e-07,9.124913096239038e-07
6.892023726653304e-07,1.2481936814682773e-06,1.1080862433857964e-06,2.408486526643718e-07,9.207513886300985e-07,1.3613266662811334e-06,1.4108606666131804e-06,1.2746663802770072e-06,4.4594397098496123e-07,7.216409441513651e-07,9.094960563703774e-07,6.415530520143306e-07,8.023706149743829e-07,2.1988375132413185e-06,5.014507000915461e-07,2.168178494090919e-06,6.45418354248401e-07,1.0043959145632471e-06
7.864326783996588e-07,1.3207598129301676e-06,1.255433869987621e-06,3.38279226993111e-07,9.457196562792031e-07,1.4389042513539863e-06,1.5416255063097978e-06,1.3314994065464496e-06,5.145765900096787e-07,8.52248249997573e-07,9.55322106612947e-07,7.099251995947464e-07,8.1617180178627e-07,2.274142280838942e-06,6.411137852485746e-07,2.3413444577159768e-06,6.234562601224052e-07,1.0703251000602526e-06
8.652751059936757e-07,1.379494052027339e-06,1.382126345874686e-06,4.2444388942858187e-07,9.685491945434954e-07,1.4800338732436911e-06,1.6736302027579734e-06,1.3390075911811942e-06,5.574491229900507e-07,1.0358099097006345e-06,9.959634686898858e-07,7.742579724484139e-07,8.209594086621306e-07,2.305042605906815e-06,7.674967783244135e-07,2.475301000597277e-06,6.133600379988333e-07,1.1161699456423486e-06
9.320395813767677e-07,1.4227961932249277e-06,1.4029903071592698e-06,5.18924784539187e-07,1.0006342304414891e-06,1.4916645943284634e-06,1.796793394054615e-06,1.3192163286339336e-06,5.780058590508661e-07,1.1967287188492955e-06,1.0307102507897113e-06,8.360577069257518e-07,8.331990308425707e-07,2.326860609823642e-06,8.704574536090513e-07,2.569224693625312e-06,6.112435172937949e-07,1.150060470812909e-06
9.942954050612717e-07,1.4517909334739758e-06,1.3760598948391916e-06,5.943852756720274e-07,1.0330161876282687e-06,1.4782356345100614e-06,1.8951173122673236e-06,1.283636840034919e-06,5.851129474972863e-07,1.3539809706625416e-06,1.0619881311504241e-06,8.958381715148066e-07,8.434751812371378e-07,2.334359377877229e-06,9.464392171096183e-07,2.6278913847121103e-06,5.927855957015549e-07,1.1796582963591759e-06
1.0586861582244236e-06,1.4677631347425468e-06,1.3727151167007031e-06,6.504633839095382e-07,1.0469605720540953e-06,1.4562130594041452e-06,1.9570967795120396e-06,1.252562927836652e-06,5.908137793760547e-07,1.4958731808193947e-06,1.0943508999961852e-06,9.517182071923771e-07,8.718853597944398e-07,2.371112197547265e-06,9.970748571331797e-07,2.6599455909792227e-06,5.954854572737519e-07,1.21018347018762e-06
1.1292992516440869e-06,1.4760216565812663e-06,1.3952032548990555e-06,6.983136801466591e-07,1.047573637641293e-06,1.4425414804977977e-06,1.9911521462655435e-06,1.2328574695284258e-06,6.008280263425141e-07,1.6071577110530385e-06,1.1322278861245406e-06,1.0008670972597227e-06,9.408126604955736e-07,2.481692801886712e-06,1.026438623279945e-06,2.676267310467803e-06,6.05159696396901e-07,1.2439252351261904e-06
1.2072075864081562e-06,1.4867448028210369e-06,1.4432892306365098e-06,7.261616487299278e-07,1.0451960614474525e-06,1.4484077848627126e-06,1.9869267282109815e-06,1.2255985533286313e-06,6.23482766890023e-07,1.678349884434446e-06,1.1776351221138659e-06,1.0410667798570438e-06,1.0490810491401268e-06,2.665718550978115e-06,1.0390177377128932e-06,2.687833486507661e-06,6.224095402488238e-07,1.2805612985053014e-06
1.2901872518846943e-06,1.504646530529033e-06,1.5248241792622955e-06,7.541751563861192e-07,1.0399774120710165e-06,1.4767942696478856e-06,1.9467523057469143e-06,1.2330843112841821e-06,6.588655023239685e-07,1.7039503344034993e-06,1.2290499635524492e-06,1.0711415837382313e-06,1.1872033322177453e-06,2.9034602544594843e-06,1.0389355524700448e-06,2.703545895227874e-06,6.536214763665742e-07,1.3179699450273315e-06
1.3735049896120654e-06,1.5322287507832546e-06,1.6349340078477144e-06,7.874371283741987e-07,1.0335380857338337e-06,1.5231076162533994e-06,1.8838213711138994e-06,1.260840265165067e-06,7.010254408356062e-07,1.6940390032064987e-06,1.2820461484781082e-06,1.0917463537995751e-06,1.3381118825529781e-06,3.1612508336797503e-06,1.0304158046583986e-06,2.7292741337568412e-06,6.887116606784044e-07,1.3539821955071391e-06
1.4516736817289614e-06,1.5678603585954886e-06,1.761670643565863e-06,8.26765095766982e-07,1.0306361410165369e-06,1.5766317446514226e-06,1.808602410569977e-06,1.2967387121510843e-06,7.422754562588776e-07,1.6626119662469603e-06,1.330930277527465e-06,1.1051514585886529e-06,1.4821747656066967e-06,3.4024874688949563e-06,1.018356375591008e-06,2.7671297424111988e-06,7.312246477361826e-07,1.3874242006059603e-06
1.5198791035992768e-06,1.6076876693523915e-06,1.8899087519126937e-06,8.800601739286536e-07,1.027364410850302e-06,1.6233598494810183e-06,1.7406483225066969e-06,1.3323668053981888e-06,7.732575708691119e-07,1.622312640951872e-06,1.3702533867288555e-06,1.1143029262191826e-06,1.601850417391556e-06,3.5954989036248025e-06,1.006672608730912e-06,2.8147894530897744e-06,7.772587711856646e-07,1.4177844403018958e-06
1.5747795971035584e-06,1.6468331825108997e-06,2.0054200026629746e-06,9.211248002882903e-07,1.0302090111978558e-06,1.6528016869446927e-06,1.6936182117621406e-06,1.359204823723568e-06,7.873087115326606e-07,1.58342360906174e-06,1.3958772505115383e-06,1.1226887438865686e-06,1.6856671619343146e-06,3.7176902622702218e-06,9.967892365548653e-07,2.8668356238027187e-06,8.214759908301275e-07,1.444969354897287e-06
1.6151912708073769e-06,1.6787655921480326e-06,2.0985873704177544e-06,9.621535492847105e-07,1.0415096136255532e-06,1.6567091509817136e-06,1.67109646280791e-06,1.3716238838748703e-06,7.828130111255029e-07,1.552526218638804e-06,1.4058287332486509e-06,1.1343076004485121e-06,1.7309793609088394e-06,3.759254617796515e-06,9.876491624380303e-07,2.917620606528222e-06,8.620876171203551e-07,1.4689648567927951e-06
1.6422457388688843e-06,1.7016747131990873e-06,2.165764319481508e-06,1.009913239324314e-06,1.061685398024172e-06,1.6328852643469292e-06,1.6690703898203854e-06,1.3691482620726192e-06,7.640989361034268e-07,1.5326114205450255e-06,1.4006507907862725e-06,1.1527978637321151e-06,1.7437335718762978e-06,3.723778940634455e-06,9.758738580363708e-07,2.9626698506874766e-06,8.977500952205747e-07,1.489303254772747e-06
1.6582602431345173e-06,1.7171407686193743e-06,2.207569587726169e-06,1.0576489921430659e-06,1.0937875261015045e-06,1.5844779211165889e-06,1.6770337592341173e-06,1.3489419381294002e-06,7.362307347751001e-07,1.5238168318778102e-06,1.3831382034870555e-06,1.1795441049707148e-06,1.7353944248406707e-06,3.62570568009032e-06,9.575178593260995e-07,2.99854575007092e-06,9.272766971278551e-07,1.5047827680571363e-06
1.6655194805985208e-06,1.72483989314578e-06,2.226672755275691e-06,1.1010306988127737e-06,1.1342827611273346e-06,1.5168140626435276e-06,1.6761212734125757e-06,1.3069953877679491e-06,7.049910801432034e-07,1.5242739768163735e-06,1.357809321173277e-06,1.2129545706787254e-06,1.7192886748542857e-06,3.4882394218431464e-06,9.308395945129522e-07,3.024224324214596e-06,9.501332929772838e-07,1.5147915794355083e-06
1.666089152410815e-06,1.7267389355366176e-06,2.2273759090800935e-06,1.1278360985456e-06,1.184355453209346e-06,1.4369233271799058e-06,1.6529138793415952e-06,1.24407176385099e-06,6.764521037195819e-07,1.5320701160373054e-06,1.3300935256855416e-06,1.2495549980295906e-06,1.7074094866520833e-06,3.33980999323362e-06,8.970325492833575e-07,3.0413212172747802e-06,9.671830596572538e-07,1.5204938371992472e-06
1.6622066548145193e-06,1.7259243687729364e-06,2.215977160667556e-06,1.1363431261360623e-06,1.2450204813647767e-06,1.3525590277055464e-06,1.6032086687837164e-06,1.16229867388e-06,6.540654004925705e-07,1.5451272866172877e-06,1.3049642495625112e-06,1.2855637519170617e-06,1.7079313854216695e-06,3.2068650494458048e-06,8.589191907363869e-07,3.0516557946729316e-06,9.802399314392455e-07,1.5243145853115216e-06
1.6564270819159611e-06,1.7249058879162733e-06,2.2003842246556273e-06,1.1187303086282526e-06,1.3111061223762677e-06,1.271417878803205e-06,1.5299407116725547e-06,1.0701026247308189e-06,6.396575127555714e-07,1.5610761009114442e-06,1.2856995988147352e-06,1.3181480117392265e-06,1.7240875377580821e-06,3.1066044468482225e-06,8.195103227210783e-07,3.0563825012279535e-06,9.911216828414584e-07,1.5288414362242537e-06
1.6514498610614665e-06,1.7256329347909529e-06,2.1890441855435137e-06,1.0920216916841565e-06,1.3827998102634417e-06,1.2002852221632539e-06,1.4434574584544961e-06,9.812763157268233e-07,6.326010986349218e-07,1.5777250243804712e-06,1.2736736519085733e-06,1.3461844133730069e-06,1.7547260015184516e-06,3.045299188104011e-06,7.811705421480185e-07,3.056265095007586e-06,1.0010591675595009e-06,1.5361009473873286e-06
1.6497126196678916e-06,1.731237722443156e-06,2.1890317809774957e-06,1.0687441551036893e-06,1.4493273077746609e-06,1.1428227869218437e-06,1.355449713087838e-06,9.068845496002638e-07,6.315423541883204e-07,1.593076220224373e-06,1.2687526059972948e-06,1.370510849203427e-06,1.795518295978681e-06,3.0186580068810074e-06,7.452071707147561e-07,3.0517025058717e-06,1.0102513751214965e-06,1.5468782643604709e-06
1.6526845733612031e-06,1.7405304147230384e-06,2.2035886691363014e-06,1.0525572080854433e-06,1.5088168620750656e-06,1.100323234654966e-06,1.274247079881441e-06,8.549231668542538e-07,6.327105743031941e-07,1.6054003560000565e-06,1.2697020597965107e-06,1.3928454922623412e-06,1.8403831146230625e-06,3.0134666032237786e-06,7.117324981644242e-07,3.0426582256822885e-06,1.0174682963253023e-06,1.5601531145927268e-06
1.6602442938596659e-06,1.7496155563990142e-06,2.231190385450593e-06,1.0487622701242277e-06,1.5573031809397975e-06,1.0710026872400378e-06,1.202921137780202e-06,8.31988059689566e-07,6.303278866349952e-07,1.6131081373878795e-06,1.2747930550155786e-06,1.4144907411587538e-06,1.883051680926637e-06,3.0127141806414082e-06,6.794711110736931e-07,3.0290592212373942e-06,1.0205666546531246e-06,1.5736285175149216e-06
1.6711852465187433e-06,1.7554428522827813e-06,2.266945600353144e-06,1.0524161931509574e-06,1.5874187263816546e-06,1.0485582579144188e-06,1.1424625012186108e-06,8.339727201768016e-07,6.20660882870541e-07,1.61487737949817e-06,1.282518419485739e-06,1.4358216259955338e-06,1.9185977973940275e-06,3.0008430858394135e-06,6.4655213256326e-07,3.010495879452997e-06,1.0170004662634425e-06,1.5843041757666176e-06
1.6836820311519137e-06,1.7550284377585263e-06,2.304641302914155e-06,1.0559575485953677e-06,1.5971976342328524e-06,1.0257204350679853e-06,1.0844884165609464e-06,8.445901326087564e-07,6.016712239446339e-07,1.6093965670950548e-06,1.2918844545486493e-06,1.4551398307504599e-06,1.94397105575858e-06,2.965459046065666e-06,6.106785104330322e-07,2.9848751363973004e-06,1.0040349201102757e-06,1.5884095022866409e-06
1.6952974846467697e-06,1.7476622879047848e-06,2.3382835338118857e-06,1.050201639580755e-06,1.587301444869634e-06,9.954836713929388e-07,1.0228672606289391e-06,8.54595630827534e-07,5.742547047353861e-07,1.5956349799594312e-06,1.3023901192845991e-06,1.4682914413437376e-06,1.9576132846409147e-06,2.8993571969919568e-06,5.697509980945126e-07,2.9482668117120737e-06,9.795213383073436e-07,1.5823070305515944e-06
1.7031131654012656e-06,1.735236444381872e-06,2.36330661676358e-06,1.0270282952861746e-06,1.5668250308174528e-06,9.525541940573745e-07,9.544734698926064e-07,8.507766432299223e-07,5.424143643108479e-07,1.5733919958043208e-06,1.3138534155791214e-06,1.4699445958400563e-06,1.9598453619697273e-06,2.80272762517813e-06,5.230673098942305e-07,2.8963626106990406e-06,9.429835727605339e-07,1.5639965455958011e-06
1.703822010339913e-06,1.7210130419352263e-06,2.376599261131904e-06,9.888329151402128e-07,1.5497116125071999e-06,8.94933404903546e-07,8.774592001337695e-07,8.217009246803884e-07,5.110880536565199e-07,1.5433944703622664e-06,1.3257318195651118e-06,1.45520555571996e-06,1.952585855986493e-06,2.6825817296676327e-06,4.709078308679487e-07,2.824942493775738e-06,8.959250100790085e-07,1.5335296284014937e-06
1.6936769225369817e-06,1.7049590996690732e-06,2.375127322953732e-06,9.30827844884802e-07,1.5468573501358402e-06,8.229656083722641e-07,7.973233823486804e-07,7.649728624567254e-07,4.830248792976913e-07,1.5069960880487634e-06,1.3362421519538814e-06,1.4211840151589163e-06,1.9384434911822805e-06,2.5492598522311823e-06,4.1395509765023314e-07,2.7306511156262214e-06,8.415714494771957e-07,1.4927483502446938e-06
1.6689677045359353e-06,1.6878348193498055e-06,2.355140780299901e-06,8.523818846404988e-07,1.5653121107018542e-06,7.378758961968648e-07,7.166507216123011e-07,6.812790557928205e-07,4.578586085567227e-07,1.465924042756438e-06,1.3423416744680145e-06,1.3684960337286489e-06,1.9202239167810624e-06,2.4132242821655422e-06,3.526356524293078e-07,2.612407297422469e-06,7.84670598925077e-07,1.445077679730058e-06
1.6273483285738608e-06,1.6702011342218237e-06,2.312986628261671e-06,7.585518617432911e-07,1.6090830944321218e-06,6.419770562389326e-07,6.380514872238233e-07,5.776830741552355e-07,4.3271708494924657e-07,1.4220838241655474e-06,1.3406786916854737e-06,1.3020038007623483e-06,1.9002148431760424e-06,2.28152295974196e-06,2.8653722524330605e-07,2.472383813224739e-06,7.305489186450185e-07,1.3943843633578094e-06
1.568575049431949e-06,1.6472435627861952e-06,2.2461861976144457e-06,6.545417203403257e-07,1.6698585173843404e-06,5.391472766673271e-07,5.640074994673011e-07,4.681780840284777e-07,4.025009902038397e-07,1.3771881678270738e-06,1.3287648513979737e-06,1.2295511347571645e-06,1.8787567685635098e-06,2.1529188547249083e-06,2.136646544309825e-07,2.3149223831052613e-06,6.831162339071544e-07,1.3431422957849375e-06
1.4942594479933458e-06,1.6144348680075238e-06,2.1541616050248808e-06,5.483650427572046e-07,1.7322568143022224e-06,4.33595641402563e-07,4.931567860635837e-07,3.6929174753460075e-07,3.624347505413791e-07,1.332559121013827e-06,1.3060925454811956e-06,1.1595961591170678e-06,1.8535905032361514e-06,2.0171924664204463e-06,1.3123455441860548e-07,2.145757543890892e-06,6.436572199505097e-07,1.2920037831510306e-06
1.407145284191712e-06,1.5685876046991296e-06,2.0390155812458254e-06,4.4517484724652964e-07,1.78584977641133e-06,3.290818423745524e-07,4.265464259945409e-07,2.8596815533590864e-07,3.0933889163573787e-07,1.289804518980252e-06,1.2748240606820367e-06,1.0988040177020457e-06,1.8210557997306645e-06,1.8605905899102895e-06,3.773642512294638e-08,1.972481889413783e-06,6.111196386610741e-07,1.2409890324454994e-06
1.3097734011620305e-06,1.5093330008051264e-06,1.9050041228523969e-06,3.4767238537245406e-07,1.817732195801269e-06,2.2706355236184722e-07,3.647877834806097e-07,2.1914515007185072e-07,2.440639743351025e-07,1.2509121452216572e-06,1.2390127826226312e-06,1.0494308440286294e-06,1.7778273885148933e-06,1.6711311498861508e-06,-6.64624005119987e-08,1.8029474649038286e-06,5.830292824899402e-07,1.190552089514417e-06
1.2024052646395062e-06,1.441021698545576e-06,1.75599855011173e-06,2.505860564367784e-07,1.8294897263935307e-06,1.2381156425581168e-07,3.0744171200631455e-07,1.6139141176406308e-07,1.7071336003505264e-07,1.2175826256911373e-06,1.2025008757268367e-06,1.0083293025099512e-06,1.722126943508545e-06,1.4405767056591468e-06,-1.7963740192110384e-07,1.6439151849378853e-06,5.569872437339567e-07,1.1422284374403572e-06
1.0821396869856477e-06,1.3722056448937327e-06,1.5935335878773763e-06,1.463858033717798e-07,1.8392192649073492e-06,1.0699128789084111e-08,2.533113907702153e-07,9.273219482708752e-08,9.723876761829018e-08,1.1912408367312501e-06,1.1673839980011537e-06,9.695620903246335e-07,1.6545237906670165e-06,1.1668821658438536e-06,-2.985120434648258e-07,1.5021602156330178e-06,5.322849152157778e-07,1.0993131764538442e-06
9.45008945711002e-07,1.3127613667737923e-06,1.4175571111583583e-06,2.8262513868289477e-08,1.86248660028908e-06,-1.2220983810864339e-07,2.0151564428789707e-07,8.032756307310956e-10,3.2223749285389184e-08,1.1737696919664607e-06,1.1340086979871294e-06,9.281686561987055e-07,1.5778270610560932e-06,8.5625596760596e-07,-4.1712293683358225e-07,1.385706969409706e-06,5.09697782624371e-07,1.0661845717611346e-06
7.895269301412427e-07,1.268782321069115e-06,1.2284545990361005e-06,-1.0891074542802702e-07,1.9112815305925863e-06,-2.8035956912264177e-07,1.500945965585145e-07,-1.2171931434041673e-07,-1.8490322039037875e-08,1.1672190269383863e-06,1.10165205533299e-06,8.836513696041396e-07,1.4955297322292134e-06,5.214875878633851e-07,-5.265540671376326e-07,1.3021154801407223e-06,4.888271629233645e-07,1.0446866289993063e-06
6.195293138787085e-07,1.239971877358258e-06,1.0286205374279893e-06,-2.632302758614331e-07,1.985061967637354e-06,-4.600145823333852e-07,9.42395349703757e-08,-2.721841122981146e-07,-5.2883212857156446e-08,1.1732808048740263e-06,1.0692548165127792e-06,8.409735025883591e-07,1.41029230068288e-06,1.7921315501507558e-07,-6.166212658608204e-07,1.2558902531537884e-06,4.660706101933285e-07,1.0329490747128754e-06
4.451512230769744e-07,1.2180965161606355e-06,8.238978684246472e-07,-4.275794640538331e-07,2.0654878586599333e-06,-6.478689302739568e-07,2.9231929379009512e-08,-4.3937479762445803e-07,-7.443263428022348e-08,1.1926797077017276e-06,1.0362062651662727e-06,8.094010630759914e-07,1.3234860424103007e-06,-1.513628195625839e-07,-6.782799512203458e-07,1.247102843809141e-06,4.354190902852542e-07,1.0253502428681906e-06
2.814733410392581e-07,1.190863432773617e-06,6.241731423782222e-07,-5.90804606753304e-07,2.1241709568185964e-06,-8.237476880014059e-07,-5.095264610233003e-08,-6.034132553615572e-07,-8.918200201248458e-08,1.2242148770660306e-06,1.0027102890009011e-06,7.994532929221145e-07,1.2347508517719254e-06,-4.524876556945936e-07,-7.073744052102893e-07,1.2690440906288283e-06,3.9086692941723555e-07,1.0141325218939015e-06
1.4460982279325886e-07,1.147162519555216e-06,4.415908525768177e-07,-7.408559272718341e-07,2.134181517618551e-06,-9.665109445079643e-07,-1.4853064259899154e-07,-7.454278044421226e-07,-1.0429762851324118e-07,1.2645148270346295e-06,9.695930414088476e-07,8.186773714456822e-07,1.1403637202240847e-06,-7.158730079865524e-07,-7.081923407941639e-07,1.3057966529138941e-06,3.290142930868168e-07,9.912582246898266e-07
4.6745557554510114e-08,1.0802699811023444e-06,2.8741239911070157e-07,-8.686629383552999e-07,2.0743966057845357e-06,-1.0600056812815338e-06,-2.603567122076679e-07,-8.515590971395616e-07,-1.2714118527609692e-07,1.3092593896832124e-06,9.385364462974967e-07,8.697460238555584e-07,1.0320549669558436e-06,-9.461014214360901e-07,-6.931093073543316e-07,1.3352003801903794e-06,2.515918591559509e-07,9.506749812175878e-07
-6.988484630800727e-09,9.901322962387963e-07,1.6984382023766578e-07,-9.684829741202615e-07,1.937327859861437e-06,-1.095335813541638e-06,-3.785233604602113e-07,-9.133334494338622e-07,-1.6310530802069954e-07,1.3558896383609984e-06,9.128181411234251e-07,9.510186575252567e-07,8.98437272657443e-07,-1.1549481603167697e-06,-6.779345071027517e-07,1.3372793718204587e-06,1.6610981290284792e-07,8.917596467464556e-07
-1.868057892017624e-08,8.814510417585752e-07,9.289158334008199e-08,-1.0367863024653546e-06,1.7299890477942896e-06,-1.0705786825459995e-06,-4.899415410885378e-07,-9.294385181326465e-07,-2.1396365595304025e-07,1.4050129464142796e-06,8.97056340012209e-07,1.0571263869930765e-06,7.278435738926674e-07,-1.3536315964424512e-06,-6.742672261084682e-07,1.301555607461414e-06,8.293755108334882e-08,8.200231503143867e-07
4.136116506629175e-09,7.617613942069619e-07,5.5387310018349544e-08,-1.0714881933766136e-06,1.4671556451568367e-06,-9.907250930615282e-07,-5.82792474755032e-07,-9.01380790763576e-07,-2.787493623648595e-07,1.4591121966103325e-06,8.955267816699574e-07,1.178526793358438e-06,5.120540390454987e-07,-1.5490240562923595e-06,-6.872621183806407e-07,1.229061825703018e-06,1.0920272549774677e-08,7.445590353476118e-07
5.103503663876624e-08,6.403745518506821e-07,5.113092225529305e-08,-1.0734648186076837e-06,1.1700671345821065e-06,-8.675364872133266e-07,-6.502658272806662e-07,-8.356082352367967e-07,-3.545841538230123e-07,1.520239230398051e-06,9.102179250330706e-07,1.3020383435412175e-06,2.5033209507797057e-07,-1.7420782987252201e-06,-7.153658956562208e-07,1.1305168383767873e-06,-4.486890587442409e-08,6.751138690877454e-07
1.1127173579911127e-07,5.260728882098878e-07,7.05662420402301e-08,-1.0471611379439802e-06,8.615214074615359e-07,-7.180078297205174e-07,-6.898529000475226e-07,-7.436271716745541e-07,-4.3557685863452813e-07,1.5877758652111216e-06,9.394322558556065e-07,1.412808074021108e-06,-4.5205377970266e-08,-1.9279442378228816e-06,-7.52321227394109e-07,1.022129004583683e-06,-8.35129588035527e-08,6.195492883969484e-07
1.7538298566488333e-07,4.2669556561807844e-07,1.0228874860899266e-07,-1.0023237127817e-06,5.646309273427669e-07,-5.626480033900596e-07,-7.043863012914451e-07,-6.415255520400774e-07,-5.130034265938535e-07,1.657149282974875e-06,9.769189912159126e-07,1.496323848386729e-06,-3.5712356265246086e-07,-2.0993669618166097e-06,-7.910717591129943e-07,9.196966341391347e-07,-1.0824389688979241e-07,5.807625593168112e-07
2.3557010100055542e-07,3.4767718071636116e-07,1.3387416330955304e-07,-9.525217096499189e-07,3.014533240113281e-07,-4.232139539111696e-07,-7.009149789044669e-07,-5.50633694177829e-07,-5.775433476002353e-07,1.7199302275943767e-06,1.0084768950544694e-06,1.5407232612173174e-06,-6.609679054280412e-07,-2.2495351331666017e-06,-8.255568371735427e-07,8.341769689120318e-07,-1.2543474629151167e-07,5.560596719793239e-07
2.858727244597977e-07,2.911439203348094e-07,1.535802534739908e-07,-9.148066751438373e-07,8.762048193798532e-08,-3.1843402760477334e-07,-6.880920427735841e-07,-4.92368355808619e-07,-6.207247242064584e-07,1.7664123901337977e-06,1.02746876300799e-06,1.5396370874067804e-06,-9.236969297311778e-07,-2.371815978116784e-06,-8.509344166503374e-07,7.712231248872406e-07,-1.4215247720044052e-07,5.398396061212036e-07
3.2248969300339943e-07,2.566569788051797e-07,1.5288653304210665e-07,-9.032777890963704e-07,-6.446700492517166e-08,-2.60118041625307e-07,-6.730834791032644e-07,-4.79192930299576e-07,-6.37327525533465e-07,1.7892375023026921e-06,1.0241185755240286e-06,1.4938815271557147e-06,-1.1189412365110625e-06,-2.461296033003848e-06,-8.636441990977084e-07,7.310112928085805e-07,-1.639755973448081e-07,5.261810663008379e-07
3.4369167845275343e-07,2.418726529511718e-07,1.280009683837144e-07,-9.253925089968373e-07,-1.5243542469632014e-07,-2.4840819260067203e-07,-6.593429704200023e-07,-5.150635059667714e-07,-6.273956466225726e-07,1.7854102136502847e-06,9.909071254972878e-07,1.4109339457353073e-06,-1.2880366111660959e-06,-2.519774603439835e-06,-8.626055665673214e-07,7.077573177029284e-07,-1.9403113604301883e-07,5.101054822285462e-07
3.4971517993952166e-07,2.4265777332102623e-07,8.001933011619768e-08,-9.79183909507878e-07,-1.8200573647883298e-07,-2.759765550651824e-07,-6.458504215159541e-07,-5.916651971644087e-07,-5.966925857765217e-07,1.7571412966521209e-06,9.272542177296077e-07,1.3028573485718187e-06,-1.3129073825154135e-06,-2.5569895636491065e-06,-8.491607682013876e-07,6.921467547347257e-07,-2.2912902386261305e-07,4.894621759999885e-07
3.428834079211074e-07,2.536190450430264e-07,1.4289838123709584e-08,-1.0572297828092833e-06,-1.65430510879583e-07,-3.232520038885852e-07,-6.320062340919829e-07,-6.888073135683297e-07,-5.546217089790637e-07,1.7114985538264322e-06,8.311173295918935e-07,1.1838706903107095e-06,-1.311864205956341e-06,-2.5857203116324373e-06,-8.27204045456238e-07,6.762488410471555e-07,-2.651526617902235e-07,4.6600498670446465e-07
3.2713429986587903e-07,2.690727990342624e-07,-6.194054445701504e-08,-1.1424896061813992e-06,-1.202623872092603e-07,-3.7738260678780204e-07,-6.127708017845252e-07,-7.824744680930151e-07,-5.109188772502821e-07,1.6588617367988506e-06,7.169784306240412e-07,1.0677908980155168e-06,-1.3158660120599519e-06,-2.6178815841809704e-06,-8.085564824573191e-07,6.565748567098454e-07,-2.9525546952886004e-07,4.445697763899567e-07
3.062717809285394e-07,2.8446528590701066e-07,-1.4320790028879835e-07,-1.2180310167062517e-06,-6.294060370924872e-08,-4.299578878558761e-07,-5.869919587424086e-07,-8.542238618925102e-07,-4.744947396008767e-07,1.6103058700392214e-06,6.004595883430805e-07,9.661053502090472e-07,-1.3043199145563496e-06,-2.6639166988295767e-06,-8.059880493698268e-07,6.341721258684841e-07,-3.099450227760908e-07,4.307290944603311e-07
2.822707190807824e-07,2.953467776246218e-07,-2.275498076247377e-07,-1.276810631798951e-06,-9.187939851074704e-09,-4.774682780840733e-07,-5.618453165408561e-07,-8.927810982924188e-07,-4.516834693178841e-07,1.5746467999354898e-06,5.383397546802118e-07,8.878801022635471e-07,-1.2895754520986988e-06,-2.730066412796129e-06,-8.25766419363659e-07,6.140955190275254e-07,-3.006205124107414e-07,4.2921635189422044e-07
2.548483136884163e-07,2.9740721339498535e-07,-3.1492044847047535e-07,-1.3185972009207974e-06,2.9037580672652696e-08,-5.209766836142628e-07,-5.470335287302634e-07,-8.957374516639304e-07,-4.4410373276888267e-07,1.5554010875279906e-06,5.753473924129111e-07,8.402058994812618e-07,-1.2865996522951282e-06,-2.815013787356275e-06,-8.830286656887606e-07,6.031841919659419e-07,-2.5323203399462464e-07,4.425335991861026e-07
2.2145652314970276e-07,2.8645198597060746e-07,-4.051278418158156e-07,-1.3519642504613791e-06,4.3741588086920175e-08,-5.646430489990988e-07,-5.606162417330635e-07,-8.692431317224644e-07,-4.4906146383435814e-07,1.547598097958086e-06,6.812387262055938e-07,8.274936293712975e-07,-1.2910745545378941e-06,-2.910985174490109e-06,-9.878223655955993e-07,6.049519201889979e-07,-1.595731605508615e-07,4.685632555788708e-07
1.773146040014027e-07,2.5700058454374373e-07,-4.974168252287013e-07,-1.3928572111337505e-06,3.0394484670882344e-08,-6.018969069911936e-07,-6.284429479962946e-07,-8.230696935476732e-07,-4.620424007245897e-07,1.5367615847829615e-06,8.313292435678515e-07,8.504361129822138e-07,-1.2967310545594153e-06,-3.0059821392459803e-06,-1.145480588324954e-06,6.160241303064554e-07,-2.979191523263555e-08,4.997625408879675e-07
1.16621035277752e-07,2.030814577030564e-07,-5.896222507520198e-07,-1.4603043804393884e-06,-1.2659499654242046e-08,-5.936763147811439e-07,-7.567066402119984e-07,-7.705845173779681e-07,-4.779433573504794e-07,1.5022605649796075e-06,9.020406976065276e-07,9.059255652281877e-07,-1.2944320737414474e-06,-3.082947359317667e-06,-1.34633645264006e-06,6.273394436239462e-07,9.641963976242508e-08,5.256305940532595e-07
3.518176413811446e-08,1.2119290744935302e-07,-6.778320007582564e-07,-1.5700491116610016e-06,-8.200078682713912e-08,-5.894072757529634e-07,-9.116758722774906e-07,-7.248756837144982e-07,-4.914893630704117e-07,1.4244394094831728e-06,1.0949342263152194e-06,9.868437709499284e-07,-1.273722110438231e-06,-3.1215416794818006e-06,-1.568639165386699e-06,6.265676019043887e-07,1.7034807554775587e-07,5.357672821723195e-07
-6.719147505962758e-08,1.2681367538698463e-08,-7.575383487913059e-07,-1.7310307329422305e-06,-1.66607889683564e-07,-4.881884047610505e-07,-1.0785478971334023e-06,-6.949534160030018e-07,-4.993067595743615e-07,1.292740929270862e-06,1.342529784530162e-06,1.08068808138904e-06,-1.2261299268820058e-06,-3.1068805593627446e-06,-1.731542775796144e-06,5.993219287697288e-07,1.4047785091349627e-07,5.220153485110289e-07
-1.8524594111532834e-07,-1.1643602911228443e-07,-8.258944033513299e-07,-1.945036427051468e-06,-2.504652829821648e-07,-3.2112785529847834e-07,-1.1401443270680295e-06,-6.836926630780582e-07,-5.015289805309834e-07,1.1119307694459783e-06,1.5130783406494716e-06,1.1688742260875602e-06,-1.14752585522728e-06,-3.036841319304581e-06,-1.7187946434936486e-06,5.329258100961986e-07,6.52739327772031e-08,4.818326394038668e-07
-3.0794612031053356e-07,-2.558151879876657e-07,-8.79636472613247e-07,-2.1879065664123133e-06,-3.1333665340940036e-07,-2.1966685994992706e-07,-1.0528577316683492e-06,-6.856629439337793e-07,-5.004281956410915e-07,9.051409418826805e-07,1.5951320525533853e-06,1.2289371648476368e-06,-1.037440121899907e-06,-2.920496373715048e-06,-1.6339202863901985e-06,4.2401413032748125e-07,-6.630116033930682e-09,4.219234473772908e-07
-4.1988199282713625e-07,-3.9095237957802777e-07,-9.15098406531887e-07,-2.4325546931310475e-06,-3.339356268138404e-07,-1.549096980771893e-08,-9.739722560864002e-07,-6.878786906924012e-07,-4.976222539622767e-07,7.019250009374413e-07,1.6506457252175918e-06,1.2403085660123052e-06,-8.978967109920891e-07,-2.7724739961524704e-06,-1.4908826641565207e-06,2.8411308440315506e-07,-7.675725294385839e-08,3.574754867827237e-07
-5.057104311708221e-07,-5.063939153576783e-07,-9.310205595772062e-07,-2.6435551659533905e-06,-2.981764566798491e-07,2.449622374475507e-07,-9.200981152229032e-07,-6.750033427366505e-07,-4.926413203249533e-07,5.173259721131603e-07,1.7440868348678812e-06,1.1926338418302887e-06,-7.342556870748394e-07,-2.609063388756684e-06,-1.4404800295746514e-06,1.3889641175618513e-07,-1.8051566265673261e-07,3.078856463158843e-07
-5.557440915110171e-07,-5.903972485441945e-07,-9.293565351503642e-07,-2.709575502917099e-06,-2.044656527468853e-07,4.986321356561983e-07,-8.216954885739841e-07,-6.384234650939349e-07,-4.833180906424483e-07,4.1519372676728164e-07,1.8481194181949839e-06,1.0923502780476218e-06,-5.567385816733325e-07,-2.4451008368401395e-06,-1.4153120078560035e-06,2.1662255199938445e-08,-3.108479736636196e-07,2.877521202909663e-07
-5.688595973287721e-07,-6.381809028230174e-07,-9.167159820679608e-07,-2.748751611340964e-06,-6.841340393431575e-08,6.449797427825426e-07,-7.306455509022255e-07,-5.778049928884782e-07,-4.6751783176688935e-07,3.3846498288485323e-07,1.748382873769959e-06,9.622388015677112e-07,-3.7993425240172666e-07,-2.2922326270653432e-06,-1.247268188076251e-06,-3.725676150174675e-08,-3.9808950885020233e-07,3.012793067949377e-07
-5.522086050546876e-07,-6.532226351989823e-07,-9.016259917031766e-07,-2.823832096296509e-06,8.169271288347096e-08,6.659816695064614e-07,-5.450416798318562e-07,-5.008220750286889e-07,-4.454901345116913e-07,3.010175038369226e-07,1.6210545707895903e-06,8.328654471769859e-07,-2.1979070476748655e-07,-2.16083569569717e-06,-1.0285716600692827e-06,-2.1693462803671785e-08,-4.4544609529704813e-07,3.403521986123621e-07
-5.181152539874148e-07,-6.449687898544041e-07,-8.906931014093588e-07,-2.7893644198355143e-06,2.1303245682125616e-07,7.047488893507669e-07,-3.991718889578611e-07,-4.2035689528806156e-07,-4.2044059344473545e-07,2.7328418510974493e-07,1.516558354002889e-06,7.311785123128215e-07,-8.901973072245315e-08,-2.0612452984245783e-06,-8.644922488362966e-07,6.542171718801246e-08,-3.984698746365809e-07,3.8805935722974423e-07
-4.794634081004391e-07,-6.245406097671032e-07,-8.861369445522268e-07,-2.6862336904412608e-06,2.995837228579257e-07,7.391514074100408e-07,-3.3022892555841307e-07,-3.5112851457672187e-07,-3.962416701036277e-07,2.3548489317706258e-07,1.4274698093943624e-06,6.72617487147134e-07,6.813462122941119e-09,-1.999738015083022e-06,-6.735815306778514e-07,2.0645468261786817e-07,-3.720424163799989e-07,4.267934033304632e-07
-4.457859610890592e-07,-6.003138517964585e-07,-8.857364627616869e-07,-2.6110173140266684e-06,3.310319199186559e-07,6.687207272585791e-07,-2.3643322840579571e-07,-3.05445295965718e-07,-3.751558165054797e-07,1.77928219801464e-07,1.4089152299027921e-06,6.58577689534425e-07,6.994262471325923e-08,-1.973818385078497e-06,-6.699707750912603e-07,3.7761165702763353e-07,-3.52557104314887e-07,4.4492989845569986e-07
-4.217848922534627e-07,-5.762404850152868e-07,-8.852488227308521e-07,-2.579046788841503e-06,3.120589929307387e-07,5.674089661386905e-07,-1.6344890244046977e-07,-2.8835716891583576e-07,-3.5792724151168305e-07,1.02713030370782e-07,1.434540662725105e-06,6.7846967074321e-07,1.0771387749720001e-07,-1.971766617653513e-06,-7.133265793096784e-07,5.560927227651611e-07,-2.532211103964709e-07,4.401246761542972e-07
-4.078897848369212e-07,-5.544016578418434e-07,-8.810863587575771e-07,-2.5697950064424746e-06,2.585907961024783e-07,5.063258434063169e-07,-1.7395200716088398e-07,-2.959978871893434e-07,-3.447520508198636e-07,2.0872606352031847e-08,1.4835568326886678e-06,7.152312739360973e-07,1.2885708220441796e-07,-1.975525219499415e-06,-7.551804222283026e-07,7.24854108053088e-07,-1.7119432228833668e-07,4.182563884189916e-07
-4.0149908716129144e-07,-5.350761189287264e-07,-8.718949092297676e-07,-2.5797234683004803e-06,1.916018160365532e-07,4.979166882064082e-07,-2.1451678559151765e-07,-3.1488370108105206e-07,-3.35341924034054e-07,-5.321872764283616e-08,1.5413958457125788e-06,7.516037832296029e-07,1.407253980850332e-07,-1.965523992819617e-06,-8.188429996820738e-07,8.748518049480565e-07,-1.1078061170755117e-08,3.90242161005015e-07
-3.9860520796214983e-07,-5.178864048637206e-07,-8.583947703807618e-07,-2.5953430129032197e-06,1.321457372395124e-07,4.683717074920969e-07,-3.156321771118659e-07,-3.293780141092423e-07,-3.28274604028326e-07,-1.0767998089732955e-07,1.5774074655943065e-06,7.746863665308383e-07,1.4800815214554512e-07,-1.926422589186994e-06,-8.545080658742851e-07,1.005045711477677e-06,1.4284122565373815e-07,3.677668616588407e-07
-3.9524115342752584e-07,-5.018621018060483e-07,-8.426776804476073e-07,-2.595235828642066e-06,9.791213221764915e-08,4.768454441944936e-07,-3.829805340019957e-07,-3.2733613726642864e-07,-3.200721888235216e-07,-1.3677737257111269e-07,1.5918975732139833e-06,7.786108475564599e-07,1.5327567412214293e-07,-1.8501398074998267e-06,-8.477944597529889e-07,1.121385362448325e-06,2.7058023318086957e-07,3.605780766809634e-07
-3.8808869112481464e-07,-4.833184360641631e-07,-8.264524744561819e-07,-2.571241313593806e-06,1.0134157382876448e-07,5.230183997442247e-07,-4.106853265307829e-07,-3.0380323031687293e-07,-3.048957730584236e-07,-1.450537853275856e-07,1.5922052842340457e-06,7.653542837550175e-07,1.5835027366324715e-07,-1.7350034012685434e-06,-8.077410554420094e-07,1.234555565384766e-06,3.963468493545138e-07,3.7538550225084544e-07
-3.7450262652305933e-07,-4.5713187377253993e-07,-8.090091926577676e-07,-2.5300201447462845e-06,1.4724836258120927e-07,5.753424441570694e-07,-4.1737462113072404e-07,-2.596891160095349e-07,-2.763490992717419e-07,-1.3970381948833778e-07,1.5843154843135875e-06,7.427390508631288e-07,1.649855236623901e-07,-1.5844635778100663e-06,-7.389070520843084e-07,1.3552612226458475e-06,4.783327948783252e-07,4.147655890252315e-07
-3.525469709777739e-07,-4.213331095303044e-07,-7.876400420241098e-07,-2.4698127287302314e-06,2.2563410782095996e-07,6.468374562469495e-07,-3.6611181346662616e-07,-1.9646059857373517e-07,-2.3070352109180978e-07,-1.319820754204924e-07,1.5732684146548804e-06,7.202886045750968e-07,1.7481218193263916e-07,-1.4061100809897812e-06,-6.515700449885925e-07,1.489133527117146e-06,5.451497669362539e-07,4.771120060469898e-07
-3.2117082324633447e-07,-3.769566730656821e-07,-7.585838217496567e-07,-2.3907036066452464e-06,3.246548752722194e-07,7.198676127458734e-07,-2.8340509054236636e-07,-1.1549000376880866e-07,-1.690050799323796e-07,-1.310852118154062e-07,1.5651927274194247e-06,7.051604519131147e-07,1.892323613364164e-07,-1.2093812550772273e-06,-5.56658034390048e-07,1.6345046456326646e-06,6.212624152175258e-07,5.545173270072023e-07
-2.803975950395309e-07,-3.3449229233548246e-07,-7.184856626036934e-07,-2.292400191894911e-06,4.250638498455455e-07,7.919276280570237e-07,-1.937285664097503e-07,-1.9115151414476053e-08,-9.71391210542441e-08,-1.5331239830852043e-07,1.5640206338441623e-06,6.994294474502914e-07,2.090431907009755e-07,-1.0033880584898725e-06,-4.6095607859617274e-07,1.7829287381862043e-06,7.062428442752403e-07,6.374149630287329e-07
-2.317933418225227e-07,-2.999909455194873e-07,-6.668727591126527e-07,-2.176873167918699e-06,5.06494906657948e-07,8.680492477800472e-07,-1.0545997155140007e-07,9.772116177038137e-08,-2.415724248308445e-08,-2.1118251811679943e-07,1.5698653389159959e-06,6.996747621287368e-07,2.3349559254044568e-07,-7.961667908619995e-07,-3.6931175932813907e-07,1.922531287337863e-06,8.008316647557481e-07,7.153530067853006e-07
-1.7889047070773768e-07,-2.7875656202316303e-07,-6.066732866515404e-07,-2.051648995992457e-06,5.579666375315257e-07,9.474132524425818e-07,-3.4268036330040165e-08,2.239800998026838e-07,4.118819410904542e-08,-3.0404287432491804e-07,1.5836521165405024e-06,6.984834382259378e-07,2.597176745282964e-07,-5.886719568222785e-07,-2.8185010266495776e-07,2.0409320088281258e-06,8.904236867858646e-07,7.786610780721472e-07
-1.2677545345111535e-07,-2.7598967728732355e-07,-5.433841035027094e-07,-1.9263003225141234e-06,5.840942661654751e-07,1.0277872317560363e-06,1.4925420411102304e-08,3.54673713707842e-07,9.445311856731397e-08,-4.234109765083607e-07,1.6059444000360811e-06,6.861347946497878e-07,2.8542403407214714e-07,-3.885340767485725e-07,-1.940586604083973e-07,2.1309706803616275e-06,9.610713809884522e-07,8.222548592526807e-07
-8.393186058091765e-08,-2.822150565819667e-07,-4.861149997510692e-07,-1.8082976868613959e-06,5.997145564698234e-07,1.1029882050583546e-06,5.077199955526829e-08,4.852400101616803e-07,1.3783081020047654e-07,-5.161765446069197e-07,1.6341765521519615e-06,6.567730688338997e-07,2.977316210586984e-07,-1.961352835865414e-07,-1.0026636263723567e-07,2.193817617555391e-06,1.0049968040916328e-06,8.460478659101597e-07
-5.5726476129595364e-08,-2.9101345915090375e-07,-4.4149264639383086e-07,-1.6997298341806838e-06,6.26484273562056e-07,1.159397293025257e-06,7.462005486419045e-08,5.832437443884556e-07,1.8018861374664554e-07,-5.309550904336754e-07,1.658684695540111e-06,6.091574907624036e-07,2.903262732991254e-07,-2.867479051657497e-08,4.643859406744152e-09,2.2362221032588568e-06,1.0197451029783676e-06,8.556368604470454e-07
-4.6436541288300035e-08,-2.8525744513905893e-07,-4.148531039252133e-07,-1.6019332792589344e-06,6.977156541967936e-07,1.186373650911134e-06,8.444344268861378e-08,6.297666565802414e-07,2.3467099534622374e-07,-4.306034517620293e-07,1.685090724869686e-06,5.45502267631496e-07,2.629642000741926e-07,1.079210435600377e-07,1.1699550267304687e-07,2.272806778601255e-06,1.0082897390745384e-06,8.608343586178957e-07
-5.8248136784892754e-08,-2.136750918012014e-07,-4.116952576654281e-07,-1.5128461421749075e-06,8.358450383782646e-07,1.1776380000360723e-06,9.19320554279734e-08,6.208230602923974e-07,3.1345354394512405e-07,-3.3938948617131655e-07,1.7096969080411304e-06,4.788031350829353e-07,2.0263702914039395e-07,2.0691934552278011e-07,2.3048409114064077e-07,2.3150585117182907e-06,9.77359131207696e-07,8.721084413916292e-07
-9.489162236479828e-08,-1.2892684958542622e-07,-4.3579449651677657e-07,-1.4316196347617904e-06,1.0509204775165563e-06,1.1230916489135725e-06,8.929411158401075e-08,5.428790059810054e-07,4.2192451599303874e-07,-2.5669517494406103e-07,1.810011606632272e-06,4.2189812379872974e-07,1.0651501025229023e-07,2.537279105889795e-07,3.300044384295128e-07,2.3632187929100006e-06,9.35120028382788e-07,8.953166478326408e-07
-1.6095910403567122e-07,-4.437536420540808e-08,-4.959399669214826e-07,-1.359428465199667e-06,1.326472066334564e-06,1.0179351716215642e-06,7.386097919848222e-08,3.9441082985588083e-07,5.561449799713333e-07,-2.004797409871841e-07,1.991104288338624e-06,3.8718909510794685e-07,-3.189303566971645e-08,2.2445153631700726e-07,3.970056087636063e-07,2.4066915620515215e-06,8.900145994909505e-07,9.299680962274084e-07
-2.5273153283977595e-07,1.2193051737516683e-07,-5.948943852480948e-07,-1.3007753747440654e-06,1.62299453739548e-06,8.602872492979663e-07,4.6395770468055266e-08,1.8746799416221327e-07,7.043481221234535e-07,-6.051804428785744e-08,2.134352574240042e-06,3.8565532997929367e-07,-2.0446399632887934e-07,9.156504575333929e-08,4.095446131679312e-07,2.427417884653635e-06,8.489471129596922e-07,9.699013503553253e-07
-3.579635876056914e-07,3.1598370022779525e-07,-7.246446100323103e-07,-1.2633308956596421e-06,1.8467362588561952e-06,6.607696385740915e-07,1.2810758275970921e-09,-7.008205765745596e-08,8.505576709872377e-07,1.993282528546483e-07,2.2340865206421574e-06,4.1798386051870155e-07,-4.062964977812525e-07,-1.3652956281126864e-07,3.5034991850689176e-07,2.4083452066418013e-06,8.17496025730679e-07,1.0057970554108592e-06
-4.347452605690758e-07,4.780782776617926e-07,-8.515929928919507e-07,-1.2476895503510745e-06,1.8868019574724566e-06,4.406380001748053e-07,-5.9426357417810665e-08,-3.107517164243217e-07,9.786308725376053e-07,4.4344046528601534e-07,2.2927092506662206e-06,4.799496076044531e-07,-5.773497523713812e-07,-4.590761230593741e-07,2.2563817920382399e-07,2.341657841403896e-06,7.968972031089608e-07,1.0296032683970222e-06
-4.584796460210892e-07,6.074793583389058e-07,-9.407128014786154e-07,-1.2453463117696615e-06,1.8422274458129484e-06,2.670339253292189e-07,-1.2076213780710736e-07,-4.5230285686412107e-07,1.0755011938430522e-06,5.414129871106505e-07,2.235267176236495e-06,5.575309417764603e-07,-6.159319092372331e-07,-6.85546545534225e-07,5.881874113743944e-08,2.234186119724341e-06,7.853685647141986e-07,1.0375506880972647e-06
-3.622782395965717e-07,6.525136486376935e-07,-9.193468302663286e-07,-1.2419029482099323e-06,1.7541807868569378e-06,2.2098522746486832e-07,-1.2730017975763259e-07,-4.356851474320926e-07,1.1332292131114172e-06,6.185656733378647e-07,2.2238591774693385e-06,6.498831826752519e-07,-5.74589818570495e-07,-6.349356319710318e-07,-7.453862063691478e-08,2.1010349479901833e-06,7.789134243789574e-07,1.0306193760383519e-06
-2.831289151559566e-07,7.287993234243189e-07,-8.807360766606695e-07,-1.2211090713904011e-06,1.7657693661322023e-06,2.3570566813400182e-07,-1.0562436604803119e-07,-3.7295530955329235e-07,1.1503564589878474e-06,5.266804430656784e-07,2.2663526421824958e-06,7.492896423237514e-07,-5.147748432104835e-07,-3.783922136010354e-07,-9.542351052460691e-08,1.961563837348974e-06,7.707729688278843e-07,1.0175755620374502e-06
-2.491938674940188e-07,7.982126158115983e-07,-8.461010680188654e-07,-1.1776414397670885e-06,1.7240765910358338e-06,2.9054102394493107e-07,8.93742740012371e-09,-3.225934359641041e-07,1.1320495433264994e-06,4.3645722098460423e-07,2.2969851643097254e-06,8.030037057209975e-07,-5.635257113228618e-07,3.576440204175743e-08,4.929424426305474e-08,1.8326956242726299e-06,7.527879164821399e-07,9.979557156003977e-07
-2.1179425811780286e-07,7.402004102490673e-07,-8.12971358473968e-07,-1.0726780944813896e-06,1.5479837525381022e-06,3.0835781050339447e-07,1.403881693252846e-07,-2.7402084057672445e-07,1.0882773306610658e-06,3.869026197000663e-07,2.201842881188757e-06,7.554573803879185e-07,-4.329885792679723e-07,3.7034312961155836e-07,2.0124567381331157e-07,1.7224154724832874e-06,7.168707713541519e-07,9.710917867316236e-07
-5.990946264527634e-08,6.567631600275156e-07,-7.70308365679e-07,-9.405323652563587e-07,1.3412783357774035e-06,3.0787232113745684e-07,2.2272054257532382e-07,-2.1051036507046462e-07,1.0311805258029124e-06,2.948943414861891e-07,2.0359368812029335e-06,6.088763569816128e-07,-2.1382947161846327e-07,6.558894216857587e-07,3.3833499548943157e-07,1.6309435219236694e-06,6.571091871282115e-07,9.39183091174043e-07
1.251499839657548e-07,6.025245161780641e-07,-6.646243575221263e-07,-7.696430534508227e-07,1.1447963033254e-06,4.81811545239568e-07,3.6845017963311145e-07,-3.364346683793539e-08,9.728261775592239e-07,2.2964532950873306e-07,1.8561171369017854e-06,4.6665185405753955e-07,-1.0958287952761166e-07,1.0736612347269802e-06,4.638260617421963e-07,1.5532459734335987e-06,5.735078658315782e-07,8.962268903601511e-07
2.9121721681422365e-07,5.522194773050172e-07,-4.878694489611894e-07,-5.851677902062243e-07,9.749522518912604e-07,6.677574900151089e-07,5.86705498326145e-07,2.6072450063185665e-07,9.232765386096956e-07,6.763469375506683e-08,1.7208615295887898e-06,3.2899080288623917e-07,6.431873625662108e-10,1.5707438015483052e-06,6.600010480388037e-07,1.4839393799911225e-06,4.7486606496401405e-07,8.438899074678616e-07
3.966467655436289e-07,5.264724377117954e-07,-3.714510449310341e-07,-4.085627491959057e-07,9.117816104293506e-07,7.689005119235429e-07,7.728344285302735e-07,5.153118411016679e-07,8.89498942778629e-07,-1.1049517014439322e-07,1.5727172131083237e-06,1.6277570799694073e-07,1.3187799018823762e-07,2.1333680626862167e-06,9.530120625975372e-07,1.423062267051155e-06,3.7723073687094693e-07,7.875506088726985e-07
4.741924713206512e-07,5.212922623327128e-07,-3.2402316636616446e-07,-2.605986676365973e-07,9.360830139129153e-07,8.461900267583078e-07,9.737611524369316e-07,6.553461725528241e-07,8.753839940879543e-07,-2.92440717573926e-07,1.4649960043592778e-06,3.114250571544371e-08,1.6726836714779337e-07,2.407582923371968e-06,1.2369168137341835e-06,1.3772546993027635e-06,2.9916058349733707e-07,7.347379938710286e-07
5.437675282287124e-07,5.407535949381582e-07,-2.581510942911394e-07,-1.5373060574877396e-07,1.0338482120724998e-06,8.288573186776418e-07,1.1090336663043252e-06,8.179335632725733e-07,8.816779190862055e-07,-4.368270549032746e-07,1.4082848051582062e-06,-8.027517903631382e-08,1.9726244261382712e-07,2.734865193406849e-06,1.4291865391955183e-06,1.3576792207487917e-06,2.558893182570521e-07,6.952333267853928e-07
5.627493984967689e-07,5.88686857204999e-07,-1.9690415127412844e-07,-8.978121099900108e-08,1.1843111775040539e-06,8.175974493452431e-07,1.1744341670986053e-06,9.314547352763584e-07,9.056555383896597e-07,-4.5012735766682236e-07,1.3967990178887462e-06,-1.675313391521856e-07,2.2187271372883512e-07,3.021478657754856e-06,1.6184918088406363e-06,1.3752616545918177e-06,2.49521328409007e-07,6.778666545216294e-07
5.025038033137678e-07,6.533161113695874e-07,-2.394219681102018e-07,-6.012561977585675e-08,1.3403542281484176e-06,7.35528578830851e-07,1.1997411591810656e-06,9.159195187967449e-07,9.415214872856177e-07,-4.313824303797928e-07,1.4326266857038947e-06,-2.2479774114462684e-07,2.3565677025406495e-07,3.25367081843122e-06,1.7716701068192544e-06,1.4347647784734795e-06,2.6930469379900717e-07,6.870006273472674e-07
3.9616482890459626e-07,7.28034379023887e-07,-3.0643395354697403e-07,-5.124837694619999e-08,1.4822423583514404e-06,5.639699288622065e-07,1.1877620436017626e-06,8.114473593511234e-07,9.81228584187694e-07,-4.1044184817931915e-07,1.4574170299394754e-06,-2.762047774354812e-07,2.6639229060515945e-07,3.3506512601162203e-06,1.7327394908431078e-06,1.5324912874938357e-06,2.9529782615365623e-07,7.104387307618671e-07
3.1443225115251263e-07,7.95786635324688e-07,-3.3714889555943957e-07,-6.313054005246454e-08,1.5917583458024076e-06,3.6026595146698574e-07,1.1838963474591893e-06,6.804974437152506e-07,1.0155549258647865e-06,-3.7134433033817184e-07,1.4985386452529071e-06,-3.330869883890858e-07,2.8712236106735985e-07,3.2355540104521756e-06,1.7170770823806891e-06,1.6525656481253863e-06,3.017940551074367e-07,7.304770254810939e-07
2.5400916099767776e-07,8.306632599253899e-07,-3.2637655536578137e-07,-9.034475944539576e-08,1.6549610931348667e-06,2.1092318603979456e-07,1.2074131055589133e-06,6.108798594397089e-07,1.0367231228927304e-06,-3.470628458100991e-07,1.5490287107431097e-06,-4.193615563620553e-07,2.822355290030427e-07,3.2312703555679526e-06,1.8446456079705298e-06,1.7707692756960177e-06,2.7028105498416585e-07,7.361887775520123e-07
2.100307799600238e-07,8.235471218179973e-07,-2.8517644822669794e-07,-1.1461574173772473e-07,1.6669619218079544e-06,1.1090381989897253e-07,1.2646165988460296e-06,5.82913040352586e-07,1.041656416890823e-06,-3.6451145722525355e-07,1.572157473240178e-06,-5.561176064111445e-07,2.414277154371001e-07,3.4669960266703306e-06,2.0794695946149016e-06,1.853724561502779e-06,1.9310149331977828e-07,6.549552924381119e-07
1.8789327024875735e-07,7.70969613691334e-07,-2.202830043496802e-07,-1.1776485947543897e-07,1.6439802408211196e-06,4.541984704885487e-08,1.3537110029055766e-06,5.685396339332061e-07,1.0324773724919058e-06,-4.2715134902165385e-07,1.5894083571709e-06,-7.531790572646623e-07,1.6214865731186933e-07,3.6469604286346005e-06,2.342601714778448e-06,1.877646265718352e-06,7.450523071158908e-08,5.176762336629365e-07
1.846537663158157e-07,6.784240219669917e-07,-1.4281728797797679e-07,-1.0715110097862219e-07,1.5806583612304222e-06,1.493203980646613e-08,1.4619332222313958e-06,5.647069180148612e-07,1.0139986517223599e-06,-5.323990585154405e-07,1.592988208547591e-06,-9.960500618399383e-07,5.243034897544472e-08,3.90657396353406e-06,2.723018243168225e-06,1.8309107577321186e-06,-7.273815257777358e-08,3.916193772405922e-07
1.9389775561858273e-07,5.684531952915857e-07,-6.597364398555405e-08,-9.81572881624788e-08,1.4933581987270416e-06,1.1127218153532703e-08,1.56915042637923e-06,5.726457729793948e-07,9.91486206265633e-07,-6.656126397152893e-07,1.5731206858797701e-06,-1.2540847483665187e-06,-7.201260728035711e-08,4.550312877022387e-06,3.212581322630745e-06,1.7137698405799966e-06,-2.2728806109069285e-07,2.2965716743928383e-07
2.0853878759234717e-07,4.5377451450622954e-07,-2.1474793376111496e-10,-9.676303091691143e-08,1.4028282837942547e-06,2.5204200498518782e-08,1.655177254843392e-06,5.574923444202766e-07,9.698308268338396e-07,-8.068748588640487e-07,1.538345966931868e-06,-1.4907256687093682e-06,-1.887122269040088e-07,5.223865376578336e-06,3.5736846116857777e-06,1.5357089443191766e-06,-3.590967329822105e-07,3.57926721434907e-08
2.2311733524366133e-07,3.4578871310811917e-07,4.923867659330486e-08,-1.116598541850617e-07,1.3082708925141042e-06,4.9381852134738514e-08,1.7089871482401282e-06,5.450532811677872e-07,9.528875855561364e-07,-9.376925323570413e-07,1.4874784846275346e-06,-1.6732654850184395e-06,-2.7447227470603064e-07,5.688470251228088e-06,3.7864450415540062e-06,1.3217316016221672e-06,-4.5452970922648786e-07,-1.3336192959014324e-07
2.34618094785463e-07,2.5556446994685086e-07,8.31582374544584e-08,-1.2992668404447144e-07,1.2222916679311087e-06,7.7430432525746e-08,1.730899549572683e-06,5.324683784832868e-07,9.432176052914573e-07,-1.057534693586167e-06,1.429328395574794e-06,-1.77442873123323e-06,-3.1918449089547414e-07,5.908981750872903e-06,3.885828179818724e-06,1.0984744957605158e-06,-5.088649149715833e-07,-2.550949265852096e-07
2.423969176600921e-07,1.9328273625511234e-07,1.0797663814849972e-07,-1.4701421852011634e-07,1.1585379005332926e-06,1.0604478332731201e-07,1.729912022437386e-06,4.915843828074328e-07,9.425357920136829e-07,-1.1436225298516152e-06,1.377172126075366e-06,-1.8016743070994894e-06,-3.231721131025397e-07,6.0337523541706664e-06,3.995002547416797e-06,8.901412935756985e-07,-5.208606768123885e-07,-3.3678001392503465e-07
2.4749902897413726e-07,1.554776703215216e-07,1.3381262492183754e-07,-1.6577707951960028e-07,1.114732106368477e-06,1.3604776863597257e-07,1.725435386350284e-06,4.672886831791505e-07,9.511944911693508e-07,-1.2065001550424042e-06,1.3316093732650177e-06,-1.775835755576638e-06,-2.952988533223252e-07,6.124339361132862e-06,3.99797496393426e-06,7.301569824883735e-07,-5.021658172023543e-07,-3.7712918798675194e-07
2.5141537076355827e-07,1.3343015637803825e-07,1.7078075816738556e-07,-1.7751000688489842e-07,1.0871168371905487e-06,1.7168906020020783e-07,1.739025181597823e-06,4.5839797309311707e-07,9.666209885306025e-07,-1.2720789773897647e-06,1.279139930935265e-06,-1.7224717584412418e-06,-2.554747941825557e-07,6.203834783456266e-06,3.938074267209715e-06,6.109724613821529e-07,-4.648756996582751e-07,-3.857561998391244e-07
2.553441936652866e-07,1.2597901873159872e-07,2.2588128402387427e-07,-1.7559400072169955e-07,1.075588965335313e-06,2.1877076680117275e-07,1.7862381500630149e-06,4.564914249444231e-07,9.833220410218196e-07,-1.3569017809348074e-06,1.2146242296588761e-06,-1.671439128067812e-06,-2.2572360014987197e-07,6.356010225974202e-06,3.9081382549614976e-06,5.151666529805898e-07,-4.193726751632969e-07,-3.813312985698951e-07
2.6073430109828813e-07,1.0967977167692949e-07,3.021084342713109e-07,-1.516636933726347e-07,1.0680755458613685e-06,2.8279166461541275e-07,1.869673204732075e-06,4.981063376493593e-07,9.950148605412281e-07,-1.4805390369387793e-06,1.1306883347519326e-06,-1.6383710848131717e-06,-2.2605528135677878e-07,6.592746844482347e-06,3.968829236630934e-06,4.273827334136092e-07,-3.7493040817546995e-07,-3.808708784299578e-07
2.7014448583896557e-07,7.317038712664227e-08,4.0059226198862426e-07,-1.0249133103460545e-07,1.047447550216422e-06,3.6700162675331416e-07,1.9965209587997836e-06,5.762299492900512e-07,9.96775563934546e-07,-1.644836190366816e-06,1.0215682665561309e-06,-1.6284484240520807e-06,-2.7853553757201375e-07,6.9285885091755465e-06,4.09925853054958e-06,3.3012740402454057e-07,-3.379471595575185e-07,-3.988822038701019e-07
2.8738794785366553e-07,1.6768869698638794e-08,5.171355952504617e-07,-4.534036454123389e-08,1.0337279045446898e-06,4.708348280188956e-07,2.154462124717707e-06,6.818246276870028e-07,9.865484834897526e-07,-1.8373157108814212e-06,8.903776052875226e-07,-1.6384733444205162e-06,-3.874610050857862e-07,7.347422608281159e-06,4.2693107957742044e-06,2.2047797577963442e-07,-3.0820365317333374e-07,-4.465627418819353e-07
3.1675860889109684e-07,-5.5541032507194294e-08,6.435719663390138e-07,1.570081747694272e-08,1.0185916513776888e-06,5.896532907522584e-07,2.3195289339665063e-06,8.293630841660054e-07,9.661400618657804e-07,-2.0353291504391966e-06,7.463059034560638e-07,-1.6657780865978476e-06,-5.481427033260292e-07,7.798509392374373e-06,4.4250254148511945e-06,9.673002843790708e-08,-2.887435327154767e-07,-4.922786391737375e-07
3.6124110959616955e-07,-1.129356330999953e-07,7.704762690915505e-07,1.2284672969368167e-07,9.67637906910008e-07,7.152887927251893e-07,2.480650114486823e-06,9.938592008162182e-07,9.401415324081596e-07,-2.223840267874765e-06,6.010767946087837e-07,-1.7102717291140896e-06,-7.497235801547368e-07,8.176185258119681e-06,4.5453376502727754e-06,-4.513930738574258e-08,-2.7506055965009466e-07,-5.265465669833946e-07
4.199346399457641e-07,-1.6579923354092386e-07,8.958854255543429e-07,2.559801500763532e-07,8.924275650431565e-07,8.369870133972448e-07,2.62262926638678e-06,1.1837291335140248e-06,9.126406641934552e-07,-2.3603601399311914e-06,4.693158746195692e-07,-1.757691296802817e-06,-9.353663353530373e-07,8.431452146241815e-06,4.631474096233686e-06,-1.6683691516417363e-07,-2.6428784541282407e-07,-5.450955186474507e-07
4.8653464200101e-07,-1.8236219995649823e-07,1.0101026544608113e-06,3.6041610003650345e-07,7.984848144755356e-07,9.440302098084317e-07,2.7400005597950607e-06,1.375663681045723e-06,8.846553602904409e-07,-2.448783879185164e-06,3.705627277710024e-07,-1.7808505713302367e-06,-1.0927211385805737e-06,8.594359411195718e-06,4.671929715110781e-06,-2.5936100347071855e-07,-2.5803394266533225e-07,-5.301523907483874e-07
5.503709626490965e-07,-1.7118727529080573e-07,1.1011958961735188e-06,4.302439474101298e-07,7.152350006610611e-07,1.030198104779707e-06,2.8248202402874103e-06,1.5175150379869178e-06,8.537375673986725e-07,-2.4905155750993167e-06,3.0743155984723405e-07,-1.7870572592215562e-06,-1.2328938300338294e-06,8.6494563744487e-06,4.677616874211805e-06,-3.2716109806573816e-07,-2.3846748685565927e-07,-5.211082038295603e-07
5.994860841715417e-07,-1.6860520474532207e-07,1.1693180941285762e-06,4.675751848081584e-07,6.476882473985697e-07,1.1011583070052404e-06,2.8739011800894545e-06,1.552127866967913e-06,8.144676448338077e-07,-2.4888248950293687e-06,2.9180088792549874e-07,-1.7823494790170867e-06,-1.349781405815974e-06,8.615927752029892e-06,4.643586786704843e-06,-3.6764485115094217e-07,-2.107621818307076e-07,-5.359242176631839e-07
6.243981526789577e-07,-1.7732761427055586e-07,1.2152736408983497e-06,5.011284694299609e-07,5.981166519581483e-07,1.1683142735831e-06,2.8892072366622042e-06,1.6222163638323378e-06,7.608715638118302e-07,-2.4587352572170655e-06,2.9523395106181685e-07,-1.7786517549892508e-06,-1.3889821265138813e-06,8.433356561184389e-06,4.580920228226547e-06,-3.912873791187894e-07,-2.0520020766959068e-07,-5.237936573945032e-07
6.214832957640688e-07,-2.505671549661977e-07,1.2465757936081487e-06,5.419313877437494e-07,5.310727878128309e-07,1.252755223289139e-06,2.885150213204702e-06,1.698008294644895e-06,6.86330520306456e-07,-2.413121105853132e-06,3.0324583214446384e-07,-1.7830696131187844e-06,-1.404696272356394e-06,8.246726546189516e-06,4.478705211383264e-06,-4.264020712741139e-07,-2.1553207720050608e-07,-4.729679785716325e-07
5.948494393173894e-07,-3.668044225301222e-07,1.275039157737681e-06,6.927799087094887e-07,3.620235614926722e-07,1.3743385903788132e-06,2.875077831038739e-06,1.8819705027931384e-06,5.857744424257192e-07,-2.3379428538841025e-06,2.924117167357887e-07,-1.7774641559992278e-06,-1.303047337707635e-06,8.015046575963101e-06,4.3360737515198055e-06,-4.054016467317433e-07,-2.261364830151949e-07,-3.9941796280878335e-07
5.553858443348017e-07,-4.7025910703121557e-07,1.3156579158229927e-06,8.909584636983636e-07,1.1346103191890713e-07,1.5548985242182277e-06,2.8713873460248102e-06,2.183198745476006e-06,4.5809118470893894e-07,-2.246580345988937e-06,2.431880697591054e-07,-1.7326502997433427e-06,-1.03214106700428e-06,7.74562302139467e-06,4.204518538363426e-06,-3.3587721596237244e-07,-2.2180807260714897e-07,-2.114807428934037e-07
5.177813269304537e-07,-4.98126228285054e-07,1.3750969361016303e-06,1.0171446574189631e-06,-5.406915196531194e-08,1.8003490050544934e-06,2.881591175405795e-06,2.2928054425932156e-06,3.038648961386427e-07,-2.2007552278201804e-06,1.474623740236235e-07,-1.5861927624656737e-06,-9.477979377527739e-07,7.551471778408935e-06,4.146482610932089e-06,-2.2190372733322087e-07,-1.4472934743330395e-07,-9.917170128467717e-08
4.973402715438078e-07,-5.754629272594046e-07,1.4543813627958857e-06,1.0530363624565362e-06,-1.2478476610632388e-07,2.0953266976554716e-06,2.902819992780652e-06,2.3132573979591834e-06,1.287005641308996e-07,-2.1210042979615877e-06,4.172802251928696e-08,-1.397987830756287e-06,-9.212573329578575e-07,7.451622688173005e-06,4.115365514995936e-06,1.1669750426397435e-08,3.253207821331853e-08,-2.670627457050622e-08
5.070873049697125e-07,-7.317538895787833e-07,1.5504121367742965e-06,1.0550229308201543e-06,-1.1028516278286913e-07,2.4131084548141064e-06,2.9348599253107872e-06,2.4120198187871317e-06,-5.8185630313400057e-08,-1.96003563893218e-06,-9.727208597707862e-08,-1.2750003547377308e-06,-8.739584609412005e-07,7.388418493428346e-06,4.121428734942573e-06,1.602637109871007e-07,1.5546905612796197e-07,5.813730097083699e-08
5.550313685124623e-07,-9.126899244858337e-07,1.6524855292821642e-06,1.0380431509917194e-06,-1.1611512123366076e-07,2.6534841347525417e-06,2.9802933524406033e-06,2.600015609738909e-06,-2.449614063542017e-07,-1.871298033036507e-06,-2.9767795613902203e-07,-1.2409100590131299e-06,-9.007001448584342e-07,7.370092228319777e-06,4.078738632003654e-06,1.787912102155957e-07,2.1222768840097126e-07,1.0262264222375831e-07
6.422201231557914e-07,-1.035775246308559e-06,1.7508326662704607e-06,1.0901727742677946e-06,-2.0632817341914585e-07,2.7621037013031217e-06,3.04071868421651e-06,2.9135191786231774e-06,-4.2808035170161963e-07,-1.8127918453731532e-06,-4.937891885726087e-07,-1.2162861330913556e-06,-7.30758357847489e-07,7.306957347738702e-06,4.020522350159316e-06,1.8686024408636078e-07,2.9001809078819397e-07,1.427283087748953e-07
7.621131495960951e-07,-1.1523247448844535e-06,1.8403305572033758e-06,1.2292026151827106e-06,-4.4840481338250293e-07,2.822864236298995e-06,3.122383170734804e-06,3.162806979023131e-06,-6.108049716352998e-07,-1.8076429872409456e-06,-6.781727394665945e-07,-1.2328368759782438e-06,-4.0780732827965464e-07,7.22407934633064e-06,3.882987473601315e-06,1.636502182549339e-07,3.269710209192905e-07,1.7358932101856985e-07
9.01000384836587e-07,-1.2275683887523427e-06,1.921063023295242e-06,1.3524965415596216e-06,-6.506341190334948e-07,2.846916249470463e-06,3.235222720147418e-06,3.2086112347555915e-06,-7.518852809353005e-07,-1.8455282330629604e-06,-7.358631592628645e-07,-1.1710992035514496e-06,-1.594466690430025e-07,7.005363435392735e-06,3.7682746493576027e-06,3.07145994413409e-07,3.707222924768358e-07,2.2193096485369775e-07
1.039757293869972e-06,-1.221117024052499e-06,1.994302320124862e-06,1.4435307485270243e-06,-8.175537101161907e-07,2.909129702066875e-06,3.3766619209682537e-06,3.158210435019e-06,-8.232914591474099e-07,-1.8455912088569515e-06,-6.022635417384488e-07,-9.92326763673503e-07,7.421578067409267e-08,6.74634933663439e-06,3.72598707983532e-06,5.597539865036376e-07,5.261058495131197e-07,2.7319583038362916e-07
1.1577303422079175e-06,-1.1956455594788995e-06,2.05700401470533e-06,1.4240076627762643e-06,-8.085959032915653e-07,2.9375235684116235e-06,3.5347838483228774e-06,3.0367815008324425e-06,-8.333578941131872e-07,-1.6440552171740677e-06,-4.1941462159766915e-07,-8.511000489561947e-07,3.66382170083906e-07,6.595455787902547e-06,3.7020317197232686e-06,7.325612710997371e-07,6.515065312610682e-07,2.901870759008997e-07
1.2380464739678456e-06,-1.1457831741224274e-06,2.113434458143314e-06,1.3859664209351778e-06,-7.516611447607108e-07,2.9586926102813033e-06,3.6901463882029387e-06,2.9547210214407254e-06,-8.18477047864012e-07,-1.3886021936393305e-06,-3.681207224759024e-07,-7.501816439797745e-07,6.235646485353532e-07,6.423647836370185e-06,3.6223595715080176e-06,8.47018247595662e-07,6.78403317617433e-07,3.104559699958117e-07
1.2721419127702435e-06,-1.0969577151910176e-06,2.1733619627772943e-06,1.3452915138315266e-06,-7.863055662782222e-07,2.925044286138825e-06,3.8221911500388186e-06,2.8575972970173237e-06,-8.064445284077159e-07,-1.1991054842423457e-06,-3.9390872397771376e-07,-6.746898540343774e-07,6.689804007534341e-07,6.122270808083938e-06,3.5555927725520537e-06,1.008114236895948e-06,6.735751115022042e-07,3.2926377854785156e-07
1.2617810416822699e-06,-1.066402631353076e-06,2.233853676196901e-06,1.2658653410037725e-06,-8.901315643909096e-07,2.8622229508086445e-06,3.915197472269822e-06,2.8115751593924525e-06,-7.801589693389563e-07,-9.995294793652972e-07,-4.875340247513815e-07,-5.943428596255183e-07,6.890687297789839e-07,5.87963412250876e-06,3.4395398930066548e-06,1.2563234403156177e-06,6.773973497445317e-07,3.4143196282667147e-07
1.218097569681065e-06,-1.0568492430697784e-06,2.269086810884686e-06,1.2712390912169262e-06,-8.771331565383445e-07,2.7986919179492497e-06,3.963577483164405e-06,2.787594092102179e-06,-7.63967500405515e-07,-8.077089260516208e-07,-4.367926707495226e-07,-5.094577997166397e-07,7.306788154363111e-07,5.596983274429046e-06,3.3654050740901662e-06,1.4637070231661693e-06,6.962907908947379e-07,4.013386370762167e-07
1.1578459773222532e-06,-1.0130840913960562e-06,2.2911239183406543e-06,1.3562895498160147e-06,-7.811220303594574e-07,2.7169825401868413e-06,3.941457245613051e-06,2.65845634417755e-06,-7.643722478363593e-07,-6.608779739380398e-07,-2.469315712516016e-07,-4.782760351434974e-07,7.6254339902364e-07,5.28852296751366e-06,3.321104046023511e-06,1.50826731741646e-06,7.083126254193325e-07,4.470666289190239e-07
1.0981785297595025e-06,-9.96122941296264e-07,2.337785141867572e-06,1.3342717673599556e-06,-6.800918582421995e-07,2.680674915355438e-06,3.900764240518941e-06,2.581610650278816e-06,-7.644006795608606e-07,-6.119313890567301e-07,-6.24291385553174e-08,-4.4951903076607745e-07,7.974752113259734e-07,5.086182900147338e-06,3.24874580455021e-06,1.4586649036815777e-06,7.296963419216566e-07,4.514763371085362e-07
1.0527513794100023e-06,-1.0107639907276853e-06,2.391675816815032e-06,1.3189408041140773e-06,-5.879262921958484e-07,2.684513034118871e-06,3.849492430157491e-06,2.5387373028130876e-06,-7.70052078303529e-07,-5.945488793218343e-07,1.3492716297022545e-07,-4.892310361673908e-07,8.522945882020547e-07,5.054018409676812e-06,3.202641810741608e-06,1.394592950430174e-06,6.898032319560719e-07,3.9692018982353e-07
1.033334751187746e-06,-9.238877621621477e-07,2.4665722181057114e-06,1.364884114637999e-06,-4.848163415102244e-07,2.7019633995128857e-06,3.7882380697393966e-06,2.515893347955177e-06,-7.78291528149722e-07,-5.690778583969975e-07,3.4035340371515755e-07,-5.265267378736459e-07,8.655063571280135e-07,5.1284151915233355e-06,3.1608738109655042e-06,1.3486451861154494e-06,6.703744128100696e-07,3.4731369397947243e-07
1.0443188530455568e-06,-8.870828037447025e-07,2.5175416752124246e-06,1.3985224803605479e-06,-3.8222106215569575e-07,2.731794775062534e-06,3.7304804856945818e-06,2.4833426962170855e-06,-7.836145408766067e-07,-5.498828324039166e-07,5.151014932554005e-07,-5.652989349365696e-07,8.692626566350008e-07,5.31661761923321e-06,3.10462002718174e-06,1.3092756538339249e-06,6.55374828026383e-07,3.298776796136146e-07
1.083869432790615e-06,-8.948375151911872e-07,2.4843603672770156e-06,1.400006242414141e-06,-3.4458132525707574e-07,2.7483240202471556e-06,3.6622200854808286e-06,2.517339845592967e-06,-7.842554326247064e-07,-5.296977426558418e-07,6.466685962137947e-07,-5.725601273845858e-07,8.722595238402433e-07,5.55395237107277e-06,2.9820549654355475e-06,1.3648451343093911e-06,6.151564998757183e-07,3.181581708977688e-07
1.1514519469409597e-06,-9.292305390846742e-07,2.356972664782674e-06,1.4797073074475622e-06,-3.845311482223777e-07,2.7429067989696375e-06,3.597514821805531e-06,2.5083905067464093e-06,-7.723360766982292e-07,-5.147825321096919e-07,7.767964794862331e-07,-5.321040865981651e-07,8.68821817837478e-07,5.724786233579732e-06,2.9147340205888492e-06,1.4626610737036442e-06,5.453556479669233e-07,3.589587966201133e-07
1.2426819695752278e-06,-9.716844318118992e-07,2.233100977321471e-06,1.5524233190720037e-06,-5.295548373010543e-07,2.706092373175687e-06,3.5016624261316244e-06,2.562684116596737e-06,-7.42797613068844e-07,-5.217346061710767e-07,8.978394631836542e-07,-4.904682028535969e-07,8.737308547073875e-07,5.7921172426998394e-06,2.8809661838591166e-06,1.536263239298791e-06,4.965064235548501e-07,3.7759750872335677e-07
1.34761083005371e-06,-1.0030434779976719e-06,2.1513005816057365e-06,1.5710128545191561e-06,-6.137735128438869e-07,2.6233617016321153e-06,3.4183464756253154e-06,2.60244887067239e-06,-6.966557034263646e-07,-5.896847177979436e-07,1.035864904443813e-06,-4.580605273394986e-07,8.9622825400549e-07,5.8032681192254176e-06,2.846122216568712e-06,1.5811646779202817e-06,5.021972985274154e-07,3.052600032907863e-07
1.4567557689797813e-06,-1.0199363861778683e-06,2.0559074196927133e-06,1.5804961056320025e-06,-6.297440102610626e-07,2.487462664701742e-06,3.274726121981118e-06,2.593225096741592e-06,-6.395591520046583e-07,-6.124828766913e-07,1.1008518569705985e-06,-4.473519983426621e-07,8.602849414560476e-07,5.680623160212263e-06,2.8620464395068335e-06,1.5705779692201744e-06,5.614515868140524e-07,3.004634967224626e-07
1.5541304237937283e-06,-9.80379889964924e-07,1.9368024713426663e-06,1.6242633537324565e-06,-5.370487664986379e-07,2.3031003660912795e-06,3.063373076627252e-06,2.5599753094714917e-06,-5.793188678749925e-07,-6.463155913963235e-07,1.097639273044389e-06,-4.6958609399503636e-07,7.058426726944441e-07,5.607079886104542e-06,2.844612746634871e-06,1.5248777812244813e-06,5.209862040735651e-07,2.8848881789523824e-07
1.5979241063393963e-06,-9.416129374314612e-07,1.79231980983531e-06,1.626191864259221e-06,-3.8057382840137433e-07,2.089143028982724e-06,2.8244908307528774e-06,2.4679821473184883e-06,-5.223588480728712e-07,-7.707435066082064e-07,1.0369586126127716e-06,-5.171920503408462e-07,4.686855114986864e-07,5.455633834904024e-06,2.8583565486672273e-06,1.4201872494885254e-06,3.9021179969705487e-07,3.1108456457611845e-07
1.598886728057835e-06,-9.057910021828407e-07,1.6133723108866504e-06,1.60724413367231e-06,-2.779711658866324e-07,1.8744053632326347e-06,2.5865132489634342e-06,2.410435923431617e-06,-4.7109539719633854e-07,-7.909634101358687e-07,8.360731363518761e-07,-6.122259670699684e-07,2.240732235721273e-07,5.536461534702178e-06,2.8787793990013398e-06,1.2550463325140471e-06,2.373488798977468e-07,3.819360173818371e-07
1.5722282664099366e-06,-8.965039685496951e-07,1.5673543746337974e-06,1.6463115942908215e-06,-2.2548032521047e-07,1.6890915123620862e-06,2.433850916019147e-06,2.427955043297102e-06,-4.2257302910972923e-07,-7.864933101353479e-07,6.959894540773963e-07,-8.064034554624662e-07,2.432913165854263e-08,5.902160660152789e-06,2.9363981591066645e-06,1.0549460028639597e-06,1.449103831411019e-07,4.1211142621420266e-07
1.4435218728549478e-06,-8.545527576545269e-07,1.5307110252464464e-06,1.6663712080217622e-06,-1.2476350939521343e-07,1.5558353980054927e-06,2.4222103583893437e-06,2.3757093622810445e-06,-3.69722244669343e-07,-7.440268298955379e-07,5.825393802010338e-07,-9.907011782599552e-07,-1.792192017375477e-07,6.042944949014659e-06,3.0474789871204745e-06,8.122268034013201e-07,1.2557929651403206e-07,4.045039956435e-07
1.3451874943676561e-06,-7.810022435042232e-07,1.4690833538096078e-06,1.6621536682732158e-06,1.9149760336051467e-08,1.4835660874406591e-06,2.453737871447462e-06,2.413273441481021e-06,-3.0568743631066934e-07,-6.72919706042844e-07,4.6187032867733087e-07,-1.160297221810531e-06,-3.6121500576357303e-07,6.031868387418572e-06,3.2269656708052674e-06,5.221956995073958e-07,9.485236559913508e-08,3.194105730563326e-07
1.265965578798471e-06,-7.131636664474856e-07,1.4050793113620218e-06,1.6702098200350362e-06,1.7781047739986203e-07,1.4665007147550508e-06,2.4249236046063247e-06,2.4021741585566825e-06,-2.2814902733415863e-07,-7.104178584317911e-07,3.5839615897589754e-07,-1.343293035530899e-06,-4.7633986438474034e-07,6.0493697597672485e-06,3.4561983384697955e-06,1.8906066252150468e-07,4.564069048044849e-08,1.9408151003443096e-07
1.1275234963204081e-06,-6.366669192985027e-07,1.377257502876102e-06,1.7097498409565624e-06,2.686594756133638e-07,1.4880926594731204e-06,2.4158477531652177e-06,2.280166493592893e-06,-1.4076775803278132e-07,-8.959274253096962e-07,2.5811709814255236e-07,-1.5453458234421367e-06,-6.049020373239863e-07,6.136126268969303e-06,3.54234262340643e-06,-1.8159472969121227e-07,-6.935196779763045e-09,8.706885431823459e-08
9.588924608832102e-07,-5.633406238329547e-07,1.4041656621115926e-06,1.618276425088248e-06,3.451835196146115e-07,1.526885597295899e-06,2.410367458150144e-06,2.204133660261259e-06,-5.231365156783595e-08,-1.0889552092688367e-06,1.164254638195049e-07,-1.722213924111247e-06,-8.199540906002655e-07,6.317247406363197e-06,3.7729212128330275e-06,-5.001008744902937e-07,-1.1675174511647451e-07,4.6714554894662115e-08
7.590970503941884e-07,-5.011673726915042e-07,1.4945590416947284e-06,1.511147991415217e-06,3.9944879562346296e-07,1.5618082607005104e-06,2.4605422368516703e-06,2.171003336705863e-06,2.582560289311669e-08,-1.1822179948186744e-06,-6.444463205182262e-08,-1.8893566832170795e-06,-9.386758993552204e-07,6.448968035480676e-06,3.8414339974240354e-06,-7.187873983139835e-07,-8.11512410032181e-08,2.1950347074126867e-08
5.481952071090656e-07,-4.863739151494845e-07,1.5927854370485763e-06,1.4303989734642127e-06,4.946289890809261e-07,1.5767136500455463e-06,2.5607073486579268e-06,2.212902527301283e-06,8.411467279335808e-08,-1.265416209316182e-06,-2.278633823651918e-07,-1.9129972875007567e-06,-9.425966903825903e-07,6.316295596009244e-06,3.552643151912411e-06,-7.385030015433151e-07,1.9492104793379955e-08,-2.4528205387596846e-09
3.892970304894913e-07,-4.527225663797159e-07,1.659141890497316e-06,1.3540939430656546e-06,5.933822025003586e-07,1.5635639230358238e-06,2.6266853168352917e-06,2.2775979518177674e-06,1.1923848369135248e-07,-1.3038638418430628e-06,-3.429207645931082e-07,-1.7167689612781552e-06,-1.005842228997254e-06,6.256462215138993e-06,3.354085293497623e-06,-7.082519087839056e-07,4.3077236808947055e-08,-4.549039685629401e-08
2.8188556477947084e-07,-4.3582984548647016e-07,1.7096707419551749e-06,1.3423866859734686e-06,6.997040133374887e-07,1.522803586691293e-06,2.6793196641709678e-06,2.309979879388887e-06,1.3491701202127912e-07,-1.3375227999018823e-06,-5.201182105876381e-07,-1.6102761050359846e-06,-1.0702897801081372e-06,6.1609516948948804e-06,3.2590784422240464e-06,-7.1820566969328e-07,9.245894079793557e-08,-9.291431566184077e-08
2.2940110560687085e-07,-4.1463439531053483e-07,1.7220592710919716e-06,1.3691566966208544e-06,8.487990604246173e-07,1.4614604150673793e-06,2.77074055099002e-06,2.3114998289004994e-06,1.3912475009364988e-07,-1.3854476867220567e-06,-6.284719132024075e-07,-1.6463816754481206e-06,-1.1084602053916863e-06,6.066871241019446e-06,3.1634291443439334e-06,-6.972988709987719e-07,1.3307881986971477e-07,-1.6410319293917486e-07
2.3524469863086757e-07,-3.421755328120032e-07,1.7151608320781764e-06,1.4087172828351107e-06,9.900326464823644e-07,1.3907704140241673e-06,2.834570493022539e-06,2.2747375600881675e-06,1.401950263325919e-07,-1.4731010662070193e-06,-6.930169980866595e-07,-1.7150012323360463e-06,-1.2207332918281403e-06,6.131226066854301e-06,3.135894869299818e-06,-6.245389238522356e-07,-5.238875579745647e-09,-2.2028564491730052e-07
2.7791396001107035e-07,-2.3775476424101633e-07,1.6992602439897032e-06,1.4482376163418863e-06,1.111844791183587e-06,1.3233708724474792e-06,2.6702623572872545e-06,2.2304883120483482e-06,1.4303782283321268e-07,-1.49347609927115e-06,-7.292215576219317e-07,-1.8105636309573995e-06,-1.2355491390723234e-06,6.155020311229134e-06,3.1088705081066374e-06,-5.144299227213646e-07,-1.2163993872616617e-07,-2.2981574661444421e-07
3.4592101250901167e-07,-1.4712862433152087e-07,1.6609532749763418e-06,1.5053686072457945e-06,1.2217225974433902e-06,1.2698467986196438e-06,2.48339784297336e-06,2.1905161817970827e-06,1.466203803768103e-07,-1.4502723185577452e-06,-7.312417221842339e-07,-1.8190732920515995e-06,-1.0850306629893326e-06,5.978285189744883e-06,2.9921596653158506e-06,-2.9355040480762465e-07,-1.4685420050053041e-07,-2.2418134227478944e-07
4.3262070736828986e-07,-8.187760912839728e-08,1.621228053576676e-06,1.5760857075994988e-06,1.307646113767463e-06,1.236474917044783e-06,2.3571638380585698e-06,2.1611551895877936e-06,1.4489100208672022e-07,-1.3322642531138202e-06,-6.081664717124392e-07,-1.7163347352449353e-06,-9.584284302086179e-07,5.756398394387063e-06,2.8310633499566634e-06,-1.6716010368801445e-07,-1.1300166827876525e-07,-2.138846959779556e-07
5.273792331206859e-07,-4.583354206174671e-08,1.605544305852283e-06,1.6411261245060458e-06,1.331658207866225e-06,1.2254478500989808e-06,2.225836065594378e-06,2.2017407300264636e-06,1.3082897372740574e-07,-1.27219413329827e-06,-4.6031808813389794e-07,-1.5532132572301028e-06,-8.545652378005677e-07,5.651536847145556e-06,2.705624927925477e-06,-1.0358035889974726e-07,-7.209191414458346e-08,-2.3261651052682894e-07
6.257274259287399e-07,-4.546792149027773e-08,1.6013744168482603e-06,1.705711908650698e-06,1.25892886807067e-06,1.2361048684027233e-06,2.1520872506910927e-06,2.2931929787811423e-06,1.0035180004222637e-07,-1.22235881581208e-06,-3.5604627482063305e-07,-1.411463086910601e-06,-7.496049912062335e-07,5.545824814080474e-06,2.5763134169468106e-06,1.3775472947592217e-08,-4.328597069249105e-08,-2.0094321739759718e-07
7.187072000881214e-07,-4.835457557330626e-08,1.5980970619762421e-06,1.747611644621332e-06,1.1228877746915886e-06,1.2688885073014143e-06,2.1015854432501163e-06,2.360274120034651e-06,5.450600212701956e-08,-1.2066906839364616e-06,-2.7467854583239165e-07,-1.2564425069952285e-06,-6.252042028816086e-07,5.2464733682677815e-06,2.4574327015528977e-06,4.0451059635072586e-08,-2.1504009747758844e-08,-1.2440968527094594e-07
8.130422727158247e-07,-8.224057972840758e-08,1.5621649281769357e-06,1.7841992008032139e-06,9.607052009154065e-07,1.3118260862642542e-06,2.0526491733888407e-06,2.411269464297297e-06,4.817424893137227e-10,-1.1532339575842567e-06,-2.164224308148584e-07,-1.1391119835065397e-06,-4.3762502194461673e-07,5.026764494034151e-06,2.253341788607524e-06,-4.813311773392946e-08,-1.9216430072686282e-08,-6.882719191201026e-08
8.512018057371376e-07,-1.1335545527863443e-07,1.4786033529058458e-06,1.78979538485802e-06,8.156659077801039e-07,1.3524465995938985e-06,2.014316652125909e-06,2.3519507299795622e-06,-4.94766576616758e-08,-1.0872094872522095e-06,-1.3659896228566772e-07,-1.078834947483414e-06,-2.0128841162427766e-07,4.826956837125863e-06,1.9997389127505112e-06,-2.294953490921568e-08,-3.936814673125467e-08,-5.0057343358664676e-08
8.063410369162508e-07,-1.3229692635747433e-07,1.3136795928164511e-06,1.815716528713272e-06,7.951009219210098e-07,1.3812805018084367e-06,1.95768700363705e-06,2.0947248236986772e-06,-8.221805184882092e-08,-1.0069967342815174e-06,-3.618499607916451e-08,-1.0376971834019179e-06,1.2235625262959493e-08,4.491821745035369e-06,1.7437647153088688e-06,1.467540587762316e-07,-8.631727933254664e-08,-3.735500313957556e-08
6.88089574223453e-07,-8.953016175137914e-08,1.1624496824776763e-06,1.7793512884289358e-06,8.35755265565422e-07,1.340979897573459e-06,1.8756516400566775e-06,1.9277269346455855e-06,-8.853190528028524e-08,-8.427987494843659e-07,2.343164992305997e-08,-1.0327752413028257e-06,2.6039382674810064e-07,4.032505165865151e-06,1.6064642681015088e-06,2.817523070478938e-07,-1.5858050593435957e-07,8.91001513949875e-09
5.354293137688373e-07,2.6576341179371117e-08,1.0868245889468625e-06,1.6019917996716527e-06,8.322228244170406e-07,1.1847508925739426e-06,1.7803176152006716e-06,1.794245012604001e-06,-6.574219776129484e-08,-5.708851358675429e-07,8.419614178797501e-08,-1.0448242455499166e-06,3.4593041257885113e-07,3.4791552188075325e-06,1.5269610440581032e-06,4.755690852823809e-07,-2.510823650831204e-07,9.031758374525786e-08
4.5497623844231597e-07,1.1612123634011432e-07,1.0231003574759028e-06,1.496995091101227e-06,7.547937319365533e-07,1.0481336712469902e-06,1.6295289518251817e-06,1.6442579642897666e-06,-1.8209530317579576e-08,-3.20929023407288e-07,1.1905039818244085e-07,-1.0969865242502022e-06,2.8905795678066444e-07,2.813534573659141e-06,1.4588690387896901e-06,7.202569204087875e-07,-3.398337036954618e-07,1.8126256807930607e-07
3.225269715151733e-07,1.6570296230612314e-07,9.431097077292626e-07,1.3159218234060465e-06,8.025642724261667e-07,8.974419304398751e-07,1.4777063742178313e-06,1.4711944454207563e-06,4.3621569015575404e-08,-1.0104446489907608e-07,2.1018413014110748e-07,-1.1411961696993339e-06,1.052106621240657e-07,2.0750890455112875e-06,1.4510282607265988e-06,9.937145435622343e-07,-4.0819394517633915e-07,2.697046055329264e-07
1.4567515665786637e-07,3.1047345776250906e-07,7.838002840551835e-07,1.0536774400684255e-06,9.883934650526355e-07,6.091796163463789e-07,1.3586495258517469e-06,1.1917471579420898e-06,1.0667464939392087e-07,9.976128539407302e-08,3.817337504117318e-07,-1.161872092860549e-06,-1.5024854236911924e-07,1.5085835385868372e-06,1.4658012023747953e-06,1.1226285613656082e-06,-4.510651768010687e-07,3.4639457176476416e-07
1.693976309137943e-08,4.6209212113899694e-07,6.557869797060238e-07,8.493672863440261e-07,1.2153205981615965e-06,3.497474060613211e-07,1.39272151624039e-06,9.770870385528928e-07,1.6033104978293103e-07,2.575539679522106e-07,5.313926096811382e-07,-1.1471151132152263e-06,-3.164756620251285e-07,1.1716210309046854e-06,1.425947909144562e-06,1.2451454319231157e-06,-4.6135983741095184e-07,4.1116891493694536e-07
4.363008629716983e-09,5.428653564758017e-07,6.169650594249977e-07,7.599431489512654e-07,1.3226494631137754e-06,2.619337213503446e-07,1.523982972054041e-06,8.522381971612052e-07,1.9961270808712216e-07,3.7134790372855227e-07,5.932006435483452e-07,-1.0770305872240302e-06,-3.310437502182503e-07,1.2142185862172407e-06,1.317224429696657e-06,1.4025646472715917e-06,-4.3990086388167603e-07,4.5263332123698285e-07
-2.1429349303367148e-08,5.832776589065172e-07,6.377619305016585e-07,7.516093822389663e-07,1.4382832284866043e-06,2.568367377366053e-07,1.5794088671973148e-06,8.426018391359696e-07,2.2502697017118194e-07,4.5359386782116305e-07,6.16334904448208e-07,-9.694315979476536e-07,-2.730024112722e-07,1.288400242571007e-06,1.1726405401998637e-06,1.3714132447304705e-06,-3.97262096813194e-07,4.6323728877327164e-07
-3.19288070140066e-08,5.969703482674402e-07,6.337181703656038e-07,7.153313473347515e-07,1.5300917568632248e-06,2.888852442174785e-07,1.569425061693495e-06,7.980743035583983e-07,2.4054243913422064e-07,5.050579595284275e-07,7.042424795491513e-07,-8.386470152779951e-07,-1.8714522374610782e-07,1.2810679469691585e-06,1.0320857088191538e-06,1.2376512239800934e-06,-3.392742135849324e-07,4.575704044845472e-07
-4.372111075524372e-08,6.519556569490258e-07,5.985108826619199e-07,6.919250994280064e-07,1.49317588954907e-06,2.1785500176755451e-07,1.4904909734554963e-06,7.784831212004438e-07,2.5050907701714826e-07,5.286174233955357e-07,7.398698488360872e-07,-7.025606694807344e-07,-2.5512916905822254e-07,1.147932752420839e-06,9.275813546580329e-07,1.1203429963976684e-06,-2.7513204266049914e-07,4.4209612008371394e-07
-3.715795538619852e-08,6.777448508386601e-07,5.588611910549639e-07,6.854246340167931e-07,1.3619173696561857e-06,2.0657149012519913e-07,1.5390561103776137e-06,6.91449498768194e-07,2.5645791187645935e-07,5.328084389054938e-07,7.894953728275191e-07,-5.812295698823769e-07,-2.4086416152133936e-07,8.46255463173985e-07,8.711060408000021e-07,1.0472373674103545e-06,-2.1646278947095876e-07,4.220098110225556e-07
3.4543121656910985e-08,6.651763927453747e-07,5.404018234621111e-07,6.987936661001933e-07,1.1798298637599818e-06,3.0768351002571654e-07,1.7306763015301748e-06,6.187710093167732e-07,2.564710849975759e-07,5.11486919155088e-07,8.248037079524028e-07,-4.85938261739275e-07,-2.386069993110303e-08,7.14519229459021e-07,8.439609380041367e-07,9.181243497543818e-07,-1.7236981549252956e-07,4.1037481484026127e-07
1.7603957277539912e-07,6.073638079777765e-07,5.713161643399262e-07,8.589611251242586e-07,1.036434541687001e-06,4.2442317349487144e-07,1.946030930645887e-06,6.47306344190961e-07,2.4776146524643477e-07,4.646496540717805e-07,8.022143113685626e-07,-4.2473700221709243e-07,2.1615895127977075e-07,6.010473860103569e-07,8.292651898498777e-07,8.068963602745522e-07,-1.4805825273833266e-07,3.981080130685543e-07
3.2733446109649716e-07,5.287910154077327e-07,6.68715124901719e-07,1.0663418669376965e-06,9.262279146831812e-07,5.508856689612445e-07,2.155728601933191e-06,7.417576767075881e-07,2.294123169751069e-07,3.946800836226093e-07,7.184058061896892e-07,-3.9836452892968773e-07,4.0336434824842023e-07,5.497485283474981e-07,8.575572212855715e-07,7.235491343583801e-07,-1.4503993108069566e-07,3.784886366463407e-07
4.7311100085177374e-07,4.4014563811714305e-07,7.770648802745456e-07,1.2333914069213e-06,8.295056562416847e-07,6.596211883194612e-07,2.337353264964992e-06,8.803800027675452e-07,2.0337101809182688e-07,3.0814791609407405e-07,6.46394314292048e-07,-3.9997437555109995e-07,5.943440336019166e-07,5.225772979235977e-07,9.050560919032996e-07,6.140315857766094e-07,-1.6246716282837273e-07,3.483251244124174e-07
6.216413153966138e-07,3.46010988463311e-07,8.816996625096831e-07,1.3749944687414666e-06,7.373379656818577e-07,7.016901581088583e-07,2.40241175444821e-06,1.0173905178194108e-06,1.7444720683305818e-07,2.1385017222755827e-07,5.535510288787125e-07,-4.1953376588818535e-07,6.901370551935686e-07,6.134251630882446e-07,9.544345018923274e-07,5.008004936767873e-07,-1.9606484495946838e-07,2.90606324883193e-07
7.249959584212826e-07,2.831585231755762e-07,9.801129666267804e-07,1.4122161657868888e-06,6.474053208527802e-07,7.082378654634963e-07,2.387554976404824e-06,1.1178834303907987e-06,1.4917591215601077e-07,1.2225930710125142e-07,4.806024339122495e-07,-4.455851207746604e-07,7.509272541782486e-07,7.777539370596695e-07,1.0040971902202235e-06,3.8021782564157743e-07,-2.4296151106952063e-07,2.2206789941052434e-07
8.016291977720086e-07,2.522532898358871e-07,1.0608521838453132e-06,1.3944275068498226e-06,5.655567291355907e-07,6.843813996218349e-07,2.3740058611073356e-06,1.1342236898423966e-06,1.3310944384232593e-07,4.2718254355463114e-08,4.854474032355945e-07,-4.7007972067750097e-07,7.91865523659464e-07,9.257221159287262e-07,1.0369265701679347e-06,2.5581160810928707e-07,-2.9994656317279886e-07,1.513119839267796e-07
8.692582531519867e-07,2.454952601319678e-07,1.121355639438941e-06,1.3485076607708999e-06,4.919686678387664e-07,6.494938698552856e-07,2.309081892046739e-06,1.1300782092445209e-06,1.2865119893864515e-07,-2.006024400085293e-08,4.762227043607772e-07,-4.882759125514761e-07,8.081667065216466e-07,1.0885339336471554e-06,1.0555135433143348e-06,1.5100094916903608e-07,-3.62669011135548e-07,8.218990059663776e-08
9.272724295262069e-07,2.532834382690664e-07,1.178450035064877e-06,1.272394296784558e-06,4.341121832830544e-07,6.300376702345531e-07,2.2238753569116734e-06,1.1201999827416924e-06,1.3519673835669782e-07,-6.27876027359913e-08,4.725866044794363e-07,-5.04268621751566e-07,8.365857590098096e-07,1.254450392894345e-06,1.0638157983824263e-06,8.971249167101025e-08,-4.262519827368218e-07,2.6160274830115958e-08
9.832406625484488e-07,2.683032707715044e-07,1.234798615399234e-06,1.195673923192636e-06,3.984923549669998e-07,6.2463341807609e-07,2.144931285120777e-06,1.0991358889775261e-06,1.50267535909938e-07,-8.464105526401827e-08,4.772338726620637e-07,-5.225288172198731e-07,8.630294246942795e-07,1.4135983769380989e-06,1.0640138353328543e-06,4.272556474058379e-08,-4.845824316475819e-07,-1.4366997517187572e-08
1.0281888122516573e-06,2.904099260096875e-07,1.291443918207191e-06,1.1142122914758016e-06,3.875625282536483e-07,6.304291702818026e-07,2.057920828242674e-06,1.1124393997223827e-06,1.7063677186961975e-07,-8.544736173507835e-08,4.5544769027453884e-07,-5.448825016491618e-07,8.856474816570807e-07,1.5812676139535424e-06,1.0598030868691172e-06,1.0595654021185419e-08,-5.314212142842991e-07,-3.900057053101588e-08
1.053300423221942e-06,3.188754789846393e-07,1.3237221130625097e-06,1.0339528706954338e-06,4.0589762502421875e-07,6.441832517289227e-07,1.991492580518474e-06,1.0876017662816222e-06,1.9409958166125018e-07,-6.758546615107235e-08,4.2840196801049573e-07,-5.691101653004306e-07,9.107654801747257e-07,1.7565850947843724e-06,1.0465487611957368e-06,3.461950650557394e-09,-5.606423733839069e-07,-4.2301264422962654e-08
1.0567427697552876e-06,3.564435799046886e-07,1.3392806511408703e-06,9.67667628811656e-07,4.5672782803109685e-07,6.589445690861382e-07,1.953413157837896e-06,1.0400255406327161e-06,2.2090711781428169e-07,-3.392875852283091e-08,4.173961435593788e-07,-5.852891368904526e-07,9.405410341942625e-07,1.8282514391212308e-06,1.0210622506895491e-06,1.691532956663838e-08,-5.667229639896533e-07,-1.797734743078991e-08
1.0416608314495185e-06,4.027768525420229e-07,1.3500627974164883e-06,9.180891007311929e-07,5.318958983914782e-07,6.671476620135451e-07,1.934414985738706e-06,9.97105437033343e-07,2.531133000547077e-07,1.2087223786760607e-08,3.8381554994493625e-07,-5.799822271380473e-07,9.78280653911834e-07,1.818821875851373e-06,9.765391631275688e-07,5.973573071279268e-08,-5.46191475467781e-07,3.0091052053083004e-08
1.0163205396207477e-06,4.5863934827817166e-07,1.3496975726461805e-06,8.866683591002368e-07,6.157952071081321e-07,6.626002609049136e-07,1.913637152544848e-06,9.529031318919725e-07,2.9289477459808936e-07,6.494889742250467e-08,3.266397015679056e-07,-5.408761377710918e-07,1.0262385117922221e-06,1.7361259088219186e-06,9.028357453383024e-07,1.3078608328932899e-07,-4.981339202875596e-07,9.890218270266242e-08
9.912759514215177e-07,5.250233831274106e-07,1.350425183806298e-06,8.784497091264158e-07,6.932382589232872e-07,6.423360292153866e-07,1.8894957630749843e-06,9.105247488322151e-07,3.415833852670406e-07,1.1842391991323244e-07,2.6189960384611384e-07,-4.6094211489077944e-07,1.0846359822794815e-06,1.5799344699849101e-06,7.940784983877658e-07,2.2652889145869519e-07,-4.234124971261959e-07,1.8353307214518095e-07
9.754706925564547e-07,6.030030041195855e-07,1.3563354441731237e-06,8.83067173283106e-07,7.506849727455918e-07,6.070914810201527e-07,1.848444634041382e-06,8.691031011494799e-07,3.988843148155494e-07,1.6617115214399767e-07,1.8129270259241385e-07,-3.4170586106848624e-07,1.150961485252085e-06,1.3951959402711178e-06,6.49610016803812e-07,3.336445911691589e-07,-3.2412007839812125e-07,2.7539886484437554e-07
9.729403165992794e-07,6.902567717732358e-07,1.3644794645646106e-06,9.000125050669216e-07,7.784770284004601e-07,5.600713375269652e-07,1.777095010494466e-06,8.284375729329036e-07,4.6213454851108846e-07,2.0279001829702371e-07,9.610719495740035e-08,-1.9388586036328816e-07,1.219759390888137e-06,1.1920746416572258e-06,4.803690291558838e-07,4.508429536375118e-07,-2.038011546133028e-07,3.6716508336667297e-07
9.820820383880213e-07,7.800647555342132e-07,1.3770567355016705e-06,9.156593672086959e-07,7.730074799207466e-07,5.054945922187164e-07,1.6776153901104666e-06,7.775926321913901e-07,5.269990820969551e-07,2.2515683323357994e-07,1.2987304372855036e-08,-3.501574793718785e-08,1.2838441354275007e-06,9.893230243470964e-07,2.909327697653864e-07,5.666613624407664e-07,-6.791444710962905e-08,4.514427011625688e-07
9.977539711706776e-07,8.653832996559645e-07,1.3963988142578347e-06,9.163944344186098e-07,7.379612705554251e-07,4.47496179663038e-07,1.5519094145167619e-06,7.380978839495616e-07,5.892883931206346e-07,2.3288581006754737e-07,-6.165238980976811e-08,1.1416283460166984e-07,1.336647379319789e-06,7.775238257081747e-07,1.0454599641274772e-07,6.716118176502554e-07,7.438038470155009e-08,5.210632748372499e-07
1.0144977856965106e-06,9.392160904748647e-07,1.4148324768723108e-06,9.002528972557477e-07,6.855294440329329e-07,3.889599900556916e-07,1.4083283951890242e-06,6.990885060430352e-07,6.462947984394123e-07,2.27641319928035e-07,-1.2689395441205727e-07,2.3389210907693017e-07,1.3745019647499194e-06,6.096508563423225e-07,-5.6644848339127924e-08,7.629596975277324e-07,2.0978706776079703e-07,5.745997578642648e-07
1.028927632156203e-06,9.95654872895999e-07,1.4279093371359986e-06,8.636363181781957e-07,6.240633414075813e-07,3.3111913389841195e-07,1.2619313064788608e-06,6.371834122045197e-07,6.978510783868349e-07,2.1232499938987186e-07,-1.7282372343895665e-07,3.093794519096285e-07,1.398166084554151e-06,4.917039697918765e-07,-1.8044683859523819e-07,8.345652863237018e-07,3.2278394756085737e-07,6.057458273640167e-07
1.040585620916963e-06,1.0354358455612535e-06,1.4361375021995554e-06,8.08662575948898e-07,5.68480015570608e-07,2.7453212529631244e-07,1.1235920062617827e-06,5.540531013691842e-07,7.47170058600816e-07,1.9083231073805762e-07,-1.9485440623977112e-07,3.338276268633278e-07,1.412906160873161e-06,4.1692700205485713e-07,-2.568821284484728e-07,8.855789410619937e-07,3.993867379941066e-07,6.135791239882884e-07
1.050825161265764e-06,1.0620338252413158e-06,1.4389791425283235e-06,7.399572448151333e-07,5.353599048441894e-07,2.1991716381090456e-07,1.0005642297371873e-06,4.4093417790781686e-07,7.99559282366387e-07,1.675761324136598e-07,-2.0013572051319246e-07,3.0915831286377e-07,1.4263311626399003e-06,3.9690163047449086e-07,-2.878240494877886e-07,9.152499146279818e-07,4.307758272169976e-07,6.014124519410626e-07
1.060143447055534e-06,1.0814783646619393e-06,1.4373610633214413e-06,6.550233994183661e-07,5.33228818090283e-07,1.6788490508184149e-07,8.934593301144394e-07,2.998011432189362e-07,8.590440854101446e-07,1.466258109183951e-07,-1.9181533601873505e-07,2.4434989056639046e-07,1.4449540969740056e-06,4.1569615658079263e-07,-2.826267788856672e-07,9.228909688893898e-07,4.153015360490225e-07,5.718123357257684e-07
1.066092230826574e-06,1.096125392993763e-06,1.4304885565926189e-06,5.550469655825607e-07,5.647474029673471e-07,1.1882352327065553e-07,7.955160371594299e-07,1.3894291928154322e-07,9.259794236053732e-07,1.3133986329607827e-07,-1.7627796565958786e-07,1.5334787418142866e-07,1.4717857068202083e-06,4.619431947701308e-07,-2.553442474200892e-07,9.087563186275997e-07,3.5945307049431575e-07,5.307042774147629e-07
1.0634030643709949e-06,1.1069714454340445e-06,1.413828755197836e-06,4.455426407055916e-07,6.245187202179627e-07,7.345194772223512e-08,6.96385533855764e-07,-3.1754683455334205e-08,9.970672402271083e-07,1.2435932671587972e-07,-1.5373876131288148e-07,5.2682481053814855e-08,1.5056927908591103e-06,5.224268058583646e-07,-2.2024450447421468e-07,8.759343495989433e-07,2.769379327774331e-07,4.84714710094354e-07
1.0458100966510793e-06,1.1153410952500622e-06,1.3846214813942919e-06,3.2667669206279005e-07,7.022392265580154e-07,3.285019608722714e-08,5.946568417621871e-07,-2.0569655281486378e-07,1.0667513953712883e-06,1.2734694044875025e-07,-1.2229730879960445e-07,-4.176964447820501e-08,1.5419425098935562e-06,5.843771593008192e-07,-1.9307334341163427e-07,8.299453306894272e-07,1.8549780387216006e-07,4.407256522343419e-07
1.0081190285622775e-06,1.1217104457305285e-06,1.3427946613971836e-06,2.1020914576166732e-07,7.873496335620945e-07,-2.22309269574415e-09,4.916571132768942e-07,-3.7044617806440573e-07,1.1296358987134077e-06,1.4102990347098857e-07,-7.89176771731516e-08,-1.180235266196298e-07,1.5738925933342689e-06,6.308816428616791e-07,-1.8564984690009982e-07,7.790830813749962e-07,1.0210084941006173e-07,4.0433824554663326e-07
