0,1,2,3,4,5,6,7,8,9,10,11,12,13,14,15,16,17
2.6380529927054124e-08,2.9245469394711373e-07,1.3054637411395435e-07,1.0623160267013457e-07,2.1300336274413645e-07,4.864842332747216e-07,1.4968863415066925e-07,3.6566366269797744e-07,1.8834747643320973e-08,-2.361078074986233e-07,-5.8523509273871845e-08,-6.652688107214192e-08,-3.7323780437598395e-07,-4.826281340437239e-09,-3.2708793509377976e-07,-4.49020688659568e-08,-4.927376776466955e-07,-5.29501173261621e-07
6.432566730164177e-08,3.0695311544792707e-07,1.1836263196762833e-07,3.9487581272934296e-08,1.8233824762045925e-07,3.8188089847600716e-07,1.2340885000371623e-07,2.350135650117482e-07,-1.1806399308864064e-08,-1.6453878533735004e-07,-6.052017912960269e-08,-5.709852583866627e-08,-2.8344115054437446e-07,-2.2488360484822513e-08,-2.7557541832361363e-07,-1.367700483484957e-07,-3.8089937054346546e-07,-3.9519624835900167e-07
9.065139667185776e-08,3.099875528553209e-07,1.0680421762149584e-07,-1.6324606738144594e-08,1.4433875525223457e-07,2.849390514399562e-07,9.167093469358607e-08,1.1222386304033467e-07,-4.5385275560927106e-08,-8.677833514859672e-08,-5.411143615425483e-08,-3.9087322321199064e-08,-1.74432828809948e-07,-5.705594085908379e-08,-2.1319242571530585e-07,-2.3009641125847817e-07,-2.470413854647849e-07,-2.6823052766318314e-07
9.837802644091548e-08,2.928675387235356e-07,9.803297525999277e-08,-5.0377521071584725e-08,1.0170667962171954e-07,1.988090249783125e-07,5.4645508981784865e-08,6.8230775632051725e-09,-7.809800101976318e-08,-1.144518790542954e-08,-4.088651411676545e-08,-1.4336374020572561e-08,-5.930125200850114e-08,-1.007549118344692e-07,-1.461158531582989e-07,-2.942627849844926e-07,-1.0814380780463746e-07,-1.7771168143012982e-07
8.754644384246175e-08,2.4935386361563967e-07,9.268749490067102e-08,-7.040605417265468e-08,5.943922264325886e-08,1.2677942383496167e-07,1.4192474925530056e-08,-6.356515347379574e-08,-1.0387160313542128e-07,5.3551290637783616e-08,-2.2863480658636943e-08,1.520394044028082e-08,4.7445785501382334e-08,-1.4222835123155395e-07,-7.957589160942469e-08,-3.403193267544886e-07,1.9539805483046765e-08,-6.191264469698319e-08
6.337607097922526e-08,1.8135048362916612e-07,9.471200875288932e-08,-6.936272600027383e-08,2.3949146153910875e-08,7.057545228086756e-08,-2.5598066565569818e-08,-1.0954253923459193e-07,-1.1615695564826022e-07,1.0722080027844357e-07,-4.65236970872231e-09,4.69869066454395e-08,1.328722434869382e-07,-1.6963938324037055e-07,-1.724261816279458e-08,-3.2588690696910825e-07,1.2255464582642962e-07,4.7954859804527616e-08
3.571416899286478e-08,9.503283836393863e-08,1.0277053016401822e-07,-4.5723277189582376e-08,-1.0341792820222224e-09,2.8864515448073416e-08,-6.023337117929793e-08,-1.2197623272655313e-07,-1.1265178733310853e-07,1.2640392096597477e-07,9.047437421810667e-09,7.609756252043657e-08,1.8729578341157007e-07,-1.7491750294923528e-07,3.746827460095131e-08,-2.062947981387796e-07,1.9074203001109225e-07,1.3111579014421308e-07
1.3368831162558607e-08,-3.413339193317421e-11,1.159197521001734e-07,-1.0135238700790427e-08,-1.707950550766849e-08,-5.885559807723464e-09,-8.622518263625578e-08,-9.104575332298331e-08,-9.488953054294967e-08,1.2318845227026286e-07,1.3159976940164656e-08,9.591300822466604e-08,2.0635820369252074e-07,-1.5521256161020237e-07,8.144663709421509e-08,-7.996220109871478e-08,2.1961635628610626e-07,1.941592190166899e-07
9.658053397114748e-11,-9.346055043198098e-08,1.1722519917340458e-07,2.080142553019483e-08,-2.8913765514212458e-08,-4.771111529228859e-08,-1.0002828080582308e-07,-4.5175126272709655e-08,-6.568967500493946e-08,8.802783629659937e-08,1.525677556673804e-08,1.0107317190818646e-07,1.9306520191944852e-07,-1.1158223764370434e-07,1.1315571323973558e-07,3.673441541130185e-08,2.1286298303115666e-07,1.9945250524932291e-07
-5.007202213017382e-09,-1.76546978321608e-07,8.903960452609312e-08,3.753921047173827e-08,-4.0944399618436255e-08,-8.563676530832056e-08,-9.754489247193957e-08,-1.3106420439120435e-09,-2.877424489090629e-08,5.4866794415085615e-08,1.5634881577240684e-08,8.912031212995467e-08,1.5679700796330365e-07,-4.839362840762794e-08,1.3245602321118907e-07,1.5322645251992735e-07,1.8058471240627706e-07,1.813543792668884e-07
-8.917136682641789e-09,-2.423926581278752e-07,9.271857648859679e-09,3.808510796091481e-08,-5.6200326196873676e-08,-1.3201480865005808e-07,-7.707282219642118e-08,2.9702636323360057e-08,1.2294259787689082e-08,1.6918911571154835e-08,1.5171400276625706e-08,6.022190455000747e-08,1.0883626965489451e-07,2.609794188057365e-08,1.3950010521390738e-07,2.2841143219152767e-07,1.343285260938229e-07,1.668727879443652e-07
-2.0135625794671043e-08,-2.8446911621959676e-07,-6.320099809581552e-08,2.3341620095601693e-08,-7.608164810850704e-08,-1.9106292619511292e-07,-4.2928662978864564e-08,3.806989939723037e-09,5.371613599840683e-08,-1.54587617465442e-08,9.36314571830829e-09,1.7697614120228578e-08,5.8092610586979966e-08,1.0104446579393542e-07,1.3544196822952983e-07,2.695397004723235e-07,8.418226129650818e-08,1.533670942237727e-07
-4.431506924888419e-08,-2.9634703247278876e-07,-1.1389771788478474e-07,5.496079639322317e-09,-9.896824911656573e-08,-2.68745121483285e-07,-5.415845095668527e-09,-7.510338191727846e-08,9.191726912763514e-08,-3.138618001306255e-08,1.6958740941857064e-09,-3.083805267886499e-08,9.797431037958081e-09,1.6642162000893183e-07,1.2402463531955758e-07,2.7842734546599765e-07,3.930559670197821e-08,1.3396452393885467e-07
-8.304030666428451e-08,-2.741568053423282e-07,-1.9747913049545087e-07,-2.023875342344395e-08,-1.2038663554915095e-07,-3.2155441717510707e-07,2.262955919386358e-08,-1.3261653791220998e-07,1.2669846177548155e-07,-2.918851440288759e-08,1.0765009296632298e-08,-7.49348294425358e-08,-3.379305262934505e-08,2.1488644956739743e-07,1.1048744051561798e-07,2.587711989161524e-07,8.512068869045546e-09,1.1350111685330314e-07
-1.3262640924541317e-07,-2.1926428493498604e-07,-3.0347309694657696e-07,-3.090110837516083e-08,-1.3671826053416678e-07,-3.1416449109120103e-07,2.974511433994743e-08,-9.356974749485136e-08,1.623553244605088e-07,-1.1306944971801528e-08,4.025381747544651e-08,-1.0504865256702337e-07,-7.209592975382869e-08,2.4063594993557895e-07,9.817131277639149e-08,2.3154868187140517e-07,-6.581053257608267e-10,8.381813064747798e-08
-1.8579596600363712e-07,-1.413285273395435e-07,-3.973217028065521e-07,4.248665803079569e-08,-1.4844844460811608e-07,-2.1155739472980067e-07,9.066047640745506e-09,-1.9328680177458304e-08,1.9150727365209997e-07,1.6032510588990572e-08,1.1120917067470251e-07,-1.1444378259819491e-07,-1.0425851913301693e-07,2.3801273241509136e-07,8.663803186212267e-08,2.018353195698783e-07,1.7251360779880753e-08,2.6991868321503748e-08
-2.3239108552210523e-07,-5.631841177781389e-08,-5.064064012142063e-07,9.85701992112625e-08,-1.5901783697307192e-07,-1.1273312946604155e-07,-3.928047890902761e-08,9.75648726373929e-08,2.0837108913639797e-07,4.55606724326433e-08,2.0290545171248968e-07,-9.851970343951078e-08,-1.2761992654478567e-07,2.0159859936115855e-07,7.217481258200245e-08,1.7748026984867333e-07,6.504710226587337e-08,-6.119963445602733e-08
-2.6058059159847483e-07,1.656068922546987e-08,-6.142191354537943e-07,2.028236268447427e-07,-1.7191603969024466e-07,-7.63863522260613e-08,-1.0826553810057692e-07,1.3641475452543828e-07,2.0906827678526323e-07,7.10728215523405e-08,2.6302729834903516e-07,-5.522818899302362e-08,-1.3871245475215214e-07,1.2827064284863503e-07,4.8583623920692086e-08,1.631551296921688e-07,1.4103289672794325e-07,-1.5123745160730366e-07
-2.595345323425699e-07,5.346064299232422e-08,-6.632001963202946e-07,4.057830520930251e-07,-1.8988437720984315e-07,-7.098714716219188e-08,-1.8745831876438847e-07,9.60228115590704e-08,1.5300031235544883e-07,8.773054942696642e-08,2.964107796909865e-07,1.2624799044105648e-08,-1.361345236040837e-07,1.3153821801655935e-08,8.513660493109233e-09,1.5569296717996428e-07,2.370444161248959e-07,-2.702843026477525e-07
-2.2300205980434373e-07,4.4814559330519545e-08,-6.413272237617578e-07,5.97966265537145e-07,-2.1481227471647525e-07,-3.545946659170423e-10,-2.671281945804081e-07,1.1803612752146042e-07,8.512087321585497e-08,9.21695015565137e-08,3.36124891815238e-07,9.69511226851312e-08,-1.2194127765903834e-07,-1.415959051632796e-07,-5.270282084255553e-08,1.4937295309620223e-07,3.393849192755782e-07,-4.059925806594748e-07
-1.5646144871253812e-07,-6.6083585018222645e-09,-6.021291658333279e-07,7.397504001370903e-07,-2.4616150980258383e-07,1.5167463722533784e-07,-3.3966479501189275e-07,1.1527648551002196e-07,2.691503108801933e-08,8.363901912105365e-08,4.3011030982560755e-07,1.8717962491105008e-07,-1.0052029448059581e-07,-3.247711288183552e-07,-1.3262741282752485e-07,1.4075209082379804e-07,4.324122908957359e-07,-5.366384878026569e-07
-7.268391665138046e-08,-8.699276171192891e-08,-5.899532960230095e-07,8.419165549797509e-07,-2.8040296824984567e-07,3.1903774520920724e-07,-3.9935537356797174e-07,2.6625993505500053e-07,-2.687484549459379e-08,6.463961345756709e-08,5.719486079925468e-07,2.7308130840237155e-07,-7.733942885679068e-08,-5.187771228633966e-07,-2.2148268787181904e-07,1.3121808958307057e-07,5.017877286905231e-07,-6.648566077827385e-07
1.005967725349988e-08,-1.795918707832793e-07,-5.695776548490816e-07,9.15717785205516e-07,-3.1369081360141963e-07,4.846438336510406e-07,-4.4307293481535467e-07,4.6320723635127775e-07,-6.10922679150545e-08,3.95388106971732e-08,6.693765452966321e-07,3.459815169872606e-07,-5.881804370789904e-08,-7.035381224590871e-07,-3.0649175898301637e-07,1.251422994769434e-07,5.36728228059508e-07,-7.735150095628746e-07
7.517400032737152e-08,-2.620812960989312e-07,-5.644744253594879e-07,9.786938574399143e-07,-3.4460480922616084e-07,6.443491297438024e-07,-4.7071182709387456e-07,5.799617916629169e-07,-6.982867017689455e-08,1.2534115318086354e-08,7.324821974288316e-07,4.0025350913621843e-07,-5.1603033937724344e-08,-8.638104643821353e-07,-3.761216758609348e-07,1.2746513175183543e-07,5.327635897576653e-07,-8.564760509409401e-07
1.1579175001005211e-07,-3.062765778950732e-07,-5.974403195596885e-07,1.0199103069675324e-06,-3.7367601847900116e-07,7.195735548870501e-07,-4.833009988678849e-07,7.47542448811857e-07,-6.619552463217686e-08,-1.3082828329072509e-08,7.90557121319896e-07,4.3532918462071503e-07,-6.02317719303565e-08,-9.904570900735789e-07,-4.218754477781806e-07,1.4269597986372378e-07,4.940307020552546e-07,-9.157748036649287e-07
1.3423800202610865e-07,-2.8604014244658433e-07,-6.293112956876148e-07,1.0503434399708497e-06,-4.017516445250019e-07,7.73246135684058e-07,-4.80922507211813e-07,8.392930168072313e-07,-4.8097435894878795e-08,-3.480904926915279e-08,8.675540508266812e-07,4.556777953946499e-07,-8.499781031585089e-08,-1.0933983944040007e-06,-4.3940748402099405e-07,1.736119511282399e-07,4.322867706155341e-07,-9.746404989348998e-07
1.389252978343116e-07,-2.0001585960620838e-07,-6.243029182354619e-07,1.0904118621229356e-06,-4.2979245347574044e-07,8.230516936559014e-07,-4.6339624931285324e-07,9.243544705895165e-07,-1.954078595361618e-08,-5.1142923447373986e-08,8.841781668574942e-07,4.684162599846262e-07,-1.2182397531981204e-07,-1.1553729680566792e-06,-4.290903867144471e-07,2.201829867040734e-07,3.6290493603190626e-07,-1.0162314826815184e-06
1.39001676710919e-07,-6.439017352896898e-08,-6.075718988499114e-07,1.1300321569999143e-06,-4.584019616088358e-07,8.618041602760664e-07,-4.321559558440953e-07,9.706205746647506e-07,1.3517205491764675e-08,-6.17974794860788e-08,8.758130486569131e-07,4.810883479205082e-07,-1.6364807135229207e-07,-1.1800738008823807e-06,-3.9419663523229015e-07,2.8122117740656693e-07,3.0077232759392286e-07,-1.0433197655751693e-06
1.394447012519319e-07,8.76262875416989e-08,-5.833581254724214e-07,1.1689794598131843e-06,-4.858361155109956e-07,8.83648454356816e-07,-3.9042346419869137e-07,1.0295455938066178e-06,4.954414730741077e-08,-6.741912661325647e-08,8.826881909932702e-07,5.003800839735282e-07,-2.0217285238630662e-07,-1.177080783750276e-06,-3.3815230790877635e-07,3.5705635506834974e-07,2.571535444190104e-07,-1.062278485074402e-06
1.4073479744720682e-07,2.2322269922522392e-07,-5.406796100016158e-07,1.2045148731283807e-06,-5.074781565172241e-07,8.962325764803325e-07,-3.424119375330034e-07,1.0821352138644595e-06,8.517742691250341e-08,-6.927029198285482e-08,9.016609392172132e-07,5.306497235070872e-07,-2.2963783411633745e-07,-1.1210367304636823e-06,-2.641117573686004e-07,4.4911034985096066e-07,2.3715434903368023e-07,-1.07126058067935e-06
1.3997713524306277e-07,3.2391181928208026e-07,-4.94917869099857e-07,1.2280413914286923e-06,-5.184909161989115e-07,9.00976593749022e-07,-2.931131215415345e-07,1.1300998344692525e-06,1.1902353363840934e-07,-6.883201674539982e-08,9.225743092957887e-07,5.730219117642004e-07,-2.401655755729882e-07,-1.051819352593739e-06,-1.7613337761582297e-07,5.571716355946504e-07,2.3922827480801034e-07,-1.0785257993205762e-06
1.3262140871351382e-07,3.863824450147089e-07,-4.484986833552141e-07,1.2390877867634637e-06,-5.165042064824386e-07,8.978245866028313e-07,-2.476459590323297e-07,1.1673842043689848e-06,1.5162867211931136e-07,-6.671683113322605e-08,9.458327949134139e-07,6.263561113600961e-07,-2.301522461267844e-07,-9.710783883715295e-07,-7.903157227291489e-08,6.783863115278954e-07,2.579365682675861e-07,-1.0841123999391813e-06
1.1589645666062882e-07,4.2304991539959735e-07,-4.0161211606011224e-07,1.2417386567697551e-06,-5.019510491456959e-07,8.969706591900118e-07,-2.0968824826703478e-07,1.1934872984751355e-06,1.8445269137976098e-07,-6.16714447049041e-08,9.639424440657236e-07,6.885939143709708e-07,-1.9832112748500043e-07,-8.694871481668163e-07,2.2805793777946415e-08,8.081005212982135e-07,2.8756568143301804e-07,-1.0836910564453844e-06
9.133507676196527e-08,4.5261705141850885e-07,-3.5892341380273543e-07,1.2371666851503998e-06,-4.777165000970635e-07,8.82839188854271e-07,-1.8089530045327055e-07,1.2228044102537474e-06,2.1920010572793293e-07,-5.1165256804597176e-08,9.754611240640643e-07,7.56786250577175e-07,-1.4623350576196343e-07,-7.726813353238285e-07,1.2569152569400145e-07,9.40330484898257e-07,3.2370341278257206e-07,-1.0642596144355288e-06
6.297736275820599e-08,4.83350073684468e-07,-3.1553567892312713e-07,1.2237496209318718e-06,-4.4900162761285325e-07,8.614041389006915e-07,-1.617416325953493e-07,1.2536846775440139e-06,2.564089312796042e-07,-3.305307326228563e-08,9.822145008119831e-07,8.271151685742922e-07,-7.846420003763634e-08,-6.581706068103562e-07,2.2647291265970813e-07,1.0684942700041913e-06,3.63322112030295e-07,-1.024450931862771e-06
3.663902751698339e-08,5.145583056757156e-07,-2.6335792000721314e-07,1.2101371207345443e-06,-4.2184589557665036e-07,8.352142797190729e-07,-1.5184599644873514e-07,1.2807505710327243e-06,2.9554794955415537e-07,-6.454491914347073e-09,9.892325571391652e-07,8.96014443400804e-07,-1.5135021282098347e-09,-5.339157956168372e-07,3.2292768320008057e-07,1.187210564514081e-06,4.0473784919216027e-07,-9.609071612985177e-07
2.0711855327505485e-08,5.450901141245134e-07,-2.0415302602136805e-07,1.1954086706672556e-06,-4.0081281610274165e-07,8.107284675081887e-07,-1.4955526040206318e-07,1.3084914292149268e-06,3.3577472336242245e-07,2.83855875674858e-08,9.992653361566968e-07,9.606179912903429e-07,7.753486060830839e-08,-4.161483840478748e-07,4.137641713003037e-07,1.2931404700762427e-06,4.4682034580283906e-07,-8.772032992692081e-07
2.19847457860633e-08,5.727965117040752e-07,-1.5562628701598796e-07,1.1796603162266914e-06,-3.882497344134732e-07,7.871955754641541e-07,-1.523847798052941e-07,1.3207710448848266e-06,3.7562228211025986e-07,7.018800263583068e-08,1.013645780658155e-06,1.017669063889666e-06,1.5150143559132034e-07,-3.0608142598956697e-07,4.978999005099351e-07,1.3841809220271286e-06,4.875110675422123e-07,-7.757698611489322e-07
4.172617774328236e-08,5.950326761437375e-07,-1.1713587886093819e-07,1.1671864922694468e-06,-3.848167028659338e-07,7.621333802912734e-07,-1.5787162149649882e-07,1.3278549313940663e-06,4.1286758216974713e-07,1.1670153263342763e-07,1.0331289360397555e-06,1.0631008679527582e-06,2.137234886397347e-07,-2.1871035922748775e-07,5.745736759859824e-07,1.4592819160895553e-06,5.236078073359318e-07,-6.578429607258774e-07
7.42985704967632e-08,6.065778954219261e-07,-8.52379878339988e-08,1.1592049850424167e-06,-3.8956610801992166e-07,7.344342260587951e-07,-1.6328245921693127e-07,1.3293761143368444e-06,4.4576940001672286e-07,1.6542299563145877e-07,1.0560225165293802e-06,1.0935124080075336e-06,2.5968850317204355e-07,-1.5866788563758672e-07,6.443964662610927e-07,1.519456834645079e-06,5.521915386571511e-07,-5.341489982485987e-07
1.0896662598282047e-07,5.995797374840787e-07,-5.957263665539373e-08,1.158922602769815e-06,-4.003733307434879e-07,6.997836299809607e-07,-1.6508332515969396e-07,1.3159590191011051e-06,4.738930227749166e-07,2.1461744927689736e-07,1.0803867491108615e-06,1.107903389849453e-06,2.8836255434723234e-07,-1.2348547190474372e-07,7.095733890137005e-07,1.5683576637900686e-06,5.719245811274041e-07,-4.1302525147406985e-07
1.3470703177036667e-07,5.65963369373354e-07,-3.552652659115128e-08,1.1679020836545433e-06,-4.155834645439883e-07,6.57128610657784e-07,-1.5975440837457887e-07,1.287813051222557e-06,4.975671150369428e-07,2.6386121214001924e-07,1.1033806992120323e-06,1.1085026994901932e-06,3.0188318328932613e-07,-1.0719086869421266e-07,7.732348071358424e-07,1.6124660305500704e-06,5.836175705758633e-07,-2.997199146266536e-07
1.4554119253663354e-07,4.997328573899126e-07,-1.3773380807393687e-08,1.1841242768341131e-06,-4.3501540108071666e-07,6.028685670123599e-07,-1.4517668357835634e-07,1.2400843136567302e-06,5.175098435081414e-07,3.139546098556965e-07,1.121734438437511e-06,1.1007517434839295e-06,3.0416970294940184e-07,-9.90887301238104e-08,8.390184251639483e-07,1.661286558671264e-06,5.903532157182581e-07,-1.9701533220459645e-07
1.4176015051562806e-07,3.995678032157472e-07,1.893945110666644e-09,1.2031175440146525e-06,-4.593121399886936e-07,5.359743193708212e-07,-1.2152486415900207e-07,1.1641687884311902e-06,5.34829812360597e-07,3.6620069905364935e-07,1.1329220258636159e-06,1.0917426746837822e-06,2.9925937315189233e-07,-8.832700473824044e-08,9.102286957119138e-07,1.725475114573299e-06,5.963013187367843e-07,-1.1352334940989396e-07
1.2915860559171058e-07,2.7127868164530243e-07,1.19640694909845e-08,1.2195192161440703e-06,-4.891579871712152e-07,4.5749832771649843e-07,-9.18665297450029e-08,1.0636737757922671e-06,5.503400174763311e-07,4.2131045657466253e-07,1.1354354817795668e-06,1.0873037212727353e-06,2.896593911206227e-07,-6.838684820222085e-08,9.881586918803907e-07,1.8123454430062356e-06,6.044033805115637e-07,-3.80733313673146e-08
1.157847756135974e-07,1.2849331702341543e-07,2.127277003328291e-08,1.2283031349933038e-06,-5.24689534733304e-07,3.7026862733402923e-07,-6.177795817717628e-08,9.519077827847606e-07,5.642043722068515e-07,4.789141578218824e-07,1.1292342930721934e-06,1.090264146267103e-06,2.7552372374848524e-07,-3.832013868186535e-08,1.0714527642153992e-06,1.922331137394398e-06,6.152512389662222e-07,4.795985124525919e-08
1.0891998868612676e-07,-1.0673748370549643e-08,2.9166364354267118e-08,1.2267879046075526e-06,-5.643541909869087e-07,2.8251044871966634e-07,-3.719418714403734e-08,8.331083895213089e-07,5.768468026525789e-07,5.380055397322385e-07,1.1166204105728577e-06,1.1009353318847065e-06,2.5514228526236927e-07,-4.209456383004047e-10,1.1568365560863492e-06,2.0509435500344047e-06,6.277338810107427e-07,1.1282080631239045e-07
1.1264111338118764e-07,-1.2961281292827666e-07,3.726914562854126e-08,1.2160186469276605e-06,-6.047547811050271e-07,2.0301476453027713e-07,-2.2420314829586172e-08,7.209190852905842e-07,5.891174959565584e-07,5.972428254961867e-07,1.102187531422767e-06,1.1177333276190009e-06,2.259398584937773e-07,4.205966303764203e-08,1.2389973520927696e-06,2.1813543980758983e-06,6.396519979210241e-07,1.586370141771928e-07
1.2771173487702116e-07,-2.1738697963136202e-07,4.8409203676773146e-08,1.1998548800659817e-06,-6.427536138601992e-07,1.393216238932359e-07,-2.0177517712744243e-08,6.277946002295642e-07,6.008401779025691e-07,6.546392378912898e-07,1.0911559299799355e-06,1.1371538636669304e-06,1.8547192691237802e-07,8.491557791494285e-08,1.3098872762950385e-06,2.296695592604635e-06,6.483286257568669e-07,1.543925471602161e-07
1.5321210637053006e-07,-2.6956984350047546e-07,6.30138616521013e-08,1.1833743178206244e-06,-6.773985295479631e-07,9.502725211924224e-08,-3.196480538861299e-08,5.576481312980842e-07,6.103384215171922e-07,7.076195249387641e-07,1.087495870165134e-06,1.154635140124177e-06,1.3279254395552482e-07,1.2209284981014346e-07,1.3602028141052358e-06,2.3745182068313985e-06,6.524234775771754e-07,1.000088451581419e-07
1.8755282828220925e-07,-2.8747193596201624e-07,8.233600036948231e-08,1.171859542684411e-06,-7.096286534553177e-07,6.73276360651532e-08,-5.70523198003574e-08,5.126836024160425e-07,6.15914889220841e-07,7.537654735101606e-07,1.0929686064702799e-06,1.1661728083609538e-06,6.975364078637609e-08,1.4563468931703583e-07,1.382746116798838e-06,2.362701565767513e-06,6.533027226941832e-07,8.659473581930263e-08
2.2853841660896844e-07,-2.769909517885291e-07,1.069593686389271e-07,1.168334290522903e-06,-7.414288670826863e-07,5.268203174857138e-08,-9.186262760203119e-08,4.929136314728476e-07,6.169363836463188e-07,7.914327362402877e-07,1.106822202781788e-06,1.1692106642573315e-06,1.092853390301021e-09,1.4679835438650005e-07,1.3747736400886912e-06,2.352393687498693e-06,6.540045289289739e-07,1.4008476292387534e-07
2.7382304298090266e-07,-2.472192876109818e-07,1.3601572132712678e-07,1.17675576151423e-06,-7.754409314769531e-07,4.595551620699543e-08,-1.3108122287352366e-07,4.927669884108443e-07,6.138633607305564e-07,8.201990587316877e-07,1.126288547489999e-06,1.1632932644737096e-06,-6.660977643397746e-08,1.1853653220805201e-07,1.3386320953524973e-06,2.2917582337225384e-06,6.5768087298038e-07,1.4737336810805177e-07
3.1939337924593695e-07,-2.0948493358872199e-07,1.6786541874883497e-07,1.1989897133508696e-06,-8.135109394843492e-07,4.176011806767362e-08,-1.689689078537446e-07,5.126435156180803e-07,6.085991695175788e-07,8.415787601092043e-07,1.1482596541114488e-06,1.1510323062726508e-06,-1.2626138887299744e-07,5.874129113388725e-08,1.2812542223541653e-06,2.214714706806433e-06,6.674099871823343e-07,1.402514490620383e-07
3.5942555170710315e-07,-1.7629390667551614e-07,2.010728384676045e-07,1.2340475218419045e-06,-8.548445676033336e-07,3.687645813755472e-08,-2.0019252036801652e-07,5.427210017480565e-07,6.042443928520009e-07,8.591293351639853e-07,1.170810552441771e-06,1.137552263753887e-06,-1.7309316697939473e-07,-2.835444341735265e-08,1.2116035060466217e-06,2.0900173019620836e-06,6.855062224107015e-07,8.872315460979355e-08
3.870073635859185e-07,-1.583273692110716e-07,2.3448434789940374e-07,1.2789495165817753e-06,-8.965717365055872e-07,2.9609340837288998e-08,-2.2122027872503412e-07,5.744585378509922e-07,6.028902936921371e-07,8.770999470091533e-07,1.192980067163693e-06,1.1278450426732833e-06,-2.0399761047176187e-07,-1.342321564991457e-07,1.1367009002632857e-06,1.9792861782278403e-06,7.114046080062329e-07,2.1666126137205928e-08
3.9632404939601216e-07,-1.602997494424698e-07,2.664144830074934e-07,1.3273025774908758e-06,-9.360024209877199e-07,1.866614511217939e-08,-2.3142538606074433e-07,6.005842480557393e-07,6.038697999564037e-07,8.988387357508998e-07,1.213741369484555e-06,1.1248868162052933e-06,-2.1864324274244483e-07,-2.4941085495301295e-07,1.0599517512226888e-06,1.8874470866623713e-06,7.411219078447455e-07,-4.399379712218818e-08
3.868901718492529e-07,-1.7940387980709941e-07,2.9502984794161253e-07,1.3713104151241855e-06,-9.71373089790307e-07,3.4313674834707434e-09,-2.320262560350875e-07,6.117153376124506e-07,6.050151967687906e-07,9.263838755914263e-07,1.2318719488160552e-06,1.1299123615035124e-06,-2.2155301254863308e-07,-3.654824584423955e-07,9.829344746293517e-07,1.802343478358253e-06,7.69599425872568e-07,-1.0803936958594928e-07
3.6555077435913317e-07,-2.0806761475969253e-07,3.1956784861125e-07,1.4044089343186947e-06,-1.0013193234525104e-06,-1.5137435187892476e-08,-2.241025907399059e-07,6.052485231970593e-07,6.048653415926354e-07,9.605427992879053e-07,1.246223726683675e-06,1.1425220702650185e-06,-2.1826356375317043e-07,-4.7642627821495106e-07,9.071673007019258e-07,1.7248084207438796e-06,7.929029065740228e-07,-1.3163966170853035e-07
3.445848152373055e-07,-2.383924552390801e-07,3.4030023838884187e-07,1.4231592288221718e-06,-1.0252338184199716e-06,-3.665216621936091e-08,-2.0819082523541633e-07,5.813611943254297e-07,6.032411158488185e-07,1.0006213980683893e-06,1.25541346857266e-06,1.1597192078237558e-06,-2.147236608977132e-07,-5.799031173782975e-07,8.339114975589117e-07,1.6532479725655775e-06,8.084887124707183e-07,-1.5337005511710452e-07
3.3687753506900485e-07,-2.6450953433847016e-07,3.577918153556758e-07,1.426990406772086e-06,-1.0435242470135017e-06,-6.130635772036619e-08,-1.8485004616417762e-07,5.422956513060225e-07,6.014813856815416e-07,1.0447198210670875e-06,1.2577697831741528e-06,1.175411358474136e-06,-2.1530906188118957e-07,-6.770832723451689e-07,7.638895663505037e-07,1.5860426398490761e-06,8.151748508412574e-07,-1.8126602190122633e-07
3.503040681180978e-07,-2.822539479196751e-07,3.7317020178218695e-07,1.4188787831114127e-06,-1.056281583925279e-06,-8.845670460143187e-08,-1.5462529366120824e-07,4.91647440390814e-07,6.033228446047126e-07,1.0911627937409089e-06,1.2520164457754776e-06,1.1848944337979261e-06,-2.2859332930347292e-07,-7.710227340457811e-07,6.975507094142715e-07,1.5214757146291735e-06,8.134407939616193e-07,-1.842454363809968e-07
3.8417612376914716e-07,-2.882735997980683e-07,3.8832777840078504e-07,1.4046069537882876e-06,-1.0625935191577225e-06,-1.1645432850909623e-07,-1.1852657736803662e-07,4.3668878438746883e-07,6.1407090977241e-07,1.1396826888615752e-06,1.2373457968564468e-06,1.1826129152576228e-06,-2.480592079697916e-07,-8.661182827368257e-07,6.344360654269403e-07,1.4559111757258624e-06,8.049535587969893e-07,-1.830981559557076e-07
4.300350193540266e-07,-2.8028952486068966e-07,4.045935869694271e-07,1.3901334864523693e-06,-1.0623089781815896e-06,-1.4420946929338656e-07,-7.980638334590034e-08,3.802428321145825e-07,6.376160929867402e-07,1.1914446636716652e-06,1.2126402678757392e-06,1.1620634888715198e-06,-2.8177086078351856e-07,-9.689110864240987e-07,5.725453824202719e-07,1.3817272011529646e-06,7.922486210487504e-07,-1.8114007665761081e-07
4.7541684148899734e-07,-2.5778701815950034e-07,4.2166327908152164e-07,1.3797720975776085e-06,-1.057530955559278e-06,-1.7237518590073072e-07,-4.443908853738403e-08,3.201644061943858e-07,6.748960734592374e-07,1.2487314881743534e-06,1.1767606009937085e-06,1.1243534531834064e-06,-3.6089756262644096e-07,-1.0873162436124034e-06,5.098202447718115e-07,1.2898533995702677e-06,7.801378559009208e-07,-1.8013603652897138e-07
5.087160083524387e-07,-2.216830196924009e-07,4.3852145690129126e-07,1.375957374801625e-06,-1.0516103400337215e-06,-2.0182183064449817e-07,-1.8564419760084504e-08,2.5541561352951197e-07,7.249841319084492e-07,1.3144104882444251e-06,1.130378220368343e-06,1.05714627006566e-06,-4.906615276527554e-07,-1.2273276072784345e-06,4.460861114028387e-07,1.1746745092085748e-06,7.765494246587877e-07,-1.9095681852554417e-07
5.235833147230006e-07,-1.7386754894677574e-07,4.544748063993051e-07,1.3800790530806937e-06,-1.0479371948472303e-06,-2.322580244272651e-07,-5.432132920960574e-09,1.8821558154367724e-07,7.854744654422691e-07,1.3900114945508158e-06,1.0771820578982802e-06,9.491226813175452e-07,-5.981821059555712e-07,-1.389709823639102e-06,3.8233475599575515e-07,1.037174251876624e-06,7.895882760658393e-07,-2.119439522776427e-07
5.201710028351246e-07,-1.1830203157445277e-07,4.685849452881539e-07,1.3926879568516511e-06,-1.0501579195611856e-06,-2.6283172803092385e-07,-4.4036111851224216e-09,1.2492293207565701e-07,8.511843243222193e-07,1.4730094834054036e-06,1.0232493826601713e-06,8.25609526657089e-07,-8.154610102064633e-07,-1.5686301507831773e-06,3.186881499309709e-07,8.855346607236228e-07,8.228918772282114e-07,-2.345538974860919e-07
5.037943595629419e-07,-6.21664596820507e-08,4.793295624696743e-07,1.4133910997499919e-06,-1.0615174820740326e-06,-2.923330546136531e-07,-1.1224749919399087e-08,7.483802478268087e-08,9.144861485009507e-07,1.5554501554178476e-06,9.756970056644926e-07,7.052940775192049e-07,-1.0264623102021433e-06,-1.7523595622821996e-06,2.543550057715733e-07,7.344557332734813e-07,8.738322962162961e-07,-2.5906350832451723e-07
4.833331550027068e-07,-1.4513633827712403e-08,4.85814336227525e-07,1.441246694247347e-06,-1.082701596234218e-06,-3.182893452378572e-07,-1.89065822101585e-08,4.846753311886361e-08,9.68100987695624e-07,1.6283032672448184e-06,9.412682600393759e-07,5.890415360791504e-07,-1.2017939684564114e-06,-1.926450866154444e-06,1.8877188505354034e-07,6.01878097909339e-07,9.349383365622578e-07,-2.906413016485707e-07
4.669533709238549e-07,1.7385309145502475e-08,4.884452488874659e-07,1.474772427871659e-06,-1.1115199274076673e-06,-3.37603736290139e-07,-2.0383039558252986e-08,5.323346347452323e-08,1.007125615602082e-06,1.6880984526338319e-06,9.244437672717943e-07,4.886032050796386e-07,-1.3615348192584823e-06,-2.0791180230356922e-06,1.21517864337163e-07,5.018545908285459e-07,9.963164722588928e-07,-3.2424480635571944e-07
4.585784682495561e-07,3.0195115358845965e-08,4.879300385103983e-07,1.5113625361369624e-06,-1.145214378750352e-06,-3.487886298435225e-07,-1.1973360300548445e-08,8.873637272764101e-08,1.0292626472102814e-06,1.7121916206271222e-06,9.258863743046509e-07,4.085792951515454e-07,-1.4567801155589087e-06,-2.205790485442158e-06,5.2192807265278395e-08,4.387879873279956e-07,1.0486731170411218e-06,-3.574987521089852e-07
4.563311708949122e-07,2.466436892550536e-08,4.847867386998955e-07,1.5477291605417014e-06,-1.181738968459938e-06,-3.5250928905781226e-07,5.740717395026948e-09,1.4737784896018063e-07,1.0352236332154046e-06,1.7206547071839817e-06,9.426601473810539e-07,3.6573833288364275e-07,-1.5444852610312888e-06,-2.3099265793923292e-06,-1.823666986914286e-08,4.0787770148389515e-07,1.0864547894943618e-06,-3.885970123617363e-07
4.535938658611413e-07,4.766581179697293e-09,4.801613288630584e-07,1.5815730953044225e-06,-1.218932075814626e-06,-3.501557286456214e-07,2.9966867933745735e-08,2.1896004755555108e-07,1.0289323114005407e-06,1.7069026584049292e-06,9.696583381045644e-07,3.3447633855411293e-07,-1.5567105623126876e-06,-2.400768138353795e-06,-8.69387427705212e-08,3.9941682539311147e-07,1.1086983341760136e-06,-4.1414563557391504e-07
4.439461997569673e-07,-2.3489053281311116e-08,4.757227141466492e-07,1.6123110000709573e-06,-1.254571824125903e-06,-3.4327885717607107e-07,5.750645633874965e-08,2.9357005888004314e-07,1.015633159978038e-06,1.6806161414723537e-06,1.0007635591496445e-06,3.18909408377567e-07,-1.5828355078695033e-06,-2.489813100755344e-06,-1.510900904449161e-07,4.020506478740774e-07,1.1172239251795989e-06,-4.3461503489669755e-07
4.2461826617056036e-07,-5.384626821475889e-08,4.7234904298968794e-07,1.640107205602032e-06,-1.2875890533822863e-06,-3.339055220026017e-07,8.531515611350684e-08,3.626878723375337e-07,9.995651273178834e-07,1.649199457204486e-06,1.0299995620685417e-06,3.090606103598105e-07,-1.6234352521248651e-06,-2.5859093347288925e-06,-2.0914879588129883e-07,4.053537812073284e-07,1.1151320534982458e-06,-4.5108629656827076e-07
3.989862890120369e-07,-8.148034171634257e-08,4.701298480206763e-07,1.6649592307197932e-06,-1.3175458300946427e-06,-3.2368234075541137e-07,1.1165616934898865e-07,4.1830013793573704e-07,9.83949114355717e-07,1.6187117828917165e-06,1.0531495371842476e-06,3.003700457620603e-07,-1.6578350892559974e-06,-2.690013723154392e-06,-2.596505601557924e-07,4.0279698090085663e-07,1.1065207042773534e-06,-4.6345970744268826e-07
3.7630662364026606e-07,-1.032737145112896e-07,4.696272144470218e-07,1.6864803260884729e-06,-1.3430144857981492e-06,-3.130421949791584e-07,1.3748828592277857e-07,4.599516691203379e-07,9.71646284408284e-07,1.593310557247065e-06,1.0690166830858372e-06,2.9202276588403496e-07,-1.6858101741204905e-06,-2.7938128772253826e-06,-3.0056973469692265e-07,3.918868882783398e-07,1.0947585186147682e-06,-4.713714383891821e-07
3.6802480072566327e-07,-1.1763790039748308e-07,4.7143328129959155e-07,1.7030262660643665e-06,-1.362364639685346e-06,-3.02871206445374e-07,1.6566410970430842e-07,4.880616731359638e-07,9.637346746873338e-07,1.574459222158151e-06,1.075255594845074e-06,2.840117539832348e-07,-1.7253135868202222e-06,-2.8843443535608264e-06,-3.3132255263617825e-07,3.7037504677421944e-07,1.079096780683602e-06,-4.7585171801993503e-07
3.8325674360946307e-07,-1.2486076429366303e-07,4.7406492494920235e-07,1.7102422840726092e-06,-1.3761711570008971e-06,-2.9691939673534903e-07,1.9854292599977803e-07,5.006543298052471e-07,9.580361827209387e-07,1.5606824390042926e-06,1.0692093798365862e-06,2.7450025668609124e-07,-1.7521881339747064e-06,-2.950826432066387e-06,-3.5443642633187666e-07,3.336743085614298e-07,1.053711063115007e-06,-4.801624807763179e-07
4.2479093446206736e-07,-1.2733391086206067e-07,4.736456993901835e-07,1.7011746423656794e-06,-1.3870761808305677e-06,-3.013629867110365e-07,2.3710205022621142e-07,4.888316752162366e-07,9.509222661743867e-07,1.549079159342257e-06,1.0476030351409143e-06,2.6047632684204146e-07,-1.7642417008374058e-06,-2.9887539768325512e-06,-3.7445469492424016e-07,2.769807021874297e-07,1.0110508825776382e-06,-4.879160336943418e-07
4.876321440927508e-07,-1.284343620581163e-07,4.660529649851362e-07,1.6685585742681315e-06,-1.397257136917201e-06,-3.221741330947918e-07,2.815369892248085e-07,4.40910821071521e-07,9.405514811918897e-07,1.5374940084752462e-06,1.0082709324146315e-06,2.3940351559308636e-07,-1.7659251468702671e-06,-3.0006733447327574e-06,-3.9627111191845047e-07,1.98823268514577e-07,9.461750406560385e-07,-5.009594468677884e-07
5.604283382716e-07,-1.311615832993608e-07,4.48507519341469e-07,1.6087427669834405e-06,-1.407593924488633e-06,-3.633559878764257e-07,3.30546105536266e-07,3.5308301213381496e-07,9.276138047918489e-07,1.5253844666968057e-06,9.486796271385769e-07,2.0952100071560405e-07,-1.7532984444870957e-06,-2.9953362193897047e-06,-4.2460429444660526e-07,9.950205184441899e-08,8.592054973650713e-07,-5.191841456757684e-07
6.283984296992673e-07,-1.3781831022725757e-07,4.1972876596214995e-07,1.518299288827414e-06,-1.418894826159938e-06,-4.2780951032638227e-07,3.794737778024591e-07,2.2942460719465652e-07,9.142629829978517e-07,1.51346520795861e-06,8.718810179595072e-07,1.705981749916498e-07,-1.7338462880075248e-06,-2.9850883944995394e-06,-4.6252153952048175e-07,-9.85455541799753e-09,7.567780181574968e-07,-5.409235451441306e-07
6.777754682062444e-07,-1.494753961043994e-07,3.809262459585938e-07,1.4066257016515299e-06,-1.4316868556194446e-06,-5.075636528943572e-07,4.205176976108469e-07,1.1163154897507765e-07,9.040001246186743e-07,1.5031261039780674e-06,7.863397323743599e-07,1.2631531705936736e-07,-1.7102543420591796e-06,-2.9811789841973264e-06,-5.085785055796094e-07,-1.1627817836753192e-07,6.52413342444442e-07,-5.631818502948928e-07
6.983751221161995e-07,-1.6347432718318013e-07,3.3741807732488645e-07,1.2880623665439676e-06,-1.4445162810306744e-06,-5.916782737346878e-07,4.45496532341523e-07,5.5569915173977785e-08,9.012142004384498e-07,1.4951058961528466e-06,6.908263046944144e-07,8.504159235953238e-08,-1.6828738687503457e-06,-2.9896536483964283e-06,-5.56622086767477e-07,-2.0047151384379932e-07,5.626301136133878e-07,-5.830815133255802e-07
6.879492188464341e-07,-1.7045508583693824e-07,2.975100198896872e-07,1.1720800685782873e-06,-1.4543155108251995e-06,-6.61025587367815e-07,4.48431705582125e-07,1.1358736495222763e-07,9.080303805506208e-07,1.4870664420898786e-06,6.360955996391683e-07,5.6588948482186265e-08,-1.6527233363707739e-06,-3.010625079954747e-06,-6.000737379241988e-07,-1.9802513793818986e-07,4.989136039601433e-07,-6.004043570219157e-07
6.540732603212168e-07,-1.5470354609385668e-07,2.684322522336296e-07,1.1211028337989352e-06,-1.4588014302446092e-06,-6.562111274775572e-07,4.2707213068251514e-07,1.8698567413078209e-07,9.214092495311174e-07,1.4724398449977688e-06,6.242496160037217e-07,4.78082338103066e-08,-1.6199935148887882e-06,-3.0398234381462536e-06,-6.361099852068617e-07,-1.5735997665330406e-07,4.6198183268584796e-07,-6.180891198310424e-07
6.116517408714528e-07,-1.0068781701608768e-07,2.5356599604853546e-07,1.1129474470555072e-06,-1.4570530784257734e-06,-6.409335983068711e-07,3.847647458654771e-07,2.537413081190195e-07,9.349817307256011e-07,1.4430258394609511e-06,6.118403323966183e-07,6.066727462941508e-08,-1.5840569587782009e-06,-3.0700601585517096e-06,-6.655281981525395e-07,-1.4181864444171216e-07,4.431848977238884e-07,-6.397417363883602e-07
5.778739033943456e-07,-3.119478893519495e-09,2.528829594275188e-07,1.096027515575538e-06,-1.4480196236534172e-06,-6.194309895650932e-07,3.314822655902952e-07,3.0449995871703527e-07,9.437301491950043e-07,1.3937597608330428e-06,6.028881533689689e-07,9.232983387813002e-08,-1.5435676405268003e-06,-3.0930208777841802e-06,-6.904804967492814e-07,-3.9980241697945876e-08,4.30238439386636e-07,-6.67116202484381e-07
5.653520067261448e-07,1.2709618383947658e-07,2.638471676362727e-07,1.1102826140821847e-06,-1.4308203123267283e-06,-5.348020413022809e-07,2.8062361751175033e-07,4.0792873308396244e-07,9.460176939335868e-07,1.3256580521562606e-06,6.396119213235894e-07,1.355647349709597e-07,-1.498216525755643e-06,-3.1024907655093326e-06,-7.136820550471907e-07,1.0143632575920807e-07,4.1226784454925517e-07,-6.997437387542033e-07
5.780754714273572e-07,2.6646665073524223e-07,2.814222784425818e-07,1.1574040317926592e-06,-1.4071219595629292e-06,-4.0642917271903376e-07,2.4250004077412453e-07,5.848786506632769e-07,9.425239025733661e-07,1.2453721355198085e-06,6.863850040500517e-07,1.8031779601879075e-07,-1.4508660935730922e-06,-3.0973822904876586e-06,-7.381368749644112e-07,2.2436360199173552e-07,3.8302907250067867e-07,-7.357392626850865e-07
6.117469885564221e-07,3.8925809503664366e-07,2.995189562971886e-07,1.1981823134318432e-06,-1.3813782954806168e-06,-2.8486203332351326e-07,2.20152809902664e-07,8.081172458257721e-07,9.358065940947618e-07,1.1627841274070836e-06,7.158000238914783e-07,2.1695890377206264e-07,-1.4077967157521023e-06,-3.0821462242847336e-06,-7.654395349792883e-07,3.102924410560016e-07,3.4269360944094166e-07,-7.720114544897828e-07
6.569134635562772e-07,4.764195551062608e-07,3.142093863560352e-07,1.2214246890493125e-06,-1.357994837729912e-06,-1.859924055366664e-07,2.1021907777559988e-07,1.0184350449893867e-06,9.30828146828465e-07,1.088037805992967e-06,7.184844857429571e-07,2.386766467958316e-07,-1.3771392503045585e-06,-3.064878580297182e-06,-7.945186698543133e-07,3.6441338069931665e-07,2.96862950802264e-07,-8.050114973145214e-07
7.030180100654852e-07,5.197264600440745e-07,3.252811397766493e-07,1.2392458534402644e-06,-1.3392686165739723e-06,-1.0870934492979561e-07,2.0613213814019362e-07,1.1750070899653956e-06,9.337316080276443e-07,1.0286745735459462e-06,7.125412636919427e-07,2.413631954240084e-07,-1.3669732055959454e-06,-3.0550074109345047e-06,-8.228317316155932e-07,3.8729604273590384e-07,2.527017042821533e-07,-8.324927696886103e-07
7.416373223611402e-07,5.188937901373262e-07,3.3485439022411465e-07,1.2567940327292557e-06,-1.3255629736710522e-06,-5.7489067252225154e-08,2.0143069171145128e-07,1.2366494713322554e-06,9.493613451977075e-07,9.88175162127805e-07,6.996012483450843e-07,2.232629003292643e-07,-1.3830156574368552e-06,-3.060749644867212e-06,-8.479924111575758e-07,3.872124283100639e-07,2.1545909897815e-07,-8.542165230571238e-07
7.684558197813735e-07,4.781255982740666e-07,3.4571715777983074e-07,1.280878006819338e-06,-1.3152735850184566e-06,-2.9093002554583905e-08,1.9353691359762907e-07,1.268277452326251e-06,9.803268301049055e-07,9.668154922782036e-07,6.805042247675655e-07,1.8606460044691144e-07,-1.4255471237323672e-06,-3.0859237879293548e-06,-8.678601300813737e-07,3.734365133526502e-07,1.8761421536670022e-07,-8.709915433839876e-07
7.838926857271396e-07,4.0650745572442015e-07,3.604850294913739e-07,1.314120735034761e-06,-1.3045669263784105e-06,-1.654974484463076e-08,1.8642161414080618e-07,1.296038334699307e-06,1.0269886007160535e-06,9.63357938520294e-07,6.635448898068363e-07,1.3499822626424336e-07,-1.4875099335907774e-06,-3.128153343250747e-06,-8.80965270542909e-07,3.528163801363407e-07,1.6900660978306431e-07,-8.839007521643243e-07
7.920248174785743e-07,3.193306802411383e-07,3.7982085629533837e-07,1.3511342948858728e-06,-1.2897273907170347e-06,-1.3119269678975307e-08,1.88652551260874e-07,1.3090078866560347e-06,1.0859979344987008e-06,9.753852129632835e-07,6.483396429630978e-07,7.621582542303337e-08,-1.555778536606034e-06,-3.1806172633764127e-06,-8.884241999402273e-07,3.262234532314886e-07,1.567671488310882e-07,-8.948856014155398e-07
7.971596974626481e-07,2.3680395845097695e-07,4.0030907173752364e-07,1.3811800197814108e-06,-1.2710693743347045e-06,-1.6202592664979764e-08,2.0749197208139142e-07,1.3190761060587144e-06,1.1490411547680625e-06,9.985342341760113e-07,6.352910540161806e-07,1.4309669114559503e-08,-1.6112419604328464e-06,-3.235275607065236e-06,-8.943334232644555e-07,2.8856087844978936e-07,1.4689187928478285e-07,-9.068928776917407e-07
8.00648380540632e-07,1.7791222125091622e-07,4.1538483011403176e-07,1.3920664510791308e-06,-1.2536308811797377e-06,-2.725914041346108e-08,2.4427153281274717e-07,1.3230918185592595e-06,1.2051509962086912e-06,1.0264276142239952e-06,6.241912583156093e-07,-4.7537308591035863e-08,-1.6387243692774245e-06,-3.2839234108583417e-06,-9.027897729652448e-07,2.342964145415386e-07,1.3775781360848427e-07,-9.223526991251944e-07
8.013953412534353e-07,1.5275795309419383e-07,4.194599941932081e-07,1.3730995776185173e-06,-1.2438278222123441e-06,-4.8341819595738815e-08,2.9391313257857427e-07,1.3102386606735856e-06,1.245309529620831e-06,1.051558313194416e-06,6.146206619026204e-07,-1.0673658689968125e-07,-1.6261093436266526e-06,-3.3175379024254516e-06,-9.146825043343975e-07,1.6348655833658522e-07,1.3210807505690731e-07,-9.411959769830456e-07
7.97666236251062e-07,1.578473630545795e-07,4.112910122243885e-07,1.3285048604927012e-06,-1.2460241961658439e-06,-7.915043147027385e-08,3.468952422570295e-07,1.2810855475771686e-06,1.2654228391979263e-06,1.0662670180757102e-06,6.083945323073356e-07,-1.6178998737332128e-07,-1.5697436423859553e-06,-3.3268681570835207e-06,-9.271959839489634e-07,8.313423639987493e-08,1.35663411803185e-07,-9.623209539286877e-07
7.882206854919155e-07,1.7788111383224978e-07,3.945739976645344e-07,1.269528946649683e-06,-1.2608492479148893e-06,-1.1574686809721374e-07,3.921962188150049e-07,1.2427360664269261e-06,1.2671995270916064e-06,1.064117948400101e-06,6.085901639813683e-07,-2.1251801262469854e-07,-1.4680007137504813e-06,-3.3044058106980383e-06,-9.347942863468626e-07,5.682898575612263e-09,1.547416320765532e-07,-9.822719893046232e-07
7.731619842895724e-07,1.9195605207971097e-07,3.7711657933580733e-07,1.210156945521795e-06,-1.2839671019471382e-06,-1.5002737450742e-07,4.2125188413132414e-07,1.2093670814731112e-06,1.2583174560959943e-06,1.042078553435735e-06,6.182676521079666e-07,-2.5917241350530193e-07,-1.3237316295686395e-06,-3.2461632785632535e-06,-9.30598636422375e-07,-5.308054848337219e-08,1.942135342220689e-07,-9.957890478247918e-07
7.549213693447154e-07,1.8108465674010013e-07,3.687325655367164e-07,1.1745512664595264e-06,-1.306173675236728e-06,-1.7123686541669505e-07,4.309961619540901e-07,1.1979373357798044e-06,1.2504629085337445e-06,1.0019213791568966e-06,6.390002511623733e-07,-3.027488133769175e-07,-1.1511614907270824e-06,-3.153741282749883e-06,-9.096717152761904e-07,-7.866957713073599e-08,2.542086456761776e-07,-9.977835172093902e-07
7.384323957800286e-07,1.3592808735358426e-07,3.7678232675962056e-07,1.1949311739882622e-06,-1.3171207618219244e-06,-1.7063669929743386e-07,4.233335588726326e-07,1.2197868501042514e-06,1.2540479439592506e-06,9.49208027878111e-07,6.691999935235116e-07,-3.4672680455637617e-07,-9.666703235748309e-07,-3.0369203159146725e-06,-8.73335160786834e-07,-6.4559053829889e-08,3.266437728586136e-07,-9.855683004414898e-07
7.303494474251248e-07,5.99809699850336e-08,4.0171832919169626e-07,1.2106582100212905e-06,-1.3105138742107646e-06,-1.4586919362177693e-07,4.0262993210708944e-07,1.2747964827800045e-06,1.2734113526685837e-06,8.910058242777599e-07,7.037540858184993e-07,-3.9633928462302313e-07,-8.254534688088573e-07,-2.9135198338840313e-06,-8.297670644517518e-07,-1.5290783479121442e-08,3.9621003790667566e-07,-9.605889607670804e-07
7.366868561337978e-07,-3.1177783768078065e-08,4.370972089058715e-07,1.2833246102110478e-06,-1.285728675429851e-06,-1.0067975841764695e-07,3.7518833022651624e-07,1.3535369239527965e-06,1.3068772284319363e-06,8.344703854542598e-07,7.361093301584034e-07,-4.541389648896117e-07,-7.951725750011094e-07,-2.803946266351763e-06,-7.892864945684356e-07,5.6617991344751255e-08,4.4680756113303696e-07,-9.269104701314988e-07
7.608634360461295e-07,-1.1602130211716076e-07,4.738851690097094e-07,1.3610156500944573e-06,-1.2455897515986325e-06,-4.1374389785635015e-08,3.502397000554625e-07,1.4434175826041882e-06,1.349757277622228e-06,7.860961780476115e-07,7.609932836228562e-07,-5.16683859341654e-07,-8.372770553612268e-07,-2.723654684165138e-06,-7.592004840070296e-07,1.358618630427852e-07,4.6809656942193137e-07,-8.896579491501027e-07
8.026739530325011e-07,-1.7463422550087715e-07,5.04218017889919e-07,1.415311782777403e-06,-1.194691833204078e-06,2.5313742712544313e-08,3.3829519379189167e-07,1.5316356878184458e-06,1.3956044090900462e-06,7.503143969845076e-07,7.752050031817593e-07,-5.762248540184929e-07,-8.776823735412629e-07,-2.6790620348075663e-06,-7.425842493073416e-07,2.067075436340552e-07,4.575011775731757e-07,-8.545897459219418e-07
8.579075582955015e-07,-1.929381392085118e-07,5.223949973885409e-07,1.3911827848555786e-06,-1.139358691171775e-06,9.246058139030051e-08,3.466606352749696e-07,1.6051652081380553e-06,1.4360533493963479e-06,7.28135693141647e-07,7.768869793028041e-07,-6.249793213897357e-07,-8.258493530338584e-07,-2.6681921273024446e-06,-7.394751689995479e-07,2.5486880821245494e-07,4.187628056779791e-07,-8.280688206379173e-07
9.197963261492506e-07,-1.6469069725848403e-07,5.253953696888055e-07,1.315004692065742e-06,-1.0861729827205024e-06,1.5420509845281408e-07,3.766707545857882e-07,1.653118491420959e-06,1.4626446198815503e-06,7.167309252232944e-07,7.653900303836114e-07,-6.580708034527876e-07,-7.971537057551113e-07,-2.6836580443022875e-06,-7.475643364658696e-07,2.7207125596267065e-07,3.5974877778853816e-07,-8.139944394253299e-07
9.818384918398205e-07,-9.254202784283378e-08,5.140119237203033e-07,1.2205761632135087e-06,-1.0389130874495905e-06,2.0783756150703449e-07,4.2476762707454846e-07,1.6705055336806994e-06,1.47013532610495e-06,7.14098687516655e-07,7.418145703050833e-07,-6.747655114978923e-07,-8.019743836686783e-07,-2.716417390552922e-06,-7.627986107533224e-07,2.5882552053845185e-07,2.896926681847513e-07,-8.120739810019876e-07
1.039600894154585e-06,1.354013346443823e-08,4.92775529071733e-07,1.1898954421541543e-06,-9.973168821360943e-07,2.5413144511984157e-07,4.850237153071143e-07,1.6596430621022374e-06,1.458318229937199e-06,7.178255361494067e-07,7.090111719101757e-07,-6.784736440175213e-07,-8.797386786815442e-07,-2.7594640948074193e-06,-7.806335867910684e-07,2.230209569148424e-07,2.1637495582945442e-07,-8.180051258275719e-07
1.090639473374704e-06,1.4054999664203894e-07,4.683442731623884e-07,1.1157213987632168e-06,-9.583790648932522e-07,2.9628872375054127e-07,5.512620236719719e-07,1.6257946297027295e-06,1.4322704402961536e-06,7.268077265134668e-07,6.713979221235964e-07,-6.743855839730547e-07,-9.817142419192744e-07,-2.8093452910361154e-06,-7.95567858780104e-07,1.7698402202186808e-07,1.4563156736733673e-07,-8.23889473778655e-07
1.1331952327543363e-06,2.750325331435457e-07,4.481245893234393e-07,1.0091438508237387e-06,-9.179112678684096e-07,3.394905839138534e-07,6.189217910440208e-07,1.5908986793290995e-06,1.4019808032840803e-06,7.422725835633325e-07,6.352596602669836e-07,-6.655182670730088e-07,-1.0931317741876684e-06,-2.8644420771618694e-06,-8.024169509894125e-07,1.366751108109428e-07,8.315603426597527e-08,-8.228660579717408e-07
1.165555102526638e-06,4.0383789983327544e-07,4.391327908215327e-07,9.763356326999914e-07,-8.720967257853968e-07,3.902800272004011e-07,6.857984745955518e-07,1.5762219144771687e-06,1.3797791980081299e-06,7.644729684516859e-07,6.082739504862868e-07,-6.508111521210158e-07,-1.2195418695894344e-06,-2.9222759501626695e-06,-7.965423539226552e-07,1.1834821549232147e-07,3.5236298285549174e-08,-8.104995537747895e-07
1.1858180491936416e-06,5.14636133263632e-07,4.4591093368819637e-07,9.980994919713572e-07,-8.198028298261493e-07,4.544869671377771e-07,7.50809589716285e-07,1.6041752764378636e-06,1.3752267326054038e-06,7.948873427584363e-07,5.973087834147058e-07,-6.264888079857573e-07,-1.2961632208147127e-06,-2.978214278664608e-06,-7.778775195183763e-07,1.3248270979351705e-07,6.98421840021215e-09,-7.862353921446705e-07
1.1929256272982631e-06,5.973128020563877e-07,4.6873363490435854e-07,1.017085131026811e-06,-7.636403349005987e-07,5.354991390076317e-07,8.128927421642306e-07,1.7518393594036979e-06,1.3914446143391666e-06,8.279979980386621e-07,6.0602303626385e-07,-5.880464978060282e-07,-1.3388027038636868e-06,-3.02523718510661e-06,-7.48106705680465e-07,1.8253122688036828e-07,9.630006840266778e-11,-7.52846213834257e-07
1.1887511841618999e-06,6.464388069273553e-07,5.041266245239595e-07,1.0421939168661605e-06,-7.079625466836732e-07,6.344659522535804e-07,8.720913427107619e-07,1.886339053477895e-06,1.4257045172161623e-06,8.616960693185838e-07,6.338108989066652e-07,-5.31643657793183e-07,-1.3568411521353225e-06,-3.054358731159063e-06,-7.128376155286221e-07,2.6647040161394155e-07,1.1494742478449275e-08,-7.145267177442033e-07
1.1794381018223647e-06,6.632068300232117e-07,5.467060031455648e-07,1.065296209020362e-06,-6.562026934156309e-07,7.50498938038176e-07,9.308018934775997e-07,2.0470661190594497e-06,1.4718772943518446e-06,8.874356953288667e-07,6.756640559822755e-07,-4.563458553629357e-07,-1.3424457217189366e-06,-3.056860111397008e-06,-6.787914054762592e-07,3.783118696321333e-07,3.255608914274396e-08,-6.75170780227772e-07
1.174251309356724e-06,6.554330258196977e-07,5.903521049733725e-07,1.0770409098418206e-06,-6.102725004549187e-07,8.794267924193086e-07,9.924231061661322e-07,2.257010072511893e-06,1.522116713781748e-06,8.663354151733449e-07,7.227263018363896e-07,-3.6651723879721943e-07,-1.3136806929242233e-06,-3.0278497528186185e-06,-6.489645346203947e-07,5.087873362285658e-07,5.008396623618596e-08,-6.388168056920454e-07
1.1812307817082646e-06,6.313731008901091e-07,6.293036346286184e-07,1.12163927250597e-06,-5.707509042673706e-07,1.0133108766582032e-06,1.058657603348485e-06,2.5423064145306915e-06,1.568798166267804e-06,8.109058209188741e-07,7.644781724323803e-07,-2.7138539798322084e-07,-1.2701942876817968e-06,-2.9681877971193024e-06,-6.255214508663825e-07,6.472644611756524e-07,5.059751904602711e-08,-6.069862085409531e-07
1.20283852913213e-06,5.963199470539916e-07,6.600799661791444e-07,1.2298346868450546e-06,-5.362317470916868e-07,1.1421810361847996e-06,1.1280904300639305e-06,2.8007571856163083e-06,1.6072040839343605e-06,7.575849521065162e-07,7.92005090849303e-07,-1.8175516993936103e-07,-1.2204138194031456e-06,-2.883466342801325e-06,-6.074748469001268e-07,7.851292238155048e-07,2.5851976996175165e-08,-5.779246192085615e-07
1.235152357614539e-06,5.516578329027456e-07,6.825571415033428e-07,1.3474760194879299e-06,-5.033841363684496e-07,1.2558376590992272e-06,1.1959790676444524e-06,2.954672243601235e-06,1.636564377528671e-06,6.756943198641936e-07,7.999864722319706e-07,-1.0687274369652462e-07,-1.1771953892463373e-06,-2.7817048576290754e-06,-5.912269335765309e-07,9.172704684866028e-07,-2.455804919631756e-08,-5.47383901762213e-07
1.2709495503056952e-06,4.955389035309454e-07,6.989224246870623e-07,1.4591894504192364e-06,-4.6861972019979963e-07,1.3446226810634123e-06,1.2548503079500956e-06,2.9935068953706484e-06,1.658802349666294e-06,5.778188261554256e-07,7.86721940612556e-07,-5.245557642348961e-08,-1.1465249341423807e-06,-2.6710159945761104e-06,-5.726120794388079e-07,1.0416846627931203e-06,-9.43821848994372e-08,-5.08948631993669e-07
1.3045961309584547e-06,4.276538038647267e-07,7.123079539126783e-07,1.5662834813920279e-06,-4.290468505821514e-07,1.401339508614966e-06,1.2972553964204937e-06,3.0384995598118705e-06,1.6774836220385511e-06,4.766901197629837e-07,7.538014452040097e-07,-1.891727578902837e-08,-1.1293932187158558e-06,-2.5572652834918183e-06,-5.473144669414933e-07,1.1593589021285907e-06,-1.733719873945853e-07,-4.555425775380887e-07
1.3357747002714028e-06,3.531752625632063e-07,7.264361738651551e-07,1.6225853245944622e-06,-3.8185865363469263e-07,1.4244167667997413e-06,1.3197664384136052e-06,3.089051271658007e-06,1.697408039981073e-06,4.271910931336314e-07,7.059049247723428e-07,-9.211767906629198e-10,-1.1230094025089758e-06,-2.4428856273178605e-06,-5.097022084011107e-07,1.2738690781622378e-06,-2.501703676918458e-07,-3.8118963139926515e-07
1.3695521048565645e-06,2.83598833383228e-07,7.446129871113505e-07,1.6404582354182206e-06,-3.248667810584974e-07,1.4186456919824662e-06,1.3240126411125857e-06,3.1164242066348007e-06,1.722469716340023e-06,4.2945463979712097e-07,6.496101596464693e-07,9.876350200382665e-09,-1.1237266979823173e-06,-2.3282260051132206e-06,-4.554257708916717e-07,1.3882765076664717e-06,-3.154401404738735e-07,-2.843442598926369e-07
1.4124934472223683e-06,2.3316687571624315e-07,7.674375279749604e-07,1.6496373806263308e-06,-2.5889685714496043e-07,1.3924771027967363e-06,1.3138471140388414e-06,3.1076139708660507e-06,1.7524336678775712e-06,3.994306710757624e-07,5.916100210517732e-07,2.090307146504894e-08,-1.1293463405417262e-06,-2.2137950378291178e-06,-3.850168874911861e-07,1.501650412289464e-06,-3.63766393189856e-07,-1.7011278886553618e-07
1.4674325094789563e-06,2.1357794988764377e-07,7.920554780713986e-07,1.6463143264155898e-06,-1.8853648439808184e-07,1.3555113339521018e-06,1.293178344640434e-06,3.0272302355375577e-06,1.782718638980946e-06,3.941197579324431e-07,5.381563541009064e-07,3.731788786984437e-08,-1.1389242598621565e-06,-2.1003261700913016e-06,-3.023589565653366e-07,1.610511664559079e-06,-3.927842924793172e-07,-4.954063629523909e-08
1.5299645890127749e-06,2.2939607628146858e-07,8.144766936329213e-07,1.620718473356809e-06,-1.1967968327645193e-07,1.3177398678953752e-06,1.2669571364944149e-06,2.9503443028267113e-06,1.8078250269465627e-06,4.2811786445779503e-07,4.954568650504739e-07,6.284581816325176e-08,-1.1506810392000876e-06,-1.987058124262116e-06,-2.113339198982274e-07,1.7127827591709755e-06,-4.0118585978243644e-07,6.524797630298612e-08
1.5891324062346258e-06,2.764713034296024e-07,8.320674295503123e-07,1.5809341497640452e-06,-5.7205828082915474e-08,1.2877347067897647e-06,1.2419230261402447e-06,2.8481638295649473e-06,1.824193243092587e-06,4.834668750187729e-07,4.687337605716874e-07,9.958114991991074e-08,-1.1605321015981624e-06,-1.8714348259784624e-06,-1.1476519331503505e-07,1.808783342914466e-06,-3.8852147106625945e-07,1.6389847768314384e-07
1.630472092378976e-06,3.436347213214301e-07,8.436920380881768e-07,1.5312200450807473e-06,-4.958725128620954e-09,1.26920074768482e-06,1.2244814730672622e-06,2.7231868096742907e-06,1.8303277207846204e-06,5.302598314224296e-07,4.596148863718764e-07,1.4667944605408813e-07,-1.1623252481879579e-06,-1.750557978237548e-06,-1.4617910230569353e-08,1.899376085894753e-06,-3.5661715356184195e-07,2.4016503900239865e-07
1.6439257919407966e-06,4.144964665177504e-07,8.490935435106169e-07,1.478515242671785e-06,3.4377070586822394e-08,1.2597353958944403e-06,1.218367756528341e-06,2.6299641724896353e-06,1.8265403912561168e-06,5.604773437119241e-07,4.6434880569625e-07,2.005548977409783e-07,-1.148780825157002e-06,-1.6214652066842602e-06,8.66321226458966e-08,1.9851994146177787e-06,-3.102106174402331e-07,2.934496000615476e-07
1.6280050031170345e-06,4.728941451018191e-07,8.492094610577248e-07,1.4331574733290675e-06,6.082217987904819e-08,1.2533419589038437e-06,1.2246097333655527e-06,2.5475696818280963e-06,1.8154652288310845e-06,6.086824615743484e-07,4.746299353025318e-07,2.566575270362307e-07,-1.1128848759702513e-06,-1.4799779294332314e-06,1.879277621274154e-07,2.06807265772682e-06,-2.560840418449932e-07,3.297011378548968e-07
1.5892732121988804e-06,5.048625603880875e-07,8.459528654506353e-07,1.3960867393514286e-06,7.721496555522091e-08,1.2434032150955372e-06,1.2420238902563344e-06,2.4701458606888425e-06,1.801277706133028e-06,6.455574572078002e-07,4.803883819453649e-07,3.1067702649243334e-07,-1.0504438346162924e-06,-1.3216103115642518e-06,2.89249286329683e-07,2.1503864375305175e-06,-2.0150090677899974e-07,3.5948272984604535e-07
1.5423072152947383e-06,5.019054519131851e-07,8.406121723061632e-07,1.3611981489122763e-06,8.700586309371354e-08,1.2241376549220607e-06,1.26674407044776e-06,2.3928039884587376e-06,1.7874109549095962e-06,6.685906832325876e-07,4.732954182868361e-07,3.591030687851796e-07,-9.625515644200942e-07,-1.1454833688264684e-06,3.8937751366889354e-07,2.2327285433245666e-06,-1.5202920474039313e-07,3.9416486567626485e-07
1.5026590187977625e-06,4.6499068867881855e-07,8.330960975590738e-07,1.3273675380497693e-06,9.179399630147608e-08,1.1921891144916585e-06,1.292647973994501e-06,2.3000124452672255e-06,1.77544269605275e-06,6.900076547726274e-07,4.4994490685609654e-07,4.0028683389146363e-07,-8.554643354843847e-07,-9.574353666150752e-07,4.868436707125751e-07,2.3135061159295494e-06,-1.0928058508575888e-07,4.42145042294131e-07
1.4814351338304952e-06,4.008056141637467e-07,8.230861685347449e-07,1.2974975947893562e-06,9.250036058010729e-08,1.148455909622817e-06,1.3136261941736017e-06,2.19943165158441e-06,1.7657038705294809e-06,7.028980500126306e-07,4.1305227515538015e-07,4.3493268723589174e-07,-7.380583724355042e-07,-7.692771508308088e-07,5.803412557506298e-07,2.390373775928397e-06,-7.07847894453808e-08,5.068279097147708e-07
1.481996844260818e-06,3.209172597154951e-07,8.108831648042376e-07,1.2690630779518864e-06,9.037907552445902e-08,1.097763321945756e-06,1.3255888661930993e-06,2.1007574339219906e-06,1.7576589753672426e-06,7.153945478275284e-07,3.6960572945550854e-07,4.6477566344290823e-07,-6.19514399809261e-07,-5.949197507523008e-07,6.689431472098376e-07,2.461139580056248e-06,-3.270693438079244e-08,5.841666305648366e-07
1.5000766126747635e-06,2.3847013245970637e-07,7.968434948000433e-07,1.242187629862279e-06,8.646843299146655e-08,1.0464996013254311e-06,1.3271365767104833e-06,2.0093877229292298e-06,1.7500668900599555e-06,7.290705186667156e-07,3.274456038026419e-07,4.911429456607057e-07,-5.084148661558442e-07,-4.452423665813464e-07,7.528514520890197e-07,2.5253072403200143e-06,7.378118944925861e-09,6.700751737677085e-07
1.5280061934508131e-06,1.647329676488517e-07,7.811558783741673e-07,1.2173050962001175e-06,8.168264384067508e-08,1.0007671360819134e-06,1.319984273555687e-06,1.9296781193472677e-06,1.7421883166697786e-06,7.415866134467702e-07,2.926984592996466e-07,5.15069439561246e-07,-4.1230027547155425e-07,-3.2367686121146833e-07,8.350658959781483e-07,2.586889331443431e-06,4.999157991516225e-08,7.615291476514293e-07
1.5588322350627475e-06,1.0576404193730706e-07,7.644176855678563e-07,1.1935095856672354e-06,7.814967849710126e-08,9.652471150697578e-07,1.3088030945281747e-06,1.8638411806668078e-06,1.7346851504430942e-06,7.529023440789999e-07,2.6854694840378976e-07,5.375638283381879e-07,-3.371638928407934e-07,-2.2528214214299102e-07,9.211363656179387e-07,2.654445201739522e-06,9.436754714795826e-08,8.57591518020582e-07
1.5876142416802805e-06,6.107230059806641e-08,7.473018175863024e-07,1.171653873672002e-06,7.807802610017813e-08,9.415892988174693e-07,1.2992326311505303e-06,1.8108192480950081e-06,1.728526870027439e-06,7.630624982659947e-07,2.546341152264695e-07,5.588604972177896e-07,-2.8721640777310305e-07,-1.4025948792788717e-07,1.0162545692479572e-06,2.7369234598628175e-06,1.385529331007583e-07,9.60162918197886e-07
1.6101805087965685e-06,2.602154076237578e-08,7.295527779831654e-07,1.1522117853650668e-06,8.217178248546134e-08,9.278803348049954e-07,1.2956595340626064e-06,1.766657520201612e-06,1.7238908225209774e-06,7.721523070378271e-07,2.4746076769121165e-07,5.783692060878338e-07,-2.6468837045848166e-07,-5.877511852098405e-08,1.12253391640274e-06,2.8397961568019263e-06,1.796780906208179e-07,1.0705153207099117e-06
1.621127376274798e-06,-6.077222583740028e-09,7.104044832405665e-07,1.135386519507078e-06,9.05436227637105e-08,9.209407091588988e-07,1.3012717170568816e-06,1.7279776049436223e-06,1.721239008128072e-06,7.802372335862249e-07,2.4221646397834417e-07,5.961678075000452e-07,-2.694368908674062e-07,2.6530709401306837e-08,1.231441499676546e-06,2.9687913280640553e-06,2.1492711435724e-07,1.1803445931587592e-06
1.615718087439486e-06,-4.1568787235646936e-08,6.899186879349845e-07,1.1219197959878722e-06,1.0394554354101342e-07,9.189348767846336e-07,1.319150994255815e-06,1.6943833829944992e-06,1.7224455119944663e-06,7.873777965533559e-07,2.347150353775415e-07,6.13712518956838e-07,-2.990504093613984e-07,1.2020362736014386e-07,1.3419585944847014e-06,3.1218683629670507e-06,2.4187631123977814e-07,1.2913248639089639e-06
1.5917912123204678e-06,-8.424230199246784e-08,6.688239520404466e-07,1.1120166567269715e-06,1.232994428277118e-07,9.210373679619174e-07,1.3515874359793477e-06,1.6661171575476346e-06,1.729457448941009e-06,7.932545153751691e-07,2.2191933855865767e-07,6.325960333251956e-07,-3.4952984914143525e-07,2.2394935438827331e-07,1.45239264501576e-06,3.2897755705099057e-06,2.581170368569077e-07,1.403355289554904e-06
1.555003643215201e-06,-1.3224955501150356e-07,6.473127399456917e-07,1.1037837385665183e-06,1.48041025549197e-07,9.256212527419807e-07,1.3984333177089709e-06,1.6406066040457409e-06,1.7424245027484739e-06,7.972281523943583e-07,2.0167900851782983e-07,6.536900942281249e-07,-4.1522114347340025e-07,3.369551690132741e-07,1.5694801639971362e-06,3.465716784727059e-06,2.612330000232646e-07,1.5128086199660135e-06
1.51163255244385e-06,-1.782332146595062e-07,6.252443822540925e-07,1.093242907541987e-06,1.7630574210345193e-07,9.301843200442461e-07,1.457194950183303e-06,1.6128874206434852e-06,1.759898244697706e-06,7.993632511762844e-07,1.7307441052607693e-07,6.779064359217309e-07,-4.878105052920106e-07,4.568873878565071e-07,1.675518209302327e-06,3.639280209384727e-06,2.539862706429978e-07,1.611934372957061e-06
1.4704835129957328e-06,-2.1284990892358221e-07,6.032741109123429e-07,1.0761397064012975e-06,2.0621610914973652e-07,9.325210402949516e-07,1.524382689549714e-06,1.578411628865197e-06,1.7797546219318685e-06,8.010795779144788e-07,1.3707918697838528e-07,7.063574410165977e-07,-5.566598173704298e-07,5.802181692264823e-07,1.7691790814245132e-06,3.7995608838106754e-06,2.4285370211079627e-07,1.6939563306553407e-06
1.4406199584289972e-06,-2.3045731670786386e-07,5.825194442322153e-07,1.0498166795033685e-06,2.3594078740098379e-07,9.311069942745045e-07,1.5959401681159294e-06,1.5348148330916655e-06,1.799094255188895e-06,8.042328574941442e-07,9.651864047569011e-08,7.389058574471443e-07,-6.120115598888784e-07,7.016531121993403e-07,1.8622015638995193e-06,3.938065926914774e-06,2.3537547044886786e-07,1.7536870193859815e-06
1.4213587706026921e-06,-2.377986784628628e-07,5.632995578899374e-07,1.0143699341650335e-06,2.629410542594541e-07,9.253891538186874e-07,1.6673166801369695e-06,1.48291845052098e-06,1.8147209427272397e-06,8.095996902251975e-07,5.547045440887102e-08,7.734452256459398e-07,-6.490105032593805e-07,8.149274807411856e-07,1.9445194394907756e-06,4.049484182046976e-06,2.3759233964307976e-07,1.7977784591548627e-06
1.4148180317563838e-06,-2.329847405629223e-07,5.452055918010743e-07,9.734018069550437e-07,2.8506006013517893e-07,9.169738714318047e-07,1.734651786507071e-06,1.4284053872568512e-06,1.8252122840655303e-06,8.162746555015936e-07,1.848406857611727e-08,8.070173153463627e-07,-6.692437370300535e-07,9.155470111613432e-07,2.0180182556896443e-06,4.1353750434801224e-06,2.5158622775677017e-07,1.8273511754614855e-06
1.4221902784506508e-06,-2.1526446388156963e-07,5.279369156902506e-07,9.336093507159442e-07,3.0143619801429273e-07,9.098474689045651e-07,1.795519691896395e-06,1.38143036449996e-06,1.8318755921901178e-06,8.219605881093518e-07,-1.0745941762597428e-08,8.368010353528626e-07,-6.789001012990725e-07,1.0023757436243358e-06,2.0823442603049933e-06,4.206923107154993e-06,2.760482468255665e-07,1.843663059875624e-06
1.442314151647871e-06,-1.836235050797842e-07,5.110174092023865e-07,9.022693180531027e-07,3.1236403616294495e-07,9.083930506710888e-07,1.8474012230357996e-06,1.3526774987332346e-06,1.836850616047267e-06,8.235926384617126e-07,-3.07996368762057e-08,8.601665871531055e-07,-6.848990376957416e-07,1.0759635679596058e-06,2.1314634176966736e-06,4.271941415888605e-06,3.070931702614632e-07,1.8508723352971602e-06
1.4646714729758669e-06,-1.3820089377002361e-07,4.9323163822153e-07,8.84054865479652e-07,3.1765922270496523e-07,9.155365865310197e-07,1.8858506786505476e-06,1.3499659988542815e-06,1.840990812356662e-06,8.183944882113382e-07,-4.2510872333236646e-08,8.753557670042053e-07,-6.90848294681816e-07,1.1356194724676843e-06,2.159436958940241e-06,4.328412599858692e-06,3.4000843138123175e-07,1.8475148131800455e-06
1.4846057664503408e-06,-8.097969914364739e-08,4.733578110718787e-07,8.79695801881372e-07,3.1763803421676695e-07,9.327990292782861e-07,1.9049423839465998e-06,1.377688965489201e-06,1.8438349022646874e-06,8.050559951201284e-07,-4.7419968187187796e-08,8.82820083810049e-07,-6.949417872436946e-07,1.1779410205779576e-06,2.165215802712919e-06,4.368218365275244e-06,3.7265400116621973e-07,1.835207788033824e-06
1.4992982913978823e-06,-1.4053898531681127e-08,4.5100697989535847e-07,8.867372016902678e-07,3.117465622226938e-07,9.604706552424644e-07,1.8989049645676797e-06,1.4369288902019555e-06,1.8439349694721912e-06,7.839500259953943e-07,-4.650830337286226e-08,8.85323576425766e-07,-6.913319094325944e-07,1.1971861418098052e-06,2.1426979305926894e-06,4.3792422156082474e-06,4.0352734705168264e-07,1.814119370535122e-06
1.5072085371211654e-06,5.661101031563673e-08,4.261459657453977e-07,9.009625329824033e-07,2.989557787311548e-07,9.966442398628422e-07,1.863035016776764e-06,1.524186120454851e-06,1.839360965696285e-06,7.563573122522012e-07,-4.0142175399709226e-08,8.867916276262923e-07,-6.739109009158329e-07,1.187112380869484e-06,2.084282992130684e-06,4.350846200263876e-06,4.3235129766996873e-07,1.7829343219700674e-06
1.5199680062916286e-06,1.2470157244120131e-07,3.986309032236964e-07,9.178511674809637e-07,2.7836274217915965e-07,1.036925508043267e-06,1.7954697736574258e-06,1.630647018787723e-06,1.828929533125663e-06,7.240048445536473e-07,-2.8425798636837964e-08,8.915305952374596e-07,-6.394458153678471e-07,1.1440803753760592e-06,1.993143629729201e-06,4.280530319894148e-06,4.6033343529262867e-07,1.7387928120431298e-06
1.538244835935221e-06,1.7973214744410527e-07,3.6883329318273776e-07,9.338589755953128e-07,2.494143440585426e-07,1.0757186802200445e-06,1.6951218032217861e-06,1.745246427150524e-06,1.8125551635143767e-06,6.893043819096941e-07,-1.1535708136015602e-08,9.035905626410702e-07,-5.884946953367015e-07,1.0698918025864253e-06,1.892774392782128e-06,4.168116554090913e-06,4.895993238932753e-07,1.7049226248448998e-06
1.559650091768813e-06,2.0560434906524866e-07,3.378450925099447e-07,9.467979205632886e-07,2.1554447265252412e-07,1.1073255146537356e-06,1.5713668141311919e-06,1.8555256292686593e-06,1.7916063365435322e-06,6.552294216538922e-07,9.599975973846321e-09,9.252388684368736e-07,-5.249779399179928e-07,9.724030377931656e-07,1.79436930824444e-06,4.0312596230936476e-06,5.230488800290174e-07,1.684122059221633e-06
1.5710361856572134e-06,1.9307647652564322e-07,3.066010585595794e-07,9.55456321012058e-07,1.7859025043479622e-07,1.1264687947008484e-06,1.4339729372525356e-06,1.948949338812017e-06,1.770480379473842e-06,6.244234834748351e-07,3.2786677383754346e-08,9.558552443317704e-07,-4.5513917326412293e-07,8.640170045696915e-07,1.7122714013445476e-06,3.90163115978392e-06,5.627323071331652e-07,1.6740292381370065e-06
1.5694384813033495e-06,1.4592851428531994e-07,2.757730097161485e-07,9.603384165417372e-07,1.4113824931927356e-07,1.1298752224443847e-06,1.2953127552866788e-06,2.0172133431457525e-06,1.751914534472269e-06,5.98377416126641e-07,5.5193193589753514e-08,9.928091500827636e-07,-3.856545644223256e-07,7.590548915330641e-07,1.6406675482137854e-06,3.795904520142447e-06,6.097254844338213e-07,1.6813594010635545e-06
1.555457441586189e-06,9.222704952623684e-08,2.4684993600973325e-07,9.630669841014991e-07,1.0646678830641105e-07,1.1183082841637826e-06,1.17094676874582e-06,2.0580039256902757e-06,1.7402969792409079e-06,5.771073644460167e-07,7.461440463296601e-08,1.0329157766813634e-06,-3.21557840039102e-07,6.699004746734996e-07,1.6190880639817225e-06,3.7262209518411743e-06,6.626192465591989e-07,1.7077419203333744e-06
1.5160541177028708e-06,2.8423309993269584e-08,2.2219163576820442e-07,9.66833502169391e-07,7.710828761578375e-08,1.0965277280997252e-06,1.0728582585565059e-06,2.07574311844981e-06,1.7387827017735283e-06,5.590612101401715e-07,8.998644436247652e-08,1.0727290076950185e-06,-2.6552170399174344e-07,6.028197646049019e-07,1.6452653505335982e-06,3.6943805929013104e-06,7.177460566043413e-07,1.7461544247522283e-06
1.4620389549538366e-06,-3.848235091429336e-08,2.0350602316080367e-07,9.751483310919377e-07,5.4368243736053826e-08,1.071324870757468e-06,1.0085020769290601e-06,2.078995685217575e-06,1.7461126462839172e-06,5.414770368330634e-07,1.0109324228785485e-07,1.1086931784053528e-06,-2.1875603903162018e-07,5.56555533768934e-07,1.6790646620169306e-06,3.68841081532706e-06,7.686640053930938e-07,1.786843638312788e-06
1.3929199060087169e-06,-9.308224833100723e-08,1.9086557308839111e-07,9.92977789154808e-07,3.5193853773739756e-08,1.0497569358985758e-06,9.777822558304848e-07,2.077790536429534e-06,1.7598509593579986e-06,5.215137401673992e-07,1.08028217695987e-07,1.138109030994609e-06,-1.8245873761196847e-07,5.247776721159054e-07,1.7194301268475007e-06,3.6949586991058855e-06,8.077691470429651e-07,1.8028078785135905e-06
1.2958494991987269e-06,-1.541936413295511e-07,1.8304610887449815e-07,1.0196027383936636e-06,1.840981375347784e-08,1.0376199404064195e-06,9.747139559198764e-07,2.081373112490008e-06,1.776272052989916e-06,4.973407000315418e-07,1.1258093282481179e-07,1.1594057494273741e-06,-1.5906724617953226e-07,4.993385432741591e-07,1.7445389578719664e-06,3.7040849808065143e-06,8.292673809303331e-07,1.788184225708118e-06
1.193997407745735e-06,-2.2026340399353208e-07,1.7796756602356976e-07,1.054075753469994e-06,2.61582680457765e-09,1.0375171450840041e-06,9.87094863480776e-07,2.0952840139761856e-06,1.7925001967050248e-06,4.6823581305792665e-07,1.1561566786884175e-07,1.171156842101302e-06,-1.5275978872668362e-07,4.7189091701159616e-07,1.7452130725649704e-06,3.7052250904233342e-06,8.301389984157064e-07,1.7504821926249333e-06
1.0978433067977518e-06,-2.937266250589225e-07,1.731345470293453e-07,1.092842118228547e-06,-1.3864729816797704e-08,1.0482891095383606e-06,1.0012840747010192e-06,2.1205331671199543e-06,1.806467914749472e-06,4.3416319987604497e-07,1.1812611576442611e-07,1.1719216961706658e-06,-1.6845718725413744e-07,4.350004598111822e-07,1.726763726053112e-06,3.690381009348938e-06,8.106117872357414e-07,1.6971013774369566e-06
1.0227209756615174e-06,-3.7014325189839225e-07,1.6673578667947308e-07,1.1353712436338574e-06,-3.1584481547024146e-08,1.0670205183768968e-06,1.0053090306522106e-06,2.15575262168306e-06,1.8182208250949298e-06,3.9565525089976203e-07,1.2044512458232402e-07,1.1615269817802408e-06,-2.0984073373671166e-07,3.8381649346407584e-07,1.6938853586537091e-06,3.661460543082176e-06,7.764704296125141e-07,1.639696889335907e-06
9.870531930405784e-07,-4.639963391821257e-07,1.5835172474738745e-07,1.182661954310066e-06,-4.8531943763262506e-08,1.0913381723344218e-06,9.917471458957763e-07,2.199861200710868e-06,1.8292574016871745e-06,3.537289761099777e-07,1.2352967975953047e-07,1.1416462502450386e-06,-2.7811863482029775e-07,3.17095308808904e-07,1.6420737560563002e-06,3.6249102805279123e-06,7.336947087051899e-07,1.5847832697295656e-06
9.900333206804455e-07,-5.35821073174744e-07,1.4823573895785366e-07,1.235882286232192e-06,-6.446357784022975e-08,1.1201905517504564e-06,9.590241789842217e-07,2.2520721916379404e-06,1.8414403889914023e-06,3.095996341759936e-07,1.2789122348251772e-07,1.1151491403140464e-06,-3.716112761795383e-07,2.3694897576040636e-07,1.5775352405565244e-06,3.588460829634208e-06,6.85631451151186e-07,1.5343093789337147e-06
1.0271829302259422e-06,-5.829015339767214e-07,1.3656427595316797e-07,1.291625133059327e-06,-7.807118176276172e-08,1.1545291508813916e-06,9.091877022483001e-07,2.312621996090096e-06,1.8526573907472608e-06,2.6487860418748015e-07,1.3277126864635537e-07,1.0860026383201174e-06,-4.844143660672421e-07,1.4834465315049955e-07,1.5119896369036403e-06,3.55743747514233e-06,6.337104927110779e-07,1.4897755517593172e-06
1.071291790086668e-06,-6.690615305190068e-07,1.2375638600154754e-07,1.320524401910237e-06,-8.921080125994963e-08,1.198079506714798e-06,8.408909181474437e-07,2.3841653590685015e-06,1.8614966345970434e-06,2.2218136130947562e-07,1.3651440225258462e-07,1.0594704020957698e-06,-6.044468355911698e-07,5.84795047923065e-08,1.4449780984683013e-06,3.5336257385545757e-06,5.775396585177472e-07,1.4561356293009628e-06
1.1116503264938574e-06,-8.275124427120421e-07,1.102463813829073e-07,1.3280248279926703e-06,-9.602551038938786e-08,1.2554446098527045e-06,7.840884892411983e-07,2.4689009644265813e-06,1.8665099002879715e-06,1.8475465630380606e-07,1.3776657482170715e-07,1.0406043372833374e-06,-7.138772977020692e-07,-2.62902386897308e-08,1.365452828427968e-06,3.523347859845375e-06,5.135992285813596e-07,1.4179918402495478e-06
1.1474487449296543e-06,-9.089983533106917e-07,9.489579632325353e-08,1.283123061159125e-06,-1.0328440354876932e-07,1.327688642617284e-06,7.199560975234242e-07,2.5636509283816874e-06,1.8635395101585876e-06,1.5490010133555415e-07,1.3459318594052167e-07,1.03192374410984e-06,-7.896482127420353e-07,-9.601585428502482e-08,1.2752413231170478e-06,3.518083559678246e-06,4.3683409073074373e-07,1.3764528207879999e-06
1.1812589042864801e-06,-9.511738167581425e-07,7.453857600861904e-08,1.1859058692245274e-06,-9.960592367734372e-08,1.4100460767547927e-06,6.611479473241266e-07,2.658372248734313e-06,1.8425675468313181e-06,1.3295816110140694e-07,1.2415997941864132e-07,1.0330900165277944e-06,-8.16878655124834e-07,-1.4816226375168957e-07,1.174585379388324e-06,3.500355952910428e-06,3.439819669643754e-07,1.3366507336634144e-06
1.226309978163625e-06,-9.687319849434159e-07,4.622574467612105e-08,1.1334385619541191e-06,-9.013563776100107e-08,1.4939311556654037e-06,6.213249139325662e-07,2.7400177729856568e-06,1.816635649483076e-06,1.1782407148129778e-07,1.0516246175397823e-07,1.042240721247791e-06,-7.890099366265054e-07,-1.827969297471819e-07,1.0769539742299827e-06,3.4669874054905735e-06,2.4618876995578503e-07,1.3022207325722716e-06
1.306530981391498e-06,-9.73994088251795e-07,9.73035321763726e-09,1.1013393790204867e-06,-7.974334430305553e-08,1.5702778768279815e-06,5.98278423570263e-07,2.7981170788157205e-06,1.7834935446989193e-06,1.0791487672624507e-07,7.815953297572732e-08,1.056565920544169e-06,-7.109534426436845e-07,-1.9965068652006777e-07,9.69186750970825e-07,3.4201537686023072e-06,1.469034757954267e-07,1.2752113921780126e-06
1.4127665105063191e-06,-1.0143049330895765e-06,-3.2069214188059105e-08,1.0698345697704167e-06,-7.232228279940105e-08,1.63202788049841e-06,6.057594466810335e-07,2.8276081282571546e-06,1.7394129182837093e-06,1.0167116115039852e-07,4.568881131626353e-08,1.072339976311671e-06,-5.949297533668989e-07,-2.0161434380684435e-07,8.632640458699709e-07,3.36617413497481e-06,6.049464152526479e-08,1.2581353398768329e-06
1.5259798084746983e-06,-1.079243962588485e-06,-7.402110095891768e-08,9.902217770318177e-07,-8.099267283676081e-08,1.678604847517539e-06,6.458651655130362e-07,2.8336247026956236e-06,1.7108154075056044e-06,9.780543648599279e-08,1.4180318279402156e-08,1.0859059718613847e-06,-4.5614237448643047e-07,-1.9138316354105648e-07,7.878359455490479e-07,3.312576843880259e-06,9.464579444987032e-10,1.2507808566581905e-06
1.6395521232905956e-06,-1.0981910100451817e-06,-1.0973845266620097e-07,8.495602739576407e-07,-7.878353991605146e-08,1.7136585689638623e-06,7.322311668594694e-07,2.8268032712648023e-06,1.6865051475880128e-06,9.507230769720867e-08,-1.0595321065045642e-08,1.0945499919830207e-06,-3.172460830094565e-07,-1.7311020300461542e-07,7.27301776056553e-07,3.2687705120612427e-06,-2.8703065500075546e-08,1.2635030400142463e-06
1.7282232227677117e-06,-1.0501687500421353e-06,-1.3426216006822267e-07,7.934728582398772e-07,-7.219101232899403e-08,1.7450932880418676e-06,8.188867739782003e-07,2.8237221526900837e-06,1.7167974586713025e-06,9.106516791155523e-08,-2.5603984201912343e-08,1.09589885569327e-06,-2.0252255888443554e-07,-1.4622103060124593e-07,6.946188329038888e-07,3.246114606270665e-06,-3.0531844276025315e-08,1.2940409266629403e-06
1.7809958184422501e-06,-1.0405250994209397e-06,-1.4457197279843246e-07,8.001342318687152e-07,-8.566997335422892e-09,1.7800442584047813e-06,9.56706005677586e-07,2.8359356445706744e-06,1.7984166828372224e-06,8.122915225982713e-08,-3.1335654686617956e-08,1.087493989346726e-06,-1.6074144329811578e-07,-1.0954852252346616e-07,6.860839155286319e-07,3.222352368746986e-06,-1.9520791771774523e-08,1.3272402748116284e-06
1.8007922649403146e-06,-1.053852620358297e-06,-1.417564472661125e-07,8.272759148249149e-07,1.3259455209712841e-07,1.828215348657972e-06,1.1276109817694724e-06,2.875767067210294e-06,1.8849945179836025e-06,5.99604460869674e-08,-3.1457829225234694e-08,1.0680770395563455e-06,-2.2215713637085544e-07,-5.9519943326435326e-08,6.967292626532679e-07,3.2138230660671994e-06,-1.2473474315582143e-08,1.363277382115543e-06
1.7919638293239968e-06,-1.050671306565994e-06,-1.2816816383491362e-07,8.319321976614089e-07,2.4157605229803616e-07,1.8958202958925552e-06,1.3102660388747513e-06,2.9537136565982236e-06,1.9109141689110444e-06,2.3399141019912704e-08,-3.0395859072018256e-08,1.0387221418217952e-06,-3.9577358938066153e-07,8.446843873584025e-09,7.542864018560652e-07,3.2478706525292606e-06,-2.0662676704452997e-08,1.3981841904601623e-06
1.7545323787711172e-06,-1.0742378385191934e-06,-1.0528176279050619e-07,8.258382483774652e-07,3.161068215793822e-07,1.9870547982061976e-06,1.5148422823879023e-06,3.073613588286499e-06,1.9254913781837302e-06,-2.8325138478844383e-08,-3.231102978123879e-08,1.0020230035974267e-06,-5.43618918782114e-07,9.433444704691632e-08,8.49388778734939e-07,3.3211853683527002e-06,-5.1034712200432375e-08,1.4286234321560623e-06
1.7073246883867096e-06,-1.149004903767406e-06,-7.488095265221596e-08,8.999269214741803e-07,3.8669092599679213e-07,2.096266126484006e-06,1.7125391915173994e-06,3.2305297457432914e-06,1.981090825575088e-06,-9.062780416945719e-08,-3.757606006193298e-08,9.608555349487424e-07,-6.079371474442841e-07,1.9195289898276558e-07,9.659886188254696e-07,3.4635540015474108e-06,-1.1241046871220285e-07,1.4547811273162898e-06
1.664694931666922e-06,-1.2200375116485521e-06,-3.8883144272327245e-08,9.735367587486499e-07,4.4473735245231684e-07,2.1944115930831267e-06,1.891371352713948e-06,3.3843901022362083e-06,2.051119169655491e-06,-1.5558524419346104e-07,-4.550358868914788e-08,9.181776814892649e-07,-6.96458395575916e-07,2.994109160388342e-07,1.077428053485864e-06,3.667592402727152e-06,-1.7453869570078572e-07,1.4721482001913348e-06
1.6283178778211517e-06,-1.1708823884643921e-06,1.3232287657644484e-09,1.0755948808992714e-06,5.496117132641992e-07,2.2680648309569643e-06,2.0309662241729828e-06,3.516654813699106e-06,2.1414194986103543e-06,-2.1428954582722147e-07,-4.576167465061616e-08,8.766259481194153e-07,-8.274969003276768e-07,4.1018856374389485e-07,1.1725387511846624e-06,3.879006390344116e-06,-2.46590126455029e-07,1.4854176851589645e-06
1.604374685950443e-06,-1.104845340209877e-06,4.740859328705068e-08,1.1916932945528256e-06,6.872839785206443e-07,2.293381745806596e-06,2.157223365907459e-06,3.590294359852497e-06,2.229963161198803e-06,-2.5971799262541765e-07,-3.890084670393484e-08,8.373799165709964e-07,-9.85348629813514e-07,5.298019377714744e-07,1.2556026598430912e-06,4.036046033824732e-06,-3.054583663107818e-07,1.486424534382855e-06
1.5925874865460037e-06,-1.0261553838242944e-06,8.848346893356524e-08,1.2849108144940434e-06,7.567332042281573e-07,2.2400724075722905e-06,2.2290249209515856e-06,3.551593754483492e-06,2.3062430619446957e-06,-2.885589504844782e-07,-2.916493606767284e-08,8.001890566471304e-07,-1.1096694637917056e-06,6.18718211424606e-07,1.3360607587639182e-06,4.104602832944191e-06,-3.267422337251868e-07,1.4786965677004747e-06
1.5910664090595076e-06,-9.501313365690898e-07,1.1988733385847336e-07,1.3587647277970348e-06,8.14577747332217e-07,2.2244343688363624e-06,2.2627960811094157e-06,3.562298798605786e-06,2.32927181162385e-06,-3.0107804325219754e-07,-2.0494274479660398e-08,7.649615413291686e-07,-1.1430580503396462e-06,6.802503098354033e-07,1.4315222357345267e-06,4.058704919637964e-06,-2.922827634028704e-07,1.4766752608709439e-06
1.5994663504501688e-06,-8.908510131026205e-07,1.3973440001596786e-07,1.421401543528149e-06,8.838812296730105e-07,2.2197853626876175e-06,2.2823603441012968e-06,3.585328061232467e-06,2.3597060446099975e-06,-2.999538734835233e-07,-1.9148076523303326e-08,7.326065055071788e-07,-1.1712922381230605e-06,7.219732361677053e-07,1.521805036311623e-06,3.984192747856936e-06,-1.8971916925376232e-07,1.4688019169949151e-06
1.6164071654838324e-06,-8.416704672664834e-07,1.369634740784205e-07,1.4070084038964282e-06,9.27368817358049e-07,2.2047502414897984e-06,2.2880165194617493e-06,3.6164713184415773e-06,2.4166847393415477e-06,-2.89300924529725e-07,-9.432428456584182e-09,7.04516983811361e-07,-1.209212627851529e-06,7.482803012732826e-07,1.6055489249489303e-06,3.9273917852003996e-06,-1.0648067347192973e-07,1.4620740370473774e-06
1.6312220216368583e-06,-8.18873114270486e-07,1.264275700833314e-07,1.3631863533850951e-06,9.725378731638224e-07,2.11350444320242e-06,2.3042941102506977e-06,3.5188106528973897e-06,2.458523722671613e-06,-2.7366183002390226e-07,2.04181417613823e-08,6.828572583727657e-07,-1.2486424275373353e-06,7.853456755846813e-07,1.6676341966291222e-06,3.898231037709485e-06,-4.266470864436904e-08,1.4419135109236545e-06
1.6319029186922773e-06,-6.866416421908761e-07,1.1308248636740549e-07,1.32725891201404e-06,1.002285835646761e-06,2.055238859012781e-06,2.3366088715658556e-06,3.4792659113933375e-06,2.4676984863542566e-06,-2.5649423710877275e-07,9.079947520181502e-08,6.719113742205053e-07,-1.2875951639100824e-06,7.765230491925202e-07,1.69117120494961e-06,3.8121431663852573e-06,-2.4209504008473073e-08,1.3978556060284557e-06
1.6103342550355749e-06,-4.874144202645278e-07,9.468751621670517e-08,1.3661565067739348e-06,9.714775283694698e-07,2.0808701216905235e-06,2.3880274835102362e-06,3.5848511865663295e-06,2.454018167343083e-06,-2.389399517482036e-07,1.9119158168449222e-07,6.778859452073289e-07,-1.2559054637763982e-06,7.298209122832667e-07,1.6564361278915443e-06,3.7041545063360154e-06,2.6950232016169033e-08,1.3022357408376443e-06
1.5645385117693558e-06,-3.972519061360698e-07,8.646098098963947e-08,1.465506063948938e-06,9.113295905864458e-07,2.16017584757085e-06,2.447211018533015e-06,3.6789686005350143e-06,2.438674039565683e-06,-2.1964691595169712e-07,2.774662794999979e-07,7.065934088848696e-07,-1.1464180755257834e-06,5.6275648251242e-07,1.588859151868046e-06,3.551253124469436e-06,5.4802056162259214e-08,1.164785863110139e-06
1.5019734063641535e-06,-4.168039673773612e-07,1.0615206795918828e-07,1.5560667045126012e-06,8.532546060722733e-07,2.2375435492496677e-06,2.5169022797665617e-06,3.738225270145498e-06,2.4281842532344742e-06,-1.9516468241277027e-07,3.4861288065869344e-07,7.614417432672111e-07,-1.0349447708930573e-06,2.6931301948492214e-07,1.489146200243883e-06,3.43425207675957e-06,8.122175355385743e-08,1.0744724008182265e-06
1.4359589673681942e-06,-4.157469038522711e-07,1.304311552905272e-07,1.636206502308845e-06,7.872112672867163e-07,2.333440245231154e-06,2.585809717421677e-06,3.823168864232114e-06,2.435068529788025e-06,-1.6071017311466667e-07,4.0900011416607406e-07,8.424695029321192e-07,-9.357058874343484e-07,8.143885965249765e-08,1.3524943697719566e-06,3.336969375620448e-06,1.2782933515704501e-07,1.0033542288941864e-06
1.3777290900067073e-06,-3.7951800124531546e-07,2.16076557577927e-07,1.7299250207253286e-06,7.465564211911141e-07,2.4291061613197346e-06,2.645262719128294e-06,3.903126387245413e-06,2.458622340947584e-06,-1.1217656577529039e-07,4.6005706957770745e-07,9.448650117555574e-07,-8.31149229107517e-07,-4.4829050587312323e-08,1.2397921966644292e-06,3.2371128953970897e-06,1.716141148581765e-07,9.540921678285869e-07
1.3369885846018874e-06,-3.5474460901729705e-07,2.816259502077223e-07,1.7963462673676486e-06,7.476752876735531e-07,2.5319058391615266e-06,2.69677472665233e-06,4.028618971703588e-06,2.4838439985451644e-06,-4.9107489638106386e-08,5.16476839113894e-07,1.057671321631506e-06,-7.706661707982998e-07,-1.4178977187582647e-07,1.0852553082543675e-06,3.1576099674959695e-06,2.4634720113490026e-07,9.207599329349792e-07
1.3193513759149795e-06,-2.6346727243185813e-07,3.479243833229133e-07,1.922655503322006e-06,7.616320772437231e-07,2.644247466068331e-06,2.7362914892599022e-06,4.0795562562166655e-06,2.4916872817345666e-06,2.369645519870968e-08,5.87126573292943e-07,1.1655925913448642e-06,-7.307756428380234e-07,-2.0333774062571258e-07,9.116742960889305e-07,3.075329096986589e-06,3.4920501594785984e-07,8.864870675317049e-07
1.3257668082154561e-06,-1.5067171047553988e-07,4.313346207724565e-07,1.994126127030603e-06,7.414852471190701e-07,2.7215833750056275e-06,2.7637892550131385e-06,4.0571079024079105e-06,2.461675653326507e-06,9.753036199727175e-08,6.259269328123364e-07,1.2537781786770843e-06,-6.932411819303892e-07,-4.092814872416908e-07,7.515946661807897e-07,2.9501581361154505e-06,4.072003866127721e-07,8.160590633222456e-07
1.3564430773461025e-06,-6.875403941807941e-08,4.7051942474636746e-07,2.019102965570743e-06,7.211530007469035e-07,2.7456719253537306e-06,2.7781012765825644e-06,4.00607631033864e-06,2.4335597094471963e-06,1.6306691107998342e-07,6.650649634257927e-07,1.3120677154934268e-06,-6.621886901777616e-07,-7.054919849042088e-07,5.683520449133788e-07,2.8358918244729563e-06,4.4240127286596e-07,7.517490396538796e-07
1.4072897915187014e-06,-1.8749014883779012e-08,5.00039638649691e-07,2.027851477641493e-06,6.178889838154611e-07,2.7724233893622967e-06,2.775021813864376e-06,3.9466037925517e-06,2.4075010752593247e-06,2.1375935746549254e-07,6.973656220698731e-07,1.3369953088324043e-06,-6.302313898224577e-07,-8.449898887634689e-07,4.624962592639683e-07,2.6956981223911073e-06,4.588465535227266e-07,6.7912475759837e-07
1.4690871801073757e-06,-2.782287356537976e-08,5.242285823292167e-07,2.015380781756795e-06,5.225473084816093e-07,2.757083318135224e-06,2.750163005463863e-06,3.861470161043866e-06,2.3633462609562388e-06,2.48400045040598e-07,7.215478268810141e-07,1.3325245363365791e-06,-6.044406699514375e-07,-9.65722468369826e-07,4.5054834124236105e-07,2.5117547342555936e-06,5.123501400908053e-07,6.119165798109867e-07
1.5227791529133893e-06,-8.164673756460356e-08,5.049458968567474e-07,2.0253090336025284e-06,4.423900530718323e-07,2.7496327004251194e-06,2.702367479810474e-06,3.8052614592313423e-06,2.3213408511685775e-06,2.717131665200828e-07,7.538269637695002e-07,1.3091555078990894e-06,-5.875535304910915e-07,-1.1289981056401883e-06,3.812840576725448e-07,2.3289943446162722e-06,5.305916085816475e-07,5.030890517421632e-07
1.5547905391061735e-06,-1.5063729103479283e-07,4.793847528610018e-07,2.063585712204245e-06,3.5917907940943604e-07,2.761701663734058e-06,2.636032208327629e-06,3.6962469784020122e-06,2.2570266052333762e-06,2.917261681903828e-07,8.060198769437318e-07,1.2800871610036475e-06,-5.7498363877055e-07,-1.3386191758399422e-06,3.5868447546176246e-07,2.150698697194204e-06,5.41836867126894e-07,3.748128137112637e-07
1.5486187193516552e-06,-1.9850368916955765e-07,4.702602042460362e-07,2.030358935058644e-06,2.789028661275106e-07,2.7069694601581566e-06,2.559243404751056e-06,3.5330162055770278e-06,2.181205790598417e-06,3.139440993603279e-07,8.260563885371498e-07,1.2562051624226938e-06,-5.622982084265004e-07,-1.596020667664541e-06,4.06731149131568e-07,1.9904613220280105e-06,5.856826219686983e-07,2.770708762297007e-07
1.560283181391795e-06,-2.184934286720607e-07,4.7613330984087137e-07,1.996903272629359e-06,2.1616141053456499e-07,2.609546965897291e-06,2.480491250919519e-06,3.3202317579787943e-06,2.112350858331405e-06,3.397673620028656e-07,8.510529545302363e-07,1.2433254885699468e-06,-5.461374370922881e-07,-1.7625664042750136e-06,4.858831404909768e-07,1.858593011840459e-06,6.220698782427897e-07,1.8062509006778463e-07
1.5644328121533903e-06,-2.2639049942409935e-07,4.860322842308403e-07,1.9834893849463088e-06,1.6348551570940926e-07,2.5191419117057413e-06,2.4069281698049953e-06,3.133255895651236e-06,2.0545260759662886e-06,3.6515195792276586e-07,8.650194359560796e-07,1.241922147748872e-06,-5.245052993848151e-07,-1.8444191392069303e-06,5.402397787662891e-07,1.782663794604426e-06,6.520558800265557e-07,1.4510651287440525e-07
1.520683149339286e-06,-2.118891445134838e-07,4.9910170339421e-07,1.9701171967770885e-06,1.2235906868249066e-07,2.414741000052303e-06,2.343512317673038e-06,2.9752785179187296e-06,1.992893748704973e-06,3.828060501411684e-07,8.573942643517486e-07,1.2474592771242529e-06,-4.987262927457669e-07,-1.8593693252270041e-06,5.744149373027936e-07,1.7306412178021924e-06,6.725813479374759e-07,1.0564799831948546e-07
1.4453524435147465e-06,-1.724730865492759e-07,5.041252583628022e-07,1.9659771078999682e-06,9.970433883950061e-08,2.3091591315038397e-06,2.292285197751148e-06,2.8214526789021643e-06,1.9306271666573783e-06,3.8721143987615496e-07,8.529108074528988e-07,1.2516240102572152e-06,-4.6680617784324797e-07,-1.8424522062981418e-06,5.889497588055547e-07,1.7104148341917337e-06,6.871311452996856e-07,7.484020566771184e-08
1.3802423641360331e-06,-1.0065368685543139e-07,5.01370041668713e-07,1.920896741853057e-06,9.654952108887931e-08,2.2429748871956324e-06,2.2532120054751373e-06,2.7127935540484547e-06,1.8775898284835836e-06,3.756144664954441e-07,8.440714645641988e-07,1.2455082493358316e-06,-4.3044160739534055e-07,-1.7727892610531669e-06,5.83127364124282e-07,1.7010010460962345e-06,6.979817191934869e-07,5.180952978453973e-08
1.3186257431225206e-06,3.203867644050449e-09,4.959721063930742e-07,1.8630977870014524e-06,1.0637502526389633e-07,2.172186053759542e-06,2.226352365560509e-06,2.6239761764625687e-06,1.8277466816225922e-06,3.5131785880674257e-07,8.364869350874863e-07,1.2230311288763202e-06,-3.92590770414469e-07,-1.7163349588278887e-06,5.602862596792895e-07,1.683155804678407e-06,6.99565109620973e-07,-8.021127042804122e-09
1.2848406273887518e-06,9.995076665109341e-08,4.915888855905214e-07,1.7971545848579871e-06,1.3541676325161864e-07,2.09388133630375e-06,2.2125094015476493e-06,2.5340770526590994e-06,1.8058934120036433e-06,3.2294278006066797e-07,7.958264549425671e-07,1.1824857757071042e-06,-3.5523165809901113e-07,-1.680112953130032e-06,5.246977154432774e-07,1.6626209914027976e-06,6.901613228357738e-07,-8.528339213722723e-08
1.283468085029124e-06,1.794715153683189e-07,4.928226656281964e-07,1.7028301225857638e-06,1.699675334760967e-07,2.013564519264112e-06,2.2121113667958636e-06,2.4226332638520694e-06,1.8049446366437611e-06,3.005832215623863e-07,7.282357912153219e-07,1.1270758108951473e-06,-3.213801060202007e-07,-1.641369626802139e-06,4.813267588787512e-07,1.6282237594480985e-06,6.35072925112747e-07,-1.701622064466409e-07
1.3059522581719785e-06,1.7298082861858648e-07,4.98733671163216e-07,1.5992056941229112e-06,2.0316250241474825e-07,1.9246276316217808e-06,2.2254644056836967e-06,2.290929716070002e-06,1.8136414563037015e-06,2.9306849752210477e-07,6.526833569852481e-07,1.0654110990502296e-06,-2.9059680921880575e-07,-1.6102561460426371e-06,4.351812811213717e-07,1.5803897408756453e-06,5.702882541847871e-07,-2.574834990040873e-07
1.3496496057471746e-06,5.7075774438996876e-08,5.070939672599782e-07,1.4842678643731058e-06,2.3361364046224574e-07,1.8473247489799897e-06,2.2545538511872806e-06,2.1684836859270747e-06,1.8254401688056426e-06,2.998054952161781e-07,5.806735315700867e-07,1.009829312535557e-06,-2.579937111172055e-07,-1.5785104785316422e-06,3.8688649990782217e-07,1.5135364725887071e-06,4.992533588059383e-07,-3.3459812145486924e-07
1.402585290800689e-06,-5.270552350485277e-09,5.16204528763478e-07,1.369186747994264e-06,2.5348121988302385e-07,1.813913293252984e-06,2.3025674603122764e-06,2.0842297625097403e-06,1.8244592092760296e-06,3.138689101471252e-07,5.298703275817591e-07,9.711959749645047e-07,-2.1682683449850157e-07,-1.5639616912143762e-06,3.361992079202713e-07,1.4353909417782097e-06,4.361544302996112e-07,-3.88882960943207e-07
1.4610443032452884e-06,-6.343631590921609e-09,5.238479104075282e-07,1.2634658878171427e-06,2.731173726487566e-07,1.8218176143072132e-06,2.370338515180496e-06,2.0419404610322055e-06,1.8071732143408531e-06,3.2503457252685027e-07,4.942003064865966e-07,9.536875186654012e-07,-1.6548403969158394e-07,-1.570159435620634e-06,2.824028266801368e-07,1.3607202130880092e-06,3.9176964130273724e-07,-4.376537755941523e-07
1.5264600805905833e-06,1.182616150012501e-09,5.280328948087773e-07,1.1938620542614925e-06,2.8753289874898657e-07,1.865053423862965e-06,2.4536367727478044e-06,2.0887710137747484e-06,1.7857871103234e-06,3.127218303261892e-07,4.6862544266979926e-07,9.537307137163997e-07,-1.08656352227393e-07,-1.5917299284111448e-06,2.247990589185461e-07,1.323529169044093e-06,3.4979298316559556e-07,-4.841268214168437e-07
1.599560446291385e-06,2.738275048866974e-08,5.283194845616298e-07,1.1550974651536598e-06,2.932817771840885e-07,1.9439586355570884e-06,2.543417225573916e-06,2.169686166222187e-06,1.7627383274456063e-06,2.6294526919601184e-07,4.487861216687829e-07,9.625933018951042e-07,-6.022389277340903e-08,-1.6250347300239483e-06,1.670297611651205e-07,1.323794828691994e-06,2.9629963539370274e-07,-5.354562214727534e-07
1.6786277739613768e-06,2.124464208133057e-09,5.258347885094512e-07,1.1289710052399086e-06,2.979408904202009e-07,2.040714688772304e-06,2.6273494968193034e-06,2.2502898812799015e-06,1.737377967561823e-06,2.4071145821990684e-07,4.433001385323171e-07,9.699381450524396e-07,-3.244879618646602e-08,-1.6615336258842113e-06,1.1545244449516928e-07,1.3519183594958562e-06,2.3828978186271137e-07,-5.89431904726596e-07
1.758225605048223e-06,-1.2233880223704216e-07,5.218569267145769e-07,1.1327382839856431e-06,3.0572878125303886e-07,2.141893126611732e-06,2.6920186550977356e-06,2.377208816758373e-06,1.7151435554623756e-06,1.572138330989936e-07,4.4267569299061867e-07,9.67546873672218e-07,-3.532968981707458e-08,-1.6947203812246543e-06,7.68188803318344e-08,1.400132160668932e-06,1.926732422857986e-07,-6.407793574226746e-07
1.831309081995303e-06,-1.8173628280262094e-07,5.173124216937477e-07,1.1576270264159628e-06,3.183443552794313e-07,2.237074329764551e-06,2.7267136810425452e-06,2.4863836043502387e-06,1.6958633698317073e-06,7.014763842167379e-08,4.397487892432095e-07,9.524943312485729e-07,-7.561731308852646e-08,-1.7180897631812785e-06,5.7379430078483636e-08,1.4529548852238946e-06,1.5261824855025764e-07,-6.871429832136251e-07
1.8914601834387746e-06,-1.968371673536519e-07,5.13664814687037e-07,1.1988212514290681e-06,3.370527488512663e-07,2.316978439076984e-06,2.7269952277328513e-06,2.561614442823128e-06,1.6824970896917563e-06,2.220304109595337e-09,4.365590779995543e-07,9.275720540856864e-07,-1.5057612359812256e-07,-1.7263361173422588e-06,6.152128390550065e-08,1.5074765135204185e-06,1.2236279055363757e-07,-7.213475557133284e-07
1.9349894599409614e-06,-2.2249483876742496e-07,5.132835415510385e-07,1.2469634329922707e-06,3.6389203783550074e-07,2.3750332944854566e-06,2.6948165942863224e-06,2.656774579069311e-06,1.6847763219690223e-06,-3.698393281407238e-08,4.3769084839050824e-07,8.988072260394291e-07,-2.4139957051307216e-07,-1.7186731516464577e-06,8.965309277573549e-08,1.5663610276732998e-06,9.83109554532302e-08,-7.435583521101262e-07
1.961376520083662e-06,-2.2391441137650494e-07,5.188033622396956e-07,1.3007305060163846e-06,3.980632041526766e-07,2.415825339577887e-06,2.6367222438332687e-06,2.7516992685866217e-06,1.7074547807753018e-06,-5.750109366690718e-08,4.3764161438246716e-07,8.730045929082182e-07,-3.6183204863405336e-07,-1.6992708703579957e-06,1.3739971672891677e-07,1.6263552414575845e-06,5.882794158121168e-08,-7.507749849350368e-07
1.972297929283233e-06,-2.1836259351078918e-07,5.325075399224393e-07,1.3739074063771394e-06,4.397391233515229e-07,2.444687629934347e-06,2.558833578430017e-06,2.8591942466557972e-06,1.747503599441088e-06,-3.868407617430105e-08,4.4445678878092604e-07,8.566554575714185e-07,-4.95331410182853e-07,-1.6752530813730331e-06,1.9713613581236747e-07,1.6877447990028782e-06,2.3129676380188672e-08,-7.381809992763572e-07
1.9707978102883645e-06,-2.429403699513339e-07,5.55401356975102e-07,1.4592235933269497e-06,4.89052059919583e-07,2.4637017556908802e-06,2.465128412640978e-06,2.985349693623124e-06,1.8019676639824493e-06,3.2576301294961085e-08,4.593240313764575e-07,8.546541673133726e-07,-5.833674806015939e-07,-1.6537429827222269e-06,2.600210446261612e-07,1.7478901590939398e-06,2.9195863508953125e-08,-7.092499981563154e-07
1.9609108961169772e-06,-2.6146635185055763e-07,5.854758294169086e-07,1.54550915813688e-06,5.246901214659931e-07,2.472643469486413e-06,2.358856475810964e-06,3.111410880581145e-06,1.8476264435673916e-06,8.096286971523217e-08,4.891891021259364e-07,8.688192447992127e-07,-5.864236066566365e-07,-1.639524666262075e-06,3.1777411387056073e-07,1.798111787785786e-06,5.2887957352174495e-08,-6.711415273597057e-07
1.9473972118923025e-06,-1.9458040963216384e-07,6.170623558984281e-07,1.6108810756217853e-06,5.366069595337676e-07,2.465663334864056e-06,2.2412082867034537e-06,3.1809052541786796e-06,1.8605367806132707e-06,7.80784681832911e-08,5.346117222545341e-07,9.007648228845866e-07,-4.7118831825940375e-07,-1.6333735969177617e-06,3.652317181123387e-07,1.8288252418576562e-06,8.693065328934825e-08,-6.280197648062014e-07
1.9348657770908178e-06,-1.551940537357881e-07,6.429460924715465e-07,1.6417191653161678e-06,4.921031446468012e-07,2.4375357976137153e-06,2.1146521586319134e-06,3.209914471347597e-06,1.8232521544779428e-06,8.238151049362481e-08,5.895381132350465e-07,9.464491929692011e-07,-3.4190530019186923e-07,-1.6317123424393031e-06,4.025493985585701e-07,1.8310962860701888e-06,1.2413272685347683e-07,-5.900546539630883e-07
1.9265290197985712e-06,-1.430554404013273e-07,6.57462123584507e-07,1.6357204695196957e-06,4.5511442230375465e-07,2.388315512964049e-06,1.9865407178432007e-06,3.199609552638275e-06,1.7815551194376568e-06,1.1287787995701242e-07,6.538432479989593e-07,1.005471726774296e-06,-2.5833443408766267e-07,-1.6289434092020826e-06,4.344692175955035e-07,1.8005545398713147e-06,1.5144646992515167e-07,-5.632388431035612e-07
1.9229551474644706e-06,-1.4369950341310048e-07,6.582215753679878e-07,1.6048569487086205e-06,4.331580717798967e-07,2.323871851388636e-06,1.864040513133437e-06,3.1369570121113235e-06,1.7571797806694218e-06,1.6007524861029683e-07,7.251580418760385e-07,1.0781251340141436e-06,-2.3612118827340058e-07,-1.621246369701902e-06,4.6738238323156473e-07,1.7407733174569334e-06,1.8091133984088077e-07,-5.550817194837626e-07
1.9216360418688815e-06,-9.330224308703478e-08,6.468903841721308e-07,1.5565706241005066e-06,4.094700785981476e-07,2.2554188933317433e-06,1.7487548531040577e-06,3.0506676961114e-06,1.7359314773738565e-06,2.325393240679822e-07,8.031688723261777e-07,1.1623498095069094e-06,-2.1070430644658785e-07,-1.6084691705004274e-06,5.070241013989754e-07,1.6602144980374008e-06,2.490548826929915e-07,-5.681494125249351e-07
1.9175749708487377e-06,7.325619595230027e-09,6.295749446120651e-07,1.4980713506088754e-06,3.4282539637842365e-07,2.1979142702478148e-06,1.6538035097919568e-06,2.9577290199502617e-06,1.6679477416942028e-06,3.2087123456730954e-07,8.884074558088047e-07,1.256189450637411e-06,-1.0759967392301849e-07,-1.5934403272468103e-06,5.56684686872596e-07,1.5676521345469692e-06,3.581741668563463e-07,-6.003901726992897e-07
1.9041984217406033e-06,5.718068797879614e-08,6.150868576771808e-07,1.4513389306613891e-06,2.490415336113918e-07,2.165628060853334e-06,1.5829895026903998e-06,2.8790759827188604e-06,1.5799985381177476e-06,4.004674123772698e-07,9.779460080673927e-07,1.35327641484057e-06,5.2733606842984634e-08,-1.5813071334606105e-06,6.144029003781286e-07,1.4826050051732308e-06,4.753373726617968e-07,-6.454612800162602e-07
1.8761990210514442e-06,3.686883424796219e-08,6.107830869107743e-07,1.4236930965896598e-06,1.751499008256983e-07,2.1661582745687197e-06,1.5652653703113575e-06,2.8370670078828686e-06,1.51432387775643e-06,4.688926257624441e-07,1.0602839843656721e-06,1.442049270111393e-06,1.5286030933677677e-07,-1.5798454925549971e-06,6.712563798135987e-07,1.4182563889368591e-06,5.516734031411808e-07,-6.985386701366572e-07
1.8341697860191584e-06,-2.226450519259949e-08,6.195872362470731e-07,1.4247528678382057e-06,1.5973790723881756e-07,2.1983294226498445e-06,1.6272025289765215e-06,2.8460910476833726e-06,1.5100820403941477e-06,4.810668029680907e-07,1.1242896092073053e-06,1.4880588650314912e-06,2.0101646821551555e-07,-1.5986148683316193e-06,7.14256804240207e-07,1.3777894977315248e-06,5.947294960859606e-07,-7.542900099724281e-07
1.7867283969632237e-06,-2.8300070108644943e-08,6.408353820703269e-07,1.4575724530339713e-06,1.249053176275546e-07,2.255645179852955e-06,1.715942293286693e-06,2.892681205232358e-06,1.4857365879763262e-06,5.277586009127451e-07,1.16385116430498e-06,1.5075691987395039e-06,2.2412416380995682e-07,-1.6460760818366476e-06,7.322355033445823e-07,1.3609689846622602e-06,6.140884764388089e-07,-8.045809175216639e-07
1.7474941308656676e-06,2.7670566841289214e-08,6.724949668535827e-07,1.513239808159386e-06,1.2477398814793874e-07,2.330111270648045e-06,1.7957430301702414e-06,2.96616020869798e-06,1.4835138401483621e-06,5.678517528841076e-07,1.177415061048109e-06,1.4963271731564501e-06,2.2581723871164329e-07,-1.7268803238484395e-06,7.192789960451762e-07,1.3611830066126644e-06,6.570891073079416e-07,-8.443726303451474e-07
1.728380950643003e-06,1.5877681981050415e-07,7.114404531369429e-07,1.5802362227224596e-06,1.1898483044195402e-07,2.4124154669358003e-06,1.8692330359473144e-06,3.056163293185096e-06,1.4731342423711017e-06,5.650385184738784e-07,1.168030746025148e-06,1.448237058764107e-06,2.0080256031474402e-07,-1.8408848463073276e-06,6.743218040416204e-07,1.3663772960868833e-06,7.016306712966676e-07,-8.696244119196292e-07
1.7344852044115659e-06,3.3617069671497485e-07,7.528354880429404e-07,1.646838200405693e-06,1.4965244437301461e-07,2.4912083527711424e-06,1.9072670718535445e-06,3.1435948318519308e-06,1.4933237055016575e-06,5.325125113032555e-07,1.1473187574634373e-06,1.4134998915237537e-06,1.7110542773235002e-07,-1.982662974490966e-06,6.005718468723141e-07,1.3620561344125817e-06,6.568028248235292e-07,-8.829899298535939e-07
1.7634322040793715e-06,5.163208710309978e-07,7.91281711385832e-07,1.7065545555867197e-06,2.1139660197900384e-07,2.5551354757542095e-06,1.9091585122011925e-06,3.2149621934321597e-06,1.5385261806787578e-06,5.156998406984483e-07,1.1300444715078336e-06,1.3477140402191087e-06,1.2520181801267173e-07,-2.140845299133279e-06,5.061492035046732e-07,1.3361469719390388e-06,5.77676188831835e-07,-8.895531327615945e-07
1.8075585083884878e-06,6.726109143562642e-07,8.229025896061033e-07,1.7455706831435699e-06,2.531438352253514e-07,2.595961002306134e-06,1.8623593458869947e-06,3.2593841312078676e-06,1.5707241910807106e-06,4.95870512917625e-07,1.118350450660372e-06,1.2646019810118174e-06,3.182796467718438e-08,-2.2992474794039304e-06,4.030468619022103e-07,1.2804611990531041e-06,4.998342627914226e-07,-8.937444219486114e-07
1.857295806875731e-06,7.865969357872118e-07,8.458948663166681e-07,1.763130920287793e-06,3.074516493372552e-07,2.6096387754546815e-06,1.7577742356013796e-06,3.2693190414503303e-06,1.5976825311981585e-06,5.102054411098989e-07,1.114333481861851e-06,1.1918981190405731e-06,-1.309754614874256e-07,-2.4406230147988396e-06,3.0379205167009467e-07,1.193609598651446e-06,4.3153126037833094e-07,-8.956167703869888e-07
1.9044867069006323e-06,8.571167997229796e-07,8.620392852596901e-07,1.7615120667905578e-06,3.346905384737165e-07,2.5961738053969022e-06,1.6475936932715014e-06,3.243946973322426e-06,1.6269010232524311e-06,5.448661742936652e-07,1.1127673317039546e-06,1.1056872054356434e-06,-2.139611489517589e-07,-2.5504590050409547e-06,2.1917491976041485e-07,1.080839535751925e-06,3.6024753581318484e-07,-8.951059415587448e-07
1.944366385008783e-06,8.878904337222424e-07,8.728365557753516e-07,1.743762465157367e-06,3.123693094046139e-07,2.5600464761389355e-06,1.550137602351724e-06,3.188380738382165e-06,1.622695216534129e-06,5.903133947077277e-07,1.1137937840547144e-06,1.052954028605192e-06,-1.9662769693108693e-07,-2.618893427180009e-06,1.5806624827365653e-07,9.534223605271078e-07,3.1467964486499935e-07,-8.892003869233064e-07
1.9745871264877116e-06,8.896659603327334e-07,8.821039577782486e-07,1.7096565855819543e-06,2.942580526678592e-07,2.5095447632745527e-06,1.4653588267481286e-06,3.112544412315757e-06,1.597562172308753e-06,6.519162258956047e-07,1.1187509632722274e-06,1.0353654631567115e-06,-2.7164082337623825e-07,-2.642100753805699e-06,1.2649288835493921e-07,8.266793642844957e-07,2.8547241647508697e-07,-8.740162706491725e-07
1.9917682874799297e-06,8.643942452896139e-07,8.942765983160219e-07,1.669986683020046e-06,2.691015689908389e-07,2.453569871609316e-06,1.4077364051699965e-06,3.0275436589939686e-06,1.5624288621466194e-06,7.145063510125089e-07,1.1254580170653305e-06,1.0374791276368642e-06,-3.009356696060688e-07,-2.6237434160209182e-06,1.2550277546030937e-07,7.138308427628312e-07,2.6004255222597763e-07,-8.495211094363481e-07
1.9895526364469404e-06,8.086531221951533e-07,9.138431957135145e-07,1.6338602818577593e-06,2.3299109770051288e-07,2.3987948372591222e-06,1.3881316147290125e-06,2.942072589397581e-06,1.521671507131387e-06,7.641931773037176e-07,1.1399761684217301e-06,1.0644438192203808e-06,-2.898868400300677e-07,-2.5739997420523546e-06,1.5109585688344988e-07,6.232549530729942e-07,2.663462609573072e-07,-8.088185971648963e-07
1.9611541114471123e-06,7.109051591240464e-07,9.449954575312427e-07,1.607691963642402e-06,2.045932224781116e-07,2.3498957440450215e-06,1.4033770692296015e-06,2.8632768564122595e-06,1.4903962000870182e-06,8.039937570140702e-07,1.1340883016757047e-06,1.0988509691294195e-06,-2.580256661014962e-07,-2.505107351834693e-06,1.968341810124215e-07,5.609692680790514e-07,2.5362492686964025e-07,-7.533357794189478e-07
1.904081186091229e-06,5.787053208538427e-07,9.881370968201231e-07,1.5907010429004922e-06,1.9146907079355216e-07,2.3104510323067843e-06,1.4486558054646324e-06,2.797588134759056e-06,1.4720276078355744e-06,8.387291465694687e-07,1.1113181607997184e-06,1.136559095877737e-06,-1.9158465643568392e-07,-2.4266112829547927e-06,2.55416041491471e-07,5.326016332299052e-07,2.2488932599781554e-07,-6.872602869515594e-07
1.8231890688776686e-06,4.365158885493378e-07,1.0408785264226164e-06,1.5813835384775273e-06,1.95472150971634e-07,2.2812651650005864e-06,1.5183963050787952e-06,2.747882417176948e-06,1.4668057218366318e-06,8.41005539134908e-07,1.0469249594133467e-06,1.1728142675766785e-06,-1.1204357213257953e-07,-2.343288031836386e-06,3.1791944361448415e-07,5.416013120081971e-07,1.3389704173938937e-07,-6.37221130798853e-07
1.7313198907021092e-06,3.0568339667838245e-07,1.076598039818854e-06,1.5754477627597587e-06,2.1643267462231828e-07,2.25796479349123e-06,1.605629680531633e-06,2.710384328522366e-06,1.4727723772983733e-06,8.340078618837484e-07,9.50890513580915e-07,1.1734120163002391e-06,9.977534623030256e-09,-2.2548557926827733e-06,3.7421894270506493e-07,5.874290561360063e-07,2.1622276377157595e-09,-6.108464324075902e-07
1.6440603531200577e-06,2.50444716622357e-07,1.0759895850660459e-06,1.5123793860464484e-06,2.4937955395571336e-07,2.2316036311988114e-06,1.701748798595604e-06,2.6756192909316818e-06,1.4839255968679864e-06,7.903623982478748e-07,9.245973061260957e-07,1.1358072092234922e-06,1.5233234883718008e-07,-2.1561023312461407e-06,4.160643739975459e-07,6.664672216821057e-07,-5.488676440893048e-08,-6.30126903036574e-07
1.5788785761457691e-06,3.128243961368464e-07,1.0257512283375455e-06,1.4196500750716918e-06,2.8761119174632163e-07,2.1917693912738495e-06,1.7976586324819283e-06,2.6315316483495796e-06,1.4934007664173316e-06,6.855610788681806e-07,8.963381237197973e-07,1.0366050557514033e-06,2.4667815564716744e-07,-2.038704754739522e-06,4.3928875144841456e-07,7.724119273694006e-07,-1.1136817485605946e-07,-7.124807374130936e-07
1.5478007826005276e-06,3.5091992832649316e-07,9.758884715360283e-07,1.3422757678188298e-06,3.2470358271603773e-07,2.1294501975155057e-06,1.8843538785469509e-06,2.5656846061923973e-06,1.494487828533186e-06,6.296056405681029e-07,8.662907547030534e-07,8.792102941599309e-07,2.989610687851782e-07,-1.89526869650536e-06,4.4313481420771727e-07,8.945559017084204e-07,-1.7155777226951127e-07,-7.639615403072822e-07
1.5526488901468764e-06,4.015722663765416e-07,9.492637196665168e-07,1.2922104072179918e-06,3.5558870781466733e-07,2.0397196097385573e-06,1.953168544786263e-06,2.4683627148365115e-06,1.4815260734474752e-06,6.025647479575255e-07,8.433237467783217e-07,8.21642960381584e-07,3.059230825091736e-07,-1.722724683038503e-06,4.294360079729364e-07,1.0184451965655176e-06,-2.107499729980648e-07,-8.109433859078843e-07
1.5862298937976283e-06,5.83593560201274e-07,9.3772041395317e-07,1.2447602229208318e-06,3.786445373101089e-07,1.9248827580178384e-06,1.9991805208186378e-06,2.3380742367301287e-06,1.4527732685903459e-06,6.003540711004392e-07,7.972454966063388e-07,7.732423586929576e-07,2.71952636376968e-07,-1.5228564989513872e-06,4.031510585473681e-07,1.1310696544058487e-06,-2.4780510845939063e-07,-8.747115396830388e-07
1.6344832663136688e-06,7.900087485951818e-07,8.825119084072638e-07,1.1617207963126183e-06,3.9742350895900026e-07,1.7952634269799003e-06,2.0245277256166022e-06,2.1844752276570897e-06,1.4123803229061654e-06,5.556706381254154e-07,7.077396670809497e-07,6.870988977643827e-07,2.2278387445678566e-07,-1.3013265216677437e-06,3.7165169717152315e-07,1.2254262627366857e-06,-3.524039874769811e-07,-9.712656854733894e-07
1.6818188354482439e-06,8.625664580039438e-07,8.001561026174302e-07,1.050998370757084e-06,4.1893842883278393e-07,1.6651572328974471e-06,2.0368012113420323e-06,2.024175251085044e-06,1.3680913471003865e-06,5.113689566274226e-07,6.285496737036515e-07,5.484458717279256e-07,1.683850977336146e-07,-1.066735862968432e-06,3.416816989050498e-07,1.3001304336098148e-06,-4.6520013040663956e-07,-1.0926332572379961e-06
1.716296014689415e-06,8.403590053559783e-07,7.333077153265438e-07,8.671928115718221e-07,4.497573715114126e-07,1.5470354777865963e-06,2.050542282558639e-06,1.8735373493487942e-06,1.327076653630206e-06,4.2535482024579223e-07,5.692381845529126e-07,3.866140023469475e-07,1.1839704509477057e-07,-8.291882321617911e-07,3.170300586822148e-07,1.3568839389176616e-06,-5.544559533833114e-07,-1.2144993174539372e-06
1.7338232606036108e-06,8.11417940572512e-07,6.89776620084091e-07,7.553911434741133e-07,4.93859032396924e-07,1.4488147523839771e-06,2.0681965149824936e-06,1.745038598838842e-06,1.2942126576241656e-06,3.1881862508455054e-07,5.115031812932974e-07,2.1503511631347786e-07,8.263658710242345e-08,-5.986055955387942e-07,2.988916978131189e-07,1.3993228275822248e-06,-6.201045617809044e-07,-1.303705303092582e-06
1.7370469828184583e-06,7.814770577846664e-07,6.361907204638894e-07,6.946358183283995e-07,5.522898806770933e-07,1.3740448717211805e-06,2.0808966921019672e-06,1.6467531767815578e-06,1.2723357030544478e-06,2.351417629938822e-07,4.716827995029745e-07,3.928557221480428e-08,6.495440147012805e-08,-3.845476861451091e-07,2.8706618017349024e-07,1.4317254725128143e-06,-6.642461711522068e-07,-1.372577026859087e-06
1.7315828441785282e-06,6.042930199600437e-07,5.965822358264895e-07,5.983102968937755e-07,6.21901189815205e-07,1.321929226013973e-06,2.08533776007742e-06,1.5812800635998937e-06,1.2618072150668071e-06,1.644981372634086e-07,4.4868141920002914e-07,-8.069213134702693e-08,6.301650889199507e-08,-1.970773400819993e-07,2.8047307449701506e-07,1.456467938863003e-06,-7.007107505282451e-07,-1.4000234453714912e-06
1.7221386816320556e-06,3.85327814911242e-07,6.100612043747602e-07,5.714046910067774e-07,6.9423966729137e-07,1.2873516867369136e-06,2.0721787297516618e-06,1.5453227778289333e-06,1.2603063810913152e-06,1.3581010121954855e-07,4.396543452107334e-07,-1.6706859525506106e-07,6.896875214519313e-08,-4.571709913612341e-08,2.7812135702593075e-07,1.4735132611798076e-06,-6.937315683167244e-07,-1.340636424425167e-06
1.711021998698371e-06,2.15915161441767e-07,6.385340115600193e-07,5.500159369000257e-07,7.581229142077284e-07,1.2631152642347051e-06,2.032628969677575e-06,1.5327157304293354e-06,1.2648438614786775e-06,1.3291432724764042e-07,3.825420373972111e-07,-2.2612917222102434e-07,7.287300644532608e-08,6.391602039920601e-08,2.806532371721438e-07,1.483261772874463e-06,-6.928222828923146e-07,-1.2608903213335048e-06
1.701207529919651e-06,9.768055246655292e-08,6.575117891015434e-07,5.520646423862375e-07,8.046804416200349e-07,1.2432316985352855e-06,1.9653578154850054e-06,1.538298785983452e-06,1.2739205519762287e-06,6.788365217661061e-08,3.053937748752364e-07,-2.4875882503283384e-07,6.665134251640214e-08,1.3209951315274207e-07,2.9001299358459376e-07,1.4882402801916668e-06,-7.987904463526726e-07,-1.2390173886709196e-06
1.6980089170226363e-06,3.062726295278797e-08,6.553919691881586e-07,5.042254457948846e-07,8.29876301537979e-07,1.2241481226669168e-06,1.872122234754317e-06,1.5584564276741103e-06,1.2868666479442286e-06,-2.4668049961801874e-08,2.37265026463801e-07,-2.886587379133728e-07,4.602258245389979e-08,1.6316613412408265e-07,3.0689297850723877e-07,1.4910429769051327e-06,-9.225648153357459e-07,-1.2719314821352408e-06
1.704279164655737e-06,2.5721918249017248e-08,6.502698538145096e-07,4.151967870535068e-07,8.33668931885291e-07,1.2042204204362065e-06,1.7442646487221706e-06,1.5898769722507723e-06,1.3021619764181267e-06,-5.7458128823367136e-08,1.950752852796581e-07,-2.9366888778384783e-07,1.1058172092927648e-08,1.6245121574629563e-07,3.294874026284078e-07,1.4925814011488928e-06,-9.787749494634002e-07,-1.289700242343456e-06
1.7221666877240427e-06,8.080438147411385e-08,6.450114030192602e-07,3.7691120718331004e-07,8.193264888035165e-07,1.1838716499409212e-06,1.5924630558631875e-06,1.6301665802045267e-06,1.3180629704449882e-06,-3.855152188940561e-08,1.7977977536628989e-07,-2.6768318567408765e-07,-3.349619276393058e-08,1.3559421307132493e-07,3.552515368171127e-07,1.4940181254507916e-06,-1.01035112396113e-06,-1.2783795192841915e-06
1.7441544474368657e-06,1.838396895308645e-07,6.401133292834586e-07,3.6746227262818146e-07,7.934545380471491e-07,1.165804749804625e-06,1.4421084888302554e-06,1.6786962400685652e-06,1.3341558468732694e-06,7.260555627545828e-09,1.7823578950214846e-07,-2.317650651026919e-07,-7.927442638893356e-08,8.948466802387344e-08,3.827009443384171e-07,1.4989249691403629e-06,-1.008520041602057e-06,-1.2416162942252431e-06
1.7575209229577999e-06,3.1641891408625797e-07,6.422806790010826e-07,3.845457498278228e-07,7.638920071221815e-07,1.1530365098782563e-06,1.2974219248728702e-06,1.7347092811871007e-06,1.3506055227087287e-06,6.543637754718783e-08,1.807117864192656e-07,-1.5635759908082275e-07,-1.1746784852056218e-07,3.2242781779100646e-08,4.110744886665216e-07,1.5118676299533945e-06,-9.859587543144462e-07,-1.187445064461003e-06
1.7509966831426948e-06,4.581640322832024e-07,6.492308747864274e-07,4.22534960385597e-07,7.361010124619369e-07,1.1461457565451876e-06,1.1656270384555698e-06,1.7950090760799684e-06,1.3663760626431673e-06,1.3584035293523807e-07,1.900825649456145e-07,-8.96158368756163e-08,-1.420076753028657e-07,-2.753750383668193e-08,4.3978789911750576e-07,1.5359299716328344e-06,-9.67575037933508e-07,-1.1007220751322532e-06
1.7163114899869908e-06,5.902878824534075e-07,6.586627254055837e-07,4.516341314938038e-07,7.121695001756126e-07,1.1430734679404256e-06,1.0513970658620932e-06,1.8550745368702442e-06,1.379672425622523e-06,1.956283716595005e-07,2.1497017469511083e-07,-3.841931803278966e-08,-1.5049815973713976e-07,-8.100310234744654e-08,4.690865737203547e-07,1.5723849708293307e-06,-9.510786971036912e-07,-1.0038568300031778e-06
1.6541443867858366e-06,7.057599114804966e-07,6.68419135466455e-07,4.742394089128136e-07,6.928162873937298e-07,1.1411438120704239e-06,9.532903490077675e-07,1.911785331207274e-06,1.3896103795904606e-06,2.34182667733473e-07,2.4503323213974735e-07,2.922267829764057e-09,-1.435515657943673e-07,-1.1989341626107212e-07,4.999289025971903e-07,1.6206568184492297e-06,-9.284023438160702e-07,-9.117971068532882e-07
1.574849430829235e-06,8.015541843564465e-07,6.764632466643422e-07,5.215762031385629e-07,6.78682952675655e-07,1.1384518355049e-06,8.741693079608492e-07,1.9638254904085897e-06,1.396164213387213e-06,2.595147561053698e-07,2.782335012044333e-07,1.9964668849313604e-08,-1.242534409485183e-07,-1.3914113707135375e-07,5.322322475758686e-07,1.6768453271792442e-06,-9.037714544412306e-07,-8.229457086569561e-07
1.495664340036686e-06,8.763308967866684e-07,6.822175423752925e-07,5.801963397179902e-07,6.700146983717858e-07,1.134382488582813e-06,8.247182315119781e-07,2.01089868553364e-06,1.3992990698913955e-06,2.6277870401423067e-07,3.079791324170328e-07,2.2822901438567485e-08,-9.759239067558051e-08,-1.3896108686669104e-07,5.641306084404363e-07,1.7337428799002544e-06,-8.868161923240654e-07,-7.478532912478786e-07
1.433439258540266e-06,9.29499138937539e-07,6.867907222483687e-07,6.402774220826974e-07,6.672074389272049e-07,1.1306405459479296e-06,7.999196221640721e-07,2.054352325601796e-06,1.3997127230541438e-06,2.516410463049313e-07,3.3428309281162453e-07,1.424634913882288e-08,-6.901467301424092e-08,-1.2400493843027e-07,5.934903697239681e-07,1.7840630666226193e-06,-8.565554436445377e-07,-6.895759919460255e-07
1.4001239317713404e-06,9.613438869129768e-07,6.933939515851858e-07,7.082103973666746e-07,6.718979557150521e-07,1.1314860737338235e-06,7.854892566273242e-07,2.0974964090225622e-06,1.3996793932687697e-06,2.3307902110124655e-07,3.635966244675004e-07,-2.6716555881784923e-09,-4.3011162047457555e-08,-1.0094843570230975e-07,6.189431184579093e-07,1.823256817164972e-06,-8.167919093443223e-07,-6.454412058259459e-07
1.3983107222017287e-06,9.78204010429523e-07,7.054886626166713e-07,7.784356403150816e-07,6.856102809449526e-07,1.1410989226349392e-06,7.838304439463205e-07,2.1427297132032815e-06,1.4013148199379205e-06,2.1095866580404203e-07,3.976780622714345e-07,-2.0771541438562503e-08,-2.3008367347712634e-08,-7.681494482755188e-08,6.388629324432344e-07,1.8491003558379135e-06,-7.71761750831007e-07,-6.154235923889315e-07
1.4206324184951597e-06,9.885196153446321e-07,7.235096806319586e-07,8.548556691686688e-07,7.068291543829646e-07,1.1600927209897285e-06,7.919287880261911e-07,2.1880386766383276e-06,1.4041988602871587e-06,1.9156034889647378e-07,4.279825987216571e-07,-3.546711960376854e-08,-1.181169978504392e-08,-5.7438912120496565e-08,6.509646375284568e-07,1.8609399404156826e-06,-7.140090250501069e-07,-6.099534520787455e-07
1.4545049647082254e-06,9.954520399469325e-07,7.441277108123672e-07,9.353478819542706e-07,7.309612268180098e-07,1.1852325413843119e-06,8.0503558915505e-07,2.227597571176808e-06,1.4061073796273e-06,1.7612080506544775e-07,4.4754503920525044e-07,-4.399584237172266e-08,-1.1196077493377056e-08,-4.507493907753839e-08,6.543760187989392e-07,1.8612043557734013e-06,-6.444511276322696e-07,-6.153417596586038e-07
