0,1,2,3,4,5,6,7,8,9,10,11,12,13,14,15,16,17
3.065197024347347e-07,2.0907448894478376e-07,1.7475935394303613e-07,2.3363135517068974e-07,4.5751883303908325e-09,4.153323263501281e-07,3.564370206736287e-07,3.4536770080186115e-07,4.6775830594324784e-07,-1.0933334827908927e-07,2.6784349380345656e-07,-3.074191579730786e-07,1.7790598599373085e-07,6.32940056082912e-07,1.7626210587720127e-07,-1.3328065986234068e-07,1.3046406277156632e-07,-3.261741755651273e-07
2.014933407439126e-07,2.8929071142117877e-07,5.069633994600478e-08,1.087475088094163e-07,9.378628739453437e-08,3.135836706115661e-07,2.0645488238549367e-07,1.6235418528493506e-07,4.285812329356757e-07,-1.5201636633897328e-07,2.3085764213105737e-07,-3.2545107489311654e-07,1.5409703557954352e-07,5.11535766771578e-07,1.0172093858684301e-07,-1.5331227486076735e-07,1.2362743770690312e-07,-3.1932171246526444e-07
9.832063958166143e-08,2.8919178590833164e-07,-3.937183173937081e-08,5.114548179160602e-09,1.387286173259802e-07,2.587893388096812e-07,1.0471641775707495e-07,-5.5162155042649546e-08,4.146591173014863e-07,-1.967068984888059e-07,1.8340732663581465e-07,-3.4767255038558774e-07,1.2042780239294938e-07,4.2243605721236895e-07,4.9477374160150525e-08,-1.716743549750908e-07,9.75473060694271e-08,-2.9135180471250766e-07
-1.4467478957923331e-08,2.2935924833144247e-07,-9.630386319248577e-08,-9.829037914873423e-08,1.703581832903285e-07,1.1457274271956936e-07,-4.932231558838577e-08,-2.4766944993518727e-07,3.6773074571616734e-07,-2.3407097234643487e-07,1.3505958232783061e-07,-3.6196085531682746e-07,9.300396941935614e-08,3.643239213165344e-07,1.9629456699491147e-08,-1.8531507091045965e-07,5.5875849501647665e-08,-2.477250663748987e-07
-1.407271402282257e-07,1.7162925852888607e-07,-1.2335301227113056e-07,-2.2401814232255486e-07,1.6163064357458454e-07,2.4944208571953944e-09,-2.0033247243228481e-07,-3.6483497978811993e-07,2.931291425870181e-07,-2.561587135145735e-07,9.155519253470499e-08,-3.587025499044264e-07,7.015023311296558e-08,3.2766108744243076e-07,7.599928012513951e-09,-1.9065853189938896e-07,5.886296408396531e-09,-1.9299525026416673e-07
-1.811676759869412e-07,8.23460638999003e-08,-1.2501786818284486e-07,-3.263922125229597e-07,1.3573082376630883e-07,-6.707640393921609e-08,-3.135474865362455e-07,-3.1132516437595314e-07,1.6484641114139966e-07,-2.579892395409155e-07,5.372260225488116e-08,-3.399804980972502e-07,7.205775647671338e-08,2.944245784789964e-07,5.970877152329821e-09,-1.8511909572151855e-07,-4.398261793306732e-08,-1.309011526834066e-07
-2.3020306798347814e-07,-3.1570615011687485e-08,-1.0649794047287658e-07,-2.7790017446501486e-07,1.0547896049720686e-07,-6.163025486976342e-08,-3.451882734141587e-07,-2.0523722662247678e-07,4.4576507973348404e-08,-2.3793606688188218e-07,1.8747821397659062e-08,-2.9456079345035014e-07,6.430500713159278e-08,2.4460688346551304e-07,6.653900030160761e-09,-1.6662585474692e-07,-8.609665299198357e-08,-6.469198293423848e-08
-2.401984893373424e-07,-1.0471020467787283e-07,-7.364296345727785e-08,-1.8967178551525617e-07,7.200245821924308e-08,-4.278305481964168e-08,-2.879105664169289e-07,-8.159819620207264e-08,-6.606476328153974e-08,-1.9696941653459346e-07,-1.7367672583003224e-08,-2.2558783679692574e-07,4.030931429367714e-08,1.6221241973176972e-07,3.117955739877705e-09,-1.3429751655280215e-07,-1.1516698697340996e-07,2.343085624863538e-09
-2.1633328443555226e-07,-1.5073990739384784e-07,-3.3484364508525025e-08,-8.026873658171447e-08,4.576418956347359e-08,-1.1583612804932209e-08,-1.8441727142490302e-07,5.1503916587211595e-08,-1.6453972027446235e-07,-1.3741540180521656e-07,-5.707847176892115e-08,-1.3604345620313143e-07,4.529084277546327e-09,4.144223714080985e-08,-7.83472971805221e-09,-8.856145905726313e-08,-1.2898195227751708e-07,6.619574984842259e-08
-1.5440235430884126e-07,-1.7158897903840582e-07,6.049180608511984e-09,4.3425946595861815e-08,1.5929972251543495e-08,1.3592823247482567e-08,-5.7274668268452986e-08,1.1493369762452639e-07,-2.2257198489318736e-07,-6.187585694227611e-08,-9.911811536482683e-08,-2.656977843638319e-08,-2.962981403574753e-08,-1.0942785390891663e-07,-2.478146546856471e-08,-3.04912369430208e-08,-1.2736716671656457e-07,1.2253668235946423e-07
-5.920432361864895e-08,-1.6906705499581346e-07,3.7839451836984854e-08,1.043241547833915e-07,-2.292470583388622e-08,-5.028112623757115e-08,7.886188737090622e-08,1.3442528904129866e-07,-2.6175291690496213e-07,2.7551616461091766e-08,-1.3795243273591252e-07,1.020892811011982e-07,-6.40902034860737e-08,-2.676026132036223e-07,-4.348398319752365e-08,3.8476568742720074e-08,-1.106923247617054e-07,1.6823469141257528e-07
1.090232611999592e-08,-1.614468426170423e-07,5.789754580820686e-08,1.0883688990278953e-07,-7.254614494323687e-08,-1.1904239894124292e-07,1.4826678896988686e-07,1.3223028140789658e-07,-2.89880151351196e-07,1.2906457235999335e-07,-1.6518619332897946e-07,2.416906170229905e-07,-9.70355962013538e-08,-4.123453863238791e-07,-5.7855638239534164e-08,1.1587476459152423e-07,-7.919403447540797e-08,2.0210213198544522e-07
7.080565148789446e-08,-1.478919029691786e-07,6.575200235914676e-08,1.2648916225820068e-07,-1.232339114251301e-07,-1.8358644574026507e-07,1.6889230053641813e-07,1.1039356755818232e-07,-2.987007956566977e-07,2.40729846284757e-07,-1.7266773955106897e-07,3.8556533572479836e-07,-1.2361736907970527e-07,-5.208535118209829e-07,-6.471175053645407e-08,1.9831983504959963e-07,-3.289454714086772e-08,2.2573589148631415e-07
1.0708090479089274e-07,-1.2898781754121288e-07,6.56012170746052e-08,1.5244902641836596e-07,-1.7790542259062697e-07,-2.1962740283592312e-07,1.6347051694897187e-07,8.38959534544429e-08,-3.007690103752293e-07,3.599121267102236e-07,-1.5555901881803132e-07,5.293387965180977e-07,-1.4681512101703372e-07,-5.786261606192259e-07,-6.382175510058195e-08,2.824695269196577e-07,2.794145819984299e-08,2.436933400472241e-07
1.723628939126547e-07,-1.0989345362385281e-07,6.546221455029665e-08,1.552261182265632e-07,-2.3949902523869034e-07,-2.051592124964779e-07,1.2419169847726672e-07,6.542351370146896e-08,-2.952846654482053e-07,4.823106313158546e-07,-1.1538255781579345e-07,6.674652981035766e-07,-1.6333086874966645e-07,-5.811965902184224e-07,-5.755702743858758e-08,3.647258737745106e-07,1.0121212183740897e-07,2.610687062885629e-07
2.6921835578520604e-07,-9.499477916560966e-08,7.361453769771991e-08,1.582967202117957e-07,-3.078761141820243e-07,-1.5759540991058885e-07,8.670154096171129e-08,6.529906650463685e-08,-2.8171745541286386e-07,6.009034875408406e-07,-6.088145911886763e-08,7.977992229864159e-07,-1.7226721610849468e-07,-5.315308915478629e-07,-5.03861865592706e-08,4.39469486451559e-07,1.8182175077533065e-07,2.812508659467382e-07
3.8362488458727703e-07,-8.814651812889282e-08,9.615542661487775e-08,1.611973028931199e-07,-3.8809351957332445e-07,-1.011356128443113e-07,6.184370880050461e-08,8.904189497565516e-08,-2.661773280943004e-07,7.064619298603897e-07,-5.4991865113881496e-09,9.131701589200926e-07,-1.7336287120345673e-07,-4.3986954779751114e-07,-4.725246492613777e-08,5.007393083807019e-07,2.6275219649753664e-07,3.049624269421742e-07
4.968591632163207e-07,-9.126388619867936e-08,1.35652517730383e-07,1.650069287131463e-07,-4.808689915564862e-07,-3.1929989045823114e-08,5.1108143747452603e-08,1.376923225244421e-07,-2.493501746844475e-07,7.901981918491605e-07,3.755421469854426e-08,1.005481066148728e-06,-1.6447889355045573e-07,-3.176169730311727e-07,-5.168826794609088e-08,5.440417867067103e-07,3.3733887524822954e-07,3.3037650322063535e-07
5.993098768732778e-07,-1.0374653361816352e-07,1.9135780010833742e-07,1.8159217226785296e-07,-5.838116207862506e-07,5.699408645009349e-08,5.962881321903747e-08,2.024118252016222e-07,-2.2979111933223118e-07,8.465831590219265e-07,5.989793219022244e-08,1.0700387154867744e-06,-1.440829046707269e-07,-1.7676523171448238e-07,-6.423159112572456e-08,5.672688543892804e-07,4.006569893625153e-07,3.5414539709489385e-07
6.968509795316564e-07,-1.2328959107659485e-07,2.595452000501075e-07,2.0529371621711078e-07,-6.938050883698115e-07,1.3717461404329414e-07,8.174613173603113e-08,2.7154860421356325e-07,-2.0705834980904256e-07,8.751005230388459e-07,5.983083953801489e-08,1.1055374225739456e-06,-1.1268746529741654e-07,-2.9204976191267155e-08,-8.293036964843912e-08,5.713960147441655e-07,4.5007274418432893e-07,3.724193536252333e-07
7.850356739043551e-07,-1.4674470811937488e-07,3.350136173290197e-07,2.1797198101593944e-07,-8.060102254201322e-07,2.0516563621310166e-07,1.074089366465208e-07,3.344488584677707e-07,-1.793867285797488e-07,8.79895784073846e-07,4.1760790290910374e-08,1.115983775953831e-06,-7.269548708892257e-08,1.1291120855262061e-07,-1.0299546386370305e-07,5.597076796444031e-07,4.854370862656866e-07,3.82459023034693e-07
8.704126199459724e-07,-1.7066414493905783e-07,4.1216250321484756e-07,2.1537463517009891e-07,-9.145276734049378e-07,2.483483379791101e-07,1.2564492660230187e-07,3.822697228662881e-07,-1.4520263999312543e-07,8.679882233549403e-07,1.3716987997761053e-08,1.107841644439666e-06,-2.7513677992069e-08,2.4055707571524363e-07,-1.1937197118468722e-07,5.368366136338392e-07,5.085941685220156e-07,3.838166504808332e-07
9.354908704822141e-07,-1.9198784223953122e-07,4.851878490470073e-07,2.0740960952215106e-07,-1.0145282945625484e-06,2.6741550539955454e-07,1.2614340027617588e-07,4.0927849010547577e-07,-1.042422946083093e-07,8.468882601619688e-07,-1.5803676125878535e-08,1.0879989353345874e-06,1.88945134134736e-08,3.4713966469256666e-07,-1.2892317839792735e-07,5.083062878680882e-07,5.224254881766184e-07,3.772391037257931e-07
9.791636674709464e-07,-2.085385921976357e-07,5.487119257635337e-07,1.8786061459664566e-07,-1.1017677402058498e-06,2.657326653484339e-07,1.0237898469126556e-07,4.1338154350622225e-07,-5.813675796839472e-08,8.229403809224858e-07,-4.041486905931762e-08,1.0635082960683031e-06,6.337486096314003e-08,4.297146984725661e-07,-1.300821806830069e-07,4.793910341684942e-07,5.30053776040373e-07,3.6616025629807954e-07
1.0067924803461248e-06,-2.1887400409465476e-07,5.98590795637467e-07,1.571338308859009e-07,-1.1727007887202358e-06,2.525479333376663e-07,5.3832113961934384e-08,3.962958193845681e-07,-9.096252627284548e-09,8.005249662738417e-07,-5.711358417741189e-08,1.038820929385207e-06,1.046517661519395e-07,4.923750123632674e-07,-1.215045017674948e-07,4.549848424295647e-07,5.336265966010135e-07,3.551314547950372e-07
1.0254021316451458e-06,-2.2257862362040482e-07,6.334835722602793e-07,1.1833793341435841e-07,-1.2257698836160211e-06,2.3440447859481017e-07,-1.4742829633377334e-08,3.6256847825405656e-07,4.092556941763235e-08,7.809954865358963e-07,-6.649723756120936e-08,1.0148010582469461e-06,1.4349885855947974e-07,5.449486874635978e-07,-1.016403652821003e-07,4.374837720479641e-07,5.325612714903038e-07,3.471011747632237e-07
1.0382698889568649e-06,-2.2125313731158655e-07,6.537744034789037e-07,6.940499783547851e-08,-1.2619450493145995e-06,2.1095976479136935e-07,-9.638419559855582e-08,3.176460106683838e-07,8.848466870595765e-08,7.623680158607778e-07,-7.166692465418034e-08,9.914965637390325e-07,1.8198378561611492e-07,5.987727926220573e-07,-6.938539671911243e-08,4.2448070387645533e-07,5.234695234258016e-07,3.42364009112396e-07
1.043622072597561e-06,-2.183837376876649e-07,6.60673289896996e-07,1.1853997024647107e-08,-1.2840422992746493e-06,1.8575142374602374e-07,-1.8429445439457683e-07,2.663533239730722e-07,1.3235426460892987e-07,7.408366071618353e-07,-7.598269426292993e-08,9.633220289571032e-07,2.2218192741656916e-07,6.659561698168997e-07,-2.5611270831852665e-08,4.104371792459413e-07,5.027172649801995e-07,3.39224143495235e-07
1.03989801233405e-06,-2.1774747130804734e-07,6.566233471630721e-07,-5.497802471787229e-08,-1.2949094719106701e-06,1.5880935979336963e-07,-2.7288356024171995e-07,2.122913077229442e-07,1.7292729818736156e-07,7.13033441673389e-07,-8.104552619243416e-08,9.243156628760461e-07,2.6483325045677904e-07,7.530867025094074e-07,2.6466210136627593e-08,3.897762253640932e-07,4.694200561550325e-07,3.359541248279027e-07
1.0236476366761087e-06,-2.2197498140364374e-07,6.444901448846493e-07,-1.3057192786219652e-07,-1.2961377881592655e-06,1.2429788476510217e-07,-3.585576176138212e-07,1.578082439694537e-07,2.1092374450529e-07,6.77373228432958e-07,-8.614987361970993e-08,8.718748146941919e-07,3.081029423339725e-07,8.599075121372237e-07,8.067407990500274e-08,3.580400681801206e-07,4.269339229794538e-07,3.319992748876336e-07
9.941518310927103e-07,-2.3188223878046447e-07,6.273164606366906e-07,-2.1349032526911857e-07,-1.2875290585296634e-06,8.323962906629513e-08,-4.39462910687768e-07,1.0468416722778821e-07,2.4865778518361675e-07,6.348308782633234e-07,-8.846170228989085e-08,8.050320770064095e-07,3.4771437441601633e-07,9.801381488188416e-07,1.292789899298374e-07,3.1389075487954466e-07,3.827932013858069e-07,3.293043975191864e-07
9.520009525135385e-07,-2.460293653790946e-07,6.087824489320247e-07,-2.9914337844809487e-07,-1.266869406872157e-06,4.0003279052293456e-08,-5.136879776995338e-07,5.531737308248909e-08,2.8906433236075945e-07,5.889974111449548e-07,-8.366865000685857e-08,7.253301606692842e-07,3.7847808914007007e-07,1.104873569307505e-06,1.6589928383548092e-07,2.6035078448513585e-07,3.470206596265387e-07,3.323340193669049e-07
8.966181647415071e-07,-2.612519656810295e-07,5.930167194575029e-07,-3.806462748378625e-07,-1.2309712201252494e-06,-2.579219165640138e-09,-5.783608052782512e-07,1.3113578391377978e-08,3.3425867711869525e-07,5.447515644680721e-07,-6.747411266986171e-08,6.374599905801746e-07,3.9519120614885166e-07,1.2240827120052463e-06,1.869751540156278e-07,2.029149039588112e-07,3.287740366785364e-07,3.457686751419074e-07
8.3064330877111e-07,-2.746212531804063e-07,5.82060645469345e-07,-4.527763859299826e-07,-1.1792265307585806e-06,-4.14399872479089e-08,-6.310730565480586e-07,-1.8398923398452256e-08,3.835419405984902e-07,5.058820791528821e-07,-3.768445689791657e-08,5.460277426059271e-07,3.955476667486295e-07,1.3278542396644897e-06,1.9232429681217234e-07,1.4744816218743914e-07,3.332658457982365e-07,3.7177939023042136e-07
7.572482008475851e-07,-2.849625505710334e-07,5.751511438136797e-07,-5.161094360634425e-07,-1.1155207868823178e-06,-7.590587488366946e-08,-6.714771491407534e-07,-3.6561653916153925e-08,4.330164802369191e-07,4.738633812750978e-07,4.211804899038959e-09,4.548756384383331e-07,3.7776039342488397e-07,1.40825260959967e-06,1.8520310849920436e-07,9.998850089433237e-08,3.613234842134873e-07,4.094677554423196e-07
6.786748710875333e-07,-2.9274351703788954e-07,5.706177841834299e-07,-5.609991417507401e-07,-1.0491647170293282e-06,-1.0698529286934454e-07,-7.014381137625408e-07,-3.9897853155297536e-08,4.763655285830497e-07,4.481136150812784e-07,5.283295117416717e-08,3.706268993618827e-07,3.4229054724269707e-07,1.4593845727823598e-06,1.6915074804450847e-07,7.344174459182494e-08,4.1028707548056836e-07,4.558630828844286e-07
6.047880923289672e-07,-2.999310530045425e-07,5.665672631059013e-07,-5.905843276819345e-07,-9.931120033445053e-07,-1.340888848726876e-07,-7.246417188810777e-07,-2.8065383374985608e-08,5.089904651186944e-07,4.271640587334443e-07,9.993820374864401e-08,3.0215794945993674e-07,2.960268738811187e-07,1.4803529590348185e-06,1.4640139435719746e-07,6.521999386840352e-08,4.7477908719160186e-07,5.056368430329521e-07
5.424376136368172e-07,-3.1007895475674903e-07,5.618676515030666e-07,-6.076972191578271e-07,-9.615848918170249e-07,-1.520130764915817e-07,-7.457074070528233e-07,-1.5843698806333261e-09,5.303927089686811e-07,4.1094597694006504e-07,1.3683033922827893e-07,2.5968554010994285e-07,2.47139282259954e-07,1.4683198192965206e-06,1.1662327796715696e-07,7.976976460242179e-08,5.483042443397132e-07,5.544675926352431e-07
4.987127123271613e-07,-3.2742079143556775e-07,5.568319162178532e-07,-6.115395187566206e-07,-9.675700882009638e-07,-1.5404708010135948e-07,-7.681217930119568e-07,3.847229836667402e-08,5.396023605566445e-07,4.0247162700529237e-07,1.5740751232725436e-07,2.5516909114162794e-07,2.038439401029874e-07,1.4225104526739673e-06,7.766259708494816e-08,1.2271827251697847e-07,6.249996194975502e-07,6.005120223453667e-07
4.811580464717499e-07,-3.554755010653794e-07,5.525003521340883e-07,-6.03909003461421e-07,-1.017973782755062e-06,-1.307380977631356e-07,-7.9270583364483e-07,8.974552629207744e-08,5.394663463713363e-07,4.074824643516529e-07,1.6004668191946653e-07,2.998416895411449e-07,1.7245505746128865e-07,1.3454880838238481e-06,2.7880059917982185e-08,1.929147748602746e-07,6.996773404519982e-07,6.432064104619387e-07
4.944231602112041e-07,-3.9639564315770827e-07,5.48730737694453e-07,-5.933635886751187e-07,-1.1121420258688946e-06,-7.375398098192153e-08,-8.183925534723421e-07,1.4648822415827292e-07,5.32978350110563e-07,4.3039924674719366e-07,1.47153588649431e-07,3.96025945420598e-07,1.537304790971792e-07,1.2384395076548527e-06,-3.290987290124322e-08,2.9331590025604375e-07,7.667407822109828e-07,6.815653776976522e-07
5.335288086404417e-07,-4.507736062736354e-07,5.422762023938071e-07,-5.792740749369384e-07,-1.2408517827922897e-06,1.776559734832006e-08,-8.436751810191713e-07,1.9784408891081853e-07,5.263033452473038e-07,4.732224297875211e-07,1.2365119750028823e-07,5.348546974643706e-07,1.425256572472608e-07,1.1021201442866595e-06,-1.0263253279419179e-07,4.06874236249431e-07,8.202908548062088e-07,7.125933182603733e-07
5.774658995868441e-07,-5.16742456162265e-07,5.2703758554305e-07,-5.683155036896779e-07,-1.3856146461414243e-06,1.3544155920534476e-07,-8.669349201183493e-07,2.2814677672900276e-07,5.290980080904973e-07,5.330184158362251e-07,9.539592343537155e-08,6.972057115154427e-07,1.3047029443165388e-07,9.394758329526015e-07,-1.7641931435242022e-07,5.080728814317249e-07,8.557033419049506e-07,7.322679068331067e-07
6.166772680289884e-07,-5.893530052244886e-07,4.960945130554141e-07,-5.749990094578115e-07,-1.5207077703518743e-06,2.6096324639367915e-07,-8.871035940264283e-07,2.2328581265224442e-07,5.683050448592235e-07,6.022028027808886e-07,6.725939852464508e-08,8.598956622815951e-07,1.0761066771424564e-07,7.585713097438985e-07,-2.483984550515208e-07,5.209860434020256e-07,8.707710522300533e-07,7.361919967462748e-07
6.057578771218188e-07,-6.618107644275569e-07,4.419812371794761e-07,-6.066180071267456e-07,-1.6194826030462239e-06,3.6880903913934564e-07,-9.047013850319205e-07,1.597514313827451e-07,6.723150754280522e-07,6.693082074475706e-07,4.045122822461829e-08,1.0021477644745127e-06,6.280502840546348e-08,5.658870692499454e-07,-3.1405145505055947e-07,4.417685109078755e-07,8.65878375002671e-07,7.206388099460894e-07
5.045883121433063e-07,-7.278917261929706e-07,3.587966903747819e-07,-6.72110508126097e-07,-1.6643720554535206e-06,4.345320266741842e-07,-9.211005120569381e-07,-1.1194849195902042e-08,8.263876993928053e-07,7.208704362381987e-07,1.2575306203548784e-08,1.110991233280284e-06,-1.3749806854862038e-08,3.683408953428418e-07,-3.713830260220108e-07,2.5180184063895747e-07,8.438339873312144e-07,6.838104343385547e-07
4.3355244804599103e-07,-7.83934498410518e-07,2.4483130311802527e-07,-7.757927535520246e-07,-1.6461229194620588e-06,4.4146761874040334e-07,-9.357885987539971e-07,-1.738877186901229e-07,9.430121563320266e-07,7.444536778360794e-07,-2.151307894342353e-08,1.1848118009278993e-06,-1.2520137906644048e-07,1.7321681539628436e-07,-4.196823609731402e-07,1.268236026129699e-07,8.091645715287653e-07,6.266222556607571e-07
3.49490943863539e-07,-8.304169010412294e-07,1.0426481148071591e-07,-9.11611228827894e-07,-1.5716299050552823e-06,3.891188296159887e-07,-9.444219703907258e-07,-4.5736827455534017e-07,1.0212226907480283e-06,7.302625294970761e-07,-6.788571609761481e-08,1.2344772564907991e-06,-2.665918235467874e-07,-1.3341918479782075e-08,-4.576505379651914e-07,1.018442886998958e-07,7.667781507686116e-07,5.523147010427949e-07
1.376094302228572e-07,-8.720620026830027e-07,-5.1518664800499285e-08,-1.070282284794768e-06,-1.4628608172291187e-06,2.9599623568939266e-07,-9.391554908221875e-07,-7.592293910904003e-07,1.1760946428080352e-06,6.751762757175911e-07,-1.3128636681238867e-07,1.2803199635718912e-06,-4.2322056177844485e-07,-1.8403068378982718e-07,-4.813827194852042e-07,-1.5778865816315632e-07,7.212691007495804e-07,4.664722731004335e-07
-8.015409794754074e-08,-9.156536499932681e-07,-2.0521877882334895e-07,-1.2434544900223622e-06,-1.348628070284644e-06,1.9147162326219954e-07,-9.105962588428414e-07,-1.0604331113117547e-06,1.3817063602630478e-06,5.82074461228036e-07,-2.1428988655678541e-07,1.345829283360565e-06,-5.869001048505113e-07,-3.286822604499032e-07,-4.832878282476809e-07,-5.095040892813279e-07,6.765337097117611e-07,3.7752638786257774e-07
-1.4469555534432465e-07,-9.663450619054315e-07,-3.377541312397723e-07,-1.4191944288632623e-06,-1.2572237557508129e-06,1.1828932706893591e-07,-8.513447902493492e-07,-1.3240362757276537e-06,1.5646783463862481e-06,4.60804763010714e-07,-3.1768835264308376e-07,1.4500831188258549e-06,-7.275820718970069e-07,-4.34727702021954e-07,-4.544497333512516e-07,-8.164810940789422e-07,6.342376205076323e-07,2.95091516564933e-07
-1.2471363429404236e-07,-1.025291178903775e-06,-4.353292454059477e-07,-1.5736472905704069e-06,-1.2065842849188734e-06,1.3741364265654655e-07,-7.59899763908676e-07,-1.5224229363715686e-06,1.7446487644818428e-06,3.236208656793401e-07,-4.4129880195587817e-07,1.601114791875039e-06,-8.051799470353551e-07,-4.931369250991384e-07,-3.886831533634256e-07,-1.1754021907754003e-06,5.926702191291037e-07,2.270272472335886e-07
-9.475669515046488e-08,-1.0892939471632131e-06,-4.940639593379567e-07,-1.729637293359904e-06,-1.2006730802778122e-06,1.5647780342945762e-07,-6.417366452041396e-07,-1.6440330772630667e-06,1.912480411211506e-06,1.8286002547800313e-07,-5.830269432513358e-07,1.7888306965185126e-06,-8.18586177311172e-07,-5.023353805825705e-07,-2.868370037902286e-07,-1.4638238491210832e-06,5.48251076165339e-07,1.7855362880241189e-07
-5.78120829942623e-08,-1.151555932941774e-06,-5.195633967682545e-07,-1.8619415025437084e-06,-1.2301676785103888e-06,2.8634833322492585e-07,-5.064232592824759e-07,-1.693286925303482e-06,2.025578648845568e-06,5.140104349226139e-08,-7.371316704400565e-07,1.993342963429977e-06,-7.747887245005285e-07,-4.6662040989985914e-07,-1.574497079669427e-07,-1.668356451918672e-06,4.981878352871687e-07,1.5127244704280522e-07
-3.034300645797408e-08,-1.2039308244531254e-06,-5.199169233684601e-07,-1.980800490270514e-06,-1.2787666503202471e-06,4.3987680195973887e-07,-3.6339849557515224e-07,-1.684744320533541e-06,2.095227397960561e-06,-6.023242507042276e-08,-8.936029524069025e-07,2.189280427988177e-06,-6.891985529042057e-07,-3.950271981940923e-07,-1.4615534970487636e-08,-1.82322476271439e-06,4.4157166492225265e-07,1.4409833495975378e-07
1.1146701424503668e-07,-1.2401692544210987e-06,-5.094377166427618e-07,-2.0823716208177753e-06,-1.32917116547839e-06,6.073965735831368e-07,-2.1885037294595888e-07,-1.6391949707116776e-06,2.134133773083145e-06,-1.4498007821640745e-07,-1.0396382303257362e-06,2.354471445805425e-06,-5.796256361003934e-07,-2.988551038340116e-07,1.2540929756300348e-07,-1.9091968358748054e-06,3.7924924230623985e-07,1.5406072762806628e-07
2.5581248992427805e-07,-1.2582622627816547e-06,-4.901045789719551e-07,-2.1518210693294047e-06,-1.3612081381913412e-06,7.702872188677601e-07,-7.440934787748378e-08,-1.574887129342675e-06,2.129807616557604e-06,-2.0032226567181361e-07,-1.1619588683896853e-06,2.476264814001319e-06,-4.554091700580455e-07,-1.8717652470684905e-07,2.4806287359719074e-07,-1.9723645961220992e-06,3.1388644143003965e-07,1.748188634378427e-07
3.466372194176181e-07,-1.2608155751880533e-06,-4.6029985082069673e-07,-2.2024862613099875e-06,-1.3712363202708228e-06,9.185369805376464e-07,7.165500168830587e-08,-1.505248038898851e-06,2.0893632664298656e-06,-2.288095911086555e-07,-1.248656455763964e-06,2.546145847760724e-06,-2.925139947636996e-07,-6.679660444974432e-08,3.424303909271843e-07,-2.02633748989454e-06,2.499823593742367e-07,2.0043542695390743e-07
4.4440479933949036e-07,-1.2545479897151532e-06,-4.160639825851216e-07,-2.2344127700523074e-06,-1.3653266939706435e-06,1.0524732274673283e-06,2.2132655910172632e-07,-1.4378475404673692e-06,2.0414211086631573e-06,-2.3514730298793446e-07,-1.290469230260446e-06,2.561483505052088e-06,-8.946917134179138e-08,6.299466411888678e-08,4.018995579268587e-07,-2.0730454924207426e-06,1.936535172575977e-07,2.260160097042787e-07
4.978099685021187e-07,-1.24899142653524e-06,-3.0622647343815355e-07,-2.256396718829048e-06,-1.3534811212597758e-06,1.1777252660303385e-06,3.7462910321368417e-07,-1.37342435664938e-06,1.957238246364901e-06,-2.2800201719095692e-07,-1.281483732282065e-06,2.5243349112960806e-06,1.218448342218428e-07,2.058973537414567e-07,4.246988555350239e-07,-2.119087576414326e-06,1.5236132444777153e-07,2.479707903562292e-07
6.036980312433057e-07,-1.2538053542556768e-06,-1.4344019799885322e-07,-2.2649045414094807e-06,-1.3506244171557628e-06,1.3010347645505716e-06,5.292704936322912e-07,-1.3084191525179412e-06,1.8954620336481906e-06,-2.095073672273123e-07,-1.2199926703327932e-06,2.4337175734280445e-06,3.632447812568271e-07,3.636868427155234e-07,4.127267424778143e-07,-2.1638196779473264e-06,1.3368505040396856e-07,2.651883526653043e-07
7.748293276034496e-07,-1.275879396338378e-06,-3.0481822025268353e-08,-2.262898061130063e-06,-1.3665551486726645e-06,1.4302461826281633e-06,6.799971636774093e-07,-1.2377290350770059e-06,1.8907407030735922e-06,-1.7724368515547728e-07,-1.110580698733954e-06,2.3106062415136163e-06,6.333651075799496e-07,5.397930194121754e-07,3.7499268429638863e-07,-2.203380825746855e-06,1.424429407621672e-07,2.797626849960144e-07
9.42171024240698e-07,-1.3174785622731974e-06,1.3263061614661325e-07,-2.243936625829052e-06,-1.4061654083397767e-06,1.5546681961209397e-06,8.169883056632675e-07,-1.1571565099475717e-06,1.9491767412787993e-06,-1.2747508763023253e-07,-9.648721292711887e-07,2.1774549336427525e-06,9.122751767245342e-07,7.26717870429739e-07,3.232867977661754e-07,-2.2311670557044993e-06,1.782678375928351e-07,2.853444018912525e-07
1.1065562378203661e-06,-1.3748727217596562e-06,2.9301624920236947e-07,-2.206506715152344e-06,-1.4669301250495845e-06,1.6632829385277942e-06,9.260806233050414e-07,-1.0664694253443632e-06,1.9886563682198553e-06,-5.379344492027802e-08,-7.988154054312905e-07,2.0366969753149714e-06,1.1492682717778892e-06,9.07751102640321e-07,2.7477103017987004e-07,-2.2388157015983836e-06,2.3595162259299427e-07,2.8392430502207804e-07
1.191317411427926e-06,-1.437875090170508e-06,3.37888934801916e-07,-2.1514595580714096e-06,-1.5384046351756066e-06,1.732154828615193e-06,9.92494998205681e-07,-9.713414725939937e-07,1.9538036205849354e-06,4.641342888751038e-08,-6.275538147783459e-07,1.8983163236605355e-06,1.2856093309119199e-06,1.0564044082552388e-06,2.3726069084597697e-07,-2.2174808518746793e-06,3.073859671282558e-07,2.8072792491803484e-07
1.1905280700901815e-06,-1.4922982630562415e-06,3.26128563055022e-07,-2.0734823508792755e-06,-1.6110028512220694e-06,1.6675628285470191e-06,1.0065337813524727e-06,-8.832424853852915e-07,1.9081346882225444e-06,1.7351598161269672e-07,-4.613310109164656e-07,1.7576889946359568e-06,1.312992602269751e-06,1.1524425472773767e-06,2.1097434112575227e-07,-2.1632444544241543e-06,3.8336933744698035e-07,2.783381433281903e-07
1.2147467763905947e-06,-1.5252965277717493e-06,3.201646358266984e-07,-1.9682266252578576e-06,-1.6505043230676197e-06,1.6144049905837114e-06,9.655821042172212e-07,-8.122974488374772e-07,1.8663827098240223e-06,3.242328984097993e-07,-3.0488035648712667e-07,1.6050418723685567e-06,1.3125983165243125e-06,1.1967353309140955e-06,1.9430201094450926e-07,-2.0811873506423535e-06,4.550635563526792e-07,2.8104279590662315e-07
1.2811541013417329e-06,-1.530146074102178e-06,3.1422251802181316e-07,-1.8944160106235857e-06,-1.6429836715705414e-06,1.5258108903374983e-06,8.824600813694791e-07,-7.650037615152011e-07,1.8122237572770944e-06,4.915927114396066e-07,-1.596238946344931e-07,1.4386542475415264e-06,1.363714653243392e-06,1.1754913907672553e-06,1.8225996586947432e-07,-1.984487304887469e-06,5.154183729916914e-07,2.8811655963389815e-07
1.3135597451417406e-06,-1.5079871247949232e-06,2.881848486549837e-07,-1.7960962741163091e-06,-1.5895421627417351e-06,1.3884523685679832e-06,7.859501312945974e-07,-7.407506142595398e-07,1.7938768699536506e-06,6.635024838284874e-07,-2.7000470321984144e-08,1.2746175718577256e-06,1.426671720289221e-06,1.0919141516985244e-06,1.7719342668455948e-07,-1.8897659177476915e-06,5.601418420030969e-07,2.966033298351948e-07
1.2534123715134951e-06,-1.4668666130208482e-06,1.902093759254374e-07,-1.7157615439638675e-06,-1.4967851784951827e-06,1.178471856294505e-06,7.054900561583148e-07,-7.291270686363255e-07,1.7814036539162277e-06,8.237185828121903e-07,8.909088811095957e-08,1.1105513411186752e-06,1.2756016029895314e-06,9.662223909879969e-07,1.745778988974156e-07,-1.8102369554164998e-06,5.885933201917119e-07,3.0228394234384216e-07
1.1319864187146845e-06,-1.4185350693879607e-06,1.224202650250599e-07,-1.6294053713879808e-06,-1.4053010229712093e-06,9.956365921548527e-07,7.198636004300661e-07,-7.12184631044686e-07,1.7661265906993746e-06,9.56219469758655e-07,1.8209268250183827e-07,9.486441525187404e-07,1.0997673621242864e-06,8.287568114922099e-07,1.7828162429731756e-07,-1.749346454776585e-06,6.047355906837461e-07,3.036912465441721e-07
1.0799297634096242e-06,-1.3740420989915244e-06,1.1718982130105324e-07,-1.529677837939732e-06,-1.3443346921834367e-06,9.405545344579837e-07,8.142216221568909e-07,-6.675413799141373e-07,1.7391620885445426e-06,1.0487706232491967e-06,2.4475181343597805e-07,8.168441386662684e-07,9.280295724336888e-07,7.13320685997247e-07,1.9351343715109942e-07,-1.7003719204922668e-06,6.160606647849992e-07,2.9891428515918624e-07
1.0396689205605515e-06,-1.3407813917180543e-06,1.2710768563452683e-07,-1.4184720573890266e-06,-1.3410375472361052e-06,9.458293350890402e-07,8.915060858397654e-07,-5.688128467001964e-07,1.678557793353268e-06,1.0974291829059668e-06,2.7150075637785537e-07,7.312802847571202e-07,7.574870075034329e-07,6.51852006440055e-07,2.216394358260757e-07,-1.6524445911432347e-06,6.298965038213458e-07,2.8984030967831427e-07
1.0695191355317122e-06,-1.322108331427211e-06,1.5718865764950284e-07,-1.2837418433532205e-06,-1.4063778719983919e-06,9.378554668228769e-07,9.820187248564126e-07,-4.050041812685035e-07,1.5810893432598362e-06,1.105878573227882e-06,2.602778550598255e-07,6.952418775862829e-07,7.058363617833265e-07,6.59815311452193e-07,2.6155098181920296e-07,-1.5980598368990566e-06,6.500851066864631e-07,2.784888468474041e-07
1.1071508233524618e-06,-1.3181925251407788e-06,2.0005031026739174e-07,-1.1344903280561093e-06,-1.5355272910270855e-06,1.002587506934352e-06,1.1639099749612348e-06,-1.7999592510827655e-07,1.4702889926816898e-06,1.0837468068584284e-06,2.139820158729984e-07,7.046024694408384e-07,7.135538522524479e-07,7.079579587100868e-07,3.133057364544519e-07,-1.5354391908201183e-06,6.764026655527907e-07,2.650253317725008e-07
1.1491922660430569e-06,-1.3265916417836844e-06,3.0792690997441023e-07,-9.54593195365537e-07,-1.7110383559141244e-06,1.1411276983548935e-06,1.4054944921954065e-06,9.063300804749803e-08,1.3620238478210926e-06,1.0453261709507217e-06,1.4102578101915193e-07,7.548605708164099e-07,7.599543674657718e-07,8.089784069785071e-07,3.656219275289086e-07,-1.4671251026253897e-06,7.059479599859581e-07,2.5044365483916574e-07
1.2697523840020885e-06,-1.343279135176338e-06,4.5310354160396777e-07,-7.718151466903702e-07,-1.9068983049910877e-06,1.2805561051085799e-06,1.5945684615850323e-06,3.812102312439616e-07,1.2670288025357754e-06,1.0042657948992765e-06,5.427901302414711e-08,8.255034806811684e-07,8.390201347657595e-07,9.22567524772504e-07,4.180873184307632e-07,-1.3969293939309177e-06,7.352070850777557e-07,2.3439819736521573e-07
1.4059662926839447e-06,-1.3637620696392159e-06,5.463005455738626e-07,-5.848972618231979e-07,-2.081715937883792e-06,1.3825203671494795e-06,1.7293004594228056e-06,6.510451955628391e-07,1.1763437686039987e-06,9.72140397161066e-07,-3.2136671792986544e-08,9.039823220095294e-07,8.942220685417525e-07,1.0213980388567496e-06,4.725822613155395e-07,-1.3266467776274287e-06,7.620408072932261e-07,2.167605084418366e-07
1.537126966314607e-06,-1.3835918587344742e-06,6.296325282118077e-07,-4.0215482196750883e-07,-2.228086145662943e-06,1.4570920857190543e-06,1.8213537288886001e-06,8.829922509963587e-07,1.1023468097107401e-06,9.573400329878764e-07,-1.0617137872154817e-07,9.836250653893344e-07,9.196833940099572e-07,1.0963907161889955e-06,5.338385403766162e-07,-1.252768539912342e-06,7.860020423293848e-07,1.9902443606479176e-07
1.6540257731541578e-06,-1.3991968176296393e-06,7.019720746195978e-07,-2.4828894096680396e-07,-2.3432147063368418e-06,1.5014027279757824e-06,1.8697522945673224e-06,1.0686105470107735e-06,1.04442996495211e-06,9.631547594464554e-07,-1.6047702801196612e-07,1.0498892357952298e-06,9.07738209657252e-07,1.1303501823626808e-06,5.967518197170926e-07,-1.1750765764855054e-06,8.065638549789892e-07,1.821415007271295e-07
1.7485170992808483e-06,-1.409288587509418e-06,7.172685655018188e-07,-1.2152014951033688e-07,-2.417685416305379e-06,1.520174699997204e-06,1.881046907731043e-06,1.202625225433009e-06,9.9435206616162e-07,9.86551048086002e-07,-1.9305669810972247e-07,1.1003292518535227e-06,8.49978017450465e-07,1.1288148637008945e-06,6.566129859265143e-07,-1.0965488837787741e-06,8.216100221225858e-07,1.6504387672590234e-07
1.7922925109985294e-06,-1.4152322715063125e-06,7.028928298223983e-07,-2.166388099145629e-08,-2.457916756849176e-06,1.5242820521771375e-06,1.8683696182817292e-06,1.2875442390178593e-06,9.548599091994787e-07,1.0224309207475873e-06,-2.059049232410143e-07,1.1370498828387004e-06,7.571404527991119e-07,1.09758541932502e-06,7.140440916677166e-07,-1.0220973962502864e-06,8.278935038349602e-07,1.4637125298802406e-07
1.789424602475804e-06,-1.4199028196793741e-06,6.630524857381414e-07,4.710705118448166e-08,-2.470548008804843e-06,1.5204833955243935e-06,1.8456493259801372e-06,1.3305097732155013e-06,9.150659603476816e-07,1.0630855522875257e-06,-2.0368380984360753e-07,1.1611045613092256e-06,6.485367177904869e-07,1.0530111668816664e-06,7.666778495435197e-07,-9.616018373169255e-07,8.223605587324616e-07,1.2449463287324009e-07
1.7596912812850345e-06,-1.4265337019867256e-06,6.114617817936309e-07,1.1818434064815335e-07,-2.463648177788689e-06,1.511275258666501e-06,1.822345540974077e-06,1.3474244460042044e-06,8.749150800269286e-07,1.0995558411981223e-06,-1.9319077417744948e-07,1.1723708760451522e-06,5.421378412732507e-07,1.0081922833179577e-06,8.180706203817976e-07,-9.205509279810534e-07,8.03173227463545e-07,9.819027923852274e-08
1.7158738847158005e-06,-1.4381243645055348e-06,5.709854752110199e-07,1.5061720395720994e-07,-2.4448695146495813e-06,1.4983815214372519e-06,1.8057496354585157e-06,1.3473662148492336e-06,8.33764338396901e-07,1.1244838134927337e-06,-1.8263660422180793e-07,1.1701522646209623e-06,4.518421649321709e-07,9.805912937551708e-07,8.657672830001985e-07,-9.020511209565555e-07,7.708111024881288e-07,6.662067352747894e-08
1.670809758020042e-06,-1.45702603146926e-06,5.449706477188188e-07,1.7877793689046392e-07,-2.432296508116828e-06,1.489440437992307e-06,1.7995565984016908e-06,1.349476492399278e-06,7.939007937039194e-07,1.1321918394684997e-06,-1.7954050452065792e-07,1.1597004419491602e-06,3.8339430963222693e-07,9.752926695756724e-07,9.084996445015342e-07,-9.058217228911783e-07,7.287763273676088e-07,3.431424492491909e-08
1.6305544527066936e-06,-1.4851565795405132e-06,5.358806813811825e-07,1.9115982245442303e-07,-2.4266207337840865e-06,1.4896209296446206e-06,1.8074469819508257e-06,1.3675903726129093e-06,7.456823097979489e-07,1.1198966498369707e-06,-1.882192394147759e-07,1.147060936400431e-06,3.3431406566314364e-07,9.870022270769648e-07,9.413632283533392e-07,-9.198083115529423e-07,6.827978622136619e-07,9.322153079991523e-09
1.5971670888386272e-06,-1.5224685240031476e-06,5.469366860037082e-07,2.06974348784952e-07,-2.443688458119829e-06,1.5043372098719306e-06,1.8325306946480814e-06,1.4273704218755575e-06,6.864905437719379e-07,1.087346883543015e-06,-2.0762518681033368e-07,1.132357261251143e-06,2.998629559455286e-07,1.0112868444486497e-06,9.653720068286e-07,-9.384611307053513e-07,6.393212350211093e-07,-1.9518332738152093e-08
1.5702640501285803e-06,-1.5720688221542467e-06,5.779401547297094e-07,2.509798370035417e-07,-2.495645000769284e-06,1.5352608824266786e-06,1.876213152292704e-06,1.5166750765805772e-06,6.1626805474583e-07,1.0365327628135502e-06,-2.3175064028509534e-07,1.113186498157711e-06,2.7111836903049474e-07,1.0407822073508434e-06,9.808823587558356e-07,-9.528924708612957e-07,6.044128164291313e-07,-4.7199888822248435e-08
1.5479542907156258e-06,-1.6340941696727416e-06,6.283968292858387e-07,3.3777947714065274e-07,-2.6008359978198137e-06,1.5899782327205166e-06,1.9420097013506273e-06,1.6380712921244989e-06,5.299592944264594e-07,9.713408481433765e-07,-2.5076471238743276e-07,1.0830425619260403e-06,2.3814757274169284e-07,1.0696259818814841e-06,9.965131107786082e-07,-9.557873026909291e-07,5.822776732446775e-07,-6.820785009555634e-08
1.5295384659402858e-06,-1.7037250164012996e-06,6.963249137059127e-07,4.6078794352531383e-07,-2.737301639006611e-06,1.6679521029877387e-06,2.032258293884972e-06,1.7840698500390697e-06,4.3322411478299435e-07,8.849584759819851e-07,-2.5434512815397847e-07,1.0288460155939714e-06,1.9507322196944723e-07,1.1047711415438602e-06,1.0205091570315171e-06,-9.28548371357076e-07,5.73136276655406e-07,-7.903588910008299e-08
1.524867802201902e-06,-1.772350091925157e-06,7.70304858789484e-07,5.961899128130239e-07,-2.8183375302563987e-06,1.7160954819881651e-06,2.1444739957424466e-06,1.8647140223503584e-06,3.4894265983230957e-07,8.124110020195212e-07,-2.3549250362325682e-07,9.449422935070849e-07,1.4215768310492235e-07,1.135226304454848e-06,1.061108413680634e-06,-8.598865009956203e-07,5.726864628149332e-07,-7.664864495731746e-08
1.5268229984149353e-06,-1.8265017868863557e-06,8.383038616458889e-07,7.385063724511325e-07,-2.740677979081047e-06,1.7158611294971472e-06,2.2699809701798506e-06,1.8373137139821182e-06,2.883633698141048e-07,7.605988204219172e-07,-1.920483125451155e-07,8.681434911145792e-07,6.230952476301453e-08,1.1910043441032463e-06,1.1410410870953012e-06,-7.467045791667833e-07,5.741956732149878e-07,-6.542405039608207e-08
1.5148198392362535e-06,-1.8514611990466871e-06,8.869585814855095e-07,8.753114154359037e-07,-2.554426143890074e-06,1.6723118651011385e-06,2.3758099762551974e-06,1.6704927893666087e-06,2.6528503530932145e-07,7.322046587652717e-07,-1.2674191102594693e-07,7.722125970242759e-07,-3.296311959322332e-08,1.2644176357790664e-06,1.2581784659454925e-06,-5.96116545225926e-07,5.713332548107161e-07,-5.731506405361965e-08
1.4870202489026037e-06,-1.8360441498061232e-06,9.046500581406825e-07,9.079773808056024e-07,-2.342584901843309e-06,1.566572436258937e-06,2.4480401826843437e-06,1.5098259146653718e-06,2.6436348109429864e-07,7.391913346935389e-07,-4.6608089860094534e-08,6.584801854801293e-07,-1.2443040724031265e-07,1.3422553134505146e-06,1.403156498816293e-06,-4.4464682116321765e-07,5.601612666312087e-07,-4.9385222359591744e-08
1.4469759448612528e-06,-1.7780347141283684e-06,8.887020919536471e-07,8.780373696474551e-07,-2.2135213964403904e-06,1.4065101110632e-06,2.4635796972238813e-06,1.443125824947446e-06,2.8828578593269456e-07,7.662849961792048e-07,3.7901153152029486e-08,5.823123773350613e-07,-2.1573518794807298e-07,1.4248947187821593e-06,1.5540691304857813e-06,-3.0475879748544635e-07,5.401599979775281e-07,-4.752694994640921e-08
1.4043236812646204e-06,-1.6853668218338745e-06,8.449973994753431e-07,8.964759904435023e-07,-2.1754906091712505e-06,1.2171496098720679e-06,2.4522636898342462e-06,1.4178617420343312e-06,3.3905441360094243e-07,8.116729387334575e-07,1.1472311800172598e-07,5.348883234389549e-07,-3.028071327923664e-07,1.5227758543515103e-06,1.6962129704132807e-06,-1.8559575852059443e-07,5.136669727990834e-07,-6.006036470786657e-08
1.3752586483674396e-06,-1.5707755964931412e-06,7.885918078392509e-07,8.229198035392056e-07,-2.1020989260661197e-06,1.0351838158250166e-06,2.416612170305711e-06,1.3654857059110729e-06,4.016467263021621e-07,8.67525402184514e-07,1.7213373777196846e-07,5.283024005242263e-07,-3.877219700189049e-07,1.638228182470585e-06,1.8226358605994247e-06,-1.0114762456147118e-07,4.834761238410527e-07,-8.840135453356098e-08
1.3678535531018236e-06,-1.4479077006774901e-06,7.29858503761396e-07,6.892163443837942e-07,-2.03237245153845e-06,8.622044249802652e-07,2.3538785387344024e-06,1.3278905656528968e-06,4.948128117547996e-07,9.190340996860259e-07,2.0088340678089222e-07,5.665856756469839e-07,-4.613224934692425e-07,1.7353184508073557e-06,1.913412240366309e-06,-7.132558054539154e-08,4.5035199528892944e-07,-1.363212714175628e-07
1.3573206647641454e-06,-1.325582264502745e-06,6.753047618851279e-07,5.335197872136311e-07,-2.005346094586798e-06,7.488050589825475e-07,2.274834661114845e-06,1.286936037386106e-06,5.682228729437676e-07,9.428095456308429e-07,1.9622206638630904e-07,6.239333267799001e-07,-5.082753129298503e-07,1.8307495135256327e-06,1.96895591066478e-06,-1.0890653796134028e-07,4.123711485602835e-07,-2.0718594161612122e-07
1.3138408670632155e-06,-1.2025210000649936e-06,6.230942918799643e-07,3.9485671958613975e-07,-2.0055974073186347e-06,6.817108936217918e-07,2.1691079694800793e-06,1.2700043107350928e-06,6.264221145957932e-07,9.196619433899787e-07,1.5901311408674e-07,6.444833235730545e-07,-5.143719063002565e-07,1.9030331714077254e-06,1.9848506368979044e-06,-2.518305304100548e-07,3.6553381332397176e-07,-2.9763199433228545e-07
1.207127810443045e-06,-1.0741128369927281e-06,5.633294293664584e-07,3.2022855218998975e-07,-1.9843407439875963e-06,5.581039787034908e-07,2.0712563288748524e-06,1.2279255404485728e-06,7.315534660412273e-07,8.396365221436814e-07,9.545089310364913e-08,6.307169730922463e-07,-4.6625238570305366e-07,1.97407064872265e-06,1.971434204323611e-06,-4.7323014204794195e-07,3.048792496214441e-07,-4.1670623402809055e-07
1.0460565634073524e-06,-9.331174523137833e-07,4.849860867282708e-07,2.7331743461584433e-07,-1.979216263816066e-06,3.958144708113969e-07,1.970218242186048e-06,1.1894648915371961e-06,8.029811974259493e-07,6.979546478095502e-07,1.5657405968468387e-08,5.858086065225517e-07,-3.6732772361097e-07,2.024897700634606e-06,1.943770567798411e-06,-5.868315393509452e-07,2.2705741656841921e-07,-5.719546981488074e-07
9.482527133126291e-07,-7.960309270905186e-07,3.7883055075359446e-07,2.936358836977226e-07,-1.9908721199609903e-06,2.926875331858595e-07,1.8776032006318072e-06,1.1653462391905259e-06,8.482896467473968e-07,5.038227332338715e-07,-6.809009302879233e-08,4.833480660107794e-07,-2.5540852869925936e-07,2.087758739077075e-06,1.8942048417930629e-06,-6.022629848499062e-07,1.3376460768694826e-07,-7.209788140429422e-07
8.793429145040433e-07,-6.573954766264056e-07,2.427393426431405e-07,3.955500247532655e-07,-1.8637334052340756e-06,2.8739331456065205e-07,1.7555536240857554e-06,1.1067042040116055e-06,8.347377448863515e-07,2.796880078850312e-07,-1.4311379319326635e-07,3.179442991935497e-07,-1.3170000692735885e-07,2.1605140042134505e-06,1.8771074811065406e-06,-6.895049443183589e-07,3.2959655112611936e-08,-8.620226790934144e-07
8.073205128936072e-07,-5.234515917458815e-07,8.129903140810106e-08,4.1165452455216575e-07,-1.6064190219416752e-06,3.003427818903222e-07,1.6160501160393423e-06,9.613481639869688e-07,8.025750863560734e-07,4.196771046301833e-08,-1.9904962342082845e-07,1.0796406108150819e-07,-3.837482037855804e-08,2.2789404940328895e-06,1.886253478168096e-06,-8.834457757628667e-07,-6.336711056762088e-08,-9.7817124389029e-07
7.88779852098449e-07,-4.0684163565600225e-07,-1.0545232810603599e-07,2.808662171538645e-07,-1.287212665319029e-06,2.683032671796319e-07,1.4879638696204051e-06,7.839186609298786e-07,8.482431213794836e-07,-1.6770315467114368e-07,-2.300760451584525e-07,-1.1297794449025726e-07,-1.0681666444352798e-08,2.4944911067830237e-06,1.921627872276122e-06,-1.2068543799783784e-06,-1.4295084053398214e-07,-1.0805233629181705e-06
6.952469695142156e-07,-3.09205464095593e-07,-2.7175647404076956e-07,3.811194442973457e-08,-9.659956899302479e-07,1.0147128623514463e-07,1.3797105908715793e-06,6.632766386162114e-07,9.704784334580956e-07,-3.837769686330419e-07,-2.3608305758048947e-07,-3.363529744675127e-07,-5.795559826121045e-08,2.728700869097364e-06,2.0201885328217406e-06,-1.53287612064195e-06,-1.9695841559350334e-07,-1.1681451404804713e-06
5.605705353404013e-07,-2.67418707503765e-07,-4.0779048610224295e-07,-1.799713271447639e-07,-7.007641762113438e-07,-8.757309810172034e-08,1.3439396454928132e-06,6.204544059310335e-07,1.0890837889838003e-06,-5.895035777056396e-07,-2.2203846640354846e-07,-5.926214680627934e-07,-1.4125390406272226e-07,2.973488817199278e-06,2.137854272035184e-06,-1.8410563250768938e-06,-2.2292690608194816e-07,-1.230756939994624e-06
4.0400426044139365e-07,-2.710354465859563e-07,-5.118225369633902e-07,-3.23285319522524e-07,-4.822807520841691e-07,-1.8580385363626742e-07,1.3521028299335395e-06,6.888610907659623e-07,1.1368978358541605e-06,-7.698350200830543e-07,-1.9681027722103163e-07,-8.177648062046717e-07,-2.8500349173327307e-07,3.2459631076674213e-06,2.281977645532291e-06,-2.054634736271191e-06,-2.2529978425253683e-07,-1.2736934742311138e-06
2.67625616455402e-07,-3.1491338366868894e-07,-5.742615368909846e-07,-2.997697187325591e-07,-3.164230299444496e-07,-2.4093568703033157e-07,1.4352023388358115e-06,8.943881580052206e-07,1.1478362935715356e-06,-9.406852469865133e-07,-1.7088878913887107e-07,-9.906093001040037e-07,-5.056880288928923e-07,3.538976894029607e-06,2.4378473224178643e-06,-2.2382552490661457e-06,-2.1288206011611254e-07,-1.2870585073189012e-06
1.9560612000967433e-07,-3.875723027960369e-07,-6.03555322447997e-07,-2.3796846680947387e-07,-1.2887375609287328e-07,-1.532734730285594e-07,1.6260539290071333e-06,9.886748364378804e-07,1.1400997816046789e-06,-1.0764313206794452e-06,-1.5341845830690092e-07,-1.1425035656774309e-06,-7.299337225892139e-07,3.832484448888917e-06,2.633722945203711e-06,-2.4152837985612236e-06,-1.9516783556831295e-07,-1.2725517376202564e-06
1.6638108125684272e-07,-4.539385411636518e-07,-5.892874577481522e-07,-2.3111736738968238e-07,1.3861951618990637e-08,-9.872799991398765e-08,1.7391315684030976e-06,1.0407038961216072e-06,1.163008752404924e-06,-1.1958946518423148e-06,-1.4971652751174845e-07,-1.2718438701526319e-06,-9.85687986502556e-07,4.207363887840905e-06,2.791208566358292e-06,-2.57346401371154e-06,-1.793544757200407e-07,-1.2824116053902436e-06
1.3394244115122736e-07,-4.858542206218516e-07,-5.581639900317896e-07,-2.5333519405756473e-07,1.0192105561276446e-07,-7.82911445928154e-08,1.8322683185835386e-06,1.1062756054070197e-06,1.2015187842794796e-06,-1.321844994819572e-06,-1.6299714429381369e-07,-1.3956593648945003e-06,-1.205701769656102e-06,4.51526585013688e-06,2.911942871327864e-06,-2.73671478021053e-06,-1.6979612642868912e-07,-1.316955005931572e-06
9.885640483663218e-08,-5.13540282749757e-07,-4.861621195070174e-07,-2.8467937344102044e-07,1.8258605482631661e-07,-8.786379120792635e-08,1.946717110826937e-06,1.155399883451643e-06,1.2653290022656803e-06,-1.4584155939999112e-06,-1.836093134180324e-07,-1.5678396428054107e-06,-1.3300908543465608e-06,4.8346699635108075e-06,3.0745979380044513e-06,-2.8261866372057793e-06,-1.6340800447841815e-07,-1.3605399447557105e-06
5.351045687453687e-08,-5.553927153433891e-07,-4.230857327987048e-07,-3.284082919040167e-07,2.869812938515944e-07,-1.6131627740108324e-07,1.9957699166292076e-06,1.2356739502783033e-06,1.3207717176423315e-06,-1.6292194307199513e-06,-1.950534958683263e-07,-1.7901038533489531e-06,-1.4529265678991477e-06,5.365547725563074e-06,3.2597535144041824e-06,-2.8369335473705483e-06,-1.5238252483827705e-07,-1.5372328426483552e-06
-9.083683901210924e-08,-6.163010462632313e-07,-3.6786924300235817e-07,-3.231829067064352e-07,4.0941355921023655e-07,-1.660887458253176e-07,2.0630928467753095e-06,1.3152801283413816e-06,1.3737705743937734e-06,-1.8163418055681033e-06,-1.7813755032061456e-07,-2.0383465338909115e-06,-1.5633982543508569e-06,5.7446269771662446e-06,3.3620055306262086e-06,-2.781447529921764e-06,-1.3219848779962393e-07,-1.6297248467125347e-06
-2.483457176236505e-07,-6.471446113411502e-07,-2.990786791717686e-07,-3.2021351808828607e-07,5.481843547991168e-07,-1.5798546260786759e-07,2.181539196804231e-06,1.3600797345394197e-06,1.3642251094922241e-06,-2.030827617644808e-06,-5.0290762305011396e-08,-2.304256336721493e-06,-1.6993141120390331e-06,5.927659651178191e-06,3.4188605986492618e-06,-2.6613216988957047e-06,-1.0111086851718292e-07,-1.6506485241514802e-06
-2.892026339227968e-07,-7.073005699953887e-07,-2.29435815606975e-07,-2.3466904320879563e-07,6.7498572741322e-07,-1.8708831902940195e-07,2.3298107723313625e-06,1.3626925065002172e-06,1.2984182364150648e-06,-2.322370704128503e-06,1.247573201155168e-07,-2.554198708974168e-06,-1.8204815732483413e-06,6.153450912647226e-06,3.4408210544315435e-06,-2.4829720369358443e-06,-6.372687476395653e-08,-1.6665188806114726e-06
-3.3252702484426895e-07,-8.106184639952783e-07,-1.4459783983225345e-07,-1.2807352542657562e-07,6.908160497323605e-07,-1.7467428811705085e-07,2.469640026984621e-06,1.496282709059913e-06,1.259776924601398e-06,-2.64289117552026e-06,2.7748268286336793e-07,-2.777693177821973e-06,-1.9128250851585133e-06,6.261609232224004e-06,3.4491044235092068e-06,-2.276416644024708e-06,-2.713283798187342e-08,-1.7207871854794364e-06
-2.827174306314157e-07,-9.487179589764161e-07,-6.471414646073453e-08,6.532067585300661e-08,6.69894889536575e-07,-1.4944222977354128e-07,2.6533457575867435e-06,1.681899442269868e-06,1.2321007742493958e-06,-2.952005629913764e-06,4.3441512023599675e-07,-2.928648777784744e-06,-2.045429847541955e-06,6.33814570515586e-06,3.518966863153155e-06,-2.075486524750994e-06,-9.051791159065671e-10,-1.7712662744460003e-06
-2.908811358463657e-07,-9.972594275320788e-07,5.669178336637486e-08,3.157725401763672e-07,6.189256612852131e-07,-1.288160057058608e-07,2.781511127441708e-06,1.8097935034074053e-06,1.1886173858020845e-06,-3.1933407251731914e-06,6.60821341199736e-07,-3.1825789831196476e-06,-2.2756329769415343e-06,6.844190389539054e-06,3.7048486673461207e-06,-1.927920731212565e-06,2.3068959315128434e-08,-1.8222472654110807e-06
-3.081603588862575e-07,-1.0201380338718967e-06,1.9665446741594755e-07,5.077393833255482e-07,5.815375563313961e-07,-1.0863534125875945e-07,2.8340863508890233e-06,1.9333359121048237e-06,1.168786179270644e-06,-3.256511004917308e-06,8.532967567969329e-07,-3.292886975226764e-06,-2.464988741141787e-06,7.192179106674861e-06,3.810659260544282e-06,-1.8976209511831954e-06,6.269318018518118e-08,-1.8867729726219054e-06
-2.38264690272297e-07,-1.0441449664051627e-06,3.3625277638930235e-07,6.73499254261815e-07,5.75488837679085e-07,-6.28402566610589e-08,2.8807420237795743e-06,2.060285992275571e-06,1.1507567927417898e-06,-3.2089590698246185e-06,8.892525590979001e-07,-3.21913739672116e-06,-2.5236927846331624e-06,7.356389457248683e-06,3.7990652256812e-06,-1.8958242005786248e-06,7.185865017347429e-08,-1.886903036250097e-06
-2.0971382657227817e-07,-1.0584588964135512e-06,4.55310201133293e-07,7.531197473672971e-07,6.001006065014118e-07,-2.2982155058507418e-08,2.950095488562407e-06,2.121079616577578e-06,1.1234730718881168e-06,-3.167514978249441e-06,9.600389473838568e-07,-3.2632833972371734e-06,-2.5700535577446395e-06,7.421876290951413e-06,3.800700996204066e-06,-2.00277018290589e-06,3.5805165552704124e-08,-1.8874655945855137e-06
-1.8893533228314612e-07,-1.0860282238267654e-06,4.776289982465853e-07,8.767537377546535e-07,6.37841700784064e-07,3.2799274410381576e-09,3.0094756565671516e-06,2.18772280517085e-06,1.0887875631012206e-06,-3.117839779434656e-06,1.0343430656097094e-06,-3.33369022258425e-06,-2.634464115419897e-06,7.4169891738626725e-06,3.788161028557436e-06,-2.123487035470847e-06,-8.293239931435344e-08,-1.9055583499855815e-06
-1.7100211927765877e-07,-1.154571837882971e-06,5.063396719058051e-07,1.044101000576587e-06,6.860347996439939e-07,8.413596537969659e-08,3.0957959119873344e-06,2.3355923459741055e-06,1.0363525408055247e-06,-3.0545672122268642e-06,9.640508810858828e-07,-3.3685021872635454e-06,-2.7203129080169752e-06,7.4188703741083225e-06,3.7619261415462695e-06,-2.2337110434899097e-06,-2.1077513548577913e-07,-1.9134184597036658e-06
-1.8055565257287768e-07,-1.2010309853940356e-06,5.476206318336671e-07,1.1946113736538684e-06,7.996249224601423e-07,1.6800689870697854e-07,3.221560346154747e-06,2.507174388405534e-06,9.694559800955197e-07,-3.036035409444529e-06,8.538144767717265e-07,-3.5257327092573154e-06,-2.822563602604261e-06,7.436933330204931e-06,3.791306677413696e-06,-2.3186590905014507e-06,-3.0309043787633763e-07,-1.984288137632194e-06
-1.6409818678204914e-07,-1.1334234883143211e-06,6.302209279358478e-07,1.3773114247642195e-06,9.327828505852572e-07,2.4353331568274473e-07,3.2538990395019105e-06,2.6169050161250736e-06,8.983425271159558e-07,-3.0314022787061577e-06,7.838011344391045e-07,-3.56061717803525e-06,-2.9175197692591e-06,7.5815581069140915e-06,3.836831032714939e-06,-2.3141942919893797e-06,-3.7742032443001466e-07,-2.053828326771099e-06
-1.4000539219437893e-07,-1.0461400049608112e-06,6.846431109088372e-07,1.4731950123932264e-06,1.0499955042538273e-06,2.0024254259564644e-07,3.2169924847451333e-06,2.6186290978949502e-06,8.438610547971934e-07,-2.9644941856710607e-06,7.447218384840206e-07,-3.5394229074350337e-06,-2.8603400679131868e-06,7.629623718449404e-06,3.829705454823175e-06,-2.274151284084125e-06,-4.300310903673785e-07,-2.032617292384402e-06
-1.1594128691670837e-07,-9.899092546565394e-07,6.89689311862344e-07,1.4765186154770128e-06,1.1504114402583355e-06,8.284124519276096e-08,3.1122409797086232e-06,2.4958443693270566e-06,8.062632410504372e-07,-2.8626670075826888e-06,7.129721349828201e-07,-3.5028673453342205e-06,-2.909039329114499e-06,7.602969265162958e-06,3.81405106760948e-06,-2.184592057135744e-06,-4.532654041333609e-07,-2.0365186925892884e-06
-1.1717829263855479e-07,-9.365189455598287e-07,6.114497518223684e-07,1.4060155980449044e-06,1.2132067047013162e-06,6.04263939989211e-08,2.9761853878829e-06,2.40899623911226e-06,7.853813224320589e-07,-2.8479174898199805e-06,6.781715548860982e-07,-3.4918267856992865e-06,-2.951118923234302e-06,7.65324573701134e-06,3.7361174178085333e-06,-2.0801692013978543e-06,-4.683880496492396e-07,-2.02666353220051e-06
-1.468531194865064e-07,-8.969921945243228e-07,5.304268926633821e-07,1.3001749417328742e-06,1.2340707926754045e-06,8.889562001457871e-08,2.8323964490105857e-06,2.344658074544729e-06,7.66851973038954e-07,-2.8429719175562785e-06,6.44956734762066e-07,-3.446873192680808e-06,-2.963719044180363e-06,7.803440040441693e-06,3.6788702476577107e-06,-1.985495351771602e-06,-4.705271820661691e-07,-2.0521115422015044e-06
-1.9004360558647426e-07,-8.325930061800813e-07,4.787509694889181e-07,1.2117388913768373e-06,1.233636264907154e-06,7.784801282541732e-08,2.6920317108477096e-06,2.279637474485384e-06,7.470349665680864e-07,-2.8289141960053185e-06,5.700249650508986e-07,-3.3886810322202646e-06,-3.0025376681269972e-06,7.949092983831734e-06,3.6743102586165437e-06,-1.921541910132555e-06,-4.6416198076619575e-07,-2.08000246034043e-06
-2.4532487702326316e-07,-7.555140319199592e-07,4.6589789013243363e-07,1.204694774839267e-06,1.1960128069069999e-06,7.589017558553336e-09,2.597540629484336e-06,2.2960398409206742e-06,7.246161264907105e-07,-2.7665341515353265e-06,4.346367567217256e-07,-3.4008109536861754e-06,-3.0266050410545344e-06,7.969618212187401e-06,3.6805975196588713e-06,-1.903135847896137e-06,-4.564085252915473e-07,-2.049484872755656e-06
-2.7103165378235613e-07,-7.430765727842227e-07,4.977781861976548e-07,1.2072301483331717e-06,1.1155608936535834e-06,-1.864903167654809e-08,2.5346677654558133e-06,2.3656094267265505e-06,6.941204540764394e-07,-2.7051379813150698e-06,2.994873190391036e-07,-3.4371201780325894e-06,-2.982260810420305e-06,7.948500298558997e-06,3.7022599083571556e-06,-1.9263403298055404e-06,-4.4614144754054647e-07,-2.013368704105702e-06
-2.65563318779375e-07,-7.371704028404983e-07,5.512368525585447e-07,1.214565080200273e-06,1.0129805535868292e-06,-5.5288635887959765e-09,2.4997706571640817e-06,2.4224874845781593e-06,6.559322809108144e-07,-2.676768023799178e-06,1.7656300887975594e-07,-3.4437812281362364e-06,-2.871405643307835e-06,8.015618610441039e-06,3.7551661848792246e-06,-1.9797249168592468e-06,-4.3999153955282863e-07,-2.056458217930335e-06
-2.274206527905047e-07,-7.52965069413293e-07,6.236131145378655e-07,1.2329475490797912e-06,9.146538068304523e-07,5.113283734805783e-08,2.478389191340197e-06,2.477579838146309e-06,6.036974024782155e-07,-2.7538618525049283e-06,5.862304148804429e-08,-3.44827388605825e-06,-2.802201295337282e-06,8.150740186370112e-06,3.8392043008839114e-06,-2.0442443889338673e-06,-4.413067444162742e-07,-2.1020051435173233e-06
-1.6311913686394611e-07,-8.127708703293614e-07,6.947735251947323e-07,1.2750863008086492e-06,8.229318025228744e-07,1.1618411197522202e-07,2.446409586826557e-06,2.4979927358581423e-06,5.451167983379689e-07,-2.851002480169051e-06,-4.532070090143971e-08,-3.441908845721459e-06,-2.8587709882398296e-06,8.305840465454863e-06,3.9368506032890585e-06,-2.105695109864855e-06,-4.4811770515312016e-07,-2.1676390417709337e-06
-8.469304492998096e-08,-8.894193622053777e-07,7.552064733221302e-07,1.328820925749569e-06,7.453621808509097e-07,1.4628376906519885e-07,2.4294578690269303e-06,2.46771718336513e-06,5.002263233645092e-07,-2.9660023102228973e-06,-1.377119438855867e-07,-3.4186573240882695e-06,-2.96259409669421e-06,8.500172232431948e-06,4.026680303437461e-06,-2.1542480682653614e-06,-4.560121859310973e-07,-2.2694188371352397e-06
6.407576752516786e-11,-9.657798323536573e-07,8.034793016305946e-07,1.3551646071851989e-06,6.85882788957353e-07,1.6848304973305432e-07,2.4118180491219144e-06,2.425965806571571e-06,4.7177886998155817e-07,-3.087673331908781e-06,-1.8089258026730752e-07,-3.439238089785001e-06,-3.099240182832967e-06,8.596878923038354e-06,4.112182957606462e-06,-2.194151877910874e-06,-4.58586702739653e-07,-2.3905751812949133e-06
8.302158261288237e-08,-1.0018857930875795e-06,8.323048947360626e-07,1.352397859467322e-06,6.367403081705159e-07,1.489326576259971e-07,2.374212184547665e-06,2.3577038281742383e-06,4.6172319277187933e-07,-3.1632111321444833e-06,-2.2596051348006106e-07,-3.4632109714038423e-06,-3.2282298320039087e-06,8.593441177588728e-06,4.18840243690736e-06,-2.223912851730289e-06,-4.50568457507616e-07,-2.536584531988718e-06
1.4223323506241686e-07,-1.0028257593390316e-06,8.395234473651893e-07,1.3083993856652872e-06,6.002476617353961e-07,8.635647076314026e-08,2.310605061798805e-06,2.247748561523799e-06,4.663960286800048e-07,-3.101592731368985e-06,-2.7739962856563294e-07,-3.4887591682878125e-06,-3.358485241059688e-06,8.631593630357445e-06,4.22322394767656e-06,-2.2179376131527594e-06,-4.2931283335120186e-07,-2.6300205071182456e-06
1.6554143243294077e-07,-9.86815897298942e-07,8.25039259712038e-07,1.2421405770871265e-06,5.677705130129119e-07,2.126205085359935e-08,2.209647197612652e-06,2.1004458486908732e-06,4.830942555834018e-07,-3.029812610325805e-06,-2.3008519490581598e-07,-3.486734239241114e-06,-3.39867864156203e-06,8.57314577298572e-06,4.2428361791283605e-06,-2.0991231149168663e-06,-3.9553590782627485e-07,-2.5829788577539245e-06
1.5222008819346987e-07,-9.592737018946774e-07,7.892498851053027e-07,1.1638872542179025e-06,5.292317669770466e-07,-3.217443961893493e-08,2.075798658876436e-06,1.924863826896111e-06,5.11051022758477e-07,-3.066569463768689e-06,-1.692244229903796e-07,-3.4779373005912497e-06,-3.324711738034308e-06,8.440797203377904e-06,4.221350864624361e-06,-1.817778084588142e-06,-3.544190894508335e-07,-2.582156550869276e-06
9.630796874563594e-08,-9.349773774586083e-07,7.35242929994478e-07,1.0796303904454874e-06,4.795344634590679e-07,-5.540993018390658e-08,1.921213881170446e-06,1.7228748450695494e-06,5.441417566707437e-07,-2.946242523183729e-06,-3.623270593676054e-08,-3.4643401912843026e-06,-3.1726152417901103e-06,8.373317064085342e-06,4.153511517524393e-06,-1.4753804825001886e-06,-3.129483415455468e-07,-2.589245010582644e-06
4.2745140091654135e-09,-9.123493939951388e-07,6.689227152630059e-07,9.858404985544569e-07,4.095088325999618e-07,-4.867275160829639e-08,1.7602868968982151e-06,1.5087683943023725e-06,5.736983180187746e-07,-2.686454424363009e-06,1.0075750232484227e-07,-3.430129108756461e-06,-2.9540329029468098e-06,8.077299043224065e-06,3.995705526507988e-06,-1.166909649422119e-06,-2.793304251299142e-07,-2.5186261462888637e-06
-1.1292522682238126e-07,-8.945498813667527e-07,6.0041686550771e-07,8.917777905856876e-07,3.2124335512148573e-07,-1.5613046460964757e-08,1.6038158746199159e-06,1.299536458439463e-06,5.885874498154484e-07,-2.441476369159566e-06,1.8375669357082405e-07,-3.3837177852788152e-06,-2.700615225293047e-06,7.614443538548427e-06,3.7620652534410263e-06,-8.58856401804012e-07,-2.589467833872176e-07,-2.421012988329384e-06
-2.4145142962866354e-07,-8.834999523068844e-07,5.433025948403543e-07,8.17090573929778e-07,2.221074665388175e-07,2.2880470581655634e-08,1.4740211073133e-06,1.0996964866899719e-06,5.896436607568299e-07,-2.2645557795684295e-06,2.7111254095481016e-07,-3.303007273549941e-06,-2.4470001290370975e-06,7.1599983113789324e-06,3.4865109557355876e-06,-7.059072113037518e-07,-2.527523637244683e-07,-2.3438664881125615e-06
-3.595738074794725e-07,-8.762536505973006e-07,5.10640058474077e-07,7.653774505227411e-07,1.1813733460917475e-07,5.689043797268634e-08,1.3862019973674047e-06,9.313920260893754e-07,5.777214128293773e-07,-2.1341075939619617e-06,2.389209591707292e-07,-3.1906043716000804e-06,-2.2159236928202034e-06,6.6896245544326e-06,3.1849629136669e-06,-6.971109667357716e-07,-2.58198804892587e-07,-2.2271420867407644e-06
-4.483761909233497e-07,-8.712944200177396e-07,5.105972268305346e-07,7.419982103935363e-07,2.2418806559243784e-08,8.155219474651396e-08,1.342166101107257e-06,8.079359361923434e-07,5.577124803637094e-07,-2.011522177272855e-06,2.2920871972978721e-07,-3.04988638307249e-06,-2.004321960067359e-06,6.403708414055007e-06,2.9101727276488268e-06,-6.262557034793061e-07,-2.7140327012721864e-07,-2.1492562352895405e-06
-5.083763623227865e-07,-8.653928141316529e-07,5.437730134056733e-07,7.473499494521806e-07,-5.969806912621354e-08,9.181750183866815e-08,1.3364543602021112e-06,7.268551831172058e-07,5.363208694383909e-07,-1.877586210097262e-06,2.2569690587949311e-07,-2.9034127313220903e-06,-1.821450010351144e-06,6.110054623361331e-06,2.682369520890779e-06,-6.464205335394163e-07,-2.8565662585217117e-07,-2.095419930297316e-06
-5.398604359892561e-07,-8.564716584230129e-07,6.034093265869981e-07,7.732459566369547e-07,-1.2766121776206568e-07,9.162536032147281e-08,1.3536883826253278e-06,6.933631502914596e-07,5.170362103479734e-07,-1.9188890328904946e-06,1.1224826601436396e-07,-2.803034992456972e-06,-1.687272095401192e-06,5.795957681816481e-06,2.512445718956307e-06,-7.125270415420031e-07,-2.9552086006159495e-07,-2.0546606535743407e-06
-5.535770664569891e-07,-8.444372391555103e-07,6.764027477372043e-07,8.16979293328742e-07,-1.7672722879349943e-07,8.480440320106519e-08,1.375945577988437e-06,6.924671463916951e-07,5.029251941353271e-07,-1.9770270795383627e-06,1.3728589755439484e-09,-2.737971333200438e-06,-1.5854087868573411e-06,5.773298065478627e-06,2.4033013533682455e-06,-8.023748540742151e-07,-2.992667682022984e-07,-2.0427539098003925e-06
-5.612547445515062e-07,-8.300473193460124e-07,7.474792043058041e-07,8.729531183984277e-07,-2.0419630290923504e-07,7.0281730326868e-08,1.3898730744654569e-06,7.030533935610097e-07,4.945442073248427e-07,-1.9620232413860598e-06,-4.2197516733186197e-08,-2.711664456138236e-06,-1.4903056239071663e-06,5.823901185755826e-06,2.3537808594605517e-06,-8.333293644427157e-07,-2.971715872313807e-07,-2.0311659275162267e-06
-5.756143258179532e-07,-8.144749047595168e-07,8.033011528467041e-07,9.320764617849958e-07,-2.1017368578157907e-07,5.4700592535581484e-08,1.383914731533122e-06,7.088985752803856e-07,4.864032848847282e-07,-1.927150965943765e-06,-6.078721567260749e-08,-2.7325198643746284e-06,-1.4051677717477833e-06,5.869775711338511e-06,2.3451252301685147e-06,-7.765572441814552e-07,-2.9552487561712453e-07,-2.0162246793659226e-06
-6.072032660337534e-07,-7.995123262927425e-07,8.337452232823222e-07,9.848932488784218e-07,-1.969520929554331e-07,3.3959087675799246e-08,1.3507238884233702e-06,6.952419024759518e-07,4.762449244321109e-07,-1.8659635841236465e-06,-5.890355567797603e-08,-2.7916319550756647e-06,-1.3215777135451128e-06,5.8000512295478835e-06,2.3513522981038475e-06,-6.900828374346582e-07,-2.977785887942208e-07,-2.0056270690198085e-06
-6.622070267525648e-07,-7.875889864303386e-07,8.33491267943811e-07,1.0212179677769208e-06,-1.7107367186499538e-07,1.298236089812649e-09,1.2881305812897205e-06,6.51635936231167e-07,4.6133234535412033e-07,-1.7720647348868913e-06,-3.25014216840029e-08,-2.88536356347412e-06,-1.2609615217584157e-06,5.576691260452616e-06,2.355661025740635e-06,-5.876274127404049e-07,-3.1262155207354784e-07,-1.991054039434386e-06
-7.378939374325623e-07,-7.809433254229613e-07,8.03332817955765e-07,1.0335860475851994e-06,-1.429968987195127e-07,-4.5357611130584945e-08,1.1989125900805929e-06,5.753445350561617e-07,4.393197712805798e-07,-1.6657121240675445e-06,7.145230182881047e-09,-3.0012484381065926e-06,-1.2185185549102748e-06,5.281305512038554e-06,2.3513986029347854e-06,-4.783720298631941e-07,-3.430956330183885e-07,-1.9768426034277037e-06
-8.275645141952945e-07,-7.810339588950718e-07,7.496711460313806e-07,1.0196387295968399e-06,-1.2097512618112864e-07,-1.0754623174394535e-07,1.09165510236282e-06,4.68904168093896e-07,4.089768542083996e-07,-1.5484222210242187e-06,5.1417688802354815e-08,-3.1131197013962845e-06,-1.1839436516073267e-06,4.918199210801171e-06,2.3337668944372663e-06,-3.9155152278874114e-07,-3.7270331826996683e-07,-1.9652415066772654e-06
-9.240431780930169e-07,-7.886295817660731e-07,6.821952484789049e-07,9.828704281191661e-07,-1.1066543968703451e-07,-1.8126947712947575e-07,9.79247988916106e-07,3.3971362623671224e-07,3.7039662627060365e-07,-1.451262329357918e-06,9.462270518628499e-08,-3.201851992346616e-06,-1.1661577669247034e-06,4.5340482036683596e-06,2.319977982721245e-06,-3.27300393725353e-07,-4.059022501025407e-07,-1.9567897674497765e-06
-1.016938526905442e-06,-8.03501424439685e-07,6.119966897751421e-07,9.295119154022994e-07,-1.1163850249426747e-07,-2.5961223051020354e-07,8.713776878101314e-07,2.0199684503511833e-07,3.2585638879814057e-07,-1.3856574334020512e-06,1.4437431999540979e-07,-3.2793731430258404e-06,-1.1589959274022462e-06,4.26750805305041e-06,2.2895111472267886e-06,-2.87279458861833e-07,-4.433840900481296e-07,-1.9546604627346673e-06
-1.0992173086949817e-06,-8.238973242895584e-07,5.49745242316856e-07,8.692893127238268e-07,-1.2772055134052098e-07,-3.3400675682800493e-07,7.812353375190483e-07,6.97686264915174e-08,2.8011725757663446e-07,-1.3588465083307972e-06,1.981961637300016e-07,-3.3515368796760908e-06,-1.1620156269440817e-06,4.074119827879014e-06,2.2837248240037245e-06,-2.6882721620078e-07,-4.791769879704855e-07,-1.947990577805206e-06
-1.1641512615959033e-06,-8.471779525249966e-07,5.032628062043494e-07,8.133485762076203e-07,-1.5521399836136328e-07,-3.9808907589392683e-07,7.200518153052111e-07,-4.4481291641515606e-08,2.3966255073746696e-07,-1.3590351449085638e-06,2.545805857529175e-07,-3.4440992999051465e-06,-1.179220778310881e-06,3.982536482253873e-06,2.3099256590409753e-06,-2.646918305118509e-07,-5.119444399330734e-07,-1.946145985951779e-06
-1.2072221153123797e-06,-8.714461450165986e-07,4.773891622488661e-07,7.712983184522458e-07,-1.9061165503554506e-07,-4.442567732127169e-07,6.932765344197133e-07,-1.3020922223649375e-07,2.0644510104441768e-07,-1.3769040570276009e-06,3.0405075747024905e-07,-3.5332489735334673e-06,-1.205999415671404e-06,3.981365833756298e-06,2.3520513472121603e-06,-2.7154776797887814e-07,-5.367627960574992e-07,-1.9561229704981323e-06
-1.2258972253665658e-06,-8.96320178695128e-07,4.754488776542217e-07,7.517893908689179e-07,-2.3671002488160284e-07,-4.6527549295180367e-07,7.020230218761342e-07,-1.7734055483329738e-07,1.7921464022421467e-07,-1.413405214221091e-06,3.594121095007878e-07,-3.603811018603557e-06,-1.2299310217694511e-06,4.032058297606114e-06,2.4099779680616474e-06,-2.8970647119898114e-07,-5.543411361801591e-07,-1.9718904562003036e-06
-1.218528683727342e-06,-9.219914413045804e-07,5.008167435100875e-07,7.624697191112747e-07,-2.894873586135188e-07,-4.5527456911453874e-07,7.464408324038515e-07,-1.7580525845958387e-07,1.556706567111872e-07,-1.4658799830031795e-06,4.1291755880480576e-07,-3.653350941264113e-06,-1.250375240016609e-06,4.1590972352323055e-06,2.459850080492472e-06,-3.225868437183807e-07,-5.574031794037583e-07,-1.9974863921044812e-06
-1.1833531041979623e-06,-9.490245107678342e-07,5.567274988056089e-07,8.086840287372101e-07,-3.5300044455244703e-07,-4.1000364672860894e-07,8.24191942565593e-07,-1.1659320715601468e-07,1.3181475582689315e-07,-1.5424358312095522e-06,4.583895280544357e-07,-3.6727376599578942e-06,-1.2700317408312551e-06,4.352226667823147e-06,2.4930662361748088e-06,-3.754628469914495e-07,-5.485139878885835e-07,-2.032629342366804e-06
-1.1203501224572182e-06,-9.779158047807346e-07,6.448531977686969e-07,8.923318336792996e-07,-4.3053820030747314e-07,-3.297508782271032e-07,9.275689923184621e-07,4.5398216249818296e-09,1.0320002681430752e-07,-1.6253879241271407e-06,4.8718056554419e-07,-3.6678962632066e-06,-1.2862100675116368e-06,4.591356976763386e-06,2.505392218611546e-06,-4.5162124841476767e-07,-5.312819445936935e-07,-2.0775361799220945e-06
-1.0350751486109226e-06,-1.0077040547079897e-06,7.646708619160701e-07,1.0120364819007284e-06,-5.211650474071693e-07,-2.1879564110998298e-07,1.0556754180263202e-06,1.8560408749742737e-07,6.776339820377157e-08,-1.7179941719676412e-06,3.714025095458363e-07,-3.645270346812467e-06,-1.3021607133576007e-06,4.8583375001788e-06,2.5046274858596548e-06,-5.487447902532633e-07,-5.043463528035238e-07,-2.128704253377899e-06
-9.313105421470766e-07,-1.035594699441639e-06,9.156540588469861e-07,1.1627944944519501e-06,-6.173896281548986e-07,-8.510762791045493e-08,1.1801470972147804e-06,4.1676514071355076e-07,2.6358874473099e-08,-1.8224897078298311e-06,1.7896844390579018e-07,-3.5801238297397344e-06,-1.3186688223462154e-06,5.147527217485755e-06,2.4802473590946567e-06,-6.59495798726988e-07,-4.723721852828538e-07,-2.1558854690991597e-06
-8.184866648539378e-07,-1.0581921507576375e-06,1.0824808365159677e-06,1.3343158031372548e-06,-7.083191209343757e-07,5.924917357529543e-08,1.288650363273094e-06,6.784716567572383e-07,-1.860373023957247e-08,-1.9004649405641349e-06,-2.2398646416111447e-08,-3.475556126305899e-06,-1.328280483161057e-06,5.351439148666702e-06,2.4282442289740267e-06,-7.741989094707274e-07,-4.1110530374782897e-07,-2.150108599684699e-06
-7.067449269539067e-07,-1.072644785955843e-06,1.2505353326248037e-06,1.5112206402473314e-06,-7.836156401161906e-07,1.9965334042972862e-07,1.3710265081218225e-06,9.196367118670716e-07,-6.377582654171199e-08,-1.9466926811712874e-06,-1.8835730428678576e-07,-3.3453015744944813e-06,-1.3236775351222354e-06,5.39831619312529e-06,2.338730827049428e-06,-8.817399297217727e-07,-3.4155401590917186e-07,-2.1075256057808773e-06
-6.058904453927936e-07,-1.0765450783663731e-06,1.4023840785149494e-06,1.6765252989067569e-06,-8.332863060193692e-07,3.222329836096382e-07,1.4082768795121661e-06,1.1185948650647278e-06,-1.0466953008225329e-07,-1.9486378926878535e-06,-3.1600536700561573e-07,-3.194169538194328e-06,-1.2939181183878501e-06,5.3146650765776935e-06,2.1939880972375165e-06,-9.70538112887785e-07,-2.626215919398042e-07,-1.9695945839772805e-06
-5.244214665743017e-07,-1.0679870777115166e-06,1.4740557998354132e-06,1.815504883464475e-06,-8.527796402709626e-07,4.16412240627942e-07,1.395747566337444e-06,1.2487411816866015e-06,-1.368415912863668e-07,-1.8934027970075657e-06,-4.3156650285708814e-07,-3.0400678655979673e-06,-1.2368228096944906e-06,5.198379363239539e-06,2.0061909973820934e-06,-1.0309570917991434e-06,-1.706456208468008e-07,-1.8995103348921135e-06
-4.6557241510029985e-07,-1.0463223642470324e-06,1.5260325618167531e-06,1.918131077886489e-06,-8.412071822545947e-07,4.759124344359353e-07,1.3315129814165147e-06,1.2782180254624062e-06,-1.5709020077606341e-07,-1.8067883858149818e-06,-5.015986815222655e-07,-2.9223250044325315e-06,-1.1512929176298568e-06,5.13829460148135e-06,1.771582278786816e-06,-1.0560595784478573e-06,-1.2394401126453795e-07,-1.8458704354210001e-06
-4.27760401388676e-07,-1.0123260187235285e-06,1.60883774920148e-06,1.9812003607073303e-06,-8.039682768296398e-07,4.996517156574075e-07,1.2278301562912722e-06,1.3244662768048152e-06,-1.6336025245458153e-07,-1.6758198856261625e-06,-4.946969464230856e-07,-2.8091555528690828e-06,-1.0450863521862543e-06,5.080352787873546e-06,1.496286602997175e-06,-1.0396595554865985e-06,-6.267397110964452e-08,-1.6753183483382028e-06
-4.025483113081174e-07,-9.670946173318996e-07,1.62244784049968e-06,2.009226132017474e-06,-7.536311003629526e-07,4.923522986398189e-07,1.0814289081696994e-06,1.2487624154715533e-06,-1.5359299481753502e-07,-1.5010757060632101e-06,-4.040890230261951e-07,-2.672870630105992e-06,-9.228611555944307e-07,4.622468341467093e-06,1.2129846499547272e-06,-9.763147922692626e-07,2.909420780684014e-08,-1.4604910593841761e-06
-3.783626772673621e-07,-9.114750471728127e-07,1.574932291449814e-06,2.0112117446632833e-06,-7.04936361399932e-07,4.6327712498216625e-07,9.378140405235385e-07,1.1519174072971617e-06,-1.2650062549468632e-07,-1.3107807743901145e-06,-2.127240043273572e-07,-2.5528227050943574e-06,-8.240491537750388e-07,4.107400641979226e-06,9.308723723309191e-07,-8.647789592256597e-07,2.0109510530654466e-07,-1.240318899804357e-06
-3.4318776093848044e-07,-8.467564581542246e-07,1.5378672695561234e-06,1.9914968354202312e-06,-6.782156982539731e-07,4.2370840847498905e-07,7.949806609588935e-07,1.023613220351373e-06,-7.951474206451283e-08,-1.1405727167324095e-06,-8.477913967966924e-08,-2.3419562493823094e-06,-7.663255564923862e-07,3.601676805295237e-06,6.646232535030757e-07,-7.10305491562164e-07,3.617340611458912e-07,-1.0248770805720187e-06
-2.896795279690633e-07,-7.74975736048158e-07,1.5203997697526097e-06,1.9520021809544443e-06,-6.932676501112438e-07,3.850556342703683e-07,5.683459295325628e-07,9.257676667336735e-07,-1.7940701420693434e-08,-9.687485362550099e-07,9.649309352568695e-09,-2.1246360625824873e-06,-7.73278733707624e-07,3.076319526777282e-06,4.2775714836976815e-07,-5.240288240738222e-07,4.421365338774624e-07,-8.478093395087977e-07
-2.1692304709201187e-07,-6.986289918675227e-07,1.5065435640640574e-06,1.8894303622949291e-06,-7.622028992160382e-07,3.573328637787469e-07,3.797706099748613e-07,8.515737147394851e-07,5.714611071210137e-08,-7.958560858749488e-07,7.804302835079684e-08,-2.0179810105599785e-06,-9.36615488822952e-07,2.664078269639734e-06,2.0873405617481478e-07,-3.226574263042181e-07,4.720826078360403e-07,-7.014049464129007e-07
-1.3001492300642088e-07,-6.20891397734319e-07,1.4932318450091348e-06,1.799683081684205e-06,-8.893619348076745e-07,3.469891232435416e-07,2.614099580021674e-07,7.808744674508253e-07,1.4507135129116635e-07,-6.199116798420076e-07,1.068663594146649e-07,-1.9540242277810272e-06,-1.035651133878829e-06,2.248090018510777e-06,2.5444348534162844e-08,-1.2868492758447395e-07,5.517583358681573e-07,-5.842173695690262e-07
-3.881660034658611e-08,-5.456578605151467e-07,1.4696444102902954e-06,1.6761166287421695e-06,-1.0654130149003232e-06,3.5533950644592305e-07,2.087559573905434e-07,6.52884295987228e-07,2.4159414367645637e-07,-3.425677645307285e-07,2.0237000287203232e-07,-1.878772725091971e-06,-1.1315884031078663e-06,1.803676401207991e-06,-1.404855345431042e-07,3.2819128401521184e-08,7.254888287476997e-07,-4.945033612989609e-07
4.553051268640423e-08,-4.768627079586342e-07,1.4260674130210696e-06,1.5177186933340048e-06,-1.268838268595349e-06,3.790202797708549e-07,2.6276916152806203e-07,4.5706238653054064e-07,3.4620332581598687e-07,-7.254529715812325e-08,3.0640581890765014e-07,-1.5877598703458692e-06,-1.2149163990404142e-06,1.3942315037409545e-06,-2.906150649469473e-07,1.4062425662028443e-07,9.067211421439242e-07,-4.209000984087794e-07
1.1372328400413399e-07,-4.181247665052473e-07,1.357481776708757e-06,1.3303677226740521e-06,-1.4705265549240982e-06,4.0985225764824566e-07,1.4014948307075846e-07,2.1552624416880647e-07,4.4513918783001144e-07,1.6778288410713243e-07,4.1590852455914854e-07,-1.3487378857524801e-06,-1.296467693579969e-06,1.0131747102244005e-06,-4.138873966549072e-07,1.8310050633456428e-07,1.0284063487484132e-06,-3.682757855270132e-07
1.5759967657528993e-07,-3.732631761604611e-07,1.2640481507779215e-06,1.1294649160222382e-06,-1.6425317278239193e-06,4.4263789557563527e-07,-3.6429438723811295e-08,-7.026918585850803e-08,5.305288031643128e-07,4.035683720927177e-07,5.698936347850308e-07,-1.254443340772563e-06,-1.3934953772115979e-06,6.790286840422556e-07,-5.106678780696712e-07,1.623304903468552e-07,1.0447127214889974e-06,-3.3769963289798563e-07
1.733999860049246e-07,-3.463635532210925e-07,1.1510777379439747e-06,9.619436275782614e-07,-1.7668929791932305e-06,4.724871028774818e-07,-6.454420317515256e-08,-2.996634415932391e-07,5.636257059954073e-07,5.68841500820296e-07,7.470690002550139e-07,-1.1664141089953733e-06,-1.507817181122758e-06,4.1968441692684694e-07,-5.702763167261577e-07,9.64397564404801e-08,1.0614355892696594e-06,-3.246421230473689e-07
1.6251398824605963e-07,-3.406638892904026e-07,1.0288284741068326e-06,8.448247697399567e-07,-1.839665084658461e-06,4.966697131405593e-07,-9.416159190158271e-08,-4.5828463438663737e-07,5.160968241659774e-07,6.244441741488395e-07,9.05762303705408e-07,-1.183444299790964e-06,-1.6472018730130454e-06,2.3755041194791697e-07,-6.162849540092333e-07,1.671360692881096e-08,1.021887569197002e-06,-3.2321017104809626e-07
1.3285276101998054e-07,-3.575285929637842e-07,9.115996477627334e-07,8.160478568035276e-07,-1.8696572823523434e-06,5.261709144905317e-07,-1.370631366837932e-07,-4.596783515633982e-07,4.625780516654627e-07,6.28655008048168e-07,9.267761303274496e-07,-1.222458407988217e-06,-1.7353653519201073e-06,1.6200934490967178e-07,-5.767691302390043e-07,-4.145647603329838e-08,9.906936895796488e-07,-3.2363939953125075e-07
9.782277030511477e-08,-3.9596084969700887e-07,8.121211562207857e-07,8.775454337663355e-07,-1.871590399370861e-06,5.665713715668518e-07,-1.37924606513182e-07,-4.6096546593872034e-07,4.3288615672293117e-07,7.303597381403474e-07,9.233518623392014e-07,-1.167067406560762e-06,-1.6515765595501036e-06,2.1090969649774534e-07,-5.542723864086289e-07,-4.842155201761151e-08,9.880342198345314e-07,-3.166247818088901e-07
7.213844976721539e-08,-4.5057737187407833e-07,7.478797311700589e-07,8.84770067924443e-07,-1.8586631707517444e-06,6.261346352262575e-07,-1.201086194399281e-07,-4.7092694098680705e-07,3.798640435860401e-07,8.024625961008223e-07,9.393345027303621e-07,-1.0384410083715897e-06,-1.6347004668921148e-06,3.9612307927420836e-07,-5.576390905752098e-07,1.3300574296325594e-08,9.718997548815761e-07,-3.0553156645499023e-07
6.792837075203208e-08,-5.140113098344611e-07,7.536178546335894e-07,8.678489428904133e-07,-1.8353105088693572e-06,6.970564170972163e-07,-1.0996156345983875e-07,-4.645465660835705e-07,2.5548321518826517e-07,8.400655980446143e-07,9.681090460609956e-07,-9.116938931991452e-07,-1.569948456317042e-06,5.731116790705801e-07,-4.5306232364348814e-07,1.5115779159411533e-07,9.530307109147689e-07,-2.8849328018378825e-07
9.001809755383079e-08,-5.730335507326822e-07,7.535168414676497e-07,8.638572166123081e-07,-1.7954752428981584e-06,7.843368761307578e-07,-8.591105117415067e-08,-4.3498405455438437e-07,1.5438342908533802e-07,8.765762338461336e-07,1.036103937878274e-06,-7.100429583935643e-07,-1.4584927242016938e-06,5.82307392101442e-07,-3.527886068875186e-07,3.3947467268672875e-07,1.0008736594719147e-06,-2.7135985835020856e-07
1.3404564460161784e-07,-6.136228461467624e-07,8.34685562594452e-07,9.996265339907079e-07,-1.7261369697422154e-06,8.621788141233987e-07,1.2479452267596224e-08,-2.6645168276648516e-07,1.5297688773651396e-07,9.090866281912353e-07,1.1758874361171432e-06,-5.835245104400557e-07,-1.4366607108931777e-06,5.687155978604079e-07,-3.8206440988404053e-07,5.481016221945411e-07,1.064162415952667e-06,-2.7410721309585285e-07
1.8730052791625396e-07,-6.409663627002662e-07,9.335746226763399e-07,1.2059816920618303e-06,-1.6128422932837959e-06,8.362239349999471e-07,1.4993699958737235e-07,3.8080048911859075e-10,1.6708426454555205e-07,8.869995834460393e-07,1.2478396426322984e-06,-5.239122144488505e-07,-1.4227868206967358e-06,5.424457647827398e-07,-5.330444753270349e-07,7.392830381373912e-07,1.116475726949641e-06,-2.9048090471311835e-07
2.336369419664621e-07,-6.204285294379174e-07,1.0443636313784605e-06,1.376462200542314e-06,-1.4472305830205104e-06,7.608900565769963e-07,2.5798593529147867e-07,1.5743442125889202e-07,2.150265270799859e-07,7.475496836168783e-07,1.2525061068648338e-06,-5.242971992101282e-07,-1.311879876453403e-06,6.052071784840632e-07,-6.416610847868904e-07,7.824416902971416e-07,1.0965958696724164e-06,-3.3218667939459986e-07
2.5923016960895417e-07,-5.377103263117925e-07,1.1505866968293014e-06,1.434644975115968e-06,-1.2335750079009013e-06,6.634986905414827e-07,3.133782681536923e-07,2.2107528216826458e-07,2.3778890576270993e-07,5.840798906878017e-07,1.1573354775150462e-06,-5.570550293704337e-07,-1.1082160066183526e-06,1.0040786983530123e-06,-5.727234472249422e-07,7.665820850203575e-07,1.0387743074942397e-06,-4.0316677157883766e-07
2.5751499921333315e-07,-4.3972571374935787e-07,1.2399011377122564e-06,1.5102078477198723e-06,-9.896990463113875e-07,4.73738457703263e-07,3.6299979886358415e-07,3.0708224791558636e-07,2.590705490617107e-07,3.971836070477222e-07,1.0506248627567298e-06,-6.208705983293384e-07,-8.787025988107689e-07,1.4634210684431245e-06,-4.0422722093201104e-07,8.30178404066698e-07,8.94380077998746e-07,-4.929421534678469e-07
2.316237962263243e-07,-3.378936626785587e-07,1.3072169395056872e-06,1.5508784595587594e-06,-7.414189129412226e-07,2.38305627802676e-07,5.341878177617919e-07,3.034735968131933e-07,3.551999620871313e-07,2.793501935943274e-07,9.378162588428389e-07,-7.407732277130599e-07,-7.277617445278075e-07,1.908676234967214e-06,-1.8869272210083234e-07,7.282260581436917e-07,7.138790563549666e-07,-5.914968732710579e-07
1.9218431113809844e-07,-2.3185476554076217e-07,1.3544914936680154e-06,1.4731334024556476e-06,-5.14295253731278e-07,3.908326841822098e-08,7.149171186232175e-07,2.0440418673026484e-07,4.780898036381129e-07,1.63541363832403e-07,8.027487353135935e-07,-8.689594203907985e-07,-4.6782591263107816e-07,2.3541518915898483e-06,5.728394577465955e-08,5.143353633972036e-07,5.893667368843031e-07,-6.847637310405886e-07
1.522495692947026e-07,-1.3345888420620345e-07,1.3881370129159369e-06,1.3620463923090586e-06,-3.2614437485939917e-07,-9.093691098196986e-08,8.154335919677329e-07,5.275493938763305e-08,6.047196527207486e-07,1.6272839110596914e-08,7.155224317377191e-07,-1.0369358115102014e-06,-2.159683283576788e-07,2.707557501574545e-06,2.3246995408896997e-07,3.1367531577922795e-07,4.946968652518731e-07,-7.616642830879341e-07
1.2221657203775527e-07,-5.3334954672003554e-08,1.4163533826725965e-06,1.2987214124192871e-06,-1.8202059574235362e-07,-1.849923968091554e-07,9.007012395798202e-07,-2.766927624453111e-08,7.236176951516965e-07,-1.2206935676720247e-07,6.389137332784508e-07,-1.1474544188238523e-06,9.932440880943077e-08,3.0365240503003412e-06,3.361440583012999e-07,1.5238049217360007e-07,4.3774592688224655e-07,-8.148650970740869e-07
1.0653794358437444e-07,1.106767675658311e-08,1.4467015583076354e-06,1.2774786124798587e-06,-7.387516594739773e-08,-2.3439558835401786e-07,9.044096546771343e-07,-5.409782912266742e-08,8.336293243862628e-07,-2.633292538992582e-07,5.790927546067658e-07,-1.1379671627924519e-06,3.7294906071126886e-07,3.3660216151529545e-06,4.0651198462829336e-07,1.6281939377882604e-08,4.0821196909145904e-07,-8.490228929504583e-07
1.0276005007742244e-07,6.658622383322988e-08,1.4831245939805524e-06,1.282567502785385e-06,1.461016315782072e-08,-2.2015423097447277e-07,9.35131825071633e-07,-5.337182251243063e-08,9.10958470244412e-07,-3.8619864234836644e-07,5.408397761898837e-07,-1.0847765562255372e-06,6.288814317117749e-07,3.695416503975637e-06,4.6804454235586185e-07,-8.24231651170155e-08,3.7772458789629706e-07,-8.671432275943411e-07
1.0334030575270547e-07,1.2233182916625036e-07,1.5252157257622187e-06,1.3085729849659205e-06,1.0127554971576605e-07,-2.0642972150066738e-07,9.534902195144412e-07,-3.56098030855838e-08,9.656136587230228e-07,-4.944148882971245e-07,4.996579755098465e-07,-1.045268451281338e-06,7.921114759546263e-07,3.9241520632422225e-06,5.546698393487632e-07,-1.4426168610623352e-07,3.5059278179238354e-07,-8.73058220423062e-07
9.963099293867995e-08,1.867702373981871e-07,1.5697902462636138e-06,1.3441457991001402e-06,1.9962859818754553e-07,-2.029948980509175e-07,9.509418914827484e-07,-1.4285812009826223e-08,1.0156416506960902e-06,-5.425507384278639e-07,4.6246528996160336e-07,-9.694149158917868e-07,9.248037712237212e-07,4.13840796148409e-06,6.516954556711188e-07,-1.722193036674285e-07,3.6498549866016897e-07,-8.699114442749902e-07
8.575826877380527e-08,2.646922022976848e-07,1.6122884482099731e-06,1.3817097173242902e-06,3.138721277380396e-07,-2.1174858923655226e-07,9.90916513738828e-07,4.078081418889868e-09,1.0656225778828748e-06,-5.84943195533993e-07,4.635318635391472e-07,-9.253704623039587e-07,9.775780982503742e-07,4.35863057132173e-06,7.554158713258129e-07,-1.7061226851790854e-07,3.9917456515437343e-07,-8.492542954999777e-07
6.094014119798447e-08,3.5458262418388654e-07,1.6479307515790285e-06,1.4199602599754375e-06,4.356722719876004e-07,-2.3601405764293e-07,1.0370739006515993e-06,2.2589727002079368e-08,1.119265794983211e-06,-6.089803576698342e-07,4.838653905920577e-07,-9.007769475440875e-07,9.192915887124133e-07,4.530556263431941e-06,8.64242279192478e-07,-1.4386750621026982e-07,4.4373143527294835e-07,-8.089648442302208e-07
3.053420362882111e-08,4.4831538284471124e-07,1.672887609045907e-06,1.4645170974385943e-06,5.451243226629549e-07,-2.5261497734315627e-07,1.0778292442423404e-06,5.313893632309115e-08,1.1642771400814413e-06,-5.964723273287459e-07,5.177614378181553e-07,-9.458977580350623e-07,8.635818079978485e-07,4.663882125304249e-06,9.520657242636077e-07,-9.398105284758013e-08,4.906254615201941e-07,-7.459123945687714e-07
7.057159548079156e-09,5.335857970476209e-07,1.686001486742508e-06,1.5266881304982911e-06,6.1599081856643e-07,-2.391933741267572e-07,1.1058230138657037e-06,1.1253234816009686e-07,1.1863852657335091e-06,-5.583542810814483e-07,5.698997595549145e-07,-1.0122698609497672e-06,7.812630552501544e-07,4.709489221361203e-06,1.0007747115795138e-06,-1.9821832449470466e-08,5.355354105928852e-07,-6.50661686970206e-07
3.0373481666958403e-09,5.975748158417842e-07,1.689283638523123e-06,1.6193008912772509e-06,6.230645982957533e-07,-1.2401886290371525e-07,1.1069087228434286e-06,2.162880668408969e-07,1.175659328047823e-06,-4.761290542733626e-07,6.361568265564295e-07,-9.943573009511077e-07,7.044609472233056e-07,4.638277887206993e-06,9.959697794769639e-07,8.081489862088248e-08,5.895637033601141e-07,-5.294270250475793e-07
1.9880369786783552e-08,6.308421459276339e-07,1.687638706903678e-06,1.751392948908938e-06,5.503353262017661e-07,-3.108319643535708e-08,1.0879678585494886e-06,3.7227515807461334e-07,1.127250840270775e-06,-3.434299343478387e-07,7.147884810014285e-07,-9.42897623845496e-07,6.700191853862753e-07,4.457406050649874e-06,9.333023857438169e-07,2.0890362509154726e-07,6.545418749563414e-07,-3.846679158158758e-07
1.0301154411026141e-07,6.308770926278421e-07,1.6881479592822263e-06,1.9241518253375195e-06,3.980458335352924e-07,7.087605966573212e-08,1.0741621357636737e-06,5.763076683050647e-07,1.0453739295491115e-06,-1.8671235213717123e-07,8.001195972873083e-07,-7.742071725999445e-07,6.254582157718226e-07,4.21841557272183e-06,8.29836136195069e-07,3.6178883803672357e-07,7.248031291688667e-07,-2.2343344185310027e-07
2.0799999020916782e-07,6.034000204910343e-07,1.6977535715283964e-06,2.1282584769974204e-06,1.846023284554154e-07,2.742686881250501e-07,1.071091462691615e-06,8.109862532047846e-07,9.431115585317409e-07,-3.4171826073922267e-08,8.784981485375848e-07,-6.136696501675627e-07,5.806569399059659e-07,3.940477934881639e-06,7.092835348026521e-07,5.30372003525124e-07,8.055898884063561e-07,-6.189543203012022e-08
3.486364666924542e-07,5.600035528221213e-07,1.7199201214708727e-06,2.343932308235427e-06,-5.8656785053476374e-08,5.227954795179829e-07,1.0807658570576446e-06,1.0494061586971062e-06,8.380050428036096e-07,1.1529536408714738e-07,9.367860567753952e-07,-4.224372149907006e-07,5.308611216487934e-07,3.6638717564940182e-06,5.768462687073244e-07,6.993826538507267e-07,8.845693255398602e-07,8.318589776272266e-08
5.018876529902855e-07,5.137784441600883e-07,1.7534635082710779e-06,2.546413724956002e-06,-2.9691116974125477e-07,7.575484203457286e-07,1.1060547194642734e-06,1.2637834520980769e-06,7.465099285848776e-07,2.4720300398298124e-07,9.840505799254487e-07,-2.478419057352965e-07,4.888283322480952e-07,3.433585298779823e-06,4.636928726328692e-07,8.523458267211601e-07,9.473819318035059e-07,1.9859140200768972e-07
6.481875737620439e-07,4.752658215367669e-07,1.7937301487259851e-06,2.7149538444672743e-06,-5.012625469074482e-07,9.346751236727244e-07,1.1414095661416912e-06,1.434686738760957e-06,6.797998381374587e-07,3.5312321566677956e-07,1.021597416677244e-06,-7.953441485127404e-08,4.772614983686606e-07,3.2573941769058767e-06,3.917282007949544e-07,9.766966481962766e-07,9.921049394267788e-07,2.781671001014997e-07
7.724710699800987e-07,4.4974284867939116e-07,1.8353773110750753e-06,2.838992439690793e-06,-6.552444364199772e-07,1.0579093785017135e-06,1.1845823534079915e-06,1.5553002014856988e-06,6.415206315676486e-07,4.320878464988899e-07,1.0490526387347252e-06,4.9289960505004246e-08,4.940560036826133e-07,3.1514922825917728e-06,3.6347721487853233e-07,1.0654936615087246e-06,1.0109616686183792e-06,3.214334453146521e-07
8.6746797978804e-07,4.3688376507024643e-07,1.8741063504088172e-06,2.918602174949446e-06,-7.560923122199904e-07,1.1307665586611967e-06,1.2333158448123904e-06,1.6294623314520444e-06,6.284265345675022e-07,4.79226559688306e-07,1.066013415385831e-06,1.1863227908784958e-07,5.280918459270346e-07,3.1108623366857353e-06,3.791257927488525e-07,1.1174929874808216e-06,1.003562332558457e-06,3.3574878834847806e-07
9.33653629332931e-07,4.3315228737853296e-07,1.907607577385118e-06,2.961306321218464e-06,-8.106799205694193e-07,1.2042124681742554e-06,1.2843399161629754e-06,1.6666102001839366e-06,6.336924511609689e-07,4.947108147500608e-07,1.070127061252074e-06,1.504488459650267e-07,5.540444167081327e-07,3.1144253735658276e-06,4.25914083998235e-07,1.136710641522882e-06,9.750552609911561e-07,3.283920764247829e-07
9.766407938565906e-07,4.3476233410836284e-07,1.935367181563773e-06,2.977632002594862e-06,-8.301810138224459e-07,1.2356112571526929e-06,1.3347224358341196e-06,1.6772417844369853e-06,6.500738102564765e-07,4.898658791108219e-07,1.062790841037693e-06,1.1155864210353114e-07,5.775305438876589e-07,3.1443554140594987e-06,4.88617726331387e-07,1.1302575026136442e-06,9.317891208771308e-07,3.062463333178769e-07
1.0035733022804538e-06,4.3882927187695907e-07,1.9570379157567863e-06,2.977154292596478e-06,-8.270744660510185e-07,1.236055553826373e-06,1.3809818000603814e-06,1.6708461438967347e-06,6.712145968628669e-07,4.719693222856672e-07,1.048914923096127e-06,4.977234341727787e-08,6.036787780142582e-07,3.177154579320399e-06,5.481721929903169e-07,1.1058189845639938e-06,8.765493147183569e-07,2.758260366300074e-07
1.020651306915571e-06,4.43180538843355e-07,1.971764986609598e-06,2.96708825015049e-06,-8.137489704729246e-07,1.2297895398156613e-06,1.419645915429253e-06,1.6561814671446416e-06,6.922587358790741e-07,4.4725078452587386e-07,1.0313712668422177e-06,-1.9432994346017926e-08,6.334412333556261e-07,3.19584805959117e-06,6.01252374991177e-07,1.0706928012206777e-06,8.195775651292615e-07,2.3995336514447196e-07
1.032558077110499e-06,4.461355758619396e-07,1.9786035837187883e-06,2.953174507534615e-06,-8.010905028809362e-07,1.2109218321999592e-06,1.448768195721495e-06,1.6419336552254881e-06,7.102029238271642e-07,4.2121228298866174e-07,1.0121641954796939e-06,-8.374070412520086e-08,6.72347994687695e-07,3.193537418011859e-06,6.412976244191684e-07,1.0309440786732129e-06,7.702755885372025e-07,2.0304158510610313e-07
1.04266244550135e-06,4.461544809211583e-07,1.9779706276643117e-06,2.940327889642773e-06,-7.974797356851106e-07,1.2014189824076715e-06,1.4683674073419824e-06,1.6360688655467358e-06,7.232492393651497e-07,3.9563985600528704e-07,9.930077088379655e-07,-1.3737103732580754e-07,7.109779937806973e-07,3.170945056202228e-06,6.57500041686447e-07,9.899560131887366e-07,7.3666025480191e-07,1.6852296035117173e-07
1.0532277189213886e-06,4.4151472279533574e-07,1.971671573202881e-06,2.932401890776731e-06,-8.081245369460422e-07,1.2064997812289616e-06,1.4799535497592714e-06,1.644336463993393e-06,7.30103863744432e-07,3.7022454178284987e-07,9.73887804554135e-07,-1.749621360934761e-07,7.45874987513531e-07,3.130163856553505e-06,6.522279872003756e-07,9.48588616705503e-07,7.203904515155603e-07,1.3959669736249827e-07
1.0657710762599622e-06,4.3090365784287476e-07,1.9624241233792454e-06,2.9320631143265965e-06,-8.340591653596085e-07,1.224817946653753e-06,1.486451414132555e-06,1.669076852035505e-06,7.303418253931104e-07,3.448182904098285e-07,9.526852847999018e-07,-1.934642707154478e-07,7.660435121888542e-07,3.0760562556811194e-06,6.278565361886012e-07,9.07024634837306e-07,7.178928199278257e-07,1.1712895452003885e-07
1.0811563099890142e-06,4.140996982710437e-07,1.953706425125068e-06,2.9402888739897616e-06,-8.720962976269851e-07,1.2450267823710975e-06,1.4916370085768464e-06,1.7085695829980134e-06,7.246696732713464e-07,3.160760374051476e-07,9.298406250534222e-07,-1.9807860550161744e-07,7.784043877847886e-07,3.0157054812659582e-06,5.896825399303508e-07,8.658327595764711e-07,7.244330675970223e-07,1.0025996014690478e-07
1.0992165695640048e-06,3.921999485597047e-07,1.9478352283692205e-06,2.9552568522521914e-06,-9.167593135911525e-07,1.2773551400151659e-06,1.4984559950962321e-06,1.7572523624786269e-06,7.143179416009958e-07,2.8800299479747675e-07,9.057564150082531e-07,-1.8647640521446805e-07,7.850196408003761e-07,2.9547756526530085e-06,5.482850852688802e-07,8.263411853817231e-07,7.354663944822257e-07,9.189023739735567e-08
1.1188618898057436e-06,3.6708245478729387e-07,1.9449811088641173e-06,2.9724743125162055e-06,-9.624201668677378e-07,1.3149168525238793e-06,1.5080013392236807e-06,1.8074140488042235e-06,7.007670537885025e-07,2.6154337706127994e-07,8.826193296981118e-07,-1.7545502341775266e-07,7.850195345046793e-07,2.9012297895400003e-06,5.125607990671385e-07,7.911725883258854e-07,7.409831202071181e-07,8.920716739237079e-08
1.138817989066014e-06,3.411066392621809e-07,1.9438811729121334e-06,2.986546623815482e-06,-1.0043749471960516e-06,1.3467389347771872e-06,1.5197471584062944e-06,1.8515635361342912e-06,6.858230929919134e-07,2.3697144154593057e-07,8.610014497297882e-07,-1.8208237347474797e-07,7.918596468797757e-07,2.862650901271432e-06,4.928051794466851e-07,7.628889746800838e-07,7.392298347933412e-07,9.047583571058582e-08
1.1579719065356907e-06,3.1633567473601347e-07,1.9421653128951294e-06,2.9924260230703825e-06,-1.0398919554389246e-06,1.3711004932456326e-06,1.5315485609711957e-06,1.8839572307011376e-06,6.707521650604639e-07,2.1675237993396514e-07,8.407295886763895e-07,-2.0115020405898157e-07,8.007554325125337e-07,2.8414537916272038e-06,4.883875275907303e-07,7.406280585835437e-07,7.294542411998742e-07,9.390830132686271e-08
1.174908105515358e-06,2.932221158885751e-07,1.93644885870263e-06,2.9857382449883497e-06,-1.0690857102177816e-06,1.3807068552103392e-06,1.5396968473246099e-06,1.9013398885028152e-06,6.552894458975005e-07,1.999250450854351e-07,8.219776022033959e-07,-2.3429609702287717e-07,8.056276727518907e-07,2.8355737111849747e-06,4.963300412360747e-07,7.192263451537056e-07,7.08039050511425e-07,9.497266738432447e-08
1.1877323400174966e-06,2.70607764308061e-07,1.9239881312545215e-06,2.9638290476647044e-06,-1.0940244497527324e-06,1.3753431346345507e-06,1.5405119223917218e-06,1.9036513602798098e-06,6.381531491845704e-07,1.861044304356842e-07,8.042766855822318e-07,-2.798227423141016e-07,8.073181463715157e-07,2.8354600674110374e-06,5.117171795792251e-07,6.92495204136249e-07,6.763096679478436e-07,9.075722987149188e-08
1.1945409173303569e-06,2.468818821889337e-07,1.9020184663484363e-06,2.927053069677087e-06,-1.1168024550588097e-06,1.3592091479374439e-06,1.5323696129664113e-06,1.8941099404754483e-06,6.181260664809256e-07,1.747042679507044e-07,7.887216857320276e-07,-3.318452278945279e-07,8.051242063140855e-07,2.8318352948860685e-06,5.281597922793729e-07,6.566315448716457e-07,6.356706155743378e-07,8.059096166335359e-08
1.1938591019146957e-06,2.207977604382037e-07,1.870784889718002e-06,2.8786679638024045e-06,-1.1385065273860722e-06,1.33725792760472e-06,1.5165175864936341e-06,1.8780520055914134e-06,5.944624500784633e-07,1.6546861507485875e-07,7.757145523773649e-07,-3.8951530131351173e-07,7.974398544685575e-07,2.818801257068844e-06,5.43489584520709e-07,6.117321185959815e-07,5.883773560839437e-07,6.579493009960525e-08
1.18520986328181e-06,1.9158524643309213e-07,1.8326855752930553e-06,2.8241284429358683e-06,-1.1586941308615313e-06,1.3152422270489559e-06,1.497500495622719e-06,1.861420279572904e-06,5.6766353801864e-07,1.5667091988659445e-07,7.653609909640049e-07,-4.499907180545268e-07,7.843262671079561e-07,2.794002458235534e-06,5.578282727333328e-07,5.62183889639783e-07,5.377613654831758e-07,4.861305919967596e-08
1.1698913067846854e-06,1.594737109886252e-07,1.7918325649756823e-06,2.770657147996576e-06,-1.174767360941383e-06,1.2986639215061927e-06,1.483338054294398e-06,1.8494594988570894e-06,5.406632408852528e-07,1.4811997163404514e-07,7.573677617198678e-07,-5.112028053607813e-07,7.665649838612265e-07,2.7639387147173378e-06,5.737036552497884e-07,5.149888496119237e-07,4.884965129046067e-07,3.359589072329986e-08
1.1507840995062912e-06,1.25830840268235e-07,1.7544948640787926e-06,2.725367273877999e-06,-1.1827319570150853e-06,1.2909774439279195e-06,1.483112273735257e-06,1.8448858243597151e-06,5.180466308758875e-07,1.3935896359394937e-07,7.514614394758699e-07,-5.711774474989788e-07,7.43455064246136e-07,2.7381697547146303e-06,5.964104405894852e-07,4.7483758944197377e-07,4.4152527994718245e-07,2.306804013516276e-08
1.130820430400119e-06,9.242227764851858e-08,1.7234950701453983e-06,2.691720528883159e-06,-1.1795153592633896e-06,1.2909563614855906e-06,1.5022112163825976e-06,1.8459659878422368e-06,5.032398047283656e-07,1.2736219309442727e-07,7.464358394284766e-07,-6.339556530145604e-07,7.18727414636656e-07,2.7219162932524373e-06,6.30849200365541e-07,4.4001636855469324e-07,3.951030716639048e-07,1.5081000830400795e-08
1.1117136741004616e-06,6.104839460180048e-08,1.699274794057109e-06,2.6678851178353884e-06,-1.1640931203517447e-06,1.2922243470186949e-06,1.539565621948375e-06,1.8465902622149747e-06,4.969312859960349e-07,1.0807139162800979e-07,7.399240538304215e-07,-7.033898340838173e-07,6.964451088932179e-07,2.7137764275063354e-06,6.788929612175851e-07,4.035525579812594e-07,3.4715564589816554e-07,1.8914603896375128e-09
1.0941491388506627e-06,3.400745882372489e-08,1.6804495843391108e-06,2.64871686010972e-06,-1.136572906152261e-06,1.28599030690575e-06,1.5887973775513302e-06,1.8388605622148098e-06,4.977892567259087e-07,7.735011423393674e-08,7.296294777937524e-07,-7.797022699521389e-07,6.780571947512531e-07,2.7087721844059894e-06,7.365215110271818e-07,3.5722060031832644e-07,2.961329070016744e-07,-2.0243240121215366e-08
1.0783659573485939e-06,1.3958581570527818e-08,1.665029207826798e-06,2.6285544293325963e-06,-1.097821442334893e-06,1.264617350443003e-06,1.6406193156266196e-06,1.816405509843323e-06,5.032540478647999e-07,3.279656684518634e-08,7.136610750001348e-07,-8.612865559359653e-07,6.651593742625443e-07,2.700047360606589e-06,7.957681546476945e-07,2.9458069545533904e-07,2.428168673557822e-07,-5.1213915852228575e-08
1.0642499808483678e-06,2.632690853805487e-09,1.6506996655900534e-06,2.60304864565247e-06,-1.0505875798542227e-06,1.2245789725461373e-06,1.684990932998538e-06,1.7772531139880101e-06,5.098045559787259e-07,-2.4864281952251774e-08,6.913007124228314e-07,-9.433264868023193e-07,6.579045631153439e-07,2.6817050461025155e-06,8.472682215149537e-07,2.1406075749662753e-07,1.9017812147794817e-07,-9.068097155981097e-08
1.051920553942196e-06,-2.2578577846208897e-10,1.6352825385520398e-06,2.5713993191220484e-06,-1.000204446995628e-06,1.1691511853392054e-06,1.7140725773917605e-06,1.7261748256919744e-06,5.140048535562163e-07,-9.067754866311723e-08,6.638604579548694e-07,-1.016247416663392e-06,6.555667303554719e-07,2.6538082865378135e-06,8.828554077641733e-07,1.2241896016821187e-07,1.4371382260840159e-07,-1.3443951214643533e-07
1.0427705021140828e-06,3.0649184432576104e-09,1.618437799456498e-06,2.538367924076213e-06,-9.54452894540033e-07,1.1094263735116578e-06,1.724793365405797e-06,1.6751885759896532e-06,5.135216575919652e-07,-1.5553102248159757e-07,6.348846675563554e-07,-1.0695459056927798e-06,6.574132626870012e-07,2.6217176962449904e-06,9.004171319006899e-07,3.41076572890185e-08,1.1052856977104723e-07,-1.7368743535675826e-07
1.0393823234072125e-06,8.058115993331709e-09,1.6009718841760868e-06,2.51297326804521e-06,-9.236515372448385e-07,1.0613312483709176e-06,1.7183613611530307e-06,1.6405008627716957e-06,5.065194300221377e-07,-2.083477103183916e-07,6.091908635421525e-07,-1.0931145560596237e-06,6.613965524626256e-07,2.5901929323134225e-06,8.986192587235296e-07,-3.445028531720412e-08,9.6423391073184e-08,-1.998168339424402e-07
1.0440663272103604e-06,8.674992644608683e-09,1.5838940166912116e-06,2.504216807258015e-06,-9.196538283959778e-07,1.0397847269015453e-06,1.697712178132773e-06,1.636817641432781e-06,4.90905327950381e-07,-2.3862966401584233e-07,5.914350147312663e-07,-1.0791436014466858e-06,6.639334617567595e-07,2.557955460973487e-06,8.770335711824284e-07,-6.994602613016366e-08,1.0408402152025806e-07,-2.0644763626887412e-07
1.0577458077807766e-06,-2.743399612549748e-10,1.5673727069742216e-06,2.5175832675553112e-06,-9.519565644189319e-07,1.0535782266261803e-06,1.6659702704071448e-06,1.6719509477042548e-06,4.653899737590552e-07,-2.379544064570357e-07,5.853312333382701e-07,-1.024127341933469e-06,6.611789476984319e-07,2.5183445804413487e-06,8.361903774756291e-07,-6.365842822643291e-08,1.3345260146143627e-07,-1.8925870669718785e-07
1.079856680194092e-06,-1.9950988450102324e-08,1.5509994566355892e-06,2.553551254102874e-06,-1.023103398831563e-06,1.1025589084846958e-06,1.6260716657058448e-06,1.7435531356662391e-06,4.309384189604565e-07,-2.0148639320772734e-07,5.927834241126044e-07,-9.283171287606494e-07,6.504234568982634e-07,2.4626124806837456e-06,7.771093194641265e-07,-1.2569240302172924e-08,1.8203860405990026e-07,-1.4970791730577661e-07
1.1084527782628928e-06,-4.659100641735711e-08,1.5345544892867283e-06,2.6068349573646085e-06,-1.1267252171235036e-06,1.1770230767929192e-06,1.5804521071798005e-06,1.8385646830804567e-06,3.908313220775962e-07,-1.29974315246463e-07,6.126167749257654e-07,-7.987821364696092e-07,6.306489166460895e-07,2.3821612967070913e-06,7.023232252472857e-07,7.88999518271825e-08,2.441922243361467e-07,-9.427554335006331e-08
1.1405690666061162e-06,-7.308474846494703e-08,1.517426253888799e-06,2.666984712217705e-06,-1.2481215219059085e-06,1.2601103461469048e-06,1.531732221985134e-06,1.9360446419504885e-06,3.504849921888492e-07,-3.034189238836161e-08,6.403939763395825e-07,-6.486671302275824e-07,6.031420074159331e-07,2.2733271341713555e-06,6.169054331018237e-07,1.9958208603304854e-07,3.1107349386127555e-07,-3.1679324512878886e-08
1.1732950777083335e-06,-9.127536825998656e-08,1.5001312018729346e-06,2.7214744074744944e-06,-1.3665549998465896e-06,1.3331141415179508e-06,1.484322605836767e-06,2.0129534341595216e-06,3.1760250553844256e-07,8.603717070611615e-08,6.69849114783012e-07,-4.959050949341603e-07,5.721017435869343e-07,2.143079994444478e-06,5.301970894564395e-07,3.344820455686229e-07,3.719685151993195e-07,2.8652363597649617e-08
1.204688099771361e-06,-9.454958791091352e-08,1.4845104160052919e-06,2.7592384982027995e-06,-1.4604530567295162e-06,1.3808792024306065e-06,1.4438985747241064e-06,2.050439131745292e-06,3.004444749475727e-07,2.057990469650457e-07,6.947416004994566e-07,-3.5942912066723365e-07,5.437281678195047e-07,2.00763093296206e-06,4.539659896737651e-07,4.6665195176715853e-07,4.1603238857155717e-07,7.763668324743938e-08
1.2335387453988322e-06,-8.033672415990586e-08,1.4713673072012592e-06,2.7723952341399156e-06,-1.514559217552548e-06,1.3949454334152557e-06,1.4140710562633173e-06,2.038485482786286e-06,3.038982565799808e-07,3.158088422423469e-07,7.100577863409044e-07,-2.548070311306401e-07,5.23851290836221e-07,1.8839208000127416e-06,3.974521138256683e-07,5.788158579073151e-07,4.3458035538077094e-07,1.0811575847704124e-07
1.2587804590747486e-06,-5.0947657118389094e-08,1.4601896078261317e-06,2.7573124217708854e-06,-1.524420154455345e-06,1.3749441446005883e-06,1.394315571155402e-06,1.97850378666621e-06,3.2683259010991046e-07,4.0551681840600136e-07,7.128269764528266e-07,-1.9024112227479235e-07,5.158956496394755e-07,1.7826836103035554e-06,3.6421567510477294e-07,6.569320278339743e-07,4.2389574064700176e-07,1.1661057986265728e-07
1.279568949210978e-06,-1.2474666325893561e-08,1.4492964761449339e-06,2.716144986169673e-06,-1.4961603296639435e-06,1.328749684094622e-06,1.3815775516106178e-06,1.8834759459099268e-06,3.6268550606445823e-07,4.686529404296137e-07,7.02506028290371e-07,-1.6641683794306218e-07,5.200494250587176e-07,1.7067555633106753e-06,3.5173866244738916e-07,6.93168951243629e-07,3.863848297141035e-07,1.052967317017899e-07
1.2954517730320297e-06,2.6363444860101585e-08,1.4374071698962113e-06,2.6570276981212088e-06,-1.4442445206870532e-06,1.270470914115183e-06,1.3730614731146014e-06,1.774934614494456e-06,4.015511818750158e-07,5.029729764733238e-07,6.804173342322895e-07,-1.7823520292341952e-07,5.333409998813013e-07,1.6521761812545278e-06,3.533105692965655e-07,6.857853439714072e-07,3.289508990088334e-07,7.869226408416033e-08
1.3062008885527954e-06,5.4966848659688764e-08,1.424242823068514e-06,2.5920426381945412e-06,-1.388643600144275e-06,1.2167419037900223e-06,1.3680820816009036e-06,1.6776644409193484e-06,4.326671124210686e-07,5.089108915476989e-07,6.487406639530167e-07,-2.183985675417957e-07,5.508595458324267e-07,1.612091303697444e-06,3.613539682732377e-07,6.385606199118296e-07,2.608165757606466e-07,4.283283194637357e-08
1.3120616267638387e-06,6.312614029090307e-08,1.4108784559653342e-06,2.5348570602542473e-06,-1.3498365016307453e-06,1.1832125929494974e-06,1.369399769868062e-06,1.6142229481657743e-06,4.4768414076168255e-07,4.886461398024324e-07,6.09907223691713e-07,-2.7859518559667735e-07,5.680418764825654e-07,1.582839612216151e-06,3.704239522109249e-07,5.61295710799563e-07,1.9233383472511474e-07,5.407831089484439e-09
1.3142492539057966e-06,4.455138927738505e-08,1.4003653470826058e-06,2.498465423371687e-06,-1.3425102084534676e-06,1.181353954783432e-06,1.3831464888624214e-06,1.6002102563057961e-06,4.432140468027833e-07,4.4527463998340637e-07,5.662411151617536e-07,-3.513062604866818e-07,5.822784631832007e-07,1.566116753395177e-06,3.7982127665177813e-07,4.6776813550995473e-07,1.3318812790067245e-07,-2.7956072268021486e-08
1.314449379804437e-06,-8.980072450764215e-10,1.3963618015842737e-06,2.4916637084263323e-06,-1.3717491500292594e-06,1.2149576254651788e-06,1.415658041117319e-06,1.6405803667047303e-06,4.206213206814274e-07,3.8187219223576535e-07,5.196512009562728e-07,-4.307893787506475e-07,5.927545127825915e-07,1.564914717769843e-06,3.877831776516455e-07,3.7047107346495966e-07,8.960500711456736e-08,-5.3335942572951585e-08
1.3136702845117947e-06,-6.982669151120029e-08,1.400909123379675e-06,2.5140580542046125e-06,-1.4376186752375941e-06,1.2816599434450896e-06,1.4692075509064956e-06,1.7330150851960339e-06,3.8423390925248775e-07,3.019148860065485e-07,4.7220264259674637e-07,-5.122213933915639e-07,5.994781148543732e-07,1.5802451924989127e-06,3.9444317367805665e-07,2.776007424898843e-07,6.326867395390184e-08,-7.086299976549873e-08
1.3121201027270744e-06,-1.4967939856270658e-07,1.4136182417488842e-06,2.5657710745915644e-06,-1.5280127727769242e-06,1.3686941618306441e-06,1.5404545548245948e-06,1.8615144684887095e-06,3.401081394457519e-07,2.111277294092309e-07,4.274690610804415e-07,-5.899679502459814e-07,6.028198882246325e-07,1.6126076775110205e-06,4.0072792057943765e-07,1.9463343239521763e-07,5.300852389527249e-08,-8.323836900625543e-08
1.3101629707982056e-06,-2.2900030756319668e-07,1.432716666654216e-06,2.6380101688187188e-06,-1.6277355058135837e-06,1.4590439298672882e-06,1.6218942959252938e-06,2.0040725159169385e-06,2.947825790388233e-07,1.181896485693689e-07,3.9073937237507965e-07,-6.555746573850758e-07,6.030768529300801e-07,1.6626859717730465e-06,4.05965102662992e-07,1.263204622730806e-07,5.6790257681498516e-08,-9.269288069226574e-08
1.3089554731733968e-06,-2.98767234626957e-07,1.455653087438176e-06,2.7199533844203914e-06,-1.7228120777491665e-06,1.5449658337454039e-06,1.7043645005394947e-06,2.1491849688591017e-06,2.533066946185982e-07,3.3174554689618294e-08,3.6750128623286263e-07,-6.997498469429619e-07,5.997665819812696e-07,1.7289204846912361e-06,4.088463909409803e-07,7.693369040960567e-08,7.240694255372113e-08,-1.0001406264388504e-07
1.3106775919594579e-06,-3.53015274376866e-07,1.4807206327931142e-06,2.8097581060880593e-06,-1.8105449529519709e-06,1.624459120670578e-06,1.7801689568240758e-06,2.2909190887787152e-06,2.1837240769728182e-07,-3.427674303835263e-08,3.6197733836932356e-07,-7.139982266953637e-07,5.918366321629296e-07,1.807588504719084e-06,4.079870770905379e-07,5.091701278205744e-08,9.778831730187393e-08,-1.0388663290543562e-07
1.3189063104677295e-06,-3.9217155979255606e-07,1.5079760649724825e-06,2.905829301810672e-06,-1.8958821809296666e-06,1.7022231073926803e-06,1.845984653791168e-06,2.434022990412431e-06,1.9143060134434507e-07,-7.594617197571421e-08,3.7678307386877686e-07,-6.933514966647215e-07,5.787864761332936e-07,1.895876163072366e-06,4.0498746584011083e-07,5.341499211317623e-08,1.311379179588018e-07,-1.0140012022757472e-07
1.3380536557745736e-06,-4.2072001799554115e-07,1.5392365622610461e-06,3.0157600150885915e-06,-1.9892368885826616e-06,1.7900227737806918e-06,1.9028311707518157e-06,2.581928633276082e-06,1.7365458775797758e-07,-8.645351220379906e-08,4.1237878343102825e-07,-6.381463104232502e-07,5.61256198715434e-07,1.9910856452269483e-06,4.042550932016194e-07,8.821313750023199e-08,1.7022497152067198e-07,-8.961405947983585e-08
1.3709249308879619e-06,-4.3646646090708585e-07,1.5754794733828997e-06,3.1388790696466274e-06,-2.0918867163252445e-06,1.8885251855547672e-06,1.9527761901635858e-06,2.7291477394048025e-06,1.6580518857721176e-07,-6.50535935015577e-08,4.6585653661927447e-07,-5.55510627071779e-07,5.409280828770149e-07,2.0860097622738488e-06,4.0908612942640576e-07,1.549921964559364e-07,2.1187043373988086e-07,-6.821764317692664e-08
1.4160340737242694e-06,-4.2042374143770514e-07,1.6138742759600154e-06,3.2786763353683474e-06,-2.155223539922556e-06,1.9581470421712037e-06,1.9959217904537724e-06,2.8217986257440077e-06,1.68823474753714e-07,-1.576926182413381e-08,5.305785784121696e-07,-4.581838668148016e-07,5.206499263754324e-07,2.1678771490282596e-06,4.218881727251522e-07,2.4937723923176305e-07,2.5288678397112376e-07,-3.894072008685769e-08
1.466810749069602e-06,-3.9066531709509676e-07,1.648376158401355e-06,3.386451136530867e-06,-2.159721645719825e-06,1.986345896266375e-06,2.029754965969985e-06,2.811837616089466e-06,1.8530533185267743e-07,5.4421728613833734e-08,5.973942512851943e-07,-3.602702500796672e-07,5.044062285692962e-07,2.221774354339711e-06,4.4054729754432386e-07,3.641313457133284e-07,2.9114293146003634e-07,-4.54923558376513e-09
1.5127574751893853e-06,-2.9916334206228105e-07,1.6703083635266994e-06,3.417981530859783e-06,-2.0170345240577094e-06,1.9314906602384504e-06,2.049719620207827e-06,2.692469710398728e-06,2.1952597308351672e-07,1.374669411151591e-07,6.564356790379188e-07,-2.7320799567621285e-07,4.964683678189588e-07,2.2340177932910056e-06,4.580428286248468e-07,4.888148994343204e-07,3.2512038335852353e-07,3.194137502714173e-08
1.5417946162219194e-06,-1.9234396356283853e-07,1.67050968036731e-06,3.3080658821123753e-06,-1.7932740901306318e-06,1.8102346303865533e-06,2.050945161519909e-06,2.5645133906071603e-06,2.7559793917973276e-07,2.2526700186456296e-07,6.988043084642587e-07,-2.0427889675276132e-07,5.003930707548648e-07,2.196533363978737e-06,4.6571916193869736e-07,6.099288552219047e-07,3.5276814139150756e-07,6.542705078285918e-08
1.5438234512918174e-06,-1.263832466973386e-07,1.6427710432068504e-06,3.1933002918425385e-06,-1.6084624133333484e-06,1.7361552619227804e-06,2.031839005806457e-06,2.485607677456625e-06,3.553854973519861e-07,3.100244117171601e-07,7.184237549597099e-07,-1.5713045146107092e-07,5.18738076633322e-07,2.113984804364128e-06,4.5755561809286087e-07,7.132657932545316e-07,3.707999494460922e-07,9.064736411495534e-08
1.5146368367206278e-06,3.678736270148411e-08,1.5873402134271163e-06,3.1547828629002966e-06,-1.4919088001585487e-06,1.705969954911935e-06,1.9969662611937156e-06,2.407636019747188e-06,4.564416563621113e-07,3.8382040737526873e-07,7.136798485571277e-07,-1.3386106465151967e-07,5.524321847098695e-07,2.007273716305354e-06,4.351355755071952e-07,7.861908348381865e-07,3.7452159942838636e-07,1.041607827046794e-07
1.458167894824579e-06,2.4497065143239595e-07,1.5119598988984793e-06,3.081285112077207e-06,-1.2927884004124034e-06,1.5164002333741064e-06,1.9560248240882937e-06,2.1590279311926943e-06,5.703069099059333e-07,4.3833846368846894e-07,6.879156231768405e-07,-1.3658631061791897e-07,5.995726574513157e-07,1.907688280267702e-06,4.0701649050555477e-07,8.192783062914378e-07,3.592230376603303e-07,1.0299344187997484e-07
1.3859520225205693e-06,4.250752587217714e-07,1.4297859597504139e-06,2.9261574216349203e-06,-9.83048419952208e-07,1.2904126720388752e-06,1.9201612349158083e-06,1.8918065424932108e-06,6.838188059864734e-07,4.6657466818253864e-07,6.482826690266642e-07,-1.655150560490088e-07,6.554104183915102e-07,1.8454421727592213e-06,3.8602401888121737e-07,8.093038822489859e-07,3.2374795156002484e-07,8.64755436728654e-08
1.3138000954601863e-06,5.52523155045729e-07,1.3557543144351076e-06,2.797252666523365e-06,-6.143468199941877e-07,1.0911643960800745e-06,1.8986183510545632e-06,1.6562062213938338e-06,7.841594600135188e-07,4.657566449789892e-07,6.030700516871005e-07,-2.162559514843391e-07,7.143047169938845e-07,1.8389357989832019e-06,3.792508194421145e-07,7.614571980272774e-07,2.7307665842399087e-07,5.78878172694506e-08
1.2564247717017508e-06,6.103380427295123e-07,1.3014259742797643e-06,2.6751978474172804e-06,-3.8303781170095584e-07,9.508334792002345e-07,1.896104022094126e-06,1.505971049324141e-06,8.635302763057364e-07,4.383013964315443e-07,5.586076400040036e-07,-2.7953526914855493e-07,7.718673911584424e-07,1.8884623410574581e-06,3.86097876546175e-07,6.869109608545625e-07,2.165718507388629e-07,2.275722184493628e-08
1.2222830331480413e-06,6.730862738850981e-07,1.2710979632878242e-06,2.5925462450059852e-06,-1.8429662642100303e-07,8.4838483408643e-07,1.9107698690647737e-06,1.3761122545375074e-06,9.201052099279699e-07,3.903736511502637e-07,5.183133874042806e-07,-3.436321825720685e-07,8.255607611901024e-07,1.977630185622243e-06,4.006081886941173e-07,5.981774967345211e-07,1.6388261521051066e-07,-1.336238395895919e-08
1.211558804527336e-06,7.254997122219211e-07,1.2610316480876399e-06,2.5804693712393775e-06,-2.7844492630890897e-09,8.382582634868127e-07,1.934182313382372e-06,1.3760688442250034e-06,9.566464815760762e-07,3.3067168811809536e-07,4.847498115156112e-07,-3.9688353318071485e-07,8.738213555638098e-07,2.0815477302639486e-06,4.1521633613547845e-07,5.070809552509698e-07,1.2248296920997628e-07,-4.4940217155136305e-08
1.217594526876925e-06,7.092242237636058e-07,1.2618806204672045e-06,2.584524805870532e-06,3.278985912686593e-08,8.528197361986596e-07,1.953368290841011e-06,1.4006483853716879e-06,9.787466915939832e-07,2.703388349353295e-07,4.6259165933056556e-07,-4.2871607683906326e-07,9.142552785937929e-07,2.1742902081940956e-06,4.258451968765445e-07,4.2465285008855533e-07,9.712881959149028e-08,-6.689369590014434e-08
1.2295067430276864e-06,6.691298244071937e-07,1.2621866064295754e-06,2.60981611243785e-06,-1.9733483650154658e-08,8.760303578662594e-07,1.953420340097117e-06,1.437319697383993e-06,9.92908297777429e-07,2.2276962135721566e-07,4.599007882334997e-07,-4.30601408980455e-07,9.418748636217435e-07,2.2317582456223435e-06,4.3228074688735183e-07,3.6069926214248753e-07,8.990616565624412e-08,-7.516812544297852e-08
1.2347441021931378e-06,6.661756511752709e-07,1.2509502553593493e-06,2.6294870737001142e-06,-6.346091523142475e-08,8.692464411100705e-07,1.9209750275055686e-06,1.4411517803457714e-06,1.005441597728834e-06,2.0261950851258886e-07,4.874928705677494e-07,-3.968949921059273e-07,9.49314345029887e-07,2.234824245835012e-06,4.371302389317922e-07,3.2393536452016213e-07,1.0102821557904801e-07,-6.591326170472475e-08
1.2220338549782196e-06,6.798233600498678e-07,1.220530815666132e-06,2.6123519472603763e-06,-5.6774976290956766e-08,8.202795166571943e-07,1.84938831087333e-06,1.4001530707823105e-06,1.0228612325401203e-06,2.2316616803463216e-07,5.536877801513564e-07,-3.263552924154999e-07,9.298239819577727e-07,2.1756870868757242e-06,4.445337441949021e-07,3.21886762361345e-07,1.2976343849619825e-07,-3.5330929094505684e-08
1.1842873718049698e-06,7.351167435033346e-07,1.1688313990660866e-06,2.555148913625633e-06,-5.313299903620613e-09,7.258399508326222e-07,1.7429238458077735e-06,1.3119761599899875e-06,1.0517507275274522e-06,2.9102783195360976e-07,6.598682474847195e-07,-2.2531378781744452e-07,8.811320048527763e-07,2.062723137170603e-06,4.5789977164829234e-07,3.575270932711709e-07,1.7378393882199365e-07,1.8471326507069946e-08
1.1201341135037227e-06,8.440641714351123e-07,1.0990043466053868e-06,2.4617250494793065e-06,1.0074485832443568e-07,5.878965461585109e-07,1.616487801229356e-06,1.1807109098840509e-06,1.096795502335824e-06,4.006397536069881e-07,7.969292008396791e-07,-1.0943618282699532e-07,8.081454596920651e-07,1.9205335465683625e-06,4.791448696164945e-07,4.2496838670415124e-07,2.278258744102274e-07,9.305468170739326e-08
1.0339935008037535e-06,9.608319565626273e-07,1.0181812532356627e-06,2.3399783857412126e-06,2.60615704366788e-07,4.172733105438102e-07,1.4914776735264054e-06,1.0217404192523951e-06,1.1590389142345e-06,5.336459444944529e-07,9.448123056706459e-07,-2.7880372409727077e-09,7.231296153670085e-07,1.7865295584137974e-06,5.093896409271951e-07,5.100506633505002e-07,2.843078071631297e-07,1.810651646663793e-07
9.353590940384331e-07,1.074592515264856e-06,9.362303347907323e-07,2.205265602767569e-06,4.623125620058789e-07,2.3170940303213765e-07,1.3902058182844315e-06,8.578067090345326e-07,1.2357092284408403e-06,6.648291186189243e-07,1.0818287418178774e-06,7.100133128506764e-08,6.42792413547481e-07,1.7031410438387026e-06,5.499936244203934e-07,5.957081857371005e-07,3.3575895866133163e-07,2.7298445389963084e-07
8.37080218598518e-07,1.1842151401819532e-06,8.638886713354132e-07,2.0779551969059635e-06,6.863471184224589e-07,5.406377236410878e-08,1.3299346167661603e-06,7.150184038920001e-07,1.3203886024362046e-06,7.708996245836567e-07,1.201827316416351e-06,9.692796343177817e-08,5.825714597111198e-07,1.7044142658223253e-06,6.023080835176275e-07,6.675085647108789e-07,3.7691524795606666e-07,3.593349046316653e-07
