0,1,2,3,4,5,6,7,8,9,10,11,12,13,14,15,16,17
-3.103740050319445e-08,5.512490142158526e-09,1.333570591175747e-07,2.5102754474912386e-08,2.3030283320682157e-07,-8.805676419747697e-08,-1.799925709824976e-07,-1.043341123616517e-07,-1.6267114583778237e-08,2.0038819305451427e-07,1.768587875403059e-07,-1.2330458278791619e-07,4.1243038760838604e-07,4.655155359165307e-07,5.12433313641669e-07,6.721728245559801e-07,1.2092471106661595e-07,8.005082014241741e-08
-6.4155682109409e-08,4.0721708192359024e-08,9.729824571117285e-08,3.9875856252759e-08,2.104665754254958e-07,2.3388881959450806e-08,-8.988744276529467e-08,-4.288799600438839e-08,3.0184187282571036e-08,1.7627760947501226e-07,1.5253652547463407e-07,-1.7134963170434516e-08,3.695430221494391e-07,4.4702503372308236e-07,4.963275527743906e-07,6.165058517760513e-07,1.2418220550595787e-07,8.583022213984845e-08
-7.73603354387634e-08,8.805386737034313e-08,3.390546757659969e-08,6.756358738641433e-08,1.7042362793704845e-07,1.254127669491463e-07,-3.4294081510378913e-08,1.069572629998203e-09,6.488680485101979e-08,1.573192226932843e-07,1.566702641179238e-07,6.956383767626824e-08,2.632791061373322e-07,4.580867682576731e-07,4.4030562701227967e-07,5.674438891313273e-07,1.2136782100667294e-07,9.544458308612527e-08
-7.656023263579235e-08,1.069360567531095e-07,-2.6557369608242666e-08,1.031374621020449e-07,1.06520119646677e-07,1.6903545571570468e-07,5.8087461634635056e-08,2.6458572166801058e-08,7.228539158273146e-08,1.3429811959247322e-07,1.6649121424738546e-07,7.71240214315992e-08,1.630792365082446e-07,4.086641055539982e-07,3.6972509160827267e-07,4.836025411004409e-07,1.0903940711389046e-07,1.0597355573767556e-07
-6.948113999414608e-08,1.094688605631961e-07,-4.7526219714806444e-08,1.2914686497361458e-07,4.812294085657105e-08,1.6713271283981795e-07,1.0164585880463325e-07,3.365536242291186e-08,5.458299863703866e-08,1.1218344683639066e-07,1.623210074134813e-07,8.072085482631677e-08,6.965764165424914e-08,2.96619231797155e-07,2.6843795340071855e-07,3.8663979037083055e-07,8.558951404170663e-08,1.1292311334164677e-07
-6.146461362845362e-08,1.0078850963969546e-07,-5.73885711195661e-08,1.4465391475936297e-07,-1.1528776903675051e-08,1.5066229292144035e-07,1.0529667046571887e-07,2.502803517423899e-08,2.948745334682504e-08,8.18813403692929e-08,1.1870949516033148e-07,8.743929272565712e-08,-1.7223530783589768e-08,1.9965356008056434e-07,1.592357528983013e-07,2.583331228551725e-07,5.29455851764884e-08,1.1255467017667057e-07
-5.3264633252423415e-08,7.959437247957345e-08,-7.248391940050714e-08,1.090350490375547e-07,-6.285646286326595e-08,1.5450583934163927e-07,9.154693010679945e-08,5.636719980468482e-09,-6.865888123842716e-09,4.415908301967181e-08,8.460195215953171e-08,1.3048175121732143e-07,-5.960426619700858e-08,9.910878070664244e-08,4.6415131762341016e-08,1.0880730988073127e-07,1.5728177612665072e-08,1.0272226057582226e-07
-4.255161001370269e-08,3.132142164544282e-08,-6.035924521968142e-08,5.8944268364358125e-08,-9.571839108584433e-08,1.5368478996968003e-07,6.483642371126252e-08,-1.7964032379746468e-08,-3.0751741891974414e-08,3.6373864840626455e-09,4.766305457458041e-08,1.6213087099791907e-07,-8.725009746710317e-08,-7.956548710557832e-09,-4.225971681920155e-08,-2.6113233638274996e-08,-2.122183047480426e-08,8.236376715621629e-08
-2.6933219347589798e-08,-3.0458393587430865e-08,-3.1588436126205737e-08,1.9674113538196656e-08,-1.0939167566651427e-07,1.0494805337330836e-07,2.3324043463127418e-08,-3.9481283468589296e-08,-4.241402929317742e-08,-3.877122592483358e-08,-3.0359708159734123e-09,1.1545954065136942e-07,-1.0405842916313493e-07,-9.499335538005704e-08,-1.0317152407032826e-07,-1.2155810089241155e-07,-5.419951039934498e-08,5.1448040818411953e-08
-5.504410287761351e-09,-6.321501615112664e-08,-7.922789024296941e-09,-1.6243786740711586e-08,-1.0700792320609063e-07,4.594013047480119e-08,-2.259026372518501e-08,-5.335737781092934e-08,-4.570945540370827e-08,-7.778746061751103e-08,-3.7423042154261743e-08,7.340626584670226e-08,-1.1338464237978451e-07,-1.6975084725416986e-07,-1.5082939084080312e-07,-2.162934716088138e-07,-8.017550224950373e-08,1.1647055688214097e-08
2.115819396860917e-08,-7.574649206863752e-08,6.496582957674245e-09,-4.924232230778765e-08,-9.443568557780741e-08,-2.2492197696150506e-08,-6.038265163446787e-08,-5.488012262786507e-08,-3.841757564282189e-08,-1.0612604246936917e-07,-7.396560018556617e-08,8.869642916594546e-09,-1.3078329234738636e-07,-2.3265352995281519e-07,-2.0613787304927326e-07,-3.085618599394338e-07,-9.652830074733958e-08,-3.365921007383061e-08
5.101696404437415e-08,-9.342576480815212e-08,1.495082033089069e-08,-7.896146146666062e-08,-7.825072977043449e-08,-9.514090559727765e-08,-8.10542606222817e-08,-4.118264845375044e-08,-3.17876730636916e-08,-1.2380624741156543e-07,-1.1212201483605675e-07,-7.694529578497356e-08,-1.4754906733632454e-07,-2.8500423815166394e-07,-2.709434731154855e-07,-3.8339896023157795e-07,-1.0179232905506534e-07,-8.049444126934331e-08
8.055210945577778e-08,-9.368266686672833e-08,1.6296521128106017e-08,-9.875768149715863e-08,-6.399011679000152e-08,-1.569991317376125e-07,-7.6718765637034e-08,-1.1895081244429771e-08,-2.6220350876385628e-08,-1.3578396279140751e-07,-1.461548330407908e-07,-1.2566826396653425e-07,-1.5816627820669466e-07,-3.342155942770817e-07,-3.222759253141623e-07,-4.487980638691536e-07,-9.606448281865656e-08,-1.253194254796605e-07
1.0556557884380653e-07,-8.482795899904551e-08,1.1356973849042846e-08,-1.2100060262833761e-07,-5.4345592231e-08,-2.0367868037094803e-07,-4.225671667206259e-08,3.178192817359606e-08,-1.9134660723032164e-08,-1.4138976272390565e-07,-1.8630565043410928e-07,-1.4930092230943186e-07,-1.6082643320766013e-07,-3.8751853144070657e-07,-3.6419131227464014e-07,-5.045869036478801e-07,-8.090736295237072e-08,-1.6573083836800443e-07
1.2228389658708426e-07,-7.175268034073883e-08,1.6103266563414163e-09,-1.4982917335767174e-07,-4.80021731688401e-08,-2.427306992818311e-07,2.3893477885082436e-08,8.808636788843506e-08,-6.058797390683716e-09,-1.4279580514437275e-07,-2.3296251110358214e-07,-1.5784441239383022e-07,-1.548058018526912e-07,-4.205523574009997e-07,-3.9949064033015913e-07,-5.350158425736686e-07,-5.990869149954186e-08,-2.0139031505197938e-07
1.277365343115845e-07,-4.9288313964018793e-08,-1.1445447114096279e-08,-1.830988428908896e-07,-4.030856980914004e-08,-2.8561254466369255e-07,1.1854588747794334e-07,1.5426609591490087e-07,1.2200451292910046e-08,-1.4368389444173747e-07,-2.7388267811783503e-07,-1.5499763787662717e-07,-1.4433755511627299e-07,-4.4202801346759214e-07,-4.335805672839198e-07,-5.491788932693184e-07,-3.897941132737006e-08,-2.3436385862022916e-07
1.2010649954485343e-07,-2.7896871269548446e-08,-2.681904074250189e-08,-2.2239371395565906e-07,-2.558031771308597e-08,-3.322906698220383e-07,2.3315898940671332e-07,2.259805895938775e-07,2.6992199361090617e-08,-1.471332867178434e-07,-3.152822551929387e-07,-1.528445082813532e-07,-1.3645730308671797e-07,-4.5675942480357126e-07,-4.780991111785328e-07,-5.590365855276519e-07,-2.472576598655092e-08,-2.673953115846168e-07
1.0009760763982345e-07,-9.779514619534677e-09,-4.376928877238617e-08,-2.569749641856209e-07,1.9166932328092038e-10,-3.950522089715841e-07,3.5491571249264756e-07,2.978692113602129e-07,3.8118734088340315e-08,-1.5652548514504308e-07,-3.6243773426349056e-07,-1.5699487398278456e-07,-1.360241112127686e-07,-4.671987956717357e-07,-5.344633993949618e-07,-5.897190082076912e-07,-2.160275722442927e-08,-3.0113928356793517e-07
7.202254666973822e-08,3.9435615355124085e-09,-6.154568177491105e-08,-2.855878357948552e-07,3.700885568232296e-08,-4.5628235936699263e-07,4.6875534190808323e-07,3.6401859782188337e-07,4.584835545594166e-08,-1.7325392456567765e-07,-4.091297559656239e-07,-1.6769595008571796e-07,-1.424972832871065e-07,-4.818129066598708e-07,-5.940771181479006e-07,-6.425909894887063e-07,-3.0770378753803285e-08,-3.332399661999164e-07
4.253515543726212e-08,1.1279547881411556e-08,-7.997541415852332e-08,-3.1168784656882146e-07,7.951413667037874e-08,-5.053057978041733e-07,5.592764154150694e-07,4.173733842474684e-07,5.134932284209644e-08,-1.9463809945240092e-07,-4.5445091068407187e-07,-1.8485226835499274e-07,-1.5102564073037481e-07,-4.9918997367779e-07,-6.506543971826605e-07,-7.09250056385317e-07,-5.1289304161444686e-08,-3.598538000951234e-07
1.773520944621809e-08,1.1085041994849818e-08,-1.0003516337375725e-07,-3.3558136345470175e-07,1.1784612833247732e-07,-5.475282039778792e-07,6.131911288688239e-07,4.500233989378088e-07,5.716238996672109e-08,-2.166852934533623e-07,-4.928822846119464e-07,-2.077913742402074e-07,-1.5537201267360013e-07,-5.217997271933558e-07,-7.001048713731563e-07,-7.853615970789031e-07,-8.114500640980746e-08,-3.7744441996247995e-07
1.337538678974027e-09,1.434046134263556e-09,-1.2317607368112277e-07,-3.5812162027274427e-07,1.4121623155096558e-07,-5.728726377517152e-07,6.230091671862702e-07,4.5583243626035116e-07,6.330774031922214e-08,-2.377098084615153e-07,-5.189263722910713e-07,-2.3267623713318764e-07,-1.5025118566271654e-07,-5.500729121794379e-07,-7.32983561963023e-07,-8.458494107553667e-07,-1.1714988147711519e-07,-3.837089453512945e-07
-5.393629448471539e-09,-1.831203333822224e-08,-1.4999794779895108e-07,-3.801007445831967e-07,1.4224744772920407e-07,-5.809642692576609e-07,5.899523429019244e-07,4.33180690630257e-07,6.837340234223893e-08,-2.5631241387739433e-07,-5.395873691333517e-07,-2.5661262779824583e-07,-1.337027603527211e-07,-5.913011065058496e-07,-7.459780031973365e-07,-8.968509467519538e-07,-1.5547144791067965e-07,-3.784875389007135e-07
-3.4554802247300775e-09,-4.693920887923466e-08,-1.798341022428965e-07,-4.0167807092488657e-07,1.1916735366688432e-07,-5.748608140545745e-07,5.233876405130628e-07,3.851129772745479e-07,7.266688382003861e-08,-2.725239350703531e-07,-5.588417752637844e-07,-2.7957832955067416e-07,-1.0926598326030629e-07,-6.441908725378986e-07,-7.422061303583051e-07,-9.422092218128453e-07,-1.932905144841488e-07,-3.6474664722295114e-07
4.038817587100438e-09,-8.259644771388057e-08,-2.1123213431508903e-07,-4.232127399222377e-07,7.532028228342618e-08,-5.586761359281184e-07,4.3720517402651187e-07,3.178603279877426e-07,7.689477660774276e-08,-2.8820178393839875e-07,-5.709289125542079e-07,-3.0376835865856145e-07,-8.517919880197266e-08,-7.054555918894351e-07,-7.290576785900759e-07,-9.893075477085904e-07,-2.293478182661847e-07,-3.480306033836162e-07
1.3204631045632063e-08,-1.23061810905178e-07,-2.4210776293231945e-07,-4.464283704793738e-07,1.7795511671928178e-08,-5.341393411640206e-07,3.459483706850922e-07,2.400864780239857e-07,7.946721965992277e-08,-3.046182206627749e-07,-5.900918089483074e-07,-3.317035954265455e-07,-7.013344275895014e-08,-7.718735956865801e-07,-7.177361292746427e-07,-1.0396670723948982e-06,-2.626488193906997e-07,-3.342400122250139e-07
2.1431415117428107e-08,-1.6481367724197598e-07,-2.695937557687441e-07,-4.6917890382790463e-07,-4.388730075413006e-08,-5.065250269047891e-07,2.6205354287844827e-07,1.6221976701823533e-07,7.973807372288197e-08,-3.2159151473242393e-07,-6.103630590532424e-07,-3.6429140093422126e-07,-6.946925081646466e-08,-8.344898049584553e-07,-7.173126086253293e-07,-1.090330121726838e-06,-2.9169833209254596e-07,-3.279358613564867e-07
2.783230006353631e-08,-2.0333780905259494e-07,-2.9077777298272125e-07,-4.809756335829094e-07,-9.985887943645718e-08,-4.77511292688093e-07,1.9359432540506078e-07,9.394122576593161e-08,7.736376195494339e-08,-3.3803902877439865e-07,-6.312317762019286e-07,-4.0072138762030627e-07,-8.473704767566125e-08,-8.860540706196458e-07,-7.325782484926625e-07,-1.1401119653978617e-06,-3.155752495197104e-07,-3.3225328815489156e-07
3.1869744889311794e-08,-2.3520214484574893e-07,-3.041509978215341e-07,-4.874137710897288e-07,-1.4276945196963855e-07,-4.4471132603858734e-07,1.4272061487142697e-07,4.100180747689514e-08,7.145920737563213e-08,-3.531633206141716e-07,-6.572991325402423e-07,-4.3939734945573046e-07,-1.1495439202635942e-07,-9.221613539712282e-07,-7.641955548732676e-07,-1.1851789547899552e-06,-3.348828272301768e-07,-3.489958585181196e-07
3.254483637362584e-08,-2.592472526877134e-07,-3.1013178818812884e-07,-4.884594273741865e-07,-1.696938332453597e-07,-4.132172891143904e-07,1.0619290066291264e-07,4.311285738219911e-09,6.173414057430625e-08,-3.6685642788508537e-07,-6.844658821450694e-07,-4.784019201538651e-07,-1.5709741841856236e-07,-9.413740917617902e-07,-8.086574507873071e-07,-1.2292935814079905e-06,-3.509756243100131e-07,-3.7792463681376967e-07
2.91210375765208e-08,-2.7581915495653847e-07,-3.103349221608143e-07,-4.837283007596722e-07,-1.8206152179549972e-07,-3.86849041513633e-07,7.801061383026774e-08,-1.8558199686508167e-08,4.8318792985987846e-08,-3.793877630775304e-07,-7.112531039800204e-07,-5.156724892703181e-07,-2.0646299891797855e-07,-9.452751836675792e-07,-8.593246047721265e-07,-1.2699037657236487e-06,-3.648744132110604e-07,-4.164729038952089e-07
2.1666631640336688e-08,-2.8616564238023716e-07,-3.0697958647732577e-07,-4.780237644589753e-07,-1.8450440502835767e-07,-3.685603344513796e-07,5.2209220819378955e-08,-3.173406587978579e-08,3.1442180680195127e-08,-3.915936725419693e-07,-7.371697656397414e-07,-5.496151061077723e-07,-2.5821037448347345e-07,-9.378303728225789e-07,-9.090757561360897e-07,-1.3051658565803552e-06,-3.7724389077918496e-07,-4.608727622488815e-07
1.0556858260905981e-08,-2.928057678643648e-07,-3.0285979994327184e-07,-4.7218351890455425e-07,-1.833710380699568e-07,-3.6182949769120126e-07,2.4593605929247575e-08,-3.9950508554631907e-08,1.1047192455580437e-08,-4.0502151473448593e-07,-7.635486045243275e-07,-5.7944952814992e-07,-3.0880779127903076e-07,-9.245132111722742e-07,-9.529796008548349e-07,-1.3369260318443364e-06,-3.883996062420763e-07,-5.073720987587282e-07
-3.6663557665660136e-09,-2.988811183308112e-07,-3.00804092913446e-07,-4.6885359585298175e-07,-1.8470710773664457e-07,-3.680281124131159e-07,-6.202966875670719e-09,-4.6957674778936076e-08,-1.297317180192623e-08,-4.210590786441264e-07,-7.874823841013898e-07,-6.045226728189398e-07,-3.5589098513884105e-07,-9.103340645286111e-07,-9.89127953882253e-07,-1.3615736236688032e-06,-3.9767571347359106e-07,-5.524704293248288e-07
-1.95888694189724e-08,-3.061894561741477e-07,-3.025514865707401e-07,-4.7014620817359344e-07,-1.9223680772231305e-07,-3.865562158891589e-07,-3.838804212262511e-08,-5.4021273279700194e-08,-3.9974909211161456e-08,-4.398849574885394e-07,-8.107171756230572e-07,-6.237182401907048e-07,-3.978386770722919e-07,-8.984015087081258e-07,-1.018151753444813e-06,-1.3815042359668566e-06,-4.0370656678662017e-07,-5.93175684081485e-07
-3.50083007521875e-08,-3.145691462528479e-07,-3.084512374053399e-07,-4.81393388275036e-07,-2.0675335679227173e-07,-4.148917759396362e-07,-6.829029016789228e-08,-6.039590989837367e-08,-6.838782284492739e-08,-4.607329396167837e-07,-8.326440032833513e-07,-6.361687892199559e-07,-4.34505339396081e-07,-8.903327623829851e-07,-1.042756399501812e-06,-1.3994574248530397e-06,-4.0622615986447224e-07,-6.279560863762324e-07
-4.8385224563712204e-08,-3.234601145014104e-07,-3.182347113788128e-07,-4.948869768650463e-07,-2.2698729556560956e-07,-4.4960634610070263e-07,-9.255627718465585e-08,-6.518024330863145e-08,-9.620756828120065e-08,-4.827901555582492e-07,-8.521814225515767e-07,-6.422436962501377e-07,-4.6755931486538517e-07,-8.870468579280868e-07,-1.0668966207120154e-06,-1.4175958767683864e-06,-4.0712166716623733e-07,-6.570274416644857e-07
-5.983188237790622e-08,-3.329582785435628e-07,-3.3137435269338333e-07,-5.09699673804658e-07,-2.5033711245394667e-07,-4.866565514195532e-07,-1.0907188544531814e-07,-6.789809890122583e-08,-1.212450770501921e-07,-5.049761292882071e-07,-8.710096673035249e-07,-6.433089521561212e-07,-4.98800871596214e-07,-8.883034662108491e-07,-1.0939035601070817e-06,-1.4436161903178304e-06,-4.0918442570815626e-07,-6.811746889023517e-07
-7.051904884569339e-08,-3.4298437736046965e-07,-3.465979002829992e-07,-5.263883309518535e-07,-2.7285517543210305e-07,-5.221898043628412e-07,-1.1641280229187471e-07,-6.766746087831337e-08,-1.4120422176446757e-07,-5.252086038231881e-07,-8.869901456070874e-07,-6.4092341101149e-07,-5.284050367887262e-07,-8.926329849959908e-07,-1.1248539993449371e-06,-1.4763782240836307e-06,-4.144293793426265e-07,-7.00716967568679e-07
-8.183815261985151e-08,-3.528326119731426e-07,-3.6200199035149835e-07,-5.413841995004385e-07,-2.8994266878958067e-07,-5.529428543507297e-07,-1.1409884492231909e-07,-6.359041582939221e-08,-1.5450436175008317e-07,-5.412285508102855e-07,-9.005279823608997e-07,-6.369657856644661e-07,-5.557096215353311e-07,-8.993648185189109e-07,-1.1588088129632391e-06,-1.513440529624739e-06,-4.2412635382059756e-07,-7.160914039023488e-07
-9.541187741266519e-08,-3.625396613648594e-07,-3.762790806414256e-07,-5.552653144144602e-07,-2.985394069428691e-07,-5.781275272733902e-07,-1.0421766574213389e-07,-5.6706836739747907e-08,-1.6150609415068336e-07,-5.525237778809363e-07,-9.143314037304088e-07,-6.341358497630154e-07,-5.81111418930349e-07,-9.104492517822456e-07,-1.194095797597866e-06,-1.552789032309327e-06,-4.3949789231031556e-07,-7.286911106954853e-07
-1.1286940664899332e-07,-3.7373464925434046e-07,-3.894293368918583e-07,-5.674988704950514e-07,-2.990210780575261e-07,-5.996933504385585e-07,-9.177264503751682e-08,-5.041330906380916e-08,-1.6451512019455232e-07,-5.602408068517452e-07,-9.271061472532827e-07,-6.351162636308338e-07,-6.056370740792259e-07,-9.28788116650081e-07,-1.2286259492798076e-06,-1.5942397669782305e-06,-4.6105692356810313e-07,-7.400368713646222e-07
-1.3450539382332944e-07,-3.8797170986075674e-07,-4.0208950727573557e-07,-5.779068616996968e-07,-2.9479844082601803e-07,-6.201050894619351e-07,-8.232639404479064e-08,-4.8139260560158e-08,-1.6625705125448557e-07,-5.664757580541031e-07,-9.421192038899952e-07,-6.408069113471894e-07,-6.286183499602706e-07,-9.545178890745435e-07,-1.259408364941332e-06,-1.6355326389186556e-06,-4.873970532663921e-07,-7.501806667989433e-07
-1.583172146770829e-07,-4.0473915973473864e-07,-4.1452282809276427e-07,-5.848285852063288e-07,-2.9028699634990714e-07,-6.406808258827712e-07,-7.952217176727382e-08,-5.131820783642565e-08,-1.685967670337818e-07,-5.723186248912449e-07,-9.58439322700031e-07,-6.499127331678671e-07,-6.473082051665697e-07,-9.840234552328513e-07,-1.283183728725142e-06,-1.6719682580681754e-06,-5.157540994366572e-07,-7.576352177680279e-07
-1.8103045650229693e-07,-4.22117338043727e-07,-4.2674649947530935e-07,-5.896745558585322e-07,-2.893305935922588e-07,-6.613945785503187e-07,-8.513900836506517e-08,-5.995070029871067e-08,-1.7260435101198817e-07,-5.780235957794615e-07,-9.736373035779922e-07,-6.60341690379555e-07,-6.593034451791117e-07,-1.0126305922998305e-06,-1.2982432445282486e-06,-1.7005495906852306e-06,-5.43948006003169e-07,-7.608042762374509e-07
-1.9991948175819336e-07,-4.388778420327468e-07,-4.390515308187716e-07,-5.925075660196943e-07,-2.945342738046371e-07,-6.811186399197469e-07,-1.004205847323378e-07,-7.377254889964911e-08,-1.7882899579622037e-07,-5.842080021884157e-07,-9.86636078671113e-07,-6.702781073898931e-07,-6.64271569473766e-07,-1.0366974273951396e-06,-1.305163063322099e-06,-1.718723516679104e-06,-5.70972389861545e-07,-7.587409732795542e-07
-2.1316968519248556e-07,-4.5468086546183927e-07,-4.5152255928937306e-07,-5.934408124490396e-07,-3.066549969504681e-07,-6.984150594578093e-07,-1.2599510423314396e-07,-9.167074976216286e-08,-1.8675983958507418e-07,-5.898616981014606e-07,-9.95455127161302e-07,-6.777729433384821e-07,-6.630567705288616e-07,-1.0526440606698659e-06,-1.305518478284618e-06,-1.7266790633461319e-06,-5.957324212372745e-07,-7.506933911268467e-07
-2.1913747960221417e-07,-4.685406372728003e-07,-4.6319030008520223e-07,-5.924768675507513e-07,-3.242542570996312e-07,-7.116104157212599e-07,-1.6065110216418948e-07,-1.1075966505161022e-07,-1.944984331625488e-07,-5.92730146173749e-07,-9.979874777163324e-07,-6.803635953197031e-07,-6.565910791178528e-07,-1.0561076417249209e-06,-1.3005384332845688e-06,-1.7242310510478502e-06,-6.164824660706526e-07,-7.361751675014603e-07
-2.166200335626329e-07,-4.787102333498415e-07,-4.723346376256759e-07,-5.882143952332054e-07,-3.444910924451871e-07,-7.188607883984761e-07,-2.0123935198615525e-07,-1.2745899866042507e-07,-1.9980568818027173e-07,-5.908359812615164e-07,-9.925269956189907e-07,-6.759703245016107e-07,-6.465203257957608e-07,-1.0440428928777496e-06,-1.2913246004465919e-06,-1.711455086250417e-06,-6.320680458539863e-07,-7.162002907700441e-07
-2.0609967539909615e-07,-4.843648603411819e-07,-4.777048508977034e-07,-5.806998199981e-07,-3.6451180202768876e-07,-7.190778964362673e-07,-2.4392473267759125e-07,-1.3946524338731282e-07,-2.016222635566042e-07,-5.83869047931114e-07,-9.804110871948481e-07,-6.639623229733921e-07,-6.356837950413397e-07,-1.0172535711367554e-06,-1.2795126833969067e-06,-1.6899238111868074e-06,-6.428180121418951e-07,-6.938137429475785e-07
-1.8989651832898807e-07,-4.860902094447326e-07,-4.790110519986136e-07,-5.708978663007579e-07,-3.820159995581109e-07,-7.138377146950753e-07,-2.849217185219888e-07,-1.46018392583759e-07,-2.0046825151366643e-07,-5.732137841397101e-07,-9.633493313877823e-07,-6.451155192673217e-07,-6.267479285888619e-07,-9.800270689010845e-07,-1.266829883361279e-06,-1.6615752659369074e-06,-6.496645150905275e-07,-6.72775386530925e-07
-1.70920211971815e-07,-4.851065367252455e-07,-4.764728636514896e-07,-5.601213208565027e-07,-3.9501873928053454e-07,-7.044256148990023e-07,-3.2037874608950864e-07,-1.4682401936945733e-07,-1.9880317930547626e-07,-5.607959306694784e-07,-9.445379494330059e-07,-6.194510042552444e-07,-6.206915045382447e-07,-9.379155685870964e-07,-1.2541440530130562e-06,-1.6278589734832093e-06,-6.53075843319054e-07,-6.559200904376405e-07
-1.5181577701412557e-07,-4.793745948335668e-07,-4.706955239863979e-07,-5.494828516212879e-07,-4.0263414961491973e-07,-6.936020759793078e-07,-3.470196573122288e-07,-1.4184627585471715e-07,-1.984222743046459e-07,-5.48401403563354e-07,-9.276700300154967e-07,-5.886147791995208e-07,-6.168555292487836e-07,-8.960241125651422e-07,-1.2412191170416167e-06,-1.5894175265886161e-06,-6.530909781652752e-07,-6.445742467448047e-07
-1.3489450548737063e-07,-4.6802084626012094e-07,-4.638178565731746e-07,-5.411096295003674e-07,-4.0496205739924786e-07,-6.838197224387167e-07,-3.635391597569765e-07,-1.3187069744252314e-07,-2.0108760646998307e-07,-5.371918955616331e-07,-9.159100923705978e-07,-5.536567361092239e-07,-6.132441441329975e-07,-8.574470645715531e-07,-1.2268101882239337e-06,-1.5469674927351926e-06,-6.493190763714886e-07,-6.382555844154504e-07
-1.2139122431276797e-07,-4.5070527380548534e-07,-4.5795103260636085e-07,-5.363212351462015e-07,-4.0489379315936847e-07,-6.770997986590532e-07,-3.707060770724113e-07,-1.1810994914202423e-07,-2.0792632954155812e-07,-5.271998447120321e-07,-9.114665683255089e-07,-5.129298396702357e-07,-6.058949771830184e-07,-8.215138923308439e-07,-1.2084267860259117e-06,-1.498030326567357e-06,-6.402328368118472e-07,-6.341295258548994e-07
-1.1015016182224432e-07,-4.262158255313374e-07,-4.54893811674992e-07,-5.358714650705743e-07,-4.027750234826192e-07,-6.754507828759081e-07,-3.6997973380466427e-07,-1.0138606031037774e-07,-2.171950084288649e-07,-5.166782378099403e-07,-9.141149050900087e-07,-4.640656452601203e-07,-5.890859654031242e-07,-7.843394830597908e-07,-1.1826312213273776e-06,-1.4400772577600392e-06,-6.233449569787178e-07,-6.275155253947294e-07
-9.782199388962706e-08,-3.9325449825211455e-07,-4.5610013602257664e-07,-5.396603883343322e-07,-4.0190952238142263e-07,-6.717175150148977e-07,-3.628990426577764e-07,-8.280694781707085e-08,-2.2737602806372677e-07,-5.032417339568149e-07,-9.220636791438714e-07,-4.01413684704908e-07,-5.577631078033288e-07,-7.427713454690454e-07,-1.146727618788831e-06,-1.3727082979005247e-06,-5.970795462920251e-07,-6.139918577609278e-07
-8.090129791853203e-08,-3.5197185621286574e-07,-4.624580651866191e-07,-5.460976896584255e-07,-4.0425564153176237e-07,-6.676362258805083e-07,-3.5185736219493446e-07,-6.510134528362168e-08,-2.3667153969506334e-07,-4.858462951845499e-07,-9.328212831096109e-07,-3.199627167019289e-07,-5.10076354294586e-07,-6.981018998387614e-07,-1.1006704843770842e-06,-1.2991679818557413e-06,-5.623611511313724e-07,-5.913055682486609e-07
-5.731465959958228e-08,-3.040054489270677e-07,-4.752161389364085e-07,-5.550591636161366e-07,-4.099413497139009e-07,-6.650210827287188e-07,-3.402068157117284e-07,-5.19898366652355e-08,-2.429973597378962e-07,-4.6470729455655476e-07,-9.437855385185335e-07,-2.2145849593515682e-07,-4.477158627349727e-07,-6.557898586329576e-07,-1.0475723507800608e-06,-1.226534718024604e-06,-5.210078340263934e-07,-5.597670971616781e-07
-2.6517792424594746e-08,-2.551431252574671e-07,-4.957756924663182e-07,-5.660525994096866e-07,-4.192239064102623e-07,-6.605738436838717e-07,-3.3087236018930443e-07,-4.5924048537019785e-08,-2.444103414808481e-07,-4.4071544424523084e-07,-9.523866560889396e-07,-1.281577993564679e-07,-3.752338367581878e-07,-6.22507092375771e-07,-9.930741970779973e-07,-1.1625963274076973e-06,-4.7936333753511e-07,-5.222232837603746e-07
1.0261831501384926e-08,-2.2128867088873877e-07,-5.220648303756056e-07,-5.77408366389461e-07,-4.3093022558703293e-07,-6.626568883023163e-07,-3.253406011102448e-07,-4.702559791392124e-08,-2.39782837188928e-07,-4.155496672490737e-07,-9.567286063304653e-07,-4.967233323167258e-08,-3.0013858794090574e-07,-6.037769101120994e-07,-9.446146661973648e-07,-1.114457372530305e-06,-4.4262556557971157e-07,-4.844519047030247e-07
4.896891478329571e-08,-2.0387459590176396e-07,-5.431920671697261e-07,-5.872316371803652e-07,-4.414567216023891e-07,-6.674285624400195e-07,-3.239676904217723e-07,-5.352666624174972e-08,-2.3015673800173257e-07,-3.919921233037775e-07,-9.57422711422173e-07,-1.014924285829761e-08,-2.3216158471950855e-07,-6.024733906635858e-07,-9.102003407292096e-07,-1.0867405165428754e-06,-4.1814735901444977e-07,-4.545199631069335e-07
8.278351176587452e-08,-2.1716475257807246e-07,-5.578348071932809e-07,-5.930274629421003e-07,-4.3932090549110017e-07,-6.695390201472843e-07,-3.259470679526365e-07,-6.228780973436883e-08,-2.189649905860475e-07,-3.7279408898366847e-07,-9.549245584609467e-07,-5.3649212828472e-08,-1.795131356471788e-07,-6.158813173009309e-07,-8.958230869068613e-07,-1.0798980393085667e-06,-4.339396756044206e-07,-4.386977232339281e-07
1.0427163356963414e-07,-2.490938005430435e-07,-5.476227812330679e-07,-5.930048274954344e-07,-4.399582660275696e-07,-6.680228092539537e-07,-3.2827680762493136e-07,-6.38553098725961e-08,-2.1254727414628862e-07,-3.595526093439649e-07,-9.504339273823254e-07,-6.121513030409545e-08,-1.442762221053616e-07,-6.367346950308397e-07,-9.025925417815864e-07,-1.0806057861860081e-06,-4.556313274377471e-07,-4.4110788227573766e-07
1.0769648853854914e-07,-2.314415577808125e-07,-5.11748882190402e-07,-5.855482396557089e-07,-4.095002488128699e-07,-6.608407493886713e-07,-3.2595102916876047e-07,-4.677366604851275e-08,-2.1382378439228256e-07,-3.513979189548943e-07,-9.44032576771535e-07,-6.944380505830319e-08,-1.213330411395787e-07,-6.517379758402604e-07,-9.257679720977596e-07,-1.0747727552974517e-06,-4.66406053711952e-07,-4.6115731303779744e-07
8.999630889743404e-08,-2.3155801879584426e-07,-4.835371386938455e-07,-5.703258135903074e-07,-3.569104278940063e-07,-6.46431194090214e-07,-3.1461495296476026e-07,-9.104487008573052e-10,-2.2482740504520752e-07,-3.4587875341202605e-07,-9.345471822014753e-07,-7.992353885053602e-08,-1.0139452649824535e-07,-6.48564821624411e-07,-9.561093555886432e-07,-1.0570258822369997e-06,-5.045947565035402e-07,-4.937952535710642e-07
5.153784040245488e-08,-2.4746479284437664e-07,-4.685637636904872e-07,-5.491806016586e-07,-3.3151076331663764e-07,-6.292323296291376e-07,-2.9339729067770337e-07,8.031941916714435e-08,-2.488572586170953e-07,-3.401708434918724e-07,-9.209047369201297e-07,-1.166568349856926e-07,-7.483510910108279e-08,-6.325241179013043e-07,-9.821438301157045e-07,-9.927673551115774e-07,-5.592434781141195e-07,-5.323740879142863e-07
-2.673168793219383e-09,-2.678013156302792e-07,-4.4641662454993967e-07,-5.2732420971913e-07,-2.601261982553076e-07,-6.127887269121608e-07,-2.655215650305883e-07,1.924879296062432e-07,-2.778552557464392e-07,-3.304525258694227e-07,-9.007404625130673e-07,-2.003083353587733e-07,-3.436698283437104e-08,-5.791424875841879e-07,-9.926171508349267e-07,-9.054938611256613e-07,-6.016919838527828e-07,-5.666795540095759e-07
-6.322696885670738e-08,-2.972691885901578e-07,-4.02285293249023e-07,-5.080295738100391e-07,-1.6956033541336408e-07,-5.862664463645861e-07,-2.3712805389773063e-07,3.2287081175748024e-07,-3.1110550431334674e-07,-3.13382354802073e-07,-8.716296325134926e-07,-2.752958682187317e-07,2.2092940026620133e-08,-4.812542600569611e-07,-9.794131326688988e-07,-7.838447282876165e-07,-6.231796685774789e-07,-5.872353615152789e-07
-1.1919741060652395e-07,-3.278123256414742e-07,-3.4781597314034807e-07,-4.862268326980075e-07,-8.054868868705184e-08,-5.530658652712648e-07,-2.1539098486563357e-07,4.537041209066507e-07,-3.441911724509926e-07,-2.881150360564409e-07,-8.325048026302495e-07,-2.808674748086027e-07,9.323938096249016e-08,-3.7286541340750095e-07,-9.402057854316857e-07,-6.371239558071538e-07,-6.162897657506552e-07,-5.882886950779817e-07
-1.615019481781526e-07,-3.4868714522706206e-07,-3.163655821035025e-07,-4.6527111140805817e-07,-1.7670047805494118e-08,-5.160259374214499e-07,-2.0568051559531896e-07,5.603968510036057e-07,-3.6722105916974636e-07,-2.5498121003791734e-07,-7.831622434189204e-07,-2.783759762223459e-07,1.719896736327767e-07,-2.621140925582995e-07,-8.791953369072448e-07,-4.821799975251786e-07,-6.094085989897646e-07,-5.683399232232778e-07
-1.8435252224175704e-07,-3.5080403767229563e-07,-2.9820801744322357e-07,-4.4646542109194417e-07,1.6303820202975717e-08,-4.7678147828675535e-07,-2.0827409000836518e-07,6.051625587214242e-07,-3.709305657163732e-07,-2.1608268204187763e-07,-7.254768088814063e-07,-2.662766851861197e-07,2.5104493294221727e-07,-1.4759636669661924e-07,-8.057786763413493e-07,-3.4590948102946497e-07,-5.707671507002064e-07,-5.299822312002702e-07
-1.8543293762664064e-07,-3.3154730621108595e-07,-2.88040706308489e-07,-4.2795803134675176e-07,3.892605259581141e-08,-4.567864280489632e-07,-2.1710646825967393e-07,6.43810617392173e-07,-3.357404674424115e-07,-1.7468558356935975e-07,-6.688986414911131e-07,-2.5047707166696536e-07,3.3601966994908107e-07,-3.949965134390809e-08,-7.324920672484311e-07,-2.9869807972943207e-07,-5.244069760203421e-07,-4.794486706105354e-07
-1.6607924662323676e-07,-2.9530714442299235e-07,-2.633788792820976e-07,-4.205970272699037e-07,8.553852405990498e-08,-4.5880826266527065e-07,-2.21976203171653e-07,6.823602296623352e-07,-2.6522291111865144e-07,-1.3847143685213263e-07,-6.184459094626174e-07,-2.2577085526187323e-07,3.914298662876524e-07,4.8491422778547e-08,-6.726129435502816e-07,-2.8320644448079197e-07,-4.727466520766609e-07,-4.255584638531922e-07
-1.3156027859263237e-07,-2.45510168400931e-07,-2.569899180332146e-07,-4.157109042745123e-07,1.0280493127591213e-07,-4.4295913701304456e-07,-2.1247205433028272e-07,6.591802399017282e-07,-2.238504224780257e-07,-1.0880141017472845e-07,-5.783046956367605e-07,-1.4968118900539364e-07,4.193189763596868e-07,1.0975371767736518e-07,-6.368445177486886e-07,-2.806966919892273e-07,-4.2160114785082664e-07,-3.7527502646527373e-07
-8.741519867624404e-08,-2.016474517503033e-07,-2.745302919406366e-07,-3.927700098191587e-07,9.724534073316624e-08,-4.206628480098988e-07,-1.8151855486195142e-07,6.089265713860672e-07,-2.0607924788755378e-07,-8.545018933909602e-08,-5.527472220797075e-07,-4.0175122946477335e-08,4.261242151478693e-07,1.4277628007362926e-07,-6.297277709414626e-07,-2.2822387089507536e-07,-3.731049043912291e-07,-3.3431353014257674e-07
-3.8331886020954376e-08,-1.6218200629097383e-07,-2.782910887786936e-07,-3.550944338939086e-07,8.203248135239734e-08,-3.7069071791516764e-07,-1.2842081019685084e-07,5.594678600680377e-07,-1.820822539289928e-07,-6.615697425251443e-08,-5.346742489985007e-07,6.332695229379627e-08,4.256507008876286e-07,1.5268630429660035e-07,-6.475598382020663e-07,-2.4462221486597235e-07,-3.281151798290165e-07,-3.033310929158531e-07
1.3167209608369971e-08,-1.2409444507610625e-07,-2.5575402814738124e-07,-3.006805737805001e-07,6.575847176567177e-08,-2.513706450626056e-07,-6.086307240576621e-08,5.347281660833515e-07,-1.276785962219045e-07,-4.140623123948582e-08,-5.16405034013485e-07,1.744857246783561e-07,4.109053007550563e-07,1.486179490400972e-07,-6.78778478011346e-07,-3.39735682310576e-07,-2.8558841208704763e-07,-2.7660224764451216e-07
6.587634844790751e-08,-8.96327835429239e-08,-2.0746556930421489e-07,-2.3444206513946284e-07,4.418900630739413e-08,-1.7608359461169113e-07,6.5608418865021255e-09,5.451921427856292e-07,-8.268949598324456e-08,-1.0715402573476301e-08,-5.00850525929553e-07,2.847112453583275e-07,3.9250048175533824e-07,1.408211171532518e-07,-7.067274277912423e-07,-3.864346944420379e-07,-2.509113790773824e-07,-2.5948539480814024e-07
1.203501358592659e-07,-4.255465640777068e-08,-1.618728251480995e-07,-2.181772212619141e-07,4.496143551735072e-08,-1.3849122433551204e-07,5.766893322302243e-08,5.61645591585597e-07,-9.03878335398966e-09,3.966800321676311e-08,-4.774800526868423e-07,3.5001180719754697e-07,3.8452190686198333e-07,1.3875669009584248e-07,-7.145734147610159e-07,-4.3887845009487157e-07,-2.1914833973322701e-07,-2.388974080341683e-07
1.7699694210263512e-07,1.14040254112796e-08,-1.2466473617971745e-07,-2.2587878263590745e-07,4.250514246988113e-08,-9.831166605719902e-08,8.013716715662835e-08,5.767114045522473e-07,7.892073244943897e-08,8.601878878352472e-08,-4.377234206948187e-07,3.645541476386289e-07,3.9156216892084993e-07,1.4865685262575885e-07,-6.886794701047251e-07,-5.055458763730022e-07,-1.818895535832414e-07,-2.055086717394608e-07
2.3499357789986728e-07,5.956164047268346e-08,-1.0135339578418427e-07,-2.1372787958655968e-07,2.7623721938615026e-08,-8.121970209282852e-08,6.820338759371358e-08,5.85611212915113e-07,1.4723991961133664e-07,1.5769963251825687e-07,-3.8351269832263614e-07,3.5322361498368606e-07,4.121500057340083e-07,1.7117277908897127e-07,-6.297287817421211e-07,-5.229454168854986e-07,-1.418842427351626e-07,-1.6125518950832768e-07
2.983491534591081e-07,1.0890634246039158e-07,-5.974356320826845e-08,-1.7740496343546347e-07,1.2854450955791589e-09,-8.053246061525299e-08,2.400555037651031e-08,5.763975886143232e-07,1.8920609286296574e-07,2.2409401362800345e-07,-3.2918182638250356e-07,3.4307772941979916e-07,4.38048330021005e-07,2.018441082654987e-07,-5.477906664207692e-07,-5.354731467461423e-07,-1.038984726522914e-07,-1.1195019260068035e-07
3.593084920188676e-07,1.6337628056712718e-07,-2.1907319476656493e-08,-1.280149894079208e-07,-4.448481668655191e-08,-3.3652102801333285e-10,-4.131338309469943e-08,5.525855453638172e-07,2.218530802628739e-07,2.677945766806565e-07,-3.028725133632012e-07,3.3698485702969134e-07,4.583494842898125e-07,2.3390650733624232e-07,-4.615929921708308e-07,-5.457320133812397e-07,-8.696564575143392e-08,-8.902906782226949e-08
4.1252094425420504e-07,2.169452430955442e-07,5.0670802322719726e-09,-1.247147406901154e-07,-8.94464360325059e-08,4.103273116434128e-08,-1.0924352305301729e-07,5.187400125287348e-07,2.3135171727190634e-07,2.708538516373389e-07,-3.242557494073449e-07,3.288495450847372e-07,4.6288073590843494e-07,2.6033393131771827e-07,-4.154290211191719e-07,-5.554667874951182e-07,-1.0009198743291309e-07,-1.1741138835403613e-07
4.33657306696395e-07,2.673261152037391e-07,1.0815473618719455e-08,-1.2336370264519299e-07,-1.2409425877661103e-07,4.167769314169298e-08,-1.599212373066441e-07,4.809984682844884e-07,2.2223390017939807e-07,2.599623042604675e-07,-3.583707281371138e-07,3.132970908503837e-07,4.4449616960472617e-07,2.748789112872845e-07,-4.3115332199768006e-07,-5.761580543831122e-07,-1.5422078223974706e-07,-1.6899580774129984e-07
4.183652657669162e-07,3.094301698321042e-07,2.406942475045481e-08,-1.1422650116746524e-07,-1.434982587439285e-07,4.520817597996907e-08,-1.792122352401337e-07,4.4670992624598107e-07,2.8121956210910745e-07,2.5353100183673467e-07,-3.88544256991937e-07,2.93202993944214e-07,4.0216960462784634e-07,2.73973255620341e-07,-4.458899915105568e-07,-6.170965743742907e-07,-1.6747727718757196e-07,-1.9125976308321378e-07
3.260415014330533e-07,3.284045214198169e-07,2.8589476251303927e-08,-1.114799032926654e-07,-1.4908273836369336e-07,3.222329190137877e-08,-1.6241154179418967e-07,4.211784894805803e-07,3.338594389288628e-07,2.4259779230013723e-07,-4.177182033280539e-07,2.6193658623701007e-07,3.422368780077726e-07,2.5823413191958974e-07,-4.635980582848364e-07,-6.756120643422522e-07,-1.339574667369428e-07,-1.9380550812704268e-07
2.3906737370691134e-07,3.2949026425231356e-07,3.532921607470947e-09,-9.847563002386025e-08,-1.4029782596115428e-07,3.194098770686719e-08,-1.1390594986345352e-07,4.0716906308260334e-07,3.744226641298903e-07,2.420786529329707e-07,-4.1934860922671307e-07,2.2765469696778553e-07,2.756708266877683e-07,2.3088235018528487e-07,-5.266064204228042e-07,-7.457330013583557e-07,-1.2834416735328828e-07,-1.8155993256675081e-07
1.58982832551403e-07,3.321921045074937e-07,6.396668446878583e-09,-8.010919141069062e-08,-1.1767066390327513e-07,7.75275318151587e-08,-4.440934320678381e-08,4.04069687924354e-07,3.8971999257866247e-07,2.691617566395725e-07,-4.0478706666388294e-07,1.9988845959998255e-07,2.1310479633402948e-07,1.946432383915495e-07,-6.323688744502082e-07,-8.254629672386805e-07,-1.2565955363460693e-07,-1.8759605274433455e-07
8.830392334323478e-08,3.206337821495858e-07,1.7965024827178915e-08,-7.75753048681604e-08,-8.562042822326871e-08,1.430853100031366e-07,3.358557189697909e-08,4.087099898229396e-07,3.8918410843782955e-07,2.671425654139164e-07,-3.9836001998290375e-07,1.8042413426892792e-07,1.6251004062652973e-07,1.5127067750836765e-07,-7.618767545199718e-07,-9.052967657851169e-07,-1.271439407037733e-07,-2.5961106092667783e-07
2.959552515921798e-08,2.9750272007777624e-07,2.0558299583140088e-08,-8.294233317444312e-08,-4.62055894436325e-08,1.773631894558657e-07,1.109162838497528e-07,4.17991611012877e-07,3.663002104809186e-07,2.716372603728806e-07,-4.1433491022437786e-07,1.709477960783572e-07,1.2964949030211492e-07,1.0369940351911157e-07,-8.680901052068137e-07,-9.772693599399383e-07,-1.4528843676664223e-07,-3.4656493117363397e-07
-1.516825653693438e-08,2.714208209200352e-07,1.745607903172312e-08,-1.1730859519759746e-07,-3.4134009986266462e-09,1.7274095592950767e-07,1.840708952014606e-07,4.302409961529944e-07,3.2327453405217584e-07,2.74663074224569e-07,-4.344335599357496e-07,1.6814334031256158e-07,1.1834056661921677e-07,5.668094579877117e-08,-9.494840659096918e-07,-1.03342068120517e-06,-1.855883205163458e-07,-3.941533335185519e-07
-5.7750309947168726e-08,2.427876882446976e-07,5.5359962366149905e-09,-1.5455908930982838e-07,4.2382795815851084e-08,1.243536703133269e-07,2.5302136669879324e-07,4.437471651699092e-07,2.896292340301082e-07,2.519372876612706e-07,-4.632852877225556e-07,1.689783731996762e-07,1.291617639590323e-07,1.4731662433547694e-08,-1.0116464642985283e-06,-1.070247009664276e-06,-2.3644348544959726e-07,-4.3499300829333843e-07
-9.901056341933182e-08,2.2047333957809864e-07,-2.3477600925964637e-08,-2.0182478638542362e-07,9.057897934125561e-08,5.5841455713448744e-08,3.175696455545475e-07,4.552601232012164e-07,2.676733823915171e-07,2.1491554225831868e-07,-5.136604879380755e-07,1.7236746312781548e-07,1.5841718150926144e-07,-1.926213011639368e-08,-1.050271291606914e-06,-1.083408631583248e-06,-2.8611941511812665e-07,-4.6204028926541784e-07
-1.3613300484083196e-07,2.1066105541190203e-07,-6.199366968092029e-08,-2.473782701915724e-07,1.3961812936528038e-07,-2.1811402469721815e-08,3.761544751692032e-07,4.6097207444423605e-07,2.610575891836538e-07,1.687186195690928e-07,-5.591623004173032e-07,1.783530168962051e-07,2.002842745628352e-07,-4.332001651065366e-08,-1.0671039311336979e-06,-1.0764971483130486e-06,-3.328429912998527e-07,-5.135933502509269e-07
-1.683286078194968e-07,2.1293922447726303e-07,-1.0231651970596324e-07,-2.7380418105334894e-07,1.8514797699384896e-07,-1.2318434104249225e-07,4.2711148629398836e-07,4.584877972250904e-07,2.54875951460789e-07,1.3189120576302075e-07,-6.028876564680259e-07,1.8786235702048434e-07,2.4779090638729483e-07,-5.618341163309106e-08,-1.0665794050881435e-06,-1.0565073522466225e-06,-3.6874517635255633e-07,-5.183995099017151e-07
-1.9143275298110634e-07,2.1697892951211393e-07,-1.4191241313485855e-07,-2.957369951629317e-07,2.2269407328788574e-07,-2.0102777987678412e-07,4.6975408727497224e-07,4.474754308096835e-07,2.4651995281531707e-07,1.0491562553097867e-07,-6.485571444736719e-07,2.0120548990713066e-07,2.9321401856969936e-07,-5.8785545154006894e-08,-1.0552039671793655e-06,-1.0295797349504294e-06,-3.9548856531434736e-07,-4.978834951680237e-07
-2.0554002622811255e-07,2.3455514340348215e-07,-1.7876254517360365e-07,-3.0973207867050766e-07,2.500210236886931e-07,-2.6159730388552e-07,5.043716329261957e-07,4.293656389667564e-07,2.427006197441523e-07,8.30021910631283e-08,-6.902355087912841e-07,2.1728189843946997e-07,3.299380612093821e-07,-5.466244078178753e-08,-1.0399880213260667e-06,-1.0028750736886266e-06,-4.1737740919368713e-07,-4.912254937140643e-07
-2.116854146832101e-07,2.609198103774977e-07,-2.129689942778568e-07,-3.222701668216922e-07,2.666789945496164e-07,-3.1052669769385244e-07,5.321604169219232e-07,4.071162527988078e-07,2.543028821067829e-07,6.282147910181865e-08,-7.372569751536204e-07,2.3415344178750787e-07,3.5419353052181514e-07,-4.819331570503292e-08,-1.026253684988161e-06,-9.796469524368996e-07,-4.3815031099353296e-07,-4.639184634482404e-07
-2.1071288450828763e-07,2.878027641073013e-07,-2.455774191400881e-07,-3.483262194282666e-07,2.748076163831845e-07,-3.4086713511554677e-07,5.552416312474946e-07,3.8434206232136814e-07,2.7968464656586353e-07,4.1740710605609985e-08,-7.801126602287708e-07,2.494601153242867e-07,3.654366344438179e-07,-4.3276090178772556e-08,-1.0166745169326007e-06,-9.60089652434515e-07,-4.499587461600989e-07,-4.498670074341874e-07
-2.0465270711338573e-07,3.140422322594812e-07,-2.765072174515279e-07,-3.8751639574391036e-07,2.7722408305772654e-07,-3.795122206546667e-07,5.761991930172286e-07,3.63473285206218e-07,3.1273246377599686e-07,3.5827701703614065e-08,-8.042734925553879e-07,2.5995086733983117e-07,3.646047575969659e-07,-4.3595899536935766e-08,-1.0120277469343316e-06,-9.442611542558435e-07,-4.605603228213569e-07,-4.414338098375342e-07
-1.9660174644212037e-07,3.317092933563633e-07,-2.961937072005177e-07,-4.177108699068528e-07,2.7584720954438597e-07,-4.1548048202795327e-07,5.977662263543736e-07,3.447426872572268e-07,3.507402727461441e-07,3.90719357155274e-08,-8.127849328342806e-07,2.6158109738278017e-07,3.528662485435454e-07,-5.21909478405472e-08,-1.0121170087465603e-06,-9.331881628099206e-07,-4.7478180865973984e-07,-4.295900204338147e-07
-1.8981888109778583e-07,3.379941535950247e-07,-3.0948644207882516e-07,-4.3608340635402705e-07,2.716949802783569e-07,-4.5187828149426004e-07,6.232121472762408e-07,3.270889287989451e-07,3.8870713273473154e-07,4.370774671154189e-08,-8.113368233855097e-07,2.5096707639392745e-07,3.3181359676890477e-07,-6.978548747263536e-08,-1.0160847667802835e-06,-9.284724757378054e-07,-4.940479548622275e-07,-4.272227717216035e-07
-1.864205567175683e-07,3.335610352567937e-07,-3.2068475924706695e-07,-4.4822719165639713e-07,2.6544888802570255e-07,-4.81900613616802e-07,6.560516787674823e-07,3.0923923018323524e-07,4.30242974745464e-07,4.691582125809473e-08,-8.133819913759642e-07,2.2677851236820535e-07,3.035797462542876e-07,-9.463015993475553e-08,-1.022947098232285e-06,-9.319337577534439e-07,-5.237749489877411e-07,-4.2568525951726047e-07
-1.8696169548922355e-07,3.227933626807384e-07,-3.268361798857893e-07,-4.588517688794831e-07,2.576091080244333e-07,-4.994575819482126e-07,6.98147287984598e-07,2.896303623234252e-07,4.7450579158647736e-07,3.623001666922025e-08,-8.239822887289737e-07,1.8997140294895087e-07,2.699322035047595e-07,-1.2448731327240836e-07,-1.0324874653908322e-06,-9.458164605940217e-07,-5.614240523462705e-07,-4.287235818718631e-07
-1.9060853781008142e-07,3.0487004756918456e-07,-3.317649404461107e-07,-4.714740271047968e-07,2.483432506115217e-07,-5.088214514453156e-07,7.480912856019753e-07,2.666019733692091e-07,5.193108795024133e-07,1.342807276985189e-08,-8.438397464645476e-07,1.4355908717691296e-07,2.3199495450667203e-07,-1.5799876881253932e-07,-1.0454224305691382e-06,-9.719819095960038e-07,-6.037546154248374e-07,-4.440630565426167e-07
-1.9497831518839362e-07,2.8304535640299834e-07,-3.3570795722551896e-07,-4.878773514935595e-07,2.3780960116932852e-07,-5.111954770823265e-07,8.017872847002661e-07,2.3975326937019915e-07,5.610815568739519e-07,-1.6453421542201394e-08,-8.720371585605831e-07,9.230119298893477e-08,1.909892458353147e-07,-1.9449333644465087e-07,-1.0627085093689803e-06,-1.0106149913189284e-06,-6.457101303524816e-07,-4.6861690114395574e-07
-1.962709118913006e-07,2.6191904965736294e-07,-3.3786936834157475e-07,-5.047647744593097e-07,2.2647355267017385e-07,-5.043693592532839e-07,8.541147234465378e-07,2.105635087892153e-07,5.993305367605251e-07,-5.208258017697434e-08,-8.975424495050487e-07,4.151566962988899e-08,1.4770476751777238e-07,-2.3417412176733223e-07,-1.0850799834363146e-06,-1.060753572942396e-06,-6.854286690457609e-07,-5.005649875900201e-07
-1.9066222229376156e-07,2.4328699032481563e-07,-3.3975065771683145e-07,-5.185376895868004e-07,2.1467247271407701e-07,-4.981225307732404e-07,8.997348155012318e-07,1.8114113770687455e-07,6.339513881981044e-07,-8.651981865191335e-08,-9.231481288175661e-07,-4.7172410030727204e-09,1.0121474679869318e-07,-2.786892673592491e-07,-1.112976104722708e-06,-1.1217284462269433e-06,-7.194473604943426e-07,-5.399965064265359e-07
-1.7598419600157314e-07,2.285543606423792e-07,-3.446211969834554e-07,-5.270249499015459e-07,2.021388520605322e-07,-4.948725566426004e-07,9.334321324304666e-07,1.530234137059491e-07,6.625558752605265e-07,-1.1864302468389011e-07,-9.46211630748886e-07,-4.427110332202487e-08,4.960964965180197e-08,-3.29771072103738e-07,-1.1459785415686781e-06,-1.1926656968628573e-06,-7.46310379647328e-07,-5.852147055555926e-07
-1.5215958964559263e-07,2.1642238776971e-07,-3.518485105871939e-07,-5.31420159529502e-07,1.8846313657330893e-07,-4.860987063713849e-07,9.51166589604985e-07,1.2749525340121953e-07,6.831274048637817e-07,-1.480476406105007e-07,-9.615024430075582e-07,-7.628373409697962e-08,-7.780270448961854e-09,-3.8641831197222405e-07,-1.1820258775955036e-06,-1.2702759818381316e-06,-7.670890875745627e-07,-6.343596648102516e-07
-1.208571916946032e-07,2.051434011547068e-07,-3.600403299519022e-07,-5.325586644022244e-07,1.7390941607437013e-07,-4.7490910430853396e-07,9.511814370037169e-07,1.0604690707156341e-07,6.933461773457229e-07,-1.7223502037601727e-07,-9.65995711205269e-07,-1.0062145259221503e-07,-6.908459445400759e-08,-4.441989032917643e-07,-1.2177948829848821e-06,-1.3482666949452396e-06,-7.823164448684985e-07,-6.838592643957012e-07
-8.55631990382788e-08,1.9357564969840067e-07,-3.6771798590338754e-07,-5.288887990106306e-07,1.5941423212526608e-07,-4.644210908028191e-07,9.342240779721339e-07,8.989205746753028e-08,6.921820400941597e-07,-1.8891820716910325e-07,-9.579144101867654e-07,-1.1803029008772908e-07,-1.3107179526487564e-07,-4.975020813759473e-07,-1.250215058023749e-06,-1.419340726928564e-06,-7.944182174042178e-07,-7.295184651708428e-07
-5.14203449166916e-08,1.8067561228127324e-07,-3.7239416365182206e-07,-5.212183899989361e-07,1.459960772065262e-07,-4.4424742112045993e-07,9.036544007444357e-07,7.988746926937049e-08,6.803215272097884e-07,-1.9845427924279156e-07,-9.396660477563264e-07,-1.2977809918116894e-07,-1.900837426406621e-07,-5.415873764073016e-07,-1.2773846145427183e-06,-1.477194470062047e-06,-8.057043797004995e-07,-7.682045922562805e-07
-2.3661271381572983e-08,1.6644589835931993e-07,-3.7291621425946854e-07,-5.090534570086933e-07,1.3452581902134415e-07,-4.2517847905672605e-07,8.657753408442918e-07,7.73938522364885e-08,6.598942797941363e-07,-2.0182587882047587e-07,-9.154167852047541e-07,-1.3667352811404293e-07,-2.421280499242258e-07,-5.730453433996775e-07,-1.2982629099660715e-06,-1.5172755350955205e-06,-8.16611802543271e-07,-7.981220366938074e-07
-5.662844396878087e-09,1.5292594840512278e-07,-3.687219178405986e-07,-4.92947223518836e-07,1.2563104342257856e-07,-4.1614407113670626e-07,8.284926348963786e-07,8.395550985029183e-08,6.338393876650736e-07,-1.999272622653701e-07,-8.922898011386148e-07,-1.3903918014911268e-07,-2.8365679166822545e-07,-5.908040829822043e-07,-1.3124216689809063e-06,-1.5378236999538387e-06,-8.264073267638091e-07,-8.191567036807748e-07
1.480153293883676e-09,1.4305830297748337e-07,-3.602105542186816e-07,-4.7485525067168917e-07,1.1900679438813715e-07,-4.103951480740406e-07,7.974942210414794e-07,9.89329474608396e-08,6.043010445379155e-07,-1.9667375357503329e-07,-8.744158007882177e-07,-1.37848071138279e-07,-3.1325936110981263e-07,-5.978714360370922e-07,-1.3203654943408847e-06,-1.5412654172421165e-06,-8.348293046566848e-07,-8.330977873041695e-07
-1.8083241864296185e-09,1.383443292257319e-07,-3.494193120513958e-07,-4.587775214400345e-07,1.1274013727217025e-07,-4.1358063890969265e-07,7.729748057410753e-07,1.1796391637304956e-07,5.716690512127315e-07,-1.9414559344866237e-07,-8.653704170141899e-07,-1.3505438542416938e-07,-3.321310653392766e-07,-6.006173051007078e-07,-1.323183513069351e-06,-1.5334036031106854e-06,-8.425602974224393e-07,-8.426157775988325e-07
-1.384692038209322e-08,1.3831998206619568e-07,-3.391438134946876e-07,-4.4672717713660906e-07,1.0383198547269902e-07,-4.264706017221384e-07,7.501242265562579e-07,1.3461680500332892e-07,5.353032144692983e-07,-1.9394135953599396e-07,-8.673102405749063e-07,-1.3233654482200235e-07,-3.4231125889187933e-07,-6.050517023643929e-07,-1.3212702288818208e-06,-1.5202710150782538e-06,-8.500746549494762e-07,-8.494983474818302e-07
-3.154535482168401e-08,1.419758947439426e-07,-3.315751435537543e-07,-4.3969673880589046e-07,8.964855949341961e-08,-4.4725433631725777e-07,7.22414630074217e-07,1.432809611127963e-07,4.948226630253348e-07,-1.9684833963539195e-07,-8.762566371743794e-07,-1.3010835733288542e-07,-3.4559295275072983e-07,-6.141021366999622e-07,-1.3139155718110553e-06,-1.506113921367909e-06,-8.572024435763306e-07,-8.541833110445124e-07
-5.1267593854314624e-08,1.4839013062610165e-07,-3.2789203337708813e-07,-4.3696636669039154e-07,6.892935356227326e-08,-4.7533786244739846e-07,6.844869901780665e-07,1.4034266121280275e-07,4.505499529279156e-07,-2.0046156670272987e-07,-8.893200250627103e-07,-1.2808516915252914e-07,-3.441717457192929e-07,-6.281337365315127e-07,-1.3005501034914424e-06,-1.493917097381218e-06,-8.640412989737518e-07,-8.568195018979636e-07
-7.038978852348356e-08,1.5598788241817064e-07,-3.287054319517376e-07,-4.3832901686238194e-07,4.193167631065121e-08,-5.10910306563361e-07,6.33602793402225e-07,1.240940127560463e-07,4.034216078629279e-07,-2.0509402084706205e-07,-9.031070289887314e-07,-1.2604459733467143e-07,-3.40779250551059e-07,-6.461595723555111e-07,-1.281775975144787e-06,-1.4857016057901121e-06,-8.710263688071146e-07,-8.577618799914276e-07
-8.772116190424384e-08,1.626720396395815e-07,-3.3405857337357766e-07,-4.4320376225268087e-07,1.041917868614295e-08,-5.493151924659774e-07,5.705765568834069e-07,9.521407343921667e-08,3.5521871596726554e-07,-2.106241084071889e-07,-9.135232362172897e-07,-1.2342187977127775e-07,-3.36947688643566e-07,-6.658388849707892e-07,-1.25872561985431e-06,-1.4811018139158762e-06,-8.774928141708805e-07,-8.567127071512062e-07
-1.0268857889578985e-07,1.672285342786332e-07,-3.429926026383254e-07,-4.5067027050304463e-07,-2.246857015686414e-08,-5.853859184593651e-07,5.000070838496965e-07,5.716580547963887e-08,3.0871316834549407e-07,-2.1504835550713247e-07,-9.196495453741869e-07,-1.1874967052127413e-07,-3.3192203253294687e-07,-6.837307703605356e-07,-1.232020238361214e-06,-1.4768048747522977e-06,-8.811835939048694e-07,-8.522936676466197e-07
-1.1500075355777925e-07,1.696898375497485e-07,-3.5379744439512996e-07,-4.591658256307508e-07,-5.323992270531735e-08,-6.176375461054615e-07,4.2874970912931676e-07,1.4918549052065217e-08,2.669452100908673e-07,-2.1820121660214108e-07,-9.185437343780579e-07,-1.1023394922738163e-07,-3.239871764841803e-07,-6.968686798894596e-07,-1.201895136684297e-06,-1.4686304466972334e-06,-8.799149175815394e-07,-8.43057718811783e-07
-1.2506855919116105e-07,1.701807320947569e-07,-3.6486458840282157e-07,-4.6835205485811687e-07,-7.968720020258593e-08,-6.415840467987544e-07,3.6340274633266996e-07,-2.701660485727535e-08,2.3218513228646296e-07,-2.1804455848884805e-07,-9.093648668685018e-07,-9.66575198079145e-08,-3.119173957218917e-07,-7.037261140860206e-07,-1.168818710485585e-06,-1.4537665032703512e-06,-8.730952813259974e-07,-8.284630537487725e-07
-1.3371337300548486e-07,1.6861975843825305e-07,-3.749264978756564e-07,-4.76273146585236e-07,-1.0164227867406168e-07,-6.559282199619085e-07,3.0894786365731424e-07,-6.518924521052263e-08,2.056160930002166e-07,-2.1350896241493995e-07,-8.937692931282712e-07,-7.738022890650549e-08,-2.949024391207299e-07,-7.032260121676776e-07,-1.1333557719893565e-06,-1.4307890198360584e-06,-8.612573584542193e-07,-8.085889024930948e-07
-1.41061030232952e-07,1.6593673932023316e-07,-3.8263747074048385e-07,-4.812056866843401e-07,-1.2027301248031326e-07,-6.608736907250496e-07,2.688136332001923e-07,-9.685607882472109e-08,1.8756355816783493e-07,-2.0450635969867274e-07,-8.737139050816753e-07,-5.197911737639581e-08,-2.717321110516921e-07,-6.937567931695973e-07,-1.0957176334009207e-06,-1.3988441082225922e-06,-8.450247845022749e-07,-7.836009284133086e-07
-1.4619278172868147e-07,1.6448989691993848e-07,-3.8668048999501955e-07,-4.825701444195803e-07,-1.369461257449175e-07,-6.555264238028104e-07,2.447760145562677e-07,-1.2030035825611657e-07,1.7757309931215865e-07,-1.9094960864899482e-07,-8.509926825154847e-07,-2.0429752525392546e-08,-2.4139344706657396e-07,-6.738752751813462e-07,-1.0559124236743468e-06,-1.3578102372788144e-06,-8.250840176944659e-07,-7.539302548844262e-07
-1.478054993435532e-07,1.668455412541551e-07,-3.864408625880551e-07,-4.793077704704887e-07,-1.52456860289531e-07,-6.4528261696596e-07,2.364657179271774e-07,-1.3542079558949444e-07,1.7452240226263269e-07,-1.7318089207440377e-07,-8.270642586056061e-07,1.6755345162302525e-08,-2.0399829457766615e-07,-6.432292337020439e-07,-1.0140636911343683e-06,-1.308460472262404e-06,-8.022722192940619e-07,-7.204021899313692e-07
-1.4456362164998982e-07,1.7500700363349984e-07,-3.8214344378671695e-07,-4.717701479952258e-07,-1.6639345987510785e-07,-6.326481819191385e-07,2.4172263251857166e-07,-1.4237622059330725e-07,1.7716293349556404e-07,-1.516707166432301e-07,-8.027197461072507e-07,5.90536633818885e-08,-1.6031744404685184e-07,-6.022664802482498e-07,-9.703144031219474e-07,-1.2517127059800244e-06,-7.769978344471376e-07,-6.838351102023346e-07
-1.35071915081232e-07,1.9082377670244495e-07,-3.7446317422946716e-07,-4.604233671641563e-07,-1.768607818161668e-07,-6.186084974860522e-07,2.5758675884499224e-07,-1.4284633950121133e-07,1.8445839201314864e-07,-1.2680347209252145e-07,-7.773912181262578e-07,1.0618865949431348e-07,-1.1161070671269093e-07,-5.523004604588501e-07,-9.249701618782909e-07,-1.1886379907921282e-06,-7.493182536308255e-07,-6.451359582418802e-07
-1.1864010592199283e-07,2.1563472717960135e-07,-3.646238978389639e-07,-4.4586222529206503e-07,-1.806808029921373e-07,-6.056545697848189e-07,2.804827962066527e-07,-1.394680430139869e-07,1.9511576789605242e-07,-9.902778903458607e-08,-7.515781223124302e-07,1.5736188822847803e-07,-6.058193037116054e-08,-4.967812454649281e-07,-8.79245340353402e-07,-1.1219843800342664e-06,-7.202629700375543e-07,-6.062381098822137e-07
-9.639228159719892e-08,2.488042951660609e-07,-3.547608807641454e-07,-4.2938220086026973e-07,-1.7675180133643012e-07,-5.955696256497785e-07,3.0592192399026084e-07,-1.3582030609657426e-07,2.0714262233132797e-07,-7.07895518891536e-08,-7.266055511416122e-07,2.1060192004196108e-07,-1.1524069453025834e-08,-4.4154432102234793e-07,-8.354870489845192e-07,-1.0567312608972282e-06,-6.924278188949334e-07,-5.702689372576673e-07
-7.093075256204289e-08,2.8748583333639645e-07,-3.473793000047501e-07,-4.1358303429706686e-07,-1.6594409250849456e-07,-5.910391559059515e-07,3.293906132795767e-07,-1.366993783252344e-07,2.1840071649645906e-07,-4.5099997155636205e-08,-7.038434350427901e-07,2.633139331484701e-07,3.1544008159757306e-08,-3.9257814139757775e-07,-7.962315600950473e-07,-9.981361116515602e-07,-6.686637299527286e-07,-5.402914654275421e-07
-4.4711111945404126e-08,3.28162331845177e-07,-3.4416615637078536e-07,-4.0055917269714395e-07,-1.5135551779394073e-07,-5.933181656132394e-07,3.480658223066043e-07,-1.4341748457238675e-07,2.2747717884819955e-07,-2.415171230971567e-08,-6.842454116934075e-07,3.130661527376828e-07,6.646727626304484e-08,-3.53641481343557e-07,-7.632646531395878e-07,-9.496263843868272e-07,-6.506585409020958e-07,-5.181360456562742e-07
-1.9189722577508333e-08,3.6771577345153064e-07,-3.4545847172534717e-07,-3.907900038447827e-07,-1.3479432152267736e-07,-6.037358065503198e-07,3.612651787901355e-07,-1.554156103543779e-07,2.3371828950506274e-07,-9.332360108711705e-09,-6.67897241753143e-07,3.574575068399595e-07,9.260858719251091e-08,-3.258742352273131e-07,-7.375561474803893e-07,-9.125748448925595e-07,-6.388466437671438e-07,-5.043405304125445e-07
4.753357156460737e-09,4.033406886898432e-07,-3.5038565441020547e-07,-3.8352301638204803e-07,-1.1845881749538657e-07,-6.212207760754367e-07,3.6948707807711483e-07,-1.7161754675447114e-07,2.3680205300963692e-07,-8.917524172514004e-10,-6.543674391705413e-07,3.937998509704869e-07,1.1018698740213224e-07,-3.080066673159411e-07,-7.192261002129363e-07,-8.864850918752109e-07,-6.324599129845192e-07,-4.982490872792185e-07
2.659237599070301e-08,4.330761855464011e-07,-3.5674844031985634e-07,-3.7665578328802385e-07,-1.04026553056657e-07,-6.438795750982538e-07,3.738327304256304e-07,-1.9005871174869788e-07,2.3684074447767308e-07,2.441039393466998e-09,-6.422892105711595e-07,4.1961312083120865e-07,1.2066486206778143e-07,-2.959435178989807e-07,-7.070848942548789e-07,-8.684389175943391e-07,-6.289498686485378e-07,-4.977004399435135e-07
4.652688671538956e-08,4.5710238450687214e-07,-3.6095937435227616e-07,-3.671041239728907e-07,-9.09906408941114e-08,-6.687867854160401e-07,3.7608385661179446e-07,-2.079709028289458e-07,2.3470166212373851e-07,3.5503030348597098e-09,-6.290767635312846e-07,4.333067134972871e-07,1.2678460261753775e-07,-2.835997930924017e-07,-6.989249868301149e-07,-8.536876050495249e-07,-6.242720140667911e-07,-4.994529499625798e-07
6.525516724417766e-08,4.777323680120952e-07,-3.5907254907926495e-07,-3.5170550121239966e-07,-7.840557898017427e-08,-6.895333128000329e-07,3.782878061824054e-07,-2.2227957251281538e-07,2.3170602474435535e-07,5.741776169883609e-09,-6.120564592011028e-07,4.3429585244265694e-07,1.311659017065194e-07,-2.660067194264389e-07,-6.930430587119816e-07,-8.383409910291733e-07,-6.146767414311866e-07,-5.007321994711387e-07
8.303141206373429e-08,4.978697613633323e-07,-3.4849448023920053e-07,-3.286646917075791e-07,-6.493383286018042e-08,-7.025045005293035e-07,3.822578553430594e-07,-2.2964127581819317e-07,2.2903454741387436e-07,1.1227335592450283e-08,-5.902193917594283e-07,4.231932550445326e-07,1.3534728050655007e-07,-2.4188987168149435e-07,-6.893722133277086e-07,-8.214467292652781e-07,-5.984211929727016e-07,-5.00448732301965e-07
9.928861514396531e-08,5.200645671737813e-07,-3.290493216214022e-07,-2.9859371576917384e-07,-4.8939539601636685e-08,-7.053062540579494e-07,3.9026239815088655e-07,-2.2540981021769965e-07,2.275709561292457e-07,2.0758626189084304e-08,-5.669131901140072e-07,4.0246403992180955e-07,1.4080561517827296e-07,-2.134774037189239e-07,-6.889712398092798e-07,-8.044877588491822e-07,-5.740287261446255e-07,-4.992127039865749e-07
1.1305078015742558e-07,5.467375792105452e-07,-3.0313531370044436e-07,-2.64464302943829e-07,-3.05145295560241e-08,-7.000131986753438e-07,4.061437244579949e-07,-2.0648542149289292e-07,2.278555974003574e-07,3.394448620132519e-08,-5.464642029722904e-07,3.764897240211291e-07,1.501510661489892e-07,-1.8504738476503044e-07,-6.928165987850391e-07,-7.898988785807334e-07,-5.417361399067426e-07,-4.988628080016912e-07
1.2315871264046793e-07,5.800685771136852e-07,-2.7540794857105e-07,-2.3095256455464776e-07,-5.040313103979271e-09,-6.906254180169591e-07,4.350620985986491e-07,-1.6958833619384523e-07,2.2964409366190313e-07,4.952651802378645e-08,-5.342575623727353e-07,3.5051812206565766e-07,1.6380517240601028e-07,-1.616032077990432e-07,-7.010128491968172e-07,-7.799719422948859e-07,-5.02179914457643e-07,-5.016996572708564e-07
1.2832998417947644e-07,6.21352928427092e-07,-2.516302784848774e-07,-2.0326173851637179e-07,2.78961712245359e-08,-6.827978477294793e-07,4.818614024299067e-07,-1.127894723462711e-07,2.3165447918841968e-07,6.620135584246367e-08,-5.384918097964391e-07,3.296328196831295e-07,1.873754838769282e-07,-1.465816731859213e-07,-7.10145652011274e-07,-7.753838657990122e-07,-4.5538556285490543e-07,-5.088532011215218e-07
1.277122473011377e-07,6.709171028862292e-07,-2.3653805122911974e-07,-1.8534192513476804e-07,6.784741149377772e-08,-6.766451492249654e-07,5.491378729547504e-07,-4.561523162154488e-08,2.3210806779321648e-07,8.391550811506745e-08,-5.652470335721798e-07,3.183750760895076e-07,2.2694059014998475e-07,-1.3897420485967267e-07,-7.171679758365981e-07,-7.735885635425177e-07,-4.0086291767804373e-07,-5.187000001793465e-07
1.212846270590622e-07,7.281284602749661e-07,-2.3203409912762112e-07,-1.7837775624856804e-07,1.1541871706437587e-07,-6.782185151182993e-07,6.352621308897122e-07,3.004068011958173e-08,2.2952580754580328e-07,1.0393256845941956e-07,-6.13404100158127e-07,3.2006738088010133e-07,2.857356535679859e-07,-1.3114499302962768e-07,-7.177656302033873e-07,-7.669087420791527e-07,-3.397114339658284e-07,-5.271154584651513e-07
1.0939725661212906e-07,7.905011505951381e-07,-2.368508657758533e-07,-1.7993761799228784e-07,1.6001274522714937e-07,-6.934817468554906e-07,7.329064901498305e-07,1.0993483377452395e-07,2.2319210828426063e-07,1.2730691524936128e-07,-6.763503401270427e-07,3.3554921664947794e-07,3.63274226399313e-07,-1.1552972536199428e-07,-7.094745043124636e-07,-7.505692927086744e-07,-2.7498926114000536e-07,-5.293146981065393e-07
9.261416990585274e-08,8.531444310647811e-07,-2.470727880957026e-07,-1.8649407246235352e-07,2.0217429841502506e-07,-7.205500920034017e-07,8.299338673235428e-07,1.8673864936404381e-07,2.1358637700424976e-07,1.538443396962293e-07,-7.430236561523208e-07,3.6260337110736484e-07,4.520160682840607e-07,-8.621466767160339e-08,-6.906999559067234e-07,-7.207897556063884e-07,-2.1074913645953575e-07,-5.215241782316271e-07
7.277929288909874e-08,9.101549952904757e-07,-2.5682191641690486e-07,-1.9191363642495014e-07,2.432607705713082e-07,-7.558809283507401e-07,9.13140996825959e-07,2.4798441554488555e-07,2.0279915216840898e-07,1.8256153815121643e-07,-7.722728442267525e-07,3.9657028816738705e-07,5.404524785462864e-07,-4.056738817123136e-08,-6.622813871356105e-07,-6.764099839343179e-07,-1.5200022449770746e-07,-5.01965323073268e-07
5.2957447105870075e-08,9.56752156205093e-07,-2.5978149967681733e-07,-1.8877479411306653e-07,2.894913206692668e-07,-7.808189614517214e-07,9.721797237567062e-07,2.912109084345265e-07,1.9416334319869206e-07,2.122639935055226e-07,-7.450694501094102e-07,4.311682758973695e-07,6.163269842675365e-07,1.827132183605947e-08,-6.283811778433815e-07,-6.234501537942089e-07,-1.0220858752040177e-07,-4.7161961027517803e-07
4.085480899407899e-08,9.902020394129e-07,-2.5121659105421706e-07,-1.7799774229380642e-07,3.1365074083728597e-07,-7.587794696289906e-07,1.001082522705802e-06,3.129193553533405e-07,1.9111182084504118e-07,2.4149896112210734e-07,-7.276582743252535e-07,4.5935590711677067e-07,6.698508397414954e-07,8.126807333385813e-08,-5.942114495397259e-07,-5.69808749621421e-07,-6.471304850778698e-08,-4.341124530360646e-07
4.100449164742817e-08,1.0100277846642977e-06,-2.3132562785077092e-07,-1.5508788403947975e-07,3.200433003865021e-07,-6.736538838450749e-07,9.979748118307576e-07,2.4829507869031343e-07,1.9636118576462122e-07,2.6902069511102997e-07,-7.102659051753025e-07,4.751993401312934e-07,6.94607218985975e-07,1.395260189583816e-07,-5.649432326874458e-07,-5.251409339839733e-07,-4.030158606558528e-08,-3.939310902512276e-07
5.6913470403607956e-08,1.018537342260591e-06,-2.0476575733600456e-07,-9.841139704656906e-08,2.9181927783744173e-07,-6.007781258146289e-07,9.644410476408219e-07,1.8307415839733517e-07,2.1173834052565695e-07,2.948765331570005e-07,-7.053469408100518e-07,4.7645438205667865e-07,6.908160455708612e-07,1.8602964552490564e-07,-5.410672931900177e-07,-4.965872330809448e-07,-2.86940504259338e-08,-3.542301425280186e-07
9.108905695732012e-08,1.0205854721582466e-06,-1.7840399048576384e-07,-4.2119479525499345e-08,2.1900511246755001e-07,-5.371455581983403e-07,9.044530376586154e-07,1.808906531804185e-07,2.3784087538421895e-07,3.2056674294837065e-07,-6.656827179877903e-07,4.661810978001835e-07,6.652524477216256e-07,2.170145568718748e-07,-5.17963029247442e-07,-4.853071942721521e-07,-2.762617860323161e-08,-3.1598130665066157e-07
1.4435062631386156e-07,1.0216570184215234e-06,-1.7952721093775199e-07,1.076955466298638e-08,2.2704144938696786e-07,-4.782151728643276e-07,8.231548819872062e-07,2.3002699719207326e-07,2.734559079052592e-07,3.4804310971873354e-07,-5.966333322510082e-07,4.525724662929231e-07,6.283035779804994e-07,2.3412446672238743e-07,-4.872678026196034e-07,-4.856835650796828e-07,-2.8894727041327198e-08,-2.783218497045601e-07
2.1843717702425513e-07,1.0258648054556403e-06,-1.975204908142958e-07,6.183377981909914e-08,2.3481741112731595e-07,-4.4806005055783464e-07,7.271256454686391e-07,2.3312504675537265e-07,3.156293590793034e-07,3.789381595722589e-07,-5.330727767602507e-07,4.47156241270062e-07,5.951646779585968e-07,2.4245815799454125e-07,-4.4027241591016965e-07,-4.86589252093269e-07,-6.9057977995541836e-09,-2.393265846000192e-07
3.072019031464317e-07,1.0352831493176999e-06,-2.176677519825724e-07,1.0476586599703307e-07,2.3274622822168853e-07,-4.2727277223951967e-07,6.258737676256068e-07,1.309556397685497e-07,3.6043984064305383e-07,4.1431435612353545e-07,-4.570336912305963e-07,4.611713422621102e-07,5.760749741988698e-07,2.500881727026323e-07,-3.7090399387489223e-07,-4.7063183807102067e-07,4.2520638689858385e-08,-1.9748633132472383e-07
4.0827933323187396e-07,1.0496583419987906e-06,-2.294443359133701e-07,1.331944241391556e-07,1.9976505297282596e-07,-3.3155103060068173e-07,5.316681174921821e-07,-7.284666559204119e-09,4.0359695829859946e-07,4.5400147493216094e-07,-3.6891042977664145e-07,5.007020788956675e-07,5.772828549681552e-07,2.6883522100715917e-07,-2.784578018981553e-07,-4.2629167511021643e-07,1.0128609555823251e-07,-1.5361400405355967e-07
4.902898544913042e-07,1.0659705211824875e-06,-2.7329491349580625e-07,1.4753195853480417e-07,1.1982423896017417e-07,-2.486679408299214e-07,4.5645006325389787e-07,-1.3522538371641063e-07,4.4083094728877466e-07,4.960009324554115e-07,-2.9885791573367423e-07,5.632736313043226e-07,6.012534559821426e-07,3.0591034441570275e-07,-1.6619322473697836e-07,-3.477686107595173e-07,1.5682243423706704e-07,-1.1123200901051444e-07
5.085243035304845e-07,1.0794248123646295e-06,-3.0089621209079915e-07,1.5052044255144583e-07,4.4763078661706936e-08,-2.355082809747721e-07,4.082899014078628e-07,-2.0907261005848524e-07,4.6879539534015677e-07,5.372656738232199e-07,-2.4011006539988814e-07,6.382729973709351e-07,6.434326519646808e-07,3.6474895255698927e-07,-6.255359129501516e-08,-2.3723031003741575e-07,2.1321882641332971e-07,-7.471003029431252e-08
4.725634255169135e-07,1.08605626753998e-06,-2.970207033600947e-07,1.4701867163229432e-07,2.1817314718758996e-08,-2.2948367823925522e-07,3.899354421529105e-07,-2.0909830465634328e-07,4.860898618936516e-07,5.751405178711598e-07,-1.9255348981421293e-07,7.104100831370731e-07,6.976679470106233e-07,4.4600857031878996e-07,2.1743199274481283e-08,-1.018047575289037e-07,2.595962942557979e-07,-4.733642057916686e-08
4.152469474149822e-07,1.084277990332638e-06,-2.8117488166349943e-07,1.4226875059441144e-07,9.329297565052459e-09,-2.0698124880832263e-07,3.992268785829336e-07,-1.6685713995951966e-07,4.932234826959772e-07,6.075568461140403e-07,-1.5464362219044538e-07,7.638647051220714e-07,7.565559212947575e-07,5.275924343565281e-07,8.365871290060978e-08,2.9513719607523153e-08,2.575305126742351e-07,-3.1115854558036236e-08
4.106073461570087e-07,1.0742314822590285e-06,-2.7623602368829984e-07,1.3975526383767614e-07,1.61896138825668e-08,-1.9626795108503234e-07,4.3045181850765027e-07,-2.029146326605753e-07,4.917394295676802e-07,6.3228652944027e-07,-1.1808535493802451e-07,7.861891143465876e-07,8.110665807378132e-07,6.048989597749689e-07,1.0430394224760288e-07,1.483178428496406e-07,2.2974335786291338e-07,-2.707072271579606e-08
3.900042120541928e-07,1.057271348190104e-06,-2.6934173866975425e-07,1.4055067401489056e-07,1.316306183943843e-08,-1.5344808396828558e-07,4.7680903762832374e-07,-2.0189048138185771e-07,4.838957045254032e-07,6.4723280035313e-07,-8.426820372628691e-08,7.718584900717907e-07,8.523330390052423e-07,6.749274686867129e-07,5.99808187791416e-08,2.4629294279670807e-07,1.9915392765209322e-07,-3.453652063027591e-08
3.397239858414343e-07,1.0367900827420892e-06,-2.4435465507557756e-07,1.4464343204175715e-07,6.588485965260818e-09,-1.1011177626910296e-07,5.331799499012522e-07,-1.5807305586241345e-07,4.729953147357217e-07,6.517384810203347e-07,-5.362480798156136e-08,7.239412917106053e-07,8.752271476019772e-07,7.272464815461651e-07,5.7220738563860737e-08,2.803423884861879e-07,2.1019984468444268e-07,-5.04858904289965e-08
2.679611035053897e-07,1.0180724957785977e-06,-2.119218003817527e-07,1.5223928412392303e-07,2.258983554436354e-08,-1.1115774646776349e-07,5.967598367250815e-07,-1.0436310571508295e-07,4.630038664580046e-07,6.468913336073723e-07,-2.4148971926615015e-08,6.521625376170527e-07,8.777064362227243e-07,7.338975682156871e-07,6.716526708182092e-08,2.3907669766463777e-07,2.0577736515575846e-07,-7.04735653905646e-08
1.738924825060983e-07,1.0058427094874927e-06,-1.7797292583133615e-07,1.6342417998359116e-07,6.216063587687426e-08,-1.2422061860185095e-07,6.650797733885376e-07,-5.135299008707047e-09,4.5720359624347545e-07,6.343984304955111e-07,5.009518377372357e-09,5.685799319616576e-07,8.59550396036922e-07,7.070375709410526e-07,-2.5931515259875754e-08,2.0101776412260857e-07,1.9950907073879456e-07,-9.051519620715494e-08
7.349341394536912e-08,1.0020036492394171e-06,-1.446493742112978e-07,1.771441332155517e-07,1.5534328478350295e-07,-1.4145992135418521e-07,7.343621492185437e-07,1.0659440162408279e-07,4.572723562988967e-07,6.157064210280455e-07,3.285861673470907e-08,4.8406546803979e-07,8.219501663988979e-07,6.224270277070511e-07,-1.238649191713898e-07,1.631488358083178e-07,1.9916983281884282e-07,-1.0826408663914726e-07
-2.128764721750107e-08,1.0058310661715763e-06,-1.1191322298846661e-07,1.9107480369382066e-07,2.3300473415539773e-07,-1.895146397799742e-07,8.002712485054298e-07,2.114525520640619e-07,4.6338117252031675e-07,5.920506210910655e-07,5.660510594461798e-08,4.067813096112668e-07,7.690340209246543e-07,4.80128411728861e-07,-1.833711183250769e-07,1.1737253929373774e-07,1.8259691141183438e-07,-1.234223876929377e-07
-8.767922954828048e-08,1.0153012304225107e-06,-8.877659247070047e-08,2.0236284857452027e-07,2.8418924225384175e-07,-2.3596012914815384e-07,8.594039994579695e-07,3.1450359044389637e-07,4.7436495280813146e-07,5.644262843323492e-07,7.238681220403076e-08,3.415545253575126e-07,7.02889778928147e-07,4.4413601687338256e-07,-2.2023852230042904e-07,9.258626734215347e-08,1.5017788405850413e-07,-1.3791050140855942e-07
-1.2201542185215569e-07,1.0277059347932644e-06,-7.426229457491955e-08,2.0843984364209917e-07,3.129535322830381e-07,-2.9901206051305546e-07,9.094916855817973e-07,3.826526213024383e-07,4.875799446419856e-07,5.332968122970366e-07,7.63612068536405e-08,2.89716334157849e-07,6.232058113300453e-07,4.733942030763122e-07,-2.7189929512152e-07,9.945668072606674e-08,1.127403757948603e-07,-1.5511386115935e-07
-1.3526751966816677e-07,1.0401535716258225e-06,-6.473820591991043e-08,2.0787020802272175e-07,3.1749810069282347e-07,-3.4416039037220874e-07,9.488685647479999e-07,4.2113551577251915e-07,4.99252625776466e-07,4.9899357212098e-07,6.627383014390041e-08,2.4996825592965024e-07,5.304178589016661e-07,4.7121259089771915e-07,-3.3527607221519593e-07,9.056690486701598e-08,8.92611818552338e-08,-1.7780339903660174e-07
-1.3480958220078555e-07,1.0506074288128416e-06,-5.863877603307876e-08,2.01085494309795e-07,2.945156488522847e-07,-3.684392867082627e-07,9.76086229288487e-07,4.4174001213173837e-07,5.055150150524235e-07,4.62571433855655e-07,4.2762388849634107e-08,2.1988663883220106e-07,4.2445148834594797e-07,4.6705537434619174e-07,-4.0046325504191185e-07,2.8561313111468673e-08,7.017382706192003e-08,-2.0625643254343826e-07
-1.3184157853150592e-07,1.0581634085694485e-06,-5.2261830619889826e-08,1.9010858307460502e-07,2.7048116995016766e-07,-3.852377347539081e-07,9.891237827015727e-07,4.5182818746660555e-07,5.033492244019018e-07,4.258609446786979e-07,9.209752779809145e-09,1.9692317400029156e-07,3.123714876502534e-07,4.215269562746339e-07,-4.687782320680918e-07,-8.276889605889622e-08,5.466966680858994e-08,-2.3800340514329124e-07
-1.2959992974357158e-07,1.062091726648131e-06,-4.597644246207143e-08,1.77024772134356e-07,2.4358511412791424e-07,-3.9012694715010673e-07,9.846635765585808e-07,4.6039122869349877e-07,4.912573496056853e-07,3.908234902843992e-07,-2.9632240994370895e-08,1.7868593197987945e-07,2.1061296247649582e-07,3.245172978282469e-07,-5.323685280470704e-07,-2.2052871536952334e-07,4.2826511196994734e-08,-2.686710265820928e-07
-1.2955956810848933e-07,1.0615454741405026e-06,-4.171242769232991e-08,1.629151388704622e-07,1.9739785068758084e-07,-4.053750645669897e-07,9.594704023916652e-07,4.7593242162967857e-07,4.700131085227637e-07,3.593096866064179e-07,-6.898235318076576e-08,1.6288960402914057e-07,1.2353268035742085e-07,2.0942974544759271e-07,-6.189747064284492e-07,-3.4983796212692977e-07,2.79456766039253e-08,-2.931400579790091e-07
-1.32131770215386e-07,1.0567292489736082e-06,-4.1654012923984224e-08,1.4793723671525484e-07,1.5514214425557244e-07,-4.085440238886805e-07,9.13517775216276e-07,4.910800967837236e-07,4.428923879392595e-07,3.329598795981117e-07,-1.0490843619570045e-07,1.4683551804836802e-07,8.204353464003598e-08,9.331502092103142e-08,-7.187536831666066e-07,-4.595761264766531e-07,1.4670712126195575e-08,-3.073330733243292e-07
-1.3443655594055907e-07,1.0494253272404739e-06,-4.836431887541425e-08,1.317666892892632e-07,9.895109083887616e-08,-4.044657131011193e-07,8.513918113562683e-07,4.995891932385136e-07,4.1445176863901644e-07,3.123072936027928e-07,-1.3503541431148012e-07,1.2661655358265442e-07,1.1311807496794528e-07,-1.9517882827572417e-09,-8.164717680768708e-07,-5.770009113146755e-07,1.0644266178801996e-08,-3.103318138851238e-07
-1.327791745961138e-07,1.04173576956975e-06,-6.398559797637773e-08,1.1388316372722461e-07,3.392979521379113e-08,-3.9600476396986227e-07,7.805988040742822e-07,5.000518430135894e-07,3.885371076243902e-07,2.9576737316335063e-07,-1.5881210448355146e-07,9.733332818460505e-08,1.1387281628048223e-07,-7.38861692475915e-08,-8.843706803074843e-07,-6.815537068725856e-07,1.2811315797037806e-08,-3.0516429826619253e-07
-1.2471375056658252e-07,1.0350113280332925e-06,-8.923513761099855e-08,9.407028022801243e-08,-1.3658789686143412e-08,-3.81750099796533e-07,7.09344385616741e-07,4.924618162903425e-07,3.671211763520702e-07,2.798433873182997e-07,-1.7704464358209746e-07,5.487603605011856e-08,1.0978003653063821e-07,-1.3288768391933645e-07,-9.226321077185791e-07,-7.729255165373104e-07,1.810542265029325e-08,-2.975881045802015e-07
-1.0976597279169168e-07,1.0302121426095843e-06,-1.2212250898927072e-07,7.346925096228286e-08,-6.287513836736733e-08,-3.6807960978526917e-07,6.454541315196258e-07,4.792570987427287e-07,3.5026157131326994e-07,2.602116107554045e-07,-1.913873135322328e-07,-2.176444837439983e-09,2.0036023043438612e-07,-1.8616273962224163e-07,-9.45690197744236e-07,-8.565837327421309e-07,2.9225639500048032e-08,-2.9415946511669996e-07
-8.945612895617998e-08,1.0280080471532596e-06,-1.578993269157402e-07,5.4869820599772194e-08,-1.1407326449910945e-07,-3.524607058606644e-07,5.951415266394283e-07,4.641497356810453e-07,3.364757407836562e-07,2.326710057540964e-07,-2.0426822293902864e-07,-7.193116594820037e-08,2.9417848299288975e-07,-2.430905480767438e-07,-9.642735672374964e-07,-9.101931631214736e-07,4.088348022378828e-08,-3.004388365760398e-07
-6.700704108866097e-08,1.0277666702782983e-06,-1.908560316688313e-07,4.1927486704914283e-08,-1.5314883263693886e-07,-3.359291815760303e-07,5.613094510717774e-07,4.5030181349047656e-07,3.2357178476965055e-07,1.943568028816652e-07,-2.18389293216528e-07,-1.494306265424323e-07,2.9545485584731903e-07,-2.9092082278739836e-07,-9.959456166399247e-07,-9.567409920449653e-07,4.78357110965861e-08,-3.188616856309984e-07
-4.600484196589905e-08,1.0273894545306208e-06,-2.1656559256557931e-07,3.8007426230466985e-08,-1.8403031813242341e-07,-3.190037659804731e-07,5.43282736750024e-07,4.3624340130838743e-07,3.1024731865810095e-07,1.4554302671432441e-07,-2.3530458712658755e-07,-2.2728538394293272e-07,2.3815769366897273e-07,-3.442615714165137e-07,-1.038048331356662e-06,-1.0124869335150091e-06,4.664518461576882e-08,-3.469699089801204e-07
-2.8460597573715783e-08,1.0248359443618667e-06,-2.3314013820034453e-07,4.5036015188449434e-08,-2.0356716870225332e-07,-3.1111685378795797e-07,5.382470416361219e-07,4.236961225744507e-07,2.9726514794451817e-07,9.038726235561961e-08,-2.5451251719020653e-07,-2.974204176442823e-07,1.6713528739525922e-07,-4.12038567777171e-07,-1.0894454205991014e-06,-1.0777018851539053e-06,3.445011886472042e-08,-3.7818615937893545e-07
-1.4110318245859347e-08,1.0192336589076937e-06,-2.4142279816488146e-07,6.272427848548694e-08,-2.086322079566743e-07,-3.1355165979083483e-07,5.422998630154366e-07,4.1342483211433585e-07,2.8695154209773235e-07,3.528331722871149e-08,-2.743216882576529e-07,-3.5386367631015166e-07,1.3615396093082664e-07,-4.833798775666639e-07,-1.145224802366424e-06,-1.147723275453702e-06,1.0669503864895098e-08,-4.0519636648005815e-07
-1.3165146668146523e-09,1.0104469360031235e-06,-2.4424210273336544e-07,8.837714624716278e-08,-2.0424348455186734e-07,-3.2524032957709434e-07,5.504669337105504e-07,4.0399452136600743e-07,2.817630708642292e-07,-1.3732434490951724e-08,-2.933557829468338e-07,-3.945410112338855e-07,9.839002820330309e-08,-5.59528773491165e-07,-1.2017104815484143e-06,-1.221075892294982e-06,-2.0603437889123827e-08,-4.229986369901654e-07
1.190795268102308e-08,9.986370603895899e-07,-2.447587831193637e-07,1.1792879877256793e-07,-1.9552441202410376e-07,-3.4782643186082077e-07,5.571417894917656e-07,3.9422453309922766e-07,2.82325464064915e-07,-5.25438600151606e-08,-3.110866347100869e-07,-4.207096252349282e-07,-4.370570083071282e-09,-6.334243219820107e-07,-1.250409893259468e-06,-1.2925853142612887e-06,-5.395380261095449e-08,-4.2972791506870827e-07
2.735321737569903e-08,9.845534626985964e-07,-2.4493726955206316e-07,1.4746299440772056e-07,-1.8793946563930764e-07,-3.7703306899784753e-07,5.573095073154998e-07,3.8189697335316687e-07,2.877880117984879e-07,-7.964896126736459e-08,-3.276778181113199e-07,-4.35209500572711e-07,-1.1678727685845871e-07,-6.96639350965427e-07,-1.28438951081767e-06,-1.3559839284090025e-06,-8.412177246611232e-08,-4.2628373209219076e-07
4.584545861793795e-08,9.69405887241938e-07,-2.45376747420357e-07,1.7381909353186937e-07,-1.880818131823674e-07,-4.1033387163425463e-07,5.476197386618219e-07,3.6489570348161745e-07,2.950675305609861e-07,-9.652215712611091e-08,-3.4395114084992335e-07,-4.4112100935973243e-07,-2.1674684178447322e-07,-7.468334509691268e-07,-1.3036712929688722e-06,-1.414016806288045e-06,-1.0673943382038137e-07,-4.157328293166633e-07
6.644647279330176e-08,9.542523681296313e-07,-2.460851104571627e-07,1.9447833173664053e-07,-2.0031817832057285e-07,-4.4587708600777183e-07,5.273352073342353e-07,3.423377960838794e-07,3.00283133908411e-07,-1.0679911244478135e-07,-3.611043126284506e-07,-4.408447540606505e-07,-2.981635180674798e-07,-7.868005194242474e-07,-1.3101521253080505e-06,-1.459454721852323e-06,-1.20306974431963e-07,-4.020697055412299e-07
8.664386273839705e-08,9.400745975250998e-07,-2.4694819320558213e-07,2.0767585878538338e-07,-2.2449221792623645e-07,-4.835510849771117e-07,4.991672918109568e-07,3.1579805498305764e-07,3.0055625697680354e-07,-1.1423234295993967e-07,-3.799669745821489e-07,-4.354073242921552e-07,-3.269194193825204e-07,-8.12838062927968e-07,-1.3088525916217213e-06,-1.486927933324593e-06,-1.2500623201892827e-07,-3.8870587899114324e-07
1.0335211599735202e-07,9.280711404556914e-07,-2.4788481458946496e-07,2.127950841484873e-07,-2.556410692457261e-07,-5.253592436206652e-07,4.6828295254032636e-07,2.890202247296829e-07,2.9467038020280667e-07,-1.2139880132539253e-07,-4.0077105698468896e-07,-4.2464733034951484e-07,-3.8679682609716005e-07,-8.240005887093588e-07,-1.3038226030491466e-06,-1.4961112413653081e-06,-1.2242454109371563e-07,-3.7796270487155883e-07
1.1370255845664923e-07,9.188234635262907e-07,-2.493020244275235e-07,2.1089847880745904e-07,-2.865561708269505e-07,-5.70931597183285e-07,4.387381947609386e-07,2.6501991108482217e-07,2.8313541600391353e-07,-1.300987363872352e-07,-4.236431184518907e-07,-4.081666639295212e-07,-3.9698683046995754e-07,-8.249697269502746e-07,-1.2971711788298453e-06,-1.4891008764395945e-06,-1.1604375720191372e-07,-3.712966104726433e-07
1.1573304197634223e-07,9.112887297427218e-07,-2.524033182642466e-07,2.025784353720777e-07,-3.136438061973641e-07,-6.165133618444194e-07,4.102114406356366e-07,2.4383208066743577e-07,2.6761405786296357e-07,-1.4168831947035087e-07,-4.4848305043607586e-07,-3.8576590432372716e-07,-3.733776449652396e-07,-8.216937296619766e-07,-1.2897210004634935e-06,-1.4746580649612684e-06,-1.1020492328010468e-07,-3.688854906430034e-07
1.09595549565889e-07,9.0311594487177e-07,-2.5866252913455767e-07,1.9052820143521973e-07,-3.3555890095144125e-07,-6.425946114157834e-07,3.781578496703363e-07,2.2335030312419693e-07,2.513481611901442e-07,-1.5635270265967874e-07,-4.739193771820486e-07,-3.57261552248044e-07,-3.238044110715584e-07,-8.224085639913129e-07,-1.2805785979914523e-06,-1.4635790033647313e-06,-1.080427179293225e-07,-3.6899359081999176e-07
9.844750170366979e-08,8.933875424804465e-07,-2.691104112458797e-07,1.7963803970493252e-07,-3.535620856575104e-07,-6.329611399112671e-07,3.3652624288692236e-07,2.0138328909398735e-07,2.387451747855275e-07,-1.7272201258415492e-07,-4.970537834625906e-07,-3.2301781767349465e-07,-2.926764794039155e-07,-8.332242072807434e-07,-1.267750364032656e-06,-1.465686669202361e-06,-1.1041487735312764e-07,-3.6864067365981516e-07
8.772459505507468e-08,8.829472812545786e-07,-2.8435498569128985e-07,1.6877244992958296e-07,-3.7537313736244927e-07,-5.748010833603297e-07,2.804533078638572e-07,1.7676288179422714e-07,2.3420464495140245e-07,-1.887135943898039e-07,-5.148466197759995e-07,-2.851469911033313e-07,-2.776649600238596e-07,-8.572289505539731e-07,-1.249813759730191e-06,-1.4888705078977724e-06,-1.1615962630275284e-07,-3.652283536408466e-07
8.327454191171638e-08,8.743382382794286e-07,-3.04854116531777e-07,1.643821324675041e-07,-4.0927866945332675e-07,-5.14235533847953e-07,2.0873789741349133e-07,1.501597918539016e-07,2.405361803052848e-07,-2.0224430045900284e-07,-5.256565172572965e-07,-2.4769795207386764e-07,-2.7539880833891764e-07,-8.945515868115594e-07,-1.2271325189798897e-06,-1.536654399209187e-06,-1.223213472029642e-07,-3.574662233822418e-07
8.969271832088455e-08,8.709354020369515e-07,-3.3065812736100397e-07,1.9097841420936743e-07,-4.6289576396242915e-07,-4.731324597355226e-07,1.26489245869522e-07,1.252676983837395e-07,2.582716620119574e-07,-2.111250918329238e-07,-5.302411463010465e-07,-2.1553940924114733e-07,-2.817218811066553e-07,-9.4132070267373e-07,-1.2020170460629056e-06,-1.6057577864255253e-06,-1.2459764189813551e-07,-3.455250360529722e-07
1.0894910184340714e-07,8.767615185337421e-07,-3.611148133677982e-07,2.1751316561097057e-07,-5.364497562454686e-07,-4.335143640272914e-07,4.5719937266524116e-08,1.0830009037818109e-07,2.8534639308288984e-07,-2.1360783058066965e-07,-5.303141481572914e-07,-1.934688158579056e-07,-3.068578571077018e-07,-9.909329628212607e-07,-1.1787810607877342e-06,-1.6866445654563488e-06,-1.193846506898524e-07,-3.314105882126211e-07
1.3913061576479387e-07,8.950605064539032e-07,-3.9518713220805846e-07,2.4314475446127623e-07,-6.219910475407282e-07,-3.4230726134872316e-07,-1.813818308244415e-08,1.0475871953914113e-07,3.1653281722498343e-07,-2.0999006247458115e-07,-5.303370335800507e-07,-1.860126440302637e-07,-3.4687328584564295e-07,-1.037376535574036e-06,-1.1636881902653086e-06,-1.767441345700986e-06,-1.0643097119337199e-07,-3.1903324699067924e-07
1.7459945684359857e-07,9.237813511877905e-07,-4.3168969188956736e-07,2.6915170585296106e-07,-6.911993325521524e-07,-2.435912702830712e-07,-5.1839780091095736e-08,1.1628260818672123e-07,3.437117720156899e-07,-2.0328579800930026e-07,-5.364546558167779e-07,-1.9670589773230407e-07,-3.881237625133035e-07,-1.077298216851977e-06,-1.16347988757153e-06,-1.8380444936801329e-06,-9.027631546228095e-08,-3.128009087761405e-07
2.086577494889565e-07,9.592976045642432e-07,-4.688100629167656e-07,2.996777147480016e-07,-7.1736053034414e-07,-1.9241970337280446e-07,-4.863784259774506e-08,1.4013322650246008e-07,3.599354529451525e-07,-1.9789128217425196e-07,-5.4830057624134e-07,-2.2664044011071198e-07,-4.32138863597177e-07,-1.109740555777417e-06,-1.1826446767104245e-06,-1.8924737908403097e-06,-7.54011964453506e-08,-3.155770947066781e-07
2.371095941625641e-07,9.958253604055714e-07,-5.038206999650518e-07,3.166451016812243e-07,-6.984214936211884e-07,-1.7869118487456054e-07,-1.0221807615630238e-08,1.7007445360639443e-07,3.640935692156783e-07,-1.9786543125457682e-07,-5.696532927402322e-07,-2.737564937097784e-07,-4.768502291042701e-07,-1.135726869830402e-06,-1.2215072151429466e-06,-1.9299739153886777e-06,-6.887748980676986e-08,-3.278875203637784e-07
2.599220623150248e-07,1.0207222774656833e-06,-5.337981092792171e-07,3.0772210949444837e-07,-6.911569802705595e-07,-1.7231050970768992e-07,5.365428585780312e-08,1.9769390116790912e-07,3.4473143340076866e-07,-2.0606429884608722e-07,-6.179669431551501e-07,-3.3346132498395276e-07,-5.212451699169081e-07,-1.1582160070179877e-06,-1.2762146654072364e-06,-1.9545724933884e-06,-7.610553701319346e-08,-3.483290229511923e-07
2.8039342358876695e-07,1.0095883137314893e-06,-5.564907244631727e-07,2.77923532181371e-07,-7.262092321542191e-07,-1.688682438927689e-07,1.2835313492570825e-07,2.14899387342908e-07,3.18848111346087e-07,-2.233815776154888e-07,-6.65420319818231e-07,-3.995428192648852e-07,-5.691887280774893e-07,-1.1806547598157506e-06,-1.3397423762702264e-06,-1.9722462411664096e-06,-9.87141650111508e-08,-3.739242016960639e-07
3.0322922148280696e-07,1.0144413575497002e-06,-5.711209895074147e-07,2.6230780623596734e-07,-7.479443313715667e-07,-1.7116191718045674e-07,1.9939582615046775e-07,2.1742773748158747e-07,2.853535363984467e-07,-2.479292135482399e-07,-7.101765177143872e-07,-4.650050805845162e-07,-6.185044422875449e-07,-1.2046760072098177e-06,-1.403395784134397e-06,-1.987551395847007e-06,-1.3612115469804227e-07,-4.0068833517260156e-07
3.3228703576202335e-07,9.896199583687568e-07,-5.772337731938222e-07,2.5401165423136186e-07,-7.146139202245586e-07,-1.8222119542480232e-07,2.562853684682387e-07,2.0638755206164991e-07,2.524557229282345e-07,-2.757410496304693e-07,-7.526095568099603e-07,-5.234990088525733e-07,-6.666810262602283e-07,-1.2296872096636591e-06,-1.459216637826707e-06,-2.002760721187433e-06,-1.829460568534333e-07,-4.252439785106302e-07
3.6827612631160737e-07,9.379142168740822e-07,-5.761500273324e-07,2.4695846447748456e-07,-6.597015065484327e-07,-2.294070895533317e-07,2.935651657133356e-07,1.866044676310695e-07,2.2527271570348504e-07,-3.0291911028300034e-07,-7.878590815623291e-07,-5.709033368407048e-07,-7.081198759834003e-07,-1.2543155401767887e-06,-1.502427795202941e-06,-2.018980110460125e-06,-2.3190441400985203e-07,-4.4624833515060655e-07
4.0781669425286536e-07,8.809626161869152e-07,-5.714390178704722e-07,2.451173350514496e-07,-5.992667255444726e-07,-3.116760693966612e-07,3.1088874877643033e-07,1.6476597286620041e-07,2.0606048814948343e-07,-3.267162696878434e-07,-8.114119634938406e-07,-6.056041422235844e-07,-7.402744936531408e-07,-1.2769517391835105e-06,-1.531953091749386e-06,-2.0362035240948014e-06,-2.6997417385311753e-07,-4.638204890378221e-07
4.447940267753937e-07,8.484842354197538e-07,-5.67445244249043e-07,2.4884761176277723e-07,-5.33003557433801e-07,-3.805404609102894e-07,3.1347761931835677e-07,1.490085307026033e-07,1.9465051936970735e-07,-3.4474727638480244e-07,-8.224596876519393e-07,-6.276999075608495e-07,-7.592962385516743e-07,-1.295124615265924e-06,-1.5491238976509943e-06,-2.0523143787440203e-06,-2.894524919428509e-07,-4.778962553422667e-07
4.7239229915339395e-07,8.265667203568487e-07,-5.666708518084518e-07,2.540293021241854e-07,-4.887507788820883e-07,-4.342867429628361e-07,3.112214399457393e-07,1.4797926155523465e-07,1.8954680118887836e-07,-3.5468299489672213e-07,-8.205729516456791e-07,-6.390212524136411e-07,-7.606564803508277e-07,-1.3062812005441857e-06,-1.5568846970547907e-06,-2.0640302128625844e-06,-2.898877378729805e-07,-4.879924454433134e-07
4.839300309451877e-07,8.176651363579836e-07,-5.699500386688867e-07,2.5669545145082294e-07,-4.585263976977511e-07,-4.610101096598857e-07,3.147940811295334e-07,1.6749103196339225e-07,1.8703753969845416e-07,-3.5576204995494767e-07,-8.078417538588358e-07,-6.441240570977195e-07,-7.432513945087654e-07,-1.3101097508923687e-06,-1.5601507550014657e-06,-2.0699189028618467e-06,-2.9068144072184983e-07,-4.94431473518999e-07
4.7347633525383917e-07,8.373694859340893e-07,-5.779231629927949e-07,2.5282481185916997e-07,-4.3955742499312975e-07,-4.648085790462297e-07,3.306490669903746e-07,2.0746616676445598e-07,1.8093535535289033e-07,-3.50031264623998e-07,-7.885048818726241e-07,-6.499336610556538e-07,-7.097711896799839e-07,-1.3092519010109439e-06,-1.5652474953671503e-06,-2.0717949148780345e-06,-3.052821221753824e-07,-4.9873709689163e-07
4.3812313503605607e-07,8.597127496359496e-07,-5.893098759050076e-07,2.396544349604425e-07,-4.3019459510438e-07,-4.614006644650605e-07,3.579082710563597e-07,2.61614293539391e-07,1.6519427500787342e-07,-3.4147632092630867e-07,-7.673776660736626e-07,-6.641583962189577e-07,-6.825724926942564e-07,-1.3074640889358439e-06,-1.5774171973527502e-06,-2.072932924934309e-06,-2.605746402364733e-07,-5.024272256840598e-07
3.807124404378007e-07,8.822116797943656e-07,-6.017918430217567e-07,2.1732626948343277e-07,-4.1991193366761896e-07,-4.6011445616375124e-07,3.878983854712544e-07,3.190350406260389e-07,1.3840666529366808e-07,-3.3419556835190786e-07,-7.49119135146569e-07,-6.895825768469714e-07,-6.417345238589666e-07,-1.3081230030598555e-06,-1.5983700054002694e-06,-2.075850321553987e-06,-2.082400089585793e-07,-5.059263804391215e-07
3.0992783711586533e-07,9.033889991984519e-07,-6.106935183242384e-07,1.8918197394872824e-07,-4.103170769728407e-07,-4.7272297403277986e-07,4.0608255376276867e-07,3.6638833553430466e-07,8.752785331375533e-08,-3.3128834886100125e-07,-7.363327776294897e-07,-7.244308406343038e-07,-5.965984163697233e-07,-1.314256440447627e-06,-1.6257740950802427e-06,-2.081612793172244e-06,-1.8073826845180158e-07,-5.086783962841202e-07
2.374060352727369e-07,9.157867733697843e-07,-6.127445593428559e-07,1.6059031111354225e-07,-4.0340845488910866e-07,-4.992729024633242e-07,3.9700360261838573e-07,3.913206699477973e-07,2.6888300141035014e-08,-3.3419485993693914e-07,-7.293841562325902e-07,-7.645349652703568e-07,-5.765798877747117e-07,-1.327628973832541e-06,-1.654240543612597e-06,-2.089419185893394e-06,-1.5415742333630109e-07,-5.095704135863042e-07
1.7443744671631238e-07,9.013124024093749e-07,-6.047538160598463e-07,1.3739205318226828e-07,-3.9845161048770896e-07,-5.352748162962414e-07,3.5131419644543325e-07,3.870976892587005e-07,-4.180432727057105e-08,-3.421493311177148e-07,-7.273272270996797e-07,-8.010793586752203e-07,-5.676144218005119e-07,-1.3456923876059658e-06,-1.677029402876718e-06,-2.0961757252051813e-06,-1.4841563511067772e-07,-5.07240418130575e-07
1.296291029358418e-07,8.891289289379926e-07,-5.876016341092994e-07,1.2428967126701327e-07,-3.9419210427535434e-07,-5.748199192116126e-07,2.696377329962544e-07,3.551715822400595e-07,-1.0970294799699045e-07,-3.52862437119049e-07,-7.268023522625167e-07,-8.285508128645643e-07,-5.712298700138931e-07,-1.3643505314929935e-06,-1.6887142435638695e-06,-2.098013011569489e-06,-1.5406704990449055e-07,-5.010481406506673e-07
1.069088888900353e-07,8.517179403451897e-07,-5.746787488053812e-07,1.2312638845589507e-07,-3.889926169141742e-07,-6.113511513191759e-07,1.661895087988359e-07,3.037690374208186e-07,-1.674995561688107e-07,-3.6454845654182726e-07,-7.260131016171155e-07,-8.428696046078646e-07,-5.857752388639562e-07,-1.3786320783376378e-06,-1.68796202148927e-06,-2.093242718159093e-06,-1.6129328616759494e-07,-4.922304356626685e-07
1.0434668931526724e-07,8.229312689345322e-07,-5.72989355380298e-07,1.3208497998817657e-07,-3.818285342816397e-07,-6.412451940008421e-07,6.064120837837823e-08,2.450043808125711e-07,-2.102099653388517e-07,-3.770522889113898e-07,-7.262921846386113e-07,-8.433748612957215e-07,-6.045733636287534e-07,-1.3862130396761425e-06,-1.6780052064579267e-06,-2.0830472461458666e-06,-1.7083040963249322e-07,-4.834155111762034e-07
1.1542588515713046e-07,7.99481135852321e-07,-5.977207514905336e-07,1.4690951256667848e-07,-3.720778864233672e-07,-6.645655113790445e-07,-2.5838978627528125e-08,1.927860432440536e-07,-2.3802301490643098e-07,-3.907515096303492e-07,-7.209204067884058e-07,-8.321766643777995e-07,-6.179695043042694e-07,-1.3874201967077316e-06,-1.6641124024461271e-06,-2.068937289889273e-06,-1.7091631287672263e-07,-4.765529735007176e-07
1.3217818185512211e-07,8.118023456360431e-07,-6.285431794233629e-07,1.6312589500174715e-07,-3.5852748910881246e-07,-6.838199836044273e-07,-7.621604044204562e-08,1.60065177083676e-07,-2.51564895242141e-07,-4.049632725048443e-07,-7.20145331298362e-07,-8.129551549094079e-07,-6.125842261664594e-07,-1.3813266300305337e-06,-1.6504058579875613e-06,-2.050451573862585e-06,-1.6003133774399842e-07,-4.715174726677586e-07
1.4751251776834512e-07,8.243120589634866e-07,-6.52272763032693e-07,1.774001645080566e-07,-3.391810892856728e-07,-7.02428790661155e-07,-7.920742114027069e-08,1.5443384372798597e-07,-2.5402001212491013e-07,-4.1768487673230977e-07,-7.277032161762909e-07,-7.902363471894176e-07,-5.877991353892137e-07,-1.367711309808877e-06,-1.638066682772179e-06,-2.0251112753703535e-06,-1.3839136957744407e-07,-4.663559189026381e-07
1.558244287335544e-07,8.350413701711193e-07,-6.445238966294425e-07,1.879522040065768e-07,-3.120739640610581e-07,-7.233764217010513e-07,-4.20649217242755e-08,1.7490276886022723e-07,-2.484051771932895e-07,-4.260238662801718e-07,-7.41008674957142e-07,-7.649106415422879e-07,-5.356277644797908e-07,-1.3462425918457365e-06,-1.6246324341101035e-06,-1.988761050590679e-06,-1.0827856587800772e-07,-4.5795633128867135e-07
1.5318877448956404e-07,8.66088215330771e-07,-6.356775644286091e-07,1.950409894734593e-07,-2.7608256507587304e-07,-7.476125436239504e-07,1.4509872736311134e-08,2.1275369024724573e-07,-2.3697820730433563e-07,-4.2641372098049057e-07,-7.427451369113551e-07,-7.444548897163078e-07,-4.5831646529489953e-07,-1.319744998660636e-06,-1.6041718655012804e-06,-1.935452511802122e-06,-7.579082807290011e-08,-4.430443230122887e-07
1.3749507552140157e-07,9.097748973923101e-07,-6.274795572870148e-07,2.013667086600281e-07,-2.3138073146377818e-07,-7.728789914020372e-07,8.500925341470063e-08,2.553618418161125e-07,-2.2062407522950327e-07,-4.1550954839393945e-07,-7.163985862745524e-07,-7.225590180863667e-07,-3.5403908387555876e-07,-1.2819611030675854e-06,-1.5694710726514211e-06,-1.85892136291393e-06,-4.793366506854396e-08,-4.196528586090174e-07
1.0772644184569321e-07,9.145567822252041e-07,-6.157089903237135e-07,2.1121243835918003e-07,-1.796952115009454e-07,-7.941646285168607e-07,7.705180355972318e-08,2.9057805219771403e-07,-1.9967046954885095e-07,-3.920285210733709e-07,-6.396989676907967e-07,-7.222394237851899e-07,-2.3454257749922138e-07,-1.2356122010465963e-06,-1.5160717896279807e-06,-1.756056442373822e-06,-3.101347319326871e-08,-3.8889798602738235e-07
6.313685461603772e-08,9.04083123118263e-07,-5.93909922015213e-07,2.2862534097182185e-07,-1.2393429243835094e-07,-8.05574303021935e-07,-1.9593559927342727e-09,3.107715305115202e-07,-1.735020485312505e-07,-3.577075898314367e-07,-5.618483168364493e-07,-7.685624845641453e-07,-1.12032716688461e-07,-1.1473121058041587e-06,-1.4456166431083267e-06,-1.6296781279867233e-06,-2.8135287644038102e-08,-3.550250856649033e-07
4.1535464687207885e-09,8.800459139710761e-07,-5.782468641730382e-07,2.559725300767458e-07,-6.706030012652173e-08,-8.011801809686947e-07,-5.7497230018684146e-08,3.1559136272686846e-07,-1.419239405501235e-07,-3.163656390546169e-07,-5.142214146999559e-07,-8.51122407033021e-07,-1.7079747244635106e-09,-1.0149318411772065e-06,-1.3663391452996432e-06,-1.4890599138462025e-06,-3.7157550601465235e-08,-3.2380807805432536e-07
-6.535087215229235e-08,8.640205010288985e-07,-5.546374509054284e-07,2.932991245891093e-07,-1.1307348270449893e-08,-7.790600053228915e-07,-1.6376692831805766e-07,3.109672190205499e-07,-1.0673547757334982e-07,-2.725346871157162e-07,-4.708647720497501e-07,-9.376991745847112e-07,3.4251942837040085e-08,-9.012859629931784e-07,-1.2905681463407874e-06,-1.3487870258149932e-06,-5.163121606096648e-08,-3.0068665709065955e-07
-1.3742689830595286e-07,8.562912335404121e-07,-5.283483421317516e-07,3.383069840625841e-07,4.142325789722298e-08,-7.404753625634258e-07,-2.963046120356691e-07,3.0404157272895354e-07,-7.280460081480853e-08,-2.3082702374383893e-07,-4.2658434937785594e-07,-1.0109260586441072e-06,3.2266402215099367e-08,-7.997986735539372e-07,-1.2300469625867338e-06,-1.2255492726565037e-06,-6.442780548303889e-08,-2.882393397569737e-07
-2.0025116750904277e-07,8.187238104208399e-07,-4.869168145268857e-07,3.8708803878952935e-07,8.882863671110212e-08,-6.883340208441136e-07,-4.3858580108696257e-07,2.9805765761804954e-07,-4.1024786549339244e-08,-1.952804635982176e-07,-3.721964478339328e-07,-1.0489841846895113e-06,3.9702740548741326e-08,-7.017833867973637e-07,-1.1906172730348774e-06,-1.1323394435346736e-06,-7.084356830586483e-08,-2.8454541564261243e-07
-2.4423755120427166e-07,7.688310473080113e-07,-4.3493597339791046e-07,4.355316498056331e-07,1.2826787552928708e-07,-6.285806878919822e-07,-5.436569010087504e-07,2.9084392578915886e-07,-2.0753076046640577e-08,-1.683014822836453e-07,-2.93669977316723e-07,-1.087535102960113e-06,7.98282173757874e-08,-6.281029428039657e-07,-1.1690537302817535e-06,-1.0729986866233424e-06,-6.939190408991928e-08,-2.8306336834541705e-07
-2.687469270065848e-07,7.269500420316678e-07,-3.8520524800338264e-07,4.804363671300534e-07,1.5737357062863918e-07,-5.645770640370167e-07,-6.077234122579199e-07,2.7636043809694977e-07,-6.469061015411691e-09,-1.5021859762560072e-07,-2.156926436034242e-07,-1.050112123421231e-06,6.296550783439762e-08,-5.663124685650991e-07,-1.154171345517863e-06,-1.0411718495753053e-06,-6.117304855338624e-08,-2.747580991065914e-07
-2.5572577373056835e-07,6.96729386154493e-07,-3.400863705159097e-07,5.196895441193064e-07,1.7450320170615522e-07,-4.990988674877574e-07,-6.659035314433847e-07,2.4726620045634413e-07,-3.221483218929765e-10,-1.3968925726949455e-07,-1.6169325437436544e-07,-9.577564961250599e-07,1.763396172409313e-08,-5.110185757969201e-07,-1.1313928200964378e-06,-1.0235444162267738e-06,-4.8581688834369604e-08,-2.5147005450108304e-07
-2.2998862890389745e-07,6.797336000563185e-07,-3.1588344578545693e-07,5.520938280749718e-07,1.792781015836155e-07,-4.356031279344445e-07,-7.219793098970312e-07,1.9842457195843335e-07,3.389292661270064e-10,-1.3386823849459994e-07,-1.274380857879746e-07,-8.736905077472183e-07,-1.3684833518937444e-09,-4.6115948396992696e-07,-1.0881455443604683e-06,-1.0043039926851547e-06,-3.346816086651006e-08,-2.073677772465782e-07
-1.864452411370833e-07,6.850395011746959e-07,-2.8648595162236804e-07,5.772525291444471e-07,1.734254067828367e-07,-3.7708832653284853e-07,-7.693243824731226e-07,1.30394215990884e-07,2.8518166413634184e-08,-1.2836990678281608e-07,-1.0101176991859626e-07,-8.356025246696991e-07,-1.5490967151990403e-08,-4.0861477758362753e-07,-1.01837165604194e-06,-9.698424544260612e-07,-1.6065060543524457e-08,-1.4360833357066168e-07
-1.33001400828274e-07,7.014481952859655e-07,-2.6427862779975583e-07,5.951611035791956e-07,1.609341722968717e-07,-3.260414303594117e-07,-8.050240941599647e-07,4.995698358340524e-08,7.779766664973285e-08,-1.1838065736324013e-07,-1.0294697407300036e-07,-8.162353358094e-07,-2.5964871563196405e-08,-3.549132102888778e-07,-9.254442854485167e-07,-9.140297027929347e-07,4.047987912236263e-09,-6.756435009261433e-08
-7.379919926501764e-08,7.104648434252633e-07,-2.400608425978766e-07,6.054705491854443e-07,1.4685829362249884e-07,-2.8422151152603146e-07,-8.129512302848516e-07,-3.305056118874924e-08,1.2641467871892647e-07,-1.0072970239008441e-07,-1.1383298660320222e-07,-7.738634042050037e-07,-8.11186916960444e-09,-3.013785898999827e-07,-8.220839270689542e-07,-8.415203788513422e-07,2.6285075600238232e-08,7.221392999889838e-09
-1.1935225323551885e-08,7.081848136123107e-07,-2.1923673707874274e-07,6.074087259951821e-07,1.358831308722147e-07,-2.526001622076642e-07,-7.863595479803636e-07,-1.0959915815452903e-07,1.9263636457239207e-07,-7.487522794269152e-08,-8.023690563332148e-08,-7.004498037494086e-07,1.546674852935483e-08,-2.5159121691488135e-07,-7.259998743757871e-07,-7.65515494213044e-07,4.8883002752241314e-08,4.085423146684289e-08
4.9370516605903344e-08,7.02923355756804e-07,-2.1164106855285416e-07,6.007508495308431e-07,1.3174563423337594e-07,-2.287571776012699e-07,-7.270276909546853e-07,-1.7372098831961283e-07,2.653086130286627e-07,-4.2172215732038114e-08,-2.9746026019171157e-08,-5.639826628575449e-07,3.746443392306361e-08,-2.1138392455938037e-07,-6.528792508779791e-07,-7.011210768262382e-07,6.986283953118653e-08,5.911517403704518e-08
1.0721101577966733e-07,7.367602689566164e-07,-2.2492506841918498e-07,5.865767826523406e-07,1.3680678368514464e-07,-2.110388816418391e-07,-6.422783043938201e-07,-2.2404006706165682e-07,3.249671878445966e-07,-4.946312402311868e-09,1.9403263885156636e-08,-4.4025158827505963e-07,6.197413612434326e-08,-1.856324813904724e-07,-6.107913168101751e-07,-6.594417623779696e-07,8.745953248633309e-08,7.351246891980688e-08
1.5875265060885593e-07,7.931677269641229e-07,-2.3617878864814057e-07,5.670273738604188e-07,1.5107903235191353e-07,-1.968938967873662e-07,-5.457864304945066e-07,-2.675743104263838e-07,3.453857106546125e-07,3.387729027226447e-08,2.8179261684550214e-08,-3.4420267097903824e-07,6.849450299849768e-08,-1.7747398953349569e-07,-5.986270935470916e-07,-6.451706482093133e-07,1.0018002712106248e-07,7.298098784098798e-08
2.011996488877168e-07,8.467007354688926e-07,-2.408661747698744e-07,5.445861270215653e-07,1.7174152069178286e-07,-1.8165989359376584e-07,-4.539775878330003e-07,-3.0922955949108743e-07,3.441355689598091e-07,7.142598094742893e-08,1.514082212982366e-08,-2.737621640474764e-07,6.116972290122946e-08,-1.8672352788936099e-07,-6.080103678737636e-07,-6.566594689814061e-07,1.0743990590157227e-07,4.2187593471210715e-08
2.3295113926802042e-07,8.950790635140697e-07,-2.4176188627069963e-07,5.21527725130814e-07,1.940647532492508e-07,-1.7440482352747643e-07,-3.81104987620766e-07,-3.5804961228720465e-07,3.447586529698358e-07,1.0579833708310866e-07,-9.468589232981979e-09,-2.3580791363993198e-07,4.649250998950872e-08,-2.090443329819356e-07,-6.270312691035689e-07,-6.87684819664377e-07,1.0993498309733663e-07,-1.127388857010478e-09
2.5379853308638723e-07,9.16971200437141e-07,-2.3074592143750183e-07,4.992991567933964e-07,2.127894627818644e-07,-1.6923610544276403e-07,-3.357236890584285e-07,-4.214067364261598e-07,3.28479131359905e-07,1.3598441606431924e-07,-3.010194508980799e-08,-2.1096930845808277e-07,3.3671529560594486e-08,-2.3812461002521237e-07,-6.445473822082615e-07,-7.307459457427785e-07,1.0864018211954628e-07,-2.773389739024809e-08
2.6402779547739535e-07,9.250809487669671e-07,-2.1725860437777743e-07,4.777773616213348e-07,2.2289214523789143e-07,-1.5882043023443512e-07,-3.203289888222127e-07,-5.011028849909964e-07,2.992464923473301e-07,1.6094203001055807e-07,-3.993521923572656e-08,-1.8977801224238947e-07,2.5889134878628107e-08,-2.6907086762708494e-07,-6.534693266922253e-07,-7.796315293896194e-07,1.0370043243200791e-07,-4.0992742850938556e-08
2.631478940591793e-07,9.416013727723851e-07,-2.083108326010881e-07,4.5547238019557905e-07,2.2040513263606681e-07,-1.51306529431497e-07,-3.322342779579625e-07,-5.994325809766668e-07,2.668665517522222e-07,1.7953501410314452e-07,-3.11968338613547e-08,-1.696981566644891e-07,1.7818371671116357e-08,-2.990863294206305e-07,-6.516371568558893e-07,-8.28998975966284e-07,9.492702718184175e-08,-4.7069929751544294e-08
2.506194634365258e-07,9.423061792857876e-07,-2.0435526574702053e-07,4.307930208512601e-07,2.040260026255905e-07,-1.5218938775657495e-07,-3.6390224819182387e-07,-7.088601927610544e-07,2.519098771940747e-07,1.9139885168693673e-07,-2.5140188310179355e-08,-1.6892761682976126e-07,9.983697944632826e-09,-3.2571645780724055e-07,-6.409264538471305e-07,-8.729472586699366e-07,8.286915001992003e-08,-4.834725929417887e-08
2.263844811206017e-07,9.076360132945266e-07,-2.026796261746974e-07,4.028763495174782e-07,1.7820252742364628e-07,-1.6596482919419202e-07,-4.039786091458185e-07,-8.120452897286413e-07,2.4460608043063037e-07,1.9685670386379968e-07,-2.645053701738087e-08,-1.7284128904136567e-07,3.0125618317532117e-10,-3.4658892353903646e-07,-6.264530019305057e-07,-9.061989968779452e-07,6.842075810502576e-08,-4.88158334854258e-08
1.903403948644267e-07,8.726031927818098e-07,-2.0052225497658838e-07,3.711399739505362e-07,1.4856447010544683e-07,-2.3431514600786377e-07,-4.4019844022413396e-07,-8.726416958137247e-07,2.485509556368048e-07,1.9562239307391638e-07,-3.6664081475773e-08,-1.7840596352760344e-07,-8.383534656689776e-09,-3.613470405044022e-07,-6.161121426639713e-07,-9.270593902147088e-07,5.1636751956847405e-08,-5.5126160834802465e-08
1.4192922641908898e-07,8.436445834639355e-07,-1.9647218464718965e-07,3.3473084775887104e-07,1.2213659098384724e-07,-3.6044209581738266e-07,-4.6245837860718383e-07,-8.907900335592558e-07,2.620545299816467e-07,1.8638553251044467e-07,-6.313851733010249e-08,-1.9107090124420951e-07,-1.832870626831997e-08,-3.723509379911571e-07,-6.190406957297862e-07,-9.381391908091463e-07,3.1946755281583874e-08,-7.266027414822405e-08
8.057997895341574e-08,8.075770398947416e-07,-1.899680165374791e-07,2.931180205006968e-07,1.0520699049067805e-07,-4.446814953204416e-07,-4.6432869232554213e-07,-8.481223439646227e-07,2.7488922915461703e-07,1.6809229239257046e-07,-8.941655931021674e-08,-2.1098236428739388e-07,-3.107485793647747e-08,-3.831105511147741e-07,-6.427947789507864e-07,-9.442625203718839e-07,9.447319486854829e-09,-1.0397872349878656e-07
7.799329389951594e-09,7.793073786011693e-07,-1.8222232091438162e-07,2.471805661045308e-07,1.045438785925412e-07,-4.85505515701751e-07,-4.4410184691626565e-07,-8.306669576443401e-07,2.7879609254073937e-07,1.4106672634820282e-07,-1.1887493553220368e-07,-2.4192580099688097e-07,-4.517991432774774e-08,-3.972838498120568e-07,-6.908595568684073e-07,-9.506839869363077e-07,-1.4921663863517216e-08,-1.475845460977478e-07
-7.181383775477593e-08,7.554636364825426e-07,-1.7397211670698308e-07,1.995858643933009e-07,1.2620785281675203e-07,-5.15736283061176e-07,-4.0758817914264154e-07,-8.874206699270554e-07,2.577595145103246e-07,1.0678668796187258e-07,-1.5305017474266425e-07,-2.834304524027824e-07,-6.239850760908616e-08,-4.190183181657793e-07,-7.614855611202651e-07,-9.625398544701361e-07,-4.0362939346437924e-08,-1.9888914928253855e-07
-1.5346955558934587e-07,7.323699691102064e-07,-1.6650399327643343e-07,1.5438519814085165e-07,1.682436859832359e-07,-5.739344842864546e-07,-3.646743026159282e-07,-8.260631046394603e-07,2.2319113672095622e-07,6.75029159259918e-08,-1.8651726575646992e-07,-3.3347120259393294e-07,-8.118972616658765e-08,-4.5207411870073607e-07,-8.474723215255928e-07,-9.834602191434393e-07,-6.648712208652272e-08,-2.5170445262740806e-07
-2.2950878880340286e-07,7.109689969979158e-07,-1.6145643406731614e-07,1.1623327153732558e-07,2.2448498669533992e-07,-6.821406043187346e-07,-3.30171078048698e-07,-7.19150221559339e-07,1.7208089534821255e-07,2.6430561362559512e-08,-2.1431689875884226e-07,-3.831849282809216e-07,-9.9350706895864e-08,-4.975021437407631e-07,-9.371283376833081e-07,-1.0135144837449492e-06,-9.280672070339742e-08,-2.964658600111233e-07
-2.9175584518414944e-07,6.919601631168724e-07,-1.5991114059079234e-07,8.914593433157567e-08,2.6530887157071446e-07,-7.676852724025828e-07,-3.1814547458499104e-07,-6.78100842280258e-07,1.1494300617540016e-07,-1.2811228966198467e-08,-2.3253723398902284e-07,-4.340272894266805e-07,-1.1475087969449504e-07,-5.530618581469382e-07,-1.0173378442297238e-06,-1.0494657629554491e-06,-1.1914761808767936e-07,-3.397805075608592e-07
-3.3508759464115823e-07,6.720884954426709e-07,-1.6276873615428408e-07,7.476982866277047e-08,2.5122879046685477e-07,-8.172784993622894e-07,-3.2817611943823375e-07,-6.807475650701457e-07,6.115101012166633e-08,-4.7921691666542814e-08,-2.4003440037421554e-07,-4.850382033304092e-07,-1.2558021112208473e-07,-6.151496813339675e-07,-1.0777728284414293e-06,-1.0874729568922998e-06,-1.467411092100621e-07,-3.742100577232653e-07
-3.566172534418332e-07,6.455462370121495e-07,-1.7112182297251525e-07,7.154815249067276e-08,2.0146805734981514e-07,-8.780604104963202e-07,-3.779716976416611e-07,-6.929406877335293e-07,1.0328139496354841e-08,-7.879858567026444e-08,-2.38345637701064e-07,-5.335399193002075e-07,-1.3225489678076634e-07,-6.801333063471521e-07,-1.11341287732038e-06,-1.1245947692187223e-06,-1.778550247941535e-07,-3.6520576526639283e-07
-3.5697817734030334e-07,6.050231336677058e-07,-1.8549248836475534e-07,7.588376121882781e-08,1.494310782756739e-07,-9.484382471389384e-07,-4.845395376510447e-07,-7.465079408547579e-07,-3.444024773519659e-08,-1.064498586954903e-07,-2.3428737657777843e-07,-5.794399132733024e-07,-1.363017227288974e-07,-7.438125230220364e-07,-1.1242894286154998e-06,-1.157820706301343e-06,-2.139053087114461e-07,-3.284048503636688e-07
-3.387557275115402e-07,5.308572904751664e-07,-2.0476742053786734e-07,8.399946330664514e-08,1.4983333043900502e-07,-1.031191707582357e-06,-6.136223099100298e-07,-7.798631411880044e-07,-7.262415898849578e-08,-1.3173290666850644e-07,-2.2848975495526482e-07,-6.196011616722448e-07,-1.3899208619711047e-07,-8.016159392797659e-07,-1.114213599819015e-06,-1.1837141818944e-06,-2.5455049646591467e-07,-2.893617693714284e-07
-3.0356843664719347e-07,4.508065261477106e-07,-2.2659927886605927e-07,9.252488661226098e-08,1.306954590744263e-07,-1.0625106055683577e-06,-7.421354392954803e-07,-8.052849176724211e-07,-9.391910044272022e-08,-1.5554884452653244e-07,-2.213060935328168e-07,-6.525585011412855e-07,-1.4024634293473674e-07,-8.508411941616513e-07,-1.089756320719233e-06,-1.2002007185702738e-06,-2.9861347346023826e-07,-2.570048243245524e-07
-2.590832503865114e-07,3.7950768963755537e-07,-2.4900628531364815e-07,9.789601104203364e-08,8.483170519636303e-08,-1.0718462354975827e-06,-8.755744282506768e-07,-8.898294833059083e-07,-1.0493522671234868e-07,-1.793192509017586e-07,-2.148530025044172e-07,-6.791986758220287e-07,-1.405167852296904e-07,-8.923007873321355e-07,-1.058709117858475e-06,-1.2077347220860287e-06,-3.4477124283836107e-07,-2.259127429386077e-07
-2.1448007981144562e-07,3.054711430181672e-07,-2.7126704595015746e-07,9.63581600880547e-08,8.240162657520792e-09,-1.0612629088028212e-06,-1.000389354347742e-06,-1.0097205411592815e-06,-1.0973730771218803e-07,-2.0431766762936771e-07,-2.1006736508523295e-07,-7.01382689860764e-07,-1.397253862012078e-07,-9.292903421995739e-07,-1.0279435717617659e-06,-1.2081397479040207e-06,-3.910244784234822e-07,-1.9967123714931171e-07
-1.77204965395048e-07,2.4003851861393016e-07,-2.936497987273988e-07,8.492216241206658e-08,-7.956942537382737e-08,-1.0453655935090018e-06,-1.0997668907179566e-06,-1.1281322489918842e-06,-1.0966940884356276e-07,-2.3091148095061816e-07,-2.0875302284981187e-07,-7.21612447458718e-07,-1.3736250142006818e-07,-9.656101237975524e-07,-1.0025385238137314e-06,-1.203643989727839e-06,-4.346907375967049e-07,-1.8861119288113325e-07
-1.533595105472436e-07,1.9759679000283147e-07,-3.1712222740277333e-07,6.18936881851769e-08,-1.66096697029823e-07,-1.0301934999353202e-06,-1.1667232393665242e-06,-1.254643924873259e-06,-1.1638741536635214e-07,-2.591780272037804e-07,-2.1295473930297214e-07,-7.432975647297797e-07,-1.3393842858381434e-07,-1.0046816918763162e-06,-9.870458577456165e-07,-1.197997216282169e-06,-4.7368779248949355e-07,-1.8244533259912806e-07
-1.467323354758632e-07,1.7006524726430745e-07,-3.433765225134195e-07,2.6554584285892587e-08,-2.482012303777566e-07,-1.0379184296814317e-06,-1.197967408837913e-06,-1.3416237102220804e-06,-1.280853539390791e-07,-2.8991871474469653e-07,-2.253741895537116e-07,-7.709403531179877e-07,-1.3171959855146743e-07,-1.048771135594267e-06,-9.869205318397807e-07,-1.197318809943529e-06,-5.071156849664884e-07,-1.9236693058257473e-07
-1.6207031256116678e-07,1.4140443842142635e-07,-3.740858172154322e-07,-2.0762870471040253e-08,-3.018188688159413e-07,-1.0670043240167115e-06,-1.195001220385182e-06,-1.3921537350977465e-06,-1.436896762002262e-07,-3.2436758616567124e-07,-2.490334781821976e-07,-8.087634166328226e-07,-1.341453322387387e-07,-1.097235827870903e-06,-1.0079492753468467e-06,-1.2082995533252891e-06,-5.341015605596447e-07,-2.21696759823517e-07
-1.9869367102613813e-07,1.2862011663576424e-07,-4.0948207066470966e-07,-7.777070668280092e-08,-3.300803735658633e-07,-1.108125150842799e-06,-1.162375939107764e-06,-1.4103114654815654e-06,-1.5819233343437658e-07,-3.6307263183349556e-07,-2.85566529312583e-07,-8.585421246607982e-07,-1.4421099320749586e-07,-1.1457947363590396e-06,-1.0540859822260197e-06,-1.2353666283724117e-06,-5.529536026027318e-07,-2.785862482450165e-07
-2.558667624662003e-07,1.1703443239455281e-07,-4.47783224803264e-07,-1.3981538627251052e-07,-3.4377885170622424e-07,-1.1580948004875096e-06,-1.1063841675555236e-06,-1.3925135580430547e-06,-1.7536067730926067e-07,-4.055116452918844e-07,-3.341814380982578e-07,-9.184979231211784e-07,-1.6398169143601848e-07,-1.1887029851273106e-06,-1.1254711177294807e-06,-1.2793183530171613e-06,-5.622029340451855e-07,-3.603610398064903e-07
-3.210912312945109e-07,1.0532898404759414e-07,-4.85855184081349e-07,-2.007957057918341e-07,-3.4624645884832677e-07,-1.2070940043630929e-06,-1.0350050136015921e-06,-1.3575899068678341e-06,-1.9656408894789595e-07,-4.503130409133338e-07,-3.9154810829365934e-07,-9.837711772995364e-07,-1.9420166181080156e-07,-1.2218250802837817e-06,-1.2175397192544309e-06,-1.3371944068710462e-06,-5.620139282413255e-07,-4.426983192433354e-07
-3.8660485959111023e-07,1.1290340302729357e-07,-5.200356649323459e-07,-2.5460484500139016e-07,-3.4530083675021477e-07,-1.2609841208256408e-06,-9.573287240633752e-07,-1.3128550701229145e-06,-2.1985726735232348e-07,-4.951586173975493e-07,-4.522377253329291e-07,-1.0479174306493563e-06,-2.3351438653312604e-07,-1.2437893039573851e-06,-1.3215907309557695e-06,-1.4026482483688121e-06,-5.54274580929693e-07,-5.208400896539634e-07
-4.448645302983588e-07,1.2744391036113094e-07,-5.468223718733988e-07,-2.963842109954396e-07,-3.39417843264529e-07,-1.3170210725017066e-06,-8.816215310332134e-07,-1.262726392600729e-06,-2.4576348472699767e-07,-5.370385533373581e-07,-5.101155718155887e-07,-1.1052012934354092e-06,-2.7861994442604836e-07,-1.2559010205723152e-06,-1.4273133513058616e-06,-1.4679671827269168e-06,-5.421739861033003e-07,-5.804191608159579e-07
-4.849407159164273e-07,1.5327104603980526e-07,-5.641318258571094e-07,-3.237908854294339e-07,-3.265782967695224e-07,-1.3696421369879019e-06,-8.137437955982838e-07,-1.21468294080259e-06,-2.694610027578995e-07,-5.738078070238048e-07,-5.606335737724014e-07,-1.153087821928668e-06,-3.2662702136277e-07,-1.2624526871083188e-06,-1.5264603870438616e-06,-1.5277722844737005e-06,-5.301599682209535e-07,-6.185645710535259e-07
-5.02337374546374e-07,1.8642399667275638e-07,-5.725201925621108e-07,-3.3777129292552856e-07,-3.0766716517693453e-07,-1.4169521297251161e-06,-7.569142996564316e-07,-1.1737677142535378e-06,-2.904436463637538e-07,-6.057264972269939e-07,-6.02369185761822e-07,-1.1931746866790557e-06,-3.767673142308175e-07,-1.270086637805438e-06,-1.6152008242654028e-06,-1.5812256292805804e-06,-5.23089201120284e-07,-6.49140009495824e-07
-4.739932683931362e-07,2.1135641897425913e-07,-5.747149836563709e-07,-3.4155159899447164e-07,-2.844857363164721e-07,-1.4555721584743902e-06,-7.116270576126062e-07,-1.142502651222931e-06,-3.10187196957709e-07,-6.350214229265332e-07,-6.364750590008419e-07,-1.2296889080051157e-06,-4.2962050128101644e-07,-1.2848364225517045e-06,-1.6937963249416588e-06,-1.6306802039274911e-06,-5.239968446043348e-07,-6.725772030007609e-07
-4.2013295838503796e-07,2.273555012083813e-07,-5.735870465616262e-07,-3.382223428947379e-07,-2.594021961613953e-07,-1.4841918607016936e-06,-6.754891823981012e-07,-1.1206219357816434e-06,-3.313995022838566e-07,-6.640811247835278e-07,-6.650451369673031e-07,-1.267218994116967e-06,-4.857556163836982e-07,-1.3094037513410348e-06,-1.7649158324121655e-06,-1.679170101345349e-06,-5.326514154217909e-07,-6.936595404762246e-07
-3.4397702151921905e-07,2.3613230048152427e-07,-5.706498654506576e-07,-3.2921577937203436e-07,-2.3430372807217642e-07,-1.5017804538049228e-06,-6.444736803570868e-07,-1.1051256711190393e-06,-3.5562605325531346e-07,-6.943187311019692e-07,-6.902170010490673e-07,-1.3095737830149586e-06,-5.454263325648926e-07,-1.3435371433382763e-06,-1.8317726910227478e-06,-1.7293561635844231e-06,-5.466146045558588e-07,-7.166937383010226e-07
-2.7893384104760937e-07,2.3430269625523804e-07,-5.660461592779856e-07,-3.147495749030758e-07,-2.1042675228377487e-07,-1.5076013577430418e-06,-6.152303537808259e-07,-1.0928038072704522e-06,-3.8401963401258126e-07,-7.259047434966534e-07,-7.139170801441618e-07,-1.3592921725605273e-06,-6.082493892105451e-07,-1.3858630209434243e-06,-1.8972088333462435e-06,-1.7826751080467018e-06,-5.632411308288567e-07,-7.407393376887806e-07
-2.6168425084376643e-07,2.3021440648109596e-07,-5.589353845517044e-07,-2.9484572130641116e-07,-1.8836969411733517e-07,-1.5022458307787094e-06,-5.859221949266876e-07,-1.0808896853009466e-06,-4.1762228805287174e-07,-7.573507550224925e-07,-7.371937823813825e-07,-1.4166413513716487e-06,-6.717361447768582e-07,-1.4340861237931287e-06,-1.9612839643151276e-06,-1.837258380624989e-06,-5.805226882615887e-07,-7.667152064241818e-07
-2.5466532546173865e-07,2.357802060032272e-07,-5.476975776153862e-07,-2.6978351549743287e-07,-1.676215043593211e-07,-1.4872756264551305e-06,-5.551008940910147e-07,-1.066531419845858e-06,-4.553743526630676e-07,-7.85414036559258e-07,-7.595300803543176e-07,-1.4789658727822625e-06,-7.306850830702526e-07,-1.484165621968991e-06,-2.020709243745404e-06,-1.8869116361359536e-06,-5.971911282994249e-07,-7.928385885542254e-07
