0,1,2,3,4,5,6,7,8,9,10,11,12,13,14,15,16,17
-6.29575692159081e-07,1.7859037503229689e-07,-5.63855906329355e-07,-2.7927677688365807e-07,-2.980843738788075e-07,3.289892827196872e-07,-2.77966162643217e-07,-2.1069924721077822e-07,-4.129443175984363e-07,-2.859747744677415e-07,6.112767568232952e-07,-1.9668222133233933e-07,-7.973776342968338e-07,-2.1773611630187104e-07,3.3872521392965436e-09,-6.360747009648629e-07,-3.982883864812947e-07,8.126447751848477e-07
-5.567187952377329e-07,1.6704723588302352e-07,-5.131063031328994e-07,-2.8172856213445816e-07,-2.3014229191626727e-07,3.0827843146038896e-07,-2.48888519529539e-07,-1.8216685013762457e-07,-3.6730055095145045e-07,-2.9270748125886407e-07,6.289182203427501e-07,-1.0767101760250964e-07,-7.675537649479098e-07,-2.05526754182155e-07,4.1325344218735444e-08,-6.30811287055701e-07,-3.622775507862473e-07,8.039788030136795e-07
-4.987751585087418e-07,1.590288416014451e-07,-4.706823300592968e-07,-3.070988772462027e-07,-1.9305614509644974e-07,3.0531839323700763e-07,-2.478232400702702e-07,-1.59297567944109e-07,-3.2840665137645563e-07,-2.906840508510449e-07,6.178093712402963e-07,-2.642915822657673e-08,-7.253225790606697e-07,-2.0002105042730627e-07,7.792493953057955e-08,-5.974266221708954e-07,-3.255712426844765e-07,7.003598592657431e-07
-4.3192300448726593e-07,1.4915321883100508e-07,-3.9676340628568964e-07,-3.257461624480863e-07,-1.8939074929888404e-07,3.2235079127307377e-07,-2.4901298255851314e-07,-1.362591805838393e-07,-2.9124595293259767e-07,-2.772752272522871e-07,5.689083075991224e-07,5.857191978837078e-08,-6.600734388086321e-07,-1.9657316855879343e-07,1.1081197522975598e-07,-4.521403447423581e-07,-2.900818731610165e-07,5.523585805245225e-07
-3.3734320809107443e-07,1.2968597287788701e-07,-3.197788351276954e-07,-3.2307396058237307e-07,-2.1163916547541672e-07,3.2211524474088287e-07,-2.327462875669293e-07,-1.0467139124174369e-07,-2.4800478587158313e-07,-2.354487904102203e-07,4.80859234154255e-07,1.5989346913754324e-07,-5.614509246213604e-07,-1.839768503539246e-07,1.3718336889702476e-07,-2.1464928739029593e-07,-2.5461933488622506e-07,4.21140317883821e-07
-2.0581531906811583e-07,1.089264321821171e-07,-1.7200224652245633e-07,-2.2822210681101576e-07,-2.3165071646782936e-07,3.134573429825959e-07,-1.5231152281665716e-07,-5.856382788170619e-08,-1.932306075125547e-07,-1.521909758782738e-07,3.165081762887252e-07,2.4382948319760094e-07,-4.087513457992844e-07,-1.8072391380635048e-07,1.5175840883347907e-07,-5.110632542487977e-08,-2.190351671713902e-07,3.232475811086942e-07
-4.7641233193682283e-08,7.78255919845047e-08,9.10343277734538e-09,-1.0951903559080208e-07,-2.1040337932786894e-07,2.2918483188345626e-07,-4.10129038245796e-08,-1.747665528208951e-09,-1.2255568491374618e-07,-8.45433015759688e-08,2.0110818873187874e-07,3.140424573161314e-07,-1.9666090405205972e-07,-1.777124181539988e-07,1.4813856256549299e-07,4.1753517752769416e-08,-1.6292944032846715e-07,2.2952115301985118e-07
6.554165222809025e-08,1.8152062170575974e-08,8.591837409173763e-08,-1.2694239261435728e-08,-1.2754603709944926e-07,4.1648959797316866e-08,3.728332576019303e-08,6.171378442528251e-08,-3.680439637782558e-08,-1.9407060931859024e-08,1.1457747474952382e-07,3.171958505540795e-07,6.023608624224539e-08,-1.5022804855892756e-07,1.22430052024873e-07,1.4956208559502986e-07,-9.718050537818277e-08,1.2067479867451168e-07
1.3833996031824184e-07,-1.556034067568213e-08,1.2258433692696928e-07,5.34281024555373e-08,-2.738899591295984e-08,-5.6309160494165774e-08,7.84287439525645e-08,1.0489687984045335e-07,6.662186483706711e-08,4.0356865003170056e-08,2.5258734180086473e-08,1.974967939065507e-07,3.125627045923635e-07,-9.33139655050775e-08,7.530934621517598e-08,1.6906351047209358e-07,1.4647811158888904e-09,-9.265783453820051e-08
1.8839513911519734e-07,-4.967062316385342e-08,1.3183063206442257e-07,1.1505788393517532e-07,4.8512318572360246e-08,-1.3539506165589852e-07,1.012785562216678e-07,8.72542804367938e-08,1.7891837759495918e-07,1.5442813369702886e-07,-9.166944226569366e-08,6.84019894768307e-08,4.998883793475577e-07,-3.139543427521883e-08,1.1715673988774675e-08,1.365055600375201e-07,1.1198273153096531e-07,-2.835877960660962e-07
2.0252733500143902e-07,-8.647859493506402e-08,1.3061295982687236e-07,1.8314978041720993e-07,1.2203456116626411e-07,-2.15560507613677e-07,9.357922628078758e-08,8.506131197041157e-08,2.635251315413471e-07,2.2055653405603884e-07,-2.8536584733467165e-07,1.0218568113602089e-09,5.545656355661434e-07,7.659661312739e-08,-5.967278387145491e-08,1.3711571601635173e-07,1.7738846508226097e-07,-4.2125985072336787e-07
2.1928301311009466e-07,-1.196063026569004e-07,1.941356974434896e-07,2.431074796773142e-07,2.061183665292679e-07,-2.7689481719525945e-07,9.963289100325626e-08,9.125984121721608e-08,3.1701143808628617e-07,2.3874340556149035e-07,-4.4379131929632616e-07,-4.5537457192980214e-08,5.464445319072846e-07,2.0771213336484698e-07,-1.2675984553450534e-07,1.9076527928892493e-07,2.4186531370556656e-07,-5.142942135139502e-07
2.96176791781246e-07,-1.4317148611763432e-07,2.8314369957543035e-07,2.7829840300302727e-07,2.5834693145851473e-07,-3.321617778353809e-07,1.2271817300727503e-07,9.559432016085171e-08,3.3680009397672663e-07,2.564838992251968e-07,-5.374932998629609e-07,-6.522057057349276e-08,5.669435771603984e-07,2.4651502089540965e-07,-1.7609187555232584e-07,2.4657950612266655e-07,3.05728607650052e-07,-5.960070900136699e-07
4.3207149873931726e-07,-1.680091369325652e-07,3.8016865621050663e-07,2.9652002535165626e-07,3.0711660453064907e-07,-3.59514650704228e-07,2.065257467701366e-07,1.1667203349270873e-07,3.160105573590578e-07,2.637445093081332e-07,-6.271054161668343e-07,-1.5417645720432227e-07,5.55641453548399e-07,2.645855056566065e-07,-1.9675210051319308e-07,3.638248378370191e-07,3.478006862351548e-07,-6.449722328659577e-07
5.385160466796215e-07,-1.807140788452536e-07,4.933462568662326e-07,3.398513898621423e-07,3.5515550148823535e-07,-3.8922000814365723e-07,3.1324481319577203e-07,1.1287813144676634e-07,2.8098803664336636e-07,2.4408092771792557e-07,-7.434492358350047e-07,-3.1239225979453786e-07,5.195571099822491e-07,3.518260762806717e-07,-1.8341899825695888e-07,5.194811501851445e-07,4.213633341965199e-07,-7.002675895352622e-07
6.269409737724485e-07,-2.2519916723590326e-07,6.053449816743859e-07,3.5794665625596917e-07,4.2201757072864145e-07,-4.0628729445214274e-07,3.9707014281805117e-07,9.807514753752622e-08,2.4061744749584107e-07,2.1983738805727604e-07,-8.363499033484417e-07,-4.523446782617093e-07,5.013511132401083e-07,4.899723707986984e-07,-1.37289319914751e-07,6.275574044414721e-07,5.023895813608916e-07,-7.108792614191665e-07
6.477123528390057e-07,-2.4107729161196723e-07,6.850277155954501e-07,3.297318243024648e-07,4.978247858324967e-07,-4.100357245048595e-07,4.150195572258975e-07,1.0995594897689648e-07,1.9992106142492122e-07,1.5037557758630064e-07,-9.052113022913267e-07,-4.783382474643899e-07,3.370702567426651e-07,5.774567737491336e-07,-6.617515173912054e-08,6.261526119065328e-07,5.680789848675636e-07,-6.516582562254674e-07
6.324890617003399e-07,-2.654819258594655e-07,7.629254703622816e-07,3.347699417738909e-07,5.585154548854728e-07,-3.780931545847312e-07,3.9083238774957904e-07,1.4857623231219846e-07,1.5584019448038316e-07,9.848533645966874e-08,-8.808477744723253e-07,-4.32469420390808e-07,2.692417659289888e-07,6.42195026831788e-07,1.624114594522298e-08,5.679577087668812e-07,6.172446695142867e-07,-5.73682369837105e-07
6.111525438196141e-07,-2.7303593836774486e-07,8.106231950575324e-07,3.7481772426789674e-07,6.377849369871577e-07,-3.5006290518478903e-07,3.5679207345368764e-07,1.9235183735997764e-07,1.2520405239021375e-07,7.042224721221205e-08,-8.650889874440738e-07,-4.1373133918245177e-07,2.81008816707508e-07,7.156246915147573e-07,9.405708465521132e-08,5.75738253219389e-07,6.38936878493157e-07,-5.035063259988695e-07
6.019188540812259e-07,-2.6906516038511817e-07,8.559000937106092e-07,3.823520997058313e-07,7.078280380424722e-07,-3.176037304322685e-07,3.164175779568859e-07,2.257355787405533e-07,1.1341936273496729e-07,6.42624197961213e-08,-8.756067139409265e-07,-3.9456755859218805e-07,3.065170470111686e-07,7.632072152743246e-07,1.5487309053923366e-07,5.831516978856072e-07,6.539131180219818e-07,-4.675897696202792e-07
5.862857524305725e-07,-2.500284334368392e-07,9.162019539481906e-07,3.774390555268156e-07,7.482955493031236e-07,-2.6259204578733505e-07,2.996890960141318e-07,2.7015027955154394e-07,1.1060632063049554e-07,5.3189682388918486e-08,-8.989703339677069e-07,-4.548437597341132e-07,4.2096177891346005e-07,8.284367956333053e-07,1.9291755716332488e-07,5.806671838014855e-07,6.532890268914671e-07,-3.987768478103062e-07
5.971800684732332e-07,-2.1889834489035546e-07,1.0177688312156723e-06,3.664792333983174e-07,7.918242340163773e-07,-2.2404168258790603e-07,3.5746600112184525e-07,2.930171153615643e-07,1.232501523947402e-07,5.920395417650012e-08,-9.103857055508194e-07,-4.912891962059453e-07,5.424136471931149e-07,9.129388796055329e-07,2.0745611053472799e-07,6.489488126566185e-07,6.681337898190309e-07,-4.2213579563683176e-07
6.289382465485369e-07,-1.9349978123864114e-07,1.0768911754614234e-06,4.183800380830122e-07,8.59508283082113e-07,-2.4149567165215645e-07,3.636917134152669e-07,3.2270193146382626e-07,1.6494062497108927e-07,9.992155933504965e-08,-9.534670752363343e-07,-4.565797070704235e-07,7.031922311156797e-07,8.744455085051351e-07,1.9996740392548849e-07,6.732645092214869e-07,6.924161284021803e-07,-5.287691258961733e-07
6.280577073084699e-07,-1.7803740414032591e-07,1.1148817890993015e-06,4.41640583457877e-07,9.215203994517434e-07,-2.1255712288920146e-07,3.5653766415314307e-07,3.855256633252436e-07,2.0958142714498805e-07,1.407508487283346e-07,-1.0621368932400007e-06,-3.8763796537253364e-07,9.42720656502316e-07,8.016433003911136e-07,1.7344331725657233e-07,6.523750982052445e-07,6.959473505846904e-07,-6.549511639366039e-07
6.32128369079675e-07,-1.7797971161541011e-07,1.1261508522135484e-06,4.4451408631562565e-07,9.574518522729724e-07,-1.3034195673781762e-07,3.8312382633762163e-07,4.542283418809849e-07,2.504184251692807e-07,2.0319728854313217e-07,-1.173144783601225e-06,-2.5247264111289603e-07,1.2489706181302512e-06,7.846891129413578e-07,1.3233529218279913e-07,6.009847071832456e-07,7.069844338263748e-07,-7.539374487270546e-07
6.455891514616265e-07,-1.7403171309376782e-07,1.1511999056033357e-06,4.911514536401791e-07,9.781321195659924e-07,-5.347042727023287e-08,3.9289099667096977e-07,5.18774322816861e-07,2.8243063615074105e-07,2.251400739616767e-07,-1.2298734105021658e-06,-4.0089717091712085e-08,1.5432073535889117e-06,7.417517070748662e-07,8.071203290490123e-08,6.171545246113587e-07,7.192621459278858e-07,-8.025610259461699e-07
7.052129251628889e-07,-1.3902150565716643e-07,1.2050877933902744e-06,5.235981568565444e-07,9.782070979698862e-07,4.683032337949046e-09,4.030924290556168e-07,5.785622177248552e-07,3.054346638304393e-07,2.2664872456032067e-07,-1.245435215552866e-06,1.466850440858268e-07,1.813163180812731e-06,7.38020513417214e-07,2.0467746141145282e-08,6.826543835364699e-07,7.214945019786079e-07,-8.291520750143179e-07
7.046760634387075e-07,-9.205646697439259e-08,1.2677631074988207e-06,5.230986660679372e-07,9.977019963176986e-07,5.382360735902571e-08,4.0447993813092267e-07,6.458814474577352e-07,3.2488680287111413e-07,2.071150088932869e-07,-1.2572319038125805e-06,3.378318373677326e-07,2.0343359350961333e-06,7.438606896753346e-07,-4.6977256712146246e-08,7.43069586967658e-07,7.332526717252026e-07,-8.128948235311826e-07
6.58050924369214e-07,-4.940089964218818e-08,1.3330480428874383e-06,5.17170004435118e-07,1.0328032632817538e-06,5.819204663545055e-08,3.9428992842175747e-07,7.131131488258384e-07,3.3947190513793755e-07,2.1635167612444967e-07,-1.2764421471836358e-06,4.913155500898924e-07,2.1495479657650475e-06,7.564998162724795e-07,-1.1684302460540313e-07,8.229089853407551e-07,7.347779994761248e-07,-7.929135556164133e-07
6.303306536840505e-07,-3.212058899314625e-08,1.4070763572331976e-06,4.964255177909327e-07,1.06235930434248e-06,4.820302505997717e-08,4.091644806839672e-07,7.649965949955042e-07,3.468365159110447e-07,2.1709596622131116e-07,-1.2891118114754487e-06,6.095376079038203e-07,2.1880969555130363e-06,7.850683925303393e-07,-1.804011310066711e-07,8.175967657956437e-07,7.48206780681727e-07,-7.31431078717336e-07
5.973384361793472e-07,-2.6572036218475188e-08,1.465968835602925e-06,5.107305707148605e-07,1.0974122653092104e-06,1.4353733176858476e-08,4.318948988550615e-07,8.156519964669694e-07,3.571115572080377e-07,1.4690410033661637e-07,-1.2630025818382259e-06,7.216314175046594e-07,2.1792725726008835e-06,7.999272328007755e-07,-2.2948236426313413e-07,7.888576675605914e-07,7.7447970178329e-07,-6.233911171663507e-07
6.19617902566504e-07,-1.868564218083183e-08,1.4533495643759826e-06,5.665435269552754e-07,1.1144453965703935e-06,4.650649526444152e-08,4.5802604917003704e-07,8.64695653676677e-07,3.6966223660038114e-07,1.3708202579344662e-07,-1.1788149527294716e-06,8.286953532225697e-07,2.1523078016610533e-06,7.462501044667988e-07,-2.6169336555125723e-07,7.674342463528889e-07,8.036360183160614e-07,-5.725137179755675e-07
6.850275337109161e-07,-5.980307417203914e-09,1.4698510437402848e-06,6.329759735989836e-07,1.1688859571629744e-06,1.5388326380222758e-07,4.872243814375361e-07,9.233521052503338e-07,3.8595270266296204e-07,1.7618993407342708e-07,-1.100470444877932e-06,9.522188326730036e-07,2.1938390962584556e-06,7.163589865047691e-07,-2.81697979427948e-07,7.718632071575943e-07,8.216239993640714e-07,-5.417639760480117e-07
7.312189458162703e-07,2.100629438864662e-08,1.492696183920638e-06,6.837737828347485e-07,1.2737459670734765e-06,2.573837860279122e-07,5.051505424039242e-07,1.0007380571001052e-06,4.0745360357557176e-07,2.248293810338124e-07,-1.0651301669148025e-06,1.1136507844283185e-06,2.357695369384156e-06,6.802526333863684e-07,-2.987165499648011e-07,7.605661039440332e-07,8.238874881120945e-07,-5.213692300032406e-07
7.549716943596349e-07,6.773750132756234e-08,1.5399958124947123e-06,6.42867978686574e-07,1.2898567645198974e-06,3.4434100607282855e-07,5.092742867286233e-07,1.0757575301679203e-06,4.2534464081851517e-07,2.771172282997085e-07,-1.0595386170822359e-06,1.288197734016633e-06,2.4927239592912333e-06,6.437720625216042e-07,-3.226948471263922e-07,7.756663648801767e-07,7.963239808440562e-07,-4.753357091736327e-07
7.15855046271294e-07,1.1969589579511097e-07,1.5412542600513476e-06,6.004520513248625e-07,1.2116112688160313e-06,4.036538429136324e-07,5.084729606632673e-07,1.1577901204557102e-06,4.2608282514061074e-07,3.2256392982149597e-07,-1.092618236208446e-06,1.4593960322181287e-06,2.634264515920383e-06,5.705036641874819e-07,-3.6027050314024685e-07,7.576416376626556e-07,7.375945358381156e-07,-3.8820949445078646e-07
6.938333570126723e-07,1.8612898423346722e-07,1.5176903688948468e-06,5.32440200132899e-07,1.1753565525985086e-06,4.3853041239668523e-07,4.918352425450194e-07,1.2229287504419846e-06,4.079140294551128e-07,3.7252674283210415e-07,-1.1532613069641654e-06,1.710049430771657e-06,2.9148722837438925e-06,4.6668047814171135e-07,-4.117907582391484e-07,6.906847865401964e-07,6.810499861394335e-07,-2.3879350947930715e-07
5.90606655949698e-07,2.578927859932324e-07,1.4188730380780438e-06,4.0051519900401715e-07,1.1116695236076567e-06,5.536654559561553e-07,4.392140354768776e-07,1.25494615353621e-06,3.78325086236142e-07,4.425955670720788e-07,-1.2976133209374238e-06,1.9860409554838165e-06,3.2258913886427896e-06,4.1126460756012195e-07,-4.717524790202702e-07,5.98198669127474e-07,6.243646287597484e-07,-6.887172747853743e-08
4.758852814553135e-07,3.215426412974723e-07,1.340352665366025e-06,2.6664537929790857e-07,1.005682038960677e-06,6.804320470984292e-07,3.5947611637092555e-07,1.2458371261264506e-06,3.449197928564206e-07,5.512403169359831e-07,-1.4299776854250849e-06,2.210681010059909e-06,3.4793981989163297e-06,3.9838243199199366e-07,-5.325166046815507e-07,5.422112121598435e-07,5.471848074130604e-07,4.7378544751183814e-08
3.7048174835660294e-07,3.821792540219221e-07,1.28469283662674e-06,2.388623123577589e-07,9.853940464810592e-07,7.49833845254093e-07,2.8775085256471585e-07,1.2369088542002292e-06,3.0230448813486144e-07,6.100871481892713e-07,-1.509161321593685e-06,2.397999954427287e-06,3.6868672394658186e-06,3.968969865355497e-07,-5.877110099049825e-07,5.288305888578857e-07,4.589620659074223e-07,1.6292875337197396e-07
3.359868776990097e-07,4.1253917069469584e-07,1.1943257251330005e-06,2.51903493317654e-07,9.562899235078907e-07,7.973778315982403e-07,2.2886431796116205e-07,1.2390841322938063e-06,2.3731958726140521e-07,6.437334694640661e-07,-1.5479513296809029e-06,2.547903998601717e-06,3.840238764343636e-06,3.961735329525827e-07,-6.332405239893866e-07,4.778707023594568e-07,3.838111472778651e-07,2.536264036156044e-07
2.8782581228875105e-07,4.371954408426796e-07,1.072375532053072e-06,2.9841258086151157e-07,1.0093503984152817e-06,8.989573748768103e-07,1.889653095119796e-07,1.2596255962410601e-06,1.565373212465091e-07,7.054242547392844e-07,-1.5605421617073488e-06,2.6482917501469353e-06,3.935181958214948e-06,3.8582385466944047e-07,-6.672942490420428e-07,3.2956500086347436e-07,3.1238489855225063e-07,3.0939686519509664e-07
2.3283046634350097e-07,4.816314792329112e-07,1.0702684897891256e-06,3.044628220312439e-07,1.0766060148300262e-06,9.460866180107125e-07,1.6679920947045208e-07,1.2775760889141723e-06,7.920613809917109e-08,7.303640940457616e-07,-1.5275978796334096e-06,2.723674719141851e-06,3.963400760829392e-06,4.042280257537722e-07,-6.902651250802906e-07,1.737785425764591e-07,2.4410991060065205e-07,3.608169553001205e-07
1.8124319670840632e-07,5.576848186118745e-07,1.1034098836614246e-06,3.0503412549674094e-07,1.1077072381780935e-06,1.01151478341402e-06,1.2850126892733618e-07,1.3091388262902233e-06,1.4126474071117947e-08,7.396481072039528e-07,-1.4659320027876556e-06,2.7512784776611287e-06,3.9365948045916075e-06,4.792380310243473e-07,-7.037451865471831e-07,1.2249616316441063e-07,1.8000753406254106e-07,3.9448646375105036e-07
5.7291895108586445e-08,6.426154383498121e-07,1.086844536404773e-06,2.527892018831099e-07,1.1226683592348636e-06,1.1665665565331393e-06,8.624482244804939e-08,1.310913806072609e-06,-4.123413540076916e-08,7.160126052390353e-07,-1.3915477205427936e-06,2.7417047779104234e-06,3.875845119582555e-06,5.464674755207915e-07,-7.092321718404203e-07,2.345380136668849e-08,1.1494580918236368e-07,4.000215758871404e-07
-5.2727150295244723e-08,7.150207875696991e-07,1.1017337788837521e-06,1.7703656424176478e-07,1.1644413743336261e-06,1.2828291330102988e-06,6.3022177025576e-08,1.3154494120681328e-06,-7.923041222891459e-08,6.879593130558948e-07,-1.3133393621185453e-06,2.7095757479302146e-06,3.7933169912638026e-06,6.276950398926428e-07,-7.08338568051545e-07,-5.256865366938794e-10,5.569685408274696e-08,4.0583587206259043e-07
-1.0536196628898157e-07,7.591669407131814e-07,1.1009250926997207e-06,1.3715201799087888e-07,1.188690627208496e-06,1.3361985278472054e-06,5.634665599516984e-08,1.3330950317456392e-06,-1.002145014966062e-07,6.705389404059884e-07,-1.2459706977432874e-06,2.6528514005727327e-06,3.728558152077685e-06,7.107429051481441e-07,-7.036818581904961e-07,1.883902638478064e-08,1.3844321960591976e-08,4.168925988804533e-07
-5.080377246603258e-08,7.533811760438856e-07,1.0975788122296163e-06,1.2186694638315684e-07,1.2051275615444648e-06,1.3426232732602838e-06,5.9344382942855946e-08,1.3537852331548967e-06,-1.1136191889049504e-07,6.434905297508557e-07,-1.2035393939129377e-06,2.588801833749203e-06,3.693541258475672e-06,7.402007974258643e-07,-6.992506956337281e-07,4.955614428564372e-08,-1.3442476602825151e-08,4.223299077517553e-07
6.461416966192769e-09,7.56138421877549e-07,1.0944591564549667e-06,1.4759969911806553e-07,1.2228991561774988e-06,1.2908104964815956e-06,6.161340296473642e-08,1.3982117154600522e-06,-1.2515481359973016e-07,6.325555301325913e-07,-1.1699858773506616e-06,2.5398463299628533e-06,3.680762117588483e-06,7.088747335095775e-07,-6.954013113923184e-07,8.830780521912987e-08,-3.3556445448975206e-08,4.3402801387577327e-07
-7.990389608208556e-09,7.929740489208402e-07,1.0735604305838967e-06,1.9528516703756045e-07,1.2384081532845223e-06,1.2527401704141997e-06,6.719616157558347e-08,1.4413081632817119e-06,-1.4797657000521474e-07,6.176605471672553e-07,-1.1218503477969748e-06,2.5093361209348063e-06,3.682689138178741e-06,6.889220827612283e-07,-6.880124718810402e-07,1.0958546791666995e-07,-4.5579778401109895e-08,4.523174361740568e-07
-5.815385912589212e-08,8.523396582205982e-07,1.0561947039807652e-06,2.2691334033362754e-07,1.2601792018697496e-06,1.2905930521678743e-06,5.995242219431555e-08,1.4679859860402226e-06,-1.8326315892456572e-07,6.136207305581215e-07,-1.0006959888296517e-06,2.5067643145805397e-06,3.7200178713746017e-06,6.600635687139038e-07,-6.719818408369637e-07,4.949321824587236e-08,-5.50324243968497e-08,4.758052299954185e-07
-1.8928200698627138e-07,9.297660474147418e-07,1.0390419482711855e-06,1.9973483275551157e-07,1.2295078020442676e-06,1.2818407601338151e-06,2.7723683102348796e-08,1.467723253963032e-06,-2.3541126310274752e-07,6.538803611761063e-07,-8.210993414134194e-07,2.538229118082575e-06,3.774417322046055e-06,6.352814114670945e-07,-6.402789698924899e-07,-7.251279674447513e-08,-6.009098468082523e-08,5.067331144122532e-07
-2.8011979770296006e-07,9.733945776734405e-07,1.0229105606457844e-06,1.1970291406517577e-07,1.1734587279643e-06,1.2912868112364945e-06,-2.3347918383359937e-08,1.4443700067724955e-06,-2.96933107613962e-07,6.549100223167616e-07,-6.809443326103746e-07,2.5921023070707867e-06,3.791497590908095e-06,5.816931148038785e-07,-5.860563482511697e-07,-1.90692282511484e-07,-5.441605275406413e-08,5.431829184484525e-07
-4.1384761706873164e-07,1.0175075157976262e-06,1.0065814027972646e-06,3.288559845760213e-09,1.1133249941066468e-06,1.4078405281463882e-06,-6.910020560061e-08,1.376685824124813e-06,-3.57666726283071e-07,6.242335376278292e-07,-5.736790224045055e-07,2.6587560235712993e-06,3.776314750008285e-06,5.343501077220853e-07,-5.147359760991875e-07,-2.56460318634146e-07,-4.75790011401611e-08,5.523353317498652e-07
-5.805298535184695e-07,1.0988989641074286e-06,1.0154187004212974e-06,-1.0256573114994452e-07,1.0522181664080813e-06,1.5493443338240785e-06,-7.069365096444501e-08,1.3035351005585396e-06,-4.057185149489552e-07,5.673698160655488e-07,-4.888124502815036e-07,2.6920566603815476e-06,3.657069340786618e-06,5.470702071703099e-07,-4.376916575387719e-07,-2.590763451414751e-07,-3.94548933470399e-08,5.298178640326689e-07
-7.534637219129936e-07,1.1741095376761217e-06,1.0330935348514557e-06,-1.5011950747153745e-07,9.897568545942252e-07,1.6409299427340358e-06,-4.267030973305927e-08,1.2341619320090736e-06,-4.3370453766818e-07,4.61539974223433e-07,-4.330904353961434e-07,2.684194912697834e-06,3.5015054991607114e-06,5.907845954061062e-07,-3.563716888081573e-07,-2.676750574897164e-07,-3.8773039225587984e-08,4.734193679782999e-07
-8.713802452698827e-07,1.2133585566792388e-06,1.0894008327786737e-06,-1.6884040542092316e-07,1.025507050079572e-06,1.6490183657364465e-06,-2.472955194086969e-08,1.2077251195014516e-06,-4.400739689547893e-07,3.6924885399741197e-07,-3.132151695189953e-07,2.6609190149456097e-06,3.355033059990854e-06,6.147840982193421e-07,-2.987778661253959e-07,-3.8171265976671787e-07,-4.311042941543314e-08,3.8398709562512216e-07
-8.967085006461787e-07,1.2299309770380778e-06,1.1683523382515135e-06,-2.4050705082325675e-07,1.0814814048801198e-06,1.5869276314200337e-06,-7.450248244749385e-08,1.2071021296237657e-06,-4.2651584212303915e-07,2.981841624149753e-07,-2.0632849650858406e-07,2.642452691517229e-06,3.2283392086207235e-06,6.704342197954376e-07,-2.958633341000244e-07,-5.923018146011774e-07,-6.107289753553841e-08,2.7175631291047954e-07
-9.233000118716196e-07,1.2338516162957852e-06,1.2480846740183917e-06,-3.0414123070796224e-07,1.143398551137932e-06,1.4898292636017911e-06,-1.6597144668518226e-07,1.1943197728695885e-06,-4.000091710967357e-07,2.094923561805569e-07,-1.3764340486467947e-07,2.6104085658491955e-06,3.107052381898711e-06,7.565699195175595e-07,-2.453722989585475e-07,-6.357357168785875e-07,-1.0465796431006664e-07,1.4223338286093759e-07
-8.86517874022433e-07,1.220695999303799e-06,1.3267388324527033e-06,-2.7072957621831654e-07,1.1509860806740324e-06,1.4480949808721025e-06,-2.915728646873155e-07,1.154544250756505e-06,-3.703224783544467e-07,1.3727643687660425e-07,-7.62405501298864e-08,2.5647351204015424e-06,3.0253667046193435e-06,8.721145383755636e-07,-3.2125481224407866e-07,-5.87800127442211e-07,-1.5666579763179355e-07,6.388748797576498e-09
-8.351634958684638e-07,1.2060196941275533e-06,1.3908492375341374e-06,-2.061819655164617e-07,1.1451970575645486e-06,1.4331539029553743e-06,-3.9857646091640345e-07,1.137922502049404e-06,-3.419122749453654e-07,6.438578242453043e-08,-7.076384462562801e-08,2.50901805020711e-06,2.9765135629261023e-06,1.0625772157337724e-06,-4.4912365818685867e-07,-5.253654754150936e-07,-1.9924721559655495e-07,-1.2721006257968944e-07
-7.766605650635077e-07,1.2083194747870652e-06,1.4412894044373055e-06,-1.4992461689589033e-07,1.1845297865259318e-06,1.429820157916211e-06,-4.363277311536818e-07,1.1496234006019414e-06,-3.169023983495351e-07,1.1256708639760576e-08,-9.14256107734597e-08,2.433514002800188e-06,2.9464616132930824e-06,1.1971413785112048e-06,-5.449163484427864e-07,-4.362181926774171e-07,-2.2388024761121684e-07,-2.3969052032801735e-07
-7.398415658432039e-07,1.2185680134426899e-06,1.460643584461687e-06,-1.3379518838477396e-07,1.2199772520387012e-06,1.4760369373164655e-06,-4.7627900203918677e-07,1.151888657450991e-06,-2.9635016615939196e-07,-5.434546507148844e-09,-4.713934492897485e-08,2.400284486459432e-06,2.920780529146717e-06,1.3113854937301583e-06,-6.148604959588806e-07,-4.353545072562981e-07,-2.3775214273516264e-07,-3.2156411689057974e-07
-6.901992074991802e-07,1.248213612131705e-06,1.4671964094989241e-06,-1.4170342652403265e-07,1.2773173560696654e-06,1.5433507535099273e-06,-5.004226138391029e-07,1.1617749449272518e-06,-2.776498420931041e-07,2.877171710365094e-08,3.350066773852428e-08,2.394762583797992e-06,2.9304410053044494e-06,1.4548667814812211e-06,-6.652446890680738e-07,-4.730428547423786e-07,-2.3118119798743897e-07,-3.6827965421300563e-07
-6.534273579256963e-07,1.237983342495872e-06,1.4611769419719159e-06,-1.0796152295829261e-07,1.3404692586419707e-06,1.593168789066128e-06,-4.909814381204636e-07,1.175355259584693e-06,-2.5625674880971363e-07,9.408583662077176e-08,7.398291494436001e-08,2.342757124831831e-06,2.9543956158355526e-06,1.5016717458480363e-06,-6.829493033815809e-07,-5.36602516886939e-07,-1.856267573727996e-07,-3.791815506253006e-07
-6.487565218039763e-07,1.212610787560873e-06,1.452639866527103e-06,-4.828103787597644e-08,1.4172083546880908e-06,1.6391818604233405e-06,-4.812635482673235e-07,1.1783955520233766e-06,-2.2701487990147666e-07,1.3561224633634257e-07,9.339698391890596e-08,2.27951113202456e-06,2.9764585453443202e-06,1.5008197954575407e-06,-6.803653042503579e-07,-5.980346924634599e-07,-1.3797394117805346e-07,-3.568619787074134e-07
-6.471997977508588e-07,1.2042860896937328e-06,1.448949519677888e-06,2.0554317273232657e-08,1.53071459198269e-06,1.6120692669161272e-06,-4.561890476859542e-07,1.1796948550252085e-06,-1.876523352299655e-07,1.6565994812078937e-07,7.484006728662121e-08,2.178732933141851e-06,3.0095200551327213e-06,1.5023366834604687e-06,-6.542186104773661e-07,-6.407530502350879e-07,-4.976219705378417e-08,-3.0739114072881484e-07
-6.216455612419576e-07,1.2112671629599793e-06,1.4554694477120897e-06,1.1857718500092644e-07,1.6468337286690205e-06,1.5806906597171109e-06,-4.069061596594546e-07,1.181295038023344e-06,-1.3701365252008087e-07,1.8849470527394743e-07,3.2746248012427e-08,2.057762803256378e-06,3.0376656141501054e-06,1.5054635271717283e-06,-6.125732777044315e-07,-6.65267140732672e-07,4.54226254834957e-08,-2.425675564343952e-07
-5.861930428922956e-07,1.201218753547042e-06,1.4706889681280637e-06,2.1495897145419155e-07,1.7657245213797522e-06,1.498105230048965e-06,-3.4424996623422103e-07,1.183725843452104e-06,-8.436726102862916e-08,1.89930421775733e-07,-1.2023816218024848e-09,1.9582096575945197e-06,3.0577529391469757e-06,1.5098161658100153e-06,-5.66885308912795e-07,-6.846579910161998e-07,1.369606895491747e-07,-1.7722670234763583e-07
-5.842231155422171e-07,1.1730570320665393e-06,1.488087206873585e-06,2.933183585830314e-07,1.8450111810741386e-06,1.356967975433095e-06,-2.7726546815430777e-07,1.1857711988326044e-06,-3.842175914059431e-08,1.961505904575018e-07,-8.946761405339992e-08,1.8830119372611947e-06,3.0705180007654257e-06,1.5140078909967213e-06,-5.22498971031329e-07,-6.982313275973233e-07,2.1424156691449497e-07,-1.1988335643648241e-07
-6.184889516744829e-07,1.1404445493139784e-06,1.5117583844781335e-06,3.883666280304208e-07,1.870155176752482e-06,1.3216627292036773e-06,-2.2213437824760493e-07,1.1828810103081661e-06,-4.357144293973462e-09,2.0543332363525517e-07,-1.7221961498598724e-07,1.810046654169069e-06,3.0751867686735027e-06,1.5121633081377443e-06,-4.881976027214724e-07,-7.05130408902913e-07,2.7058861149580447e-07,-7.837544401038328e-08
-7.638761892765816e-07,1.1532806294958672e-06,1.53182329910234e-06,4.791062292296556e-07,1.923091135315358e-06,1.2883057357512007e-06,-1.9498048626335629e-07,1.1735295832373824e-06,1.6067318777952086e-08,2.0462360791024257e-07,-2.5453434800851357e-07,1.7483648604258431e-06,3.091095472509978e-06,1.5023273812305155e-06,-4.6653446054667725e-07,-7.147734377791922e-07,3.1032228907762224e-07,-5.4228265825269266e-08
-9.968440760103788e-07,1.226648422680169e-06,1.5444864759086728e-06,5.208645202847335e-07,1.9929309605235164e-06,1.2209761291828492e-06,-1.8723461939104895e-07,1.159831876212575e-06,2.7472151347333524e-08,1.964618734761813e-07,-3.4230982096477977e-07,1.742016842027743e-06,3.1006939108700375e-06,1.4865599845450382e-06,-4.531612153269743e-07,-7.2077517743181e-07,3.3995320511916626e-07,-4.044274601551618e-08
-1.1685756091378718e-06,1.2738913873929932e-06,1.558599116651458e-06,5.346169267544867e-07,2.0613940720631734e-06,1.2517400865843222e-06,-1.9033570936671926e-07,1.147019081280587e-06,3.670700046471985e-08,1.8408453246652083e-07,-4.1229905237542915e-07,1.7415556251394822e-06,3.1013305266665318e-06,1.4666272469938985e-06,-4.4217113424001735e-07,-7.325384238965303e-07,3.6596394825524073e-07,-2.913199397016737e-08
-1.2905498251887693e-06,1.2496861906223727e-06,1.5773789608366092e-06,5.371081820661746e-07,2.098397000146189e-06,1.2946123197515194e-06,-1.9548896070089165e-07,1.1387035129978163e-06,4.905274999516789e-08,1.7314328618711284e-07,-4.7325581507162606e-07,1.7551305773219509e-06,3.0972778253845833e-06,1.4475411179056996e-06,-4.294084992599198e-07,-7.399453496219416e-07,3.93667878397109e-07,-1.5134963326874522e-08
-1.4560266962168792e-06,1.1903091945601858e-06,1.5989506264837385e-06,5.279721490940582e-07,2.0804097522876492e-06,1.2954186262366938e-06,-2.029946859059968e-07,1.1370017394424245e-06,6.714742355442249e-08,1.6485962341161245e-07,-5.254259569963472e-07,1.7790662537994413e-06,3.0836430619439905e-06,1.4290808673380559e-06,-4.133965318182289e-07,-7.36156874253473e-07,4.245989201405789e-07,5.097084293821723e-09
-1.6000929981383556e-06,1.1392839095168053e-06,1.6224027696227934e-06,5.288360995463753e-07,2.1036789801199173e-06,1.3141255571187637e-06,-2.0988288117758347e-07,1.1383208706542424e-06,8.971848267318154e-08,1.671319247412643e-07,-5.730349755002222e-07,1.7859917845643458e-06,3.0649055002385343e-06,1.4088748269481718e-06,-3.9452327269315017e-07,-7.130265721172432e-07,4.5972117192427653e-07,2.8970801691093356e-08
-1.7227916726812327e-06,1.1174945022406404e-06,1.6452152884113157e-06,5.404700216482279e-07,2.135359869023553e-06,1.3219651141434561e-06,-2.0674938680196208e-07,1.1417590999524902e-06,1.1433669870792477e-07,1.743846485635473e-07,-5.961513113839396e-07,1.7848126927689991e-06,3.0416825306436455e-06,1.382921951858141e-06,-3.746122874453119e-07,-6.706609416183192e-07,4.974605414888028e-07,5.257689439728034e-08
-1.900075756424601e-06,1.1129974479188325e-06,1.6638989550014158e-06,5.463775563000803e-07,2.1293741250262893e-06,1.3309173240683572e-06,-1.9695611345609613e-07,1.1461927403433137e-06,1.3834228938379296e-07,1.7990574872958723e-07,-6.047816662728715e-07,1.7814995812065728e-06,3.0173356448957806e-06,1.3490268223555046e-06,-3.56377680528477e-07,-6.174913981668517e-07,5.358332743028179e-07,7.475891338551237e-08
-2.122660700269806e-06,1.1318289328063832e-06,1.676361548465835e-06,5.456095541567268e-07,2.129426319858559e-06,1.3506828808945703e-06,-1.8198189473236373e-07,1.149387425258768e-06,1.5899679389148798e-07,1.8419915917837454e-07,-6.118119575221403e-07,1.7725092569060105e-06,2.984096046206975e-06,1.3064284298292863e-06,-3.418693479614073e-07,-5.870234629709378e-07,5.721691645676107e-07,9.554993963312263e-08
-2.377452440206452e-06,1.1815203163681275e-06,1.6830055305415727e-06,5.423043879785689e-07,2.1225998470589965e-06,1.3637887304929384e-06,-1.6509418267747694e-07,1.151882220584229e-06,1.760523970378827e-07,1.8736010508311968e-07,-6.139970980052151e-07,1.7507000765713111e-06,2.9486401617113865e-06,1.2550932606877331e-06,-3.315971958735142e-07,-5.802796350010678e-07,6.059703219160078e-07,1.184953211759779e-07
-2.578079528669838e-06,1.2353708605975439e-06,1.683967483103215e-06,5.356949677000164e-07,2.11039316053076e-06,1.3811202304801416e-06,-1.5049781571184945e-07,1.1556355588822177e-06,1.906461481345708e-07,1.9057835289639258e-07,-6.170718582332664e-07,1.7209437132694219e-06,2.915519075532396e-06,1.1958998961929949e-06,-3.2568097044383067e-07,-5.881427942902459e-07,6.3785141198712e-07,1.4601414135500253e-07
-2.7275760909930625e-06,1.2589908547713817e-06,1.6818231987422929e-06,5.210005814812226e-07,2.111147599912714e-06,1.4005193897053022e-06,-1.3719617373372273e-07,1.16078839134703e-06,2.030956057937631e-07,1.9794394360729265e-07,-6.176757951188342e-07,1.7171418686499666e-06,2.8836729143976034e-06,1.1283119360619956e-06,-3.251260864180591e-07,-6.173188729925812e-07,6.673153026484517e-07,1.772973485994081e-07
-2.8297329515236535e-06,1.2759254736254651e-06,1.6741625686566625e-06,4.863184990824429e-07,2.1088959443425955e-06,1.4228172243601353e-06,-1.370689965859001e-07,1.1663142325167336e-06,2.0967759014078185e-07,2.093393946088797e-07,-6.188609158464449e-07,1.7343214478918628e-06,2.8559651959670142e-06,1.0517336324994435e-06,-3.3141276189644645e-07,-6.561397598520899e-07,6.933703100107932e-07,2.0119482675535995e-07
-2.912857234885706e-06,1.2843021140981605e-06,1.6624990816227633e-06,4.338385361421442e-07,2.049912248497927e-06,1.4478014275633302e-06,-1.4652152156682368e-07,1.1694456123109831e-06,2.1134887704109756e-07,2.211636275603756e-07,-6.304853460672375e-07,1.7697205139631368e-06,2.8324946555361327e-06,9.667580310502213e-07,-3.4569045659539654e-07,-6.856022793208362e-07,7.1497215034897e-07,2.135368260783837e-07
-3.0087173366432104e-06,1.2907891345889204e-06,1.6514888241888616e-06,3.634381427384709e-07,1.9498632524491298e-06,1.4610069707105871e-06,-1.6340721221036095e-07,1.163549020913034e-06,2.0937475096178468e-07,2.3505604128940202e-07,-6.616689316507135e-07,1.8246548134334964e-06,2.814233322848456e-06,8.749310894546259e-07,-3.6870665964689926e-07,-6.513813929505066e-07,7.296330391115375e-07,2.110002142635336e-07
-3.1183716922785966e-06,1.3033083389379025e-06,1.6444019811681527e-06,2.8502645275725227e-07,1.848531823649948e-06,1.4641049849214507e-06,-1.8532066762369456e-07,1.1495494146672086e-06,2.0413375804072052e-07,2.522848997907679e-07,-7.172413071252374e-07,1.8711571823073434e-06,2.8007601388071715e-06,7.806482846732097e-07,-3.998430631286984e-07,-5.921618763649956e-07,7.347610752250491e-07,1.819335615054974e-07
-3.2289563065430722e-06,1.3097941464773025e-06,1.6454424776436698e-06,2.438256508982367e-07,1.7414646982856841e-06,1.4700609097652603e-06,-2.1593231574135588e-07,1.128448868613837e-06,1.9875115658488807e-07,2.7016988084585544e-07,-7.871824074681663e-07,1.9102633877348794e-06,2.783285671749661e-06,6.899642956212518e-07,-4.3462883723188367e-07,-4.2533800178870993e-07,7.298352878189121e-07,1.3478806421443674e-07
-3.3057655241613903e-06,1.2900903368061401e-06,1.6605269766176226e-06,2.386567896028163e-07,1.6329861333135164e-06,1.4719744946861052e-06,-2.5689403737560543e-07,1.1003150770834326e-06,1.980857083364418e-07,2.932173137028888e-07,-8.60829303199626e-07,1.941393586193214e-06,2.764541740659737e-06,6.103178177435112e-07,-4.6367469307259623e-07,-2.461545483131912e-07,7.188444734135995e-07,6.706899588934853e-08
-3.3796418312124228e-06,1.2611952496117758e-06,1.6892353251359903e-06,2.9325119466475866e-07,1.5279822701684781e-06,1.4677695066594834e-06,-3.0571571862388544e-07,1.0669004490241287e-06,2.079628233004628e-07,3.2169132405950555e-07,-9.238425622551925e-07,1.9626191886954066e-06,2.740305124115272e-06,5.547344644105798e-07,-4.7519259397072077e-07,-2.216124567755961e-07,7.085417549622868e-07,-1.8831738822910053e-08
-3.4304102020656304e-06,1.2274013632227445e-06,1.7255687854653847e-06,4.1108731932366963e-07,1.4218220398483176e-06,1.4544602338171694e-06,-3.627455275134995e-07,1.033194128462878e-06,2.3219742071354938e-07,3.499432238890281e-07,-9.285607298176385e-07,1.9576531679882384e-06,2.6994209216703943e-06,5.300639435660941e-07,-4.5903290063131217e-07,-5.7841571149974305e-08,7.057957461035288e-07,-1.0845165183193644e-07
-3.4647018918576368e-06,1.1482915449656234e-06,1.7601587489240333e-06,4.774987239639419e-07,1.3243759585129718e-06,1.4329826312138854e-06,-4.205273187182181e-07,9.96506640224271e-07,2.706623473022217e-07,3.8893476871902257e-07,-8.85391626979622e-07,1.9220639973473677e-06,2.6371918107279804e-06,5.387571121719194e-07,-4.0961692211281975e-07,1.6978847379730794e-07,7.162130457775327e-07,-1.879666491010851e-07
-3.49114583973693e-06,1.0599539054913126e-06,1.782835959359415e-06,4.5993591685701955e-07,1.262898211282861e-06,1.386242845262728e-06,-4.6958118798579846e-07,9.551618997089932e-07,3.199223645262325e-07,4.1665285291965473e-07,-8.905787964129043e-07,1.8564063780453628e-06,2.5471542457109e-06,5.732738571538233e-07,-3.2801282520919216e-07,2.912090186690844e-07,7.42549164982021e-07,-2.0122962957392834e-07
-3.4321854263830683e-06,9.844046061702153e-07,1.7866515403436397e-06,5.683211867118e-07,1.2402771584056866e-06,1.3231857632656871e-06,-5.012706524036588e-07,9.126519763784242e-07,3.746653394878471e-07,4.017110845947273e-07,-8.194242636798948e-07,1.7713029153862214e-06,2.433448132536494e-06,6.191573473834072e-07,-2.232354739842152e-07,3.1280714587504494e-07,7.841225829163837e-07,-1.1670110916973215e-07
-3.308352540054575e-06,9.241364293964672e-07,1.7764723846104093e-06,6.915560441318153e-07,1.2489473870133624e-06,1.2533203422764218e-06,-5.10083927664922e-07,8.705093753408746e-07,4.2771024434626203e-07,3.688881129303893e-07,-6.892631283987684e-07,1.6913911754178834e-06,2.306383333350229e-06,6.473164304943035e-07,-1.1037258239829056e-07,2.518670483525241e-07,8.3670166484248e-07,-1.0848671104325254e-08
-3.2631634875862253e-06,8.978832663124032e-07,1.7567459094503154e-06,7.534782916994601e-07,1.2845754282364914e-06,1.1768715654014983e-06,-4.792851086158758e-07,8.302724412415813e-07,4.7120072773930245e-07,3.4322463968266236e-07,-5.710598176620253e-07,1.6261893443409904e-06,2.177594801342208e-06,6.312873675195078e-07,-4.8058881827403844e-09,2.155919831397735e-07,8.948019215340943e-07,7.290141406090148e-08
-3.208314780447416e-06,9.161921365216425e-07,1.7292169726155846e-06,7.702511742518955e-07,1.3406340501821027e-06,1.1109219835124543e-06,-4.414594865376952e-07,7.943243084657432e-07,4.986281529514088e-07,3.2662063333737647e-07,-4.786333438697656e-07,1.5790801369298304e-06,2.053435210811029e-06,5.765565081175772e-07,8.381166845308366e-08,1.7202490706618677e-07,9.53874283561206e-07,1.407773682788362e-07
-3.171344728258568e-06,9.193317008660757e-07,1.694254452665687e-06,7.525530871808195e-07,1.3976659790985228e-06,1.0664878227421653e-06,-4.2731354029821887e-07,7.501880233579501e-07,5.053503535539547e-07,3.1007454288731633e-07,-4.0086998964841836e-07,1.5404392449277924e-06,1.9333756202380303e-06,5.206850837054666e-07,1.5419484381459452e-07,1.2125821752553816e-07,1.009295072091514e-06,1.833885608818583e-07
-3.1673080238427475e-06,9.187738077827877e-07,1.648330882124109e-06,7.35159285021104e-07,1.439698072449631e-06,1.051145057193739e-06,-4.727491954522462e-07,6.978081200798756e-07,4.885992317681574e-07,3.044750736875179e-07,-3.374419337519084e-07,1.4946254497397267e-06,1.8181863334678168e-06,4.932819012047771e-07,2.1265476632809304e-07,1.5389863125372992e-07,1.0624101131550944e-06,2.3606922378451335e-07
-3.165657803413476e-06,9.286293482492968e-07,1.5858286817792621e-06,6.907643177162615e-07,1.4593488247685691e-06,1.0498157203095337e-06,-5.43452413251148e-07,6.39572319207458e-07,4.499133318600928e-07,3.1667466403210866e-07,-2.8013568288196864e-07,1.4328769612356596e-06,1.702392545410265e-06,4.3125265028371785e-07,2.698800058676214e-07,1.4990404742096458e-07,1.1132106742245645e-06,3.9836524633015925e-07
-3.109704616461167e-06,9.687084017136422e-07,1.5103502680493693e-06,6.415748306434974e-07,1.4323491100970652e-06,1.068873140852942e-06,-6.284830697066421e-07,5.767635023085914e-07,3.9355510797036076e-07,3.465181379977394e-07,-2.2095847810785464e-07,1.3525782130962895e-06,1.5864576604655589e-06,3.2753708518284254e-07,3.3555169911155914e-07,7.317830962514968e-08,1.1600660907932143e-06,6.131843526146973e-07
-3.0711053461146995e-06,1.0422819403653747e-06,1.4500104227651926e-06,5.470581470551633e-07,1.3968698795296724e-06,1.1216215943355358e-06,-6.658429683873933e-07,5.307903330291542e-07,3.227302062163073e-07,3.9048804982092937e-07,-1.5617018705472642e-07,1.2562067291265407e-06,1.4758007949265573e-06,2.2604081095659195e-07,4.12898695301202e-07,-4.795317812006119e-08,1.1989210754449754e-06,7.670477835238296e-07
-3.1238019477170325e-06,1.102989055941761e-06,1.4000841714554168e-06,4.820170460716246e-07,1.3552609890940709e-06,1.155154133926923e-06,-7.252959636466541e-07,4.752178702876784e-07,2.413725830896436e-07,4.2010908357344006e-07,-8.72744482512476e-08,1.149915796876713e-06,1.3738625561201885e-06,1.6849438110170412e-07,4.968769694445874e-07,-2.5566597650744153e-08,1.2186517842105242e-06,8.572634055089153e-07
-3.1870720303680798e-06,1.1321432197263645e-06,1.4162398535122636e-06,4.95309981179791e-07,1.3655337465292415e-06,1.1466892101529314e-06,-8.282839921128057e-07,3.9884019537393234e-07,1.5307397096276505e-07,4.32970165432475e-07,-1.8567988965661864e-08,1.0297649459400199e-06,1.277216126664137e-06,1.7779421930696266e-07,5.771000473529936e-07,6.891035011962577e-08,1.2092566486842032e-06,9.542653506195303e-07
-3.1804910153403366e-06,1.1247584031048125e-06,1.4479813575015832e-06,5.327436588237704e-07,1.4286153536268131e-06,1.0311278547898413e-06,-9.370909651589863e-07,2.871721476037064e-07,6.334659008615819e-08,3.937891223794903e-07,4.686693013361217e-08,8.888215894566352e-07,1.1764032372280605e-06,2.0662572839025127e-07,6.431403248517956e-07,1.0619158156133e-07,1.1718623582779615e-06,1.0709555966951844e-06
-3.152279853285313e-06,1.0861231314582052e-06,1.439337394123241e-06,5.446929936125935e-07,1.4864500000309675e-06,8.209042385486486e-07,-1.0107171685183498e-06,1.5559247707223213e-07,-2.1954828464968147e-08,3.420317995626478e-07,1.1009823795222382e-07,7.190819149605663e-07,1.0516575184350402e-06,2.3413123527276176e-07,6.896748435211297e-07,1.0354553237792973e-07,1.1276731173354937e-06,1.189937183167642e-06
-3.1252941893282655e-06,1.039464176276131e-06,1.4354668113233888e-06,5.975513620665339e-07,1.5372792399351645e-06,5.947306283738352e-07,-1.0527966367990894e-06,7.155638709128074e-08,-9.6881246070753e-08,3.0345578495743273e-07,1.7616719231757415e-07,5.115768796244938e-07,8.779265274964804e-07,2.869642558840969e-07,7.17498087148026e-07,1.1315588563189631e-07,1.1057035968391043e-06,1.191905747154441e-06
-3.058867441835884e-06,9.835128756470603e-07,1.463453787464816e-06,6.348152004295137e-07,1.570997680175868e-06,4.281904586452858e-07,-1.083300087992463e-06,2.991902726864212e-08,-1.6222653651432362e-07,2.771593321328266e-07,2.502056415307742e-07,2.5679991965153737e-07,6.397102717371225e-07,3.560750822018927e-07,7.32351543618807e-07,1.2583957409023983e-08,1.1395437388435842e-06,1.1483914799954357e-06
-3.027752686703642e-06,9.271747579548463e-07,1.4526066921550684e-06,7.070294678507347e-07,1.690235393587823e-06,2.9406785045403806e-07,-1.143052387193787e-06,-1.337298336430907e-08,-2.1931107666693305e-07,2.327487871041022e-07,3.3185569936947934e-07,-3.2947347828963457e-08,3.6859122220935317e-07,4.3913191740842733e-07,7.409223260775553e-07,7.595987619792463e-08,1.2005305830421603e-06,1.1335144656484076e-06
-3.01902775017619e-06,8.908104517323527e-07,1.3592684627850102e-06,7.755886422233458e-07,1.791232094666535e-06,1.3707258867078573e-07,-1.1775103101883362e-06,-1.172431787906787e-07,-2.718951586172688e-07,1.2868990088377218e-07,4.1223665688578554e-07,-3.123302990383006e-07,8.342397565651222e-08,5.102767585042563e-07,7.458250742857114e-07,1.7802247417969722e-07,1.2290618543994312e-06,1.114635534977416e-06
-2.9274902702205276e-06,8.491205889023689e-07,1.2410929308822295e-06,7.789055619164956e-07,1.766655145375908e-06,-6.838935807321969e-08,-1.1250156206497913e-06,-2.6482894746617037e-07,-3.2975437902485724e-07,1.1481223045717264e-08,4.789899787547514e-07,-5.716420303536849e-07,-1.9195918512862634e-07,5.429047513279982e-07,7.502869842033878e-07,2.239691254171451e-07,1.304968916006621e-06,1.221225758332094e-06
-2.840562958507973e-06,7.472708061396776e-07,1.1049562056773772e-06,7.667686193076688e-07,1.7031553851641892e-06,-2.5990471880461974e-07,-1.123765148237938e-06,-4.0324670790598425e-07,-4.039578925770016e-07,-4.382315110939531e-08,5.128676132675086e-07,-7.745938826369303e-07,-3.8850914556827795e-07,5.104630860157308e-07,7.547563756267068e-07,2.2930505153138916e-07,1.3757905187703669e-06,1.319668007813423e-06
-2.771617461970689e-06,6.189781014086669e-07,9.88793368823176e-07,7.421028576000292e-07,1.6280724861691784e-06,-3.854522649336744e-07,-1.1988904382460249e-06,-4.97853977495845e-07,-4.975683189146888e-07,-1.0081246971941552e-07,4.791423012167239e-07,-9.2868875346228e-07,-4.4329221213688987e-07,4.824237432323908e-07,7.587432014992218e-07,1.817882543454815e-07,1.3816665679866005e-06,1.389892193087473e-06
-2.7207678501094463e-06,4.684864844165827e-07,8.772007037270654e-07,6.793294088423738e-07,1.5670044618535953e-06,-4.463561147734684e-07,-1.2839740968260002e-06,-5.635883631335906e-07,-6.114861159348865e-07,-1.1444576350858408e-07,4.533396008701071e-07,-1.013020032047188e-06,-3.913135855912222e-07,4.263906247705567e-07,7.624719098324912e-07,1.0398765982848187e-07,1.389354228448469e-06,1.3728541829909083e-06
-2.681040022588002e-06,3.3053069488907533e-07,7.991682681404746e-07,6.072997353206295e-07,1.5103616534603053e-06,-5.104453361680193e-07,-1.3491652048227156e-06,-6.050337184805516e-07,-7.385789251165324e-07,-1.3415418376237407e-07,3.534345878318419e-07,-1.0259981556416598e-06,-2.98454804521578e-07,3.4892217538967616e-07,7.638204103739022e-07,9.52220426918172e-08,1.3682954293226013e-06,1.323733662005042e-06
-2.7024479272073757e-06,2.507611084255948e-07,6.395921917166522e-07,5.435681326664285e-07,1.4558056870859278e-06,-5.165847308033328e-07,-1.4313621090943525e-06,-6.111974625940043e-07,-8.40483723435138e-07,-1.4660814405049699e-07,2.445662937804148e-07,-1.0859860651186028e-06,-2.606487889855647e-07,2.5595613371113834e-07,7.609621425725047e-07,-2.7802973577670603e-08,1.3613317986814288e-06,1.2787486409701456e-06
-2.7078589593967094e-06,2.1960453548964605e-07,4.322588142180507e-07,4.6255976127250793e-07,1.3722065734992723e-06,-5.934313039487974e-07,-1.5617580084534722e-06,-6.338309098563244e-07,-9.121183877334004e-07,-1.3047847108291836e-07,1.3326964446872194e-07,-1.1610790664663355e-06,-2.5617409799206064e-07,1.3921294465486513e-07,7.516123125181625e-07,-1.667920419480491e-07,1.3473578053648935e-06,1.2299520784804982e-06
-2.746463192146773e-06,1.868916125933184e-07,2.6860085575228616e-07,3.5586589903243577e-07,1.2239390267047811e-06,-6.65915268080265e-07,-1.7154062522186073e-06,-6.855969646138454e-07,-9.455646918116439e-07,-1.1272202217036715e-07,3.3387219230514385e-08,-1.2192620158959329e-06,-2.4981459970605193e-07,4.3200024914024675e-08,7.395238363509558e-07,-3.5868346204440654e-07,1.3139840339857609e-06,1.0766916214871848e-06
-2.8762399432018427e-06,1.524041346633371e-07,1.215424395030117e-07,2.615520913003504e-07,1.092898252795341e-06,-6.761161166151894e-07,-1.8216580037127425e-06,-7.594138583047706e-07,-9.221698774842273e-07,-8.229077770885227e-08,-4.738126805793508e-08,-1.2651885406721576e-06,-2.3614645538801532e-07,-2.2669694310189082e-08,7.153908499168644e-07,-5.714143141204704e-07,1.2656154788480331e-06,9.033355464878767e-07
-2.9628330936829554e-06,1.09831199298184e-07,-3.2740130673786766e-08,2.1173088117306844e-07,9.592499568551596e-07,-6.905529826755485e-07,-1.8865259653300586e-06,-8.312516520496541e-07,-9.564949498351324e-07,-4.061865987841558e-08,-1.0868954990594807e-07,-1.2653353719491013e-06,-2.5428836696860074e-07,-7.256244988186638e-08,6.794899602071368e-07,-7.13055340852012e-07,1.2049465695706386e-06,7.5638471995433e-07
-3.038616143800444e-06,6.800833754465594e-08,-2.3180549297675802e-07,1.3566165582578069e-07,8.419410796887823e-07,-6.672558243612183e-07,-2.006791917272283e-06,-8.717873991099775e-07,-9.987032958810863e-07,-8.247675699765808e-10,-1.5636343305955448e-07,-1.2201082659823312e-06,-1.8501859185503913e-07,-1.7484972167264226e-07,5.833324419831323e-07,-9.123433487471822e-07,1.1432928167700295e-06,6.286047211761556e-07
-3.1276955899079873e-06,2.5781001243523178e-08,-2.910969394692105e-07,-2.437809224045669e-08,6.720379682781532e-07,-6.252807273239467e-07,-2.0881092037372575e-06,-8.923996195156549e-07,-9.933949403372408e-07,2.7407038054492072e-08,-1.990241140297542e-07,-1.149334454140718e-06,-8.424753566151334e-08,-2.4801992827571857e-07,4.179016586150725e-07,-1.0304989238278647e-06,1.0811397767652549e-06,5.139612048248405e-07
-3.1238943856438477e-06,-2.5470363523596668e-08,-3.144952535668109e-07,-8.208168138022633e-08,5.691177577295767e-07,-6.139863498833686e-07,-2.0973096967569686e-06,-9.114526611296047e-07,-9.743636690767068e-07,3.835832859113403e-08,-2.4421701425147764e-07,-1.0799702626368942e-06,6.916227353630148e-08,-2.306665122569748e-07,2.687239658383805e-07,-1.0888315155471131e-06,1.0258196931893654e-06,4.2325061469754596e-07
-3.066054345620438e-06,-8.15556422788421e-08,-3.838566530281329e-07,-1.215129585299005e-07,5.402036180187869e-07,-5.96470751172878e-07,-2.086006522486455e-06,-9.39409591345638e-07,-9.665488609705297e-07,3.889784566553494e-08,-2.9554632078661553e-07,-1.0840335910202408e-06,2.6394886168627803e-07,-1.8627205331829928e-07,1.2870758830093601e-07,-1.2434627370021162e-06,9.781517293428107e-07,3.6205067721943184e-07
-3.044652018629642e-06,-1.4540781088423567e-07,-4.927886021610012e-07,-2.114011961352592e-07,5.335737089098074e-07,-5.520432488001297e-07,-2.0858328590939163e-06,-9.665713356419604e-07,-9.581386566581614e-07,2.6568945653300568e-08,-3.515178278879379e-07,-1.1507845551960344e-06,4.2266800129246445e-07,-1.4645833265567607e-07,-3.4925623255247304e-09,-1.4134393364316688e-06,9.322697479256231e-07,3.3258420703958904e-07
-3.083649737314681e-06,-2.0896373389295503e-07,-6.041316438615314e-07,-3.2846571289493026e-07,5.116484659683308e-07,-4.925440956015604e-07,-2.1310444559055786e-06,-9.929677829546623e-07,-9.681442091463654e-07,2.215287359060422e-08,-4.063095233711936e-07,-1.2081878372311629e-06,5.609129103221421e-07,-1.1058676259843586e-07,-6.917045822855453e-08,-1.5726118875405445e-06,8.913230698336706e-07,3.412968999979647e-07
-3.1801398223914386e-06,-2.666397064956058e-07,-6.892068035165898e-07,-4.651732099823358e-07,4.863695365916089e-07,-4.077761031832556e-07,-2.1790738904555957e-06,-1.0130065097058013e-06,-9.836225949758014e-07,2.7952425634066727e-08,-4.516907675846248e-07,-1.2634043060065812e-06,6.730419035425314e-07,-1.0840733991380189e-07,-1.4055986710757962e-07,-1.7329092010470986e-06,8.56423633441001e-07,3.863211414237051e-07
-3.29812725748723e-06,-3.0045003638204854e-07,-7.613149866195454e-07,-5.837654878364048e-07,5.036447998895552e-07,-3.016882169216937e-07,-2.2204094685664745e-06,-1.0181152093831812e-06,-9.941002333999182e-07,4.0578734864972917e-08,-4.791301862810724e-07,-1.301483703126966e-06,7.587572972851988e-07,-1.1303862746679558e-07,-1.4499891568679805e-07,-1.973774894225727e-06,8.365718805841718e-07,4.7473769554094915e-07
-3.414939717880158e-06,-3.0243791946351736e-07,-7.526333382270207e-07,-6.799544285555087e-07,5.412766283404593e-07,-1.7868709636115634e-07,-2.2207133943211287e-06,-1.0077038987945087e-06,-9.944849190163401e-07,6.254032440962332e-08,-4.822511187248198e-07,-1.3226989227790875e-06,8.446034569929877e-07,-1.1244360330479275e-07,-1.2492882858527264e-07,-2.1707246245696066e-06,8.299675012764659e-07,5.942058947191616e-07
-3.6208344573411993e-06,-2.83068433138201e-07,-7.139542353111371e-07,-7.59027468856615e-07,5.976505711327336e-07,-3.132173958832542e-08,-2.1288723860073515e-06,-9.828580227803286e-07,-9.751841695877996e-07,8.773612869498736e-08,-4.595136935332441e-07,-1.3184085783904677e-06,9.54409540327825e-07,-1.0093698534368068e-07,-8.906123043855697e-08,-2.1949574220636635e-06,8.36156629821791e-07,7.360263658199899e-07
-3.865861951087959e-06,-2.605387984508624e-07,-7.344004575100555e-07,-8.177846972554536e-07,6.720051044209269e-07,1.465598816931241e-07,-2.009063787502919e-06,-9.391500824117654e-07,-9.369673634721069e-07,1.120990282324481e-07,-4.15655279529672e-07,-1.2652011368981565e-06,1.036804462867696e-06,-6.67894646324003e-08,-4.5835501642576165e-08,-2.1722484003449283e-06,8.550088310483895e-07,8.712684374917907e-07
-4.0278467681913626e-06,-2.739829104634691e-07,-7.99539177586193e-07,-8.797711414178891e-07,7.452128072245162e-07,3.0046763125616513e-07,-1.915496393572557e-06,-8.893337044174494e-07,-8.870860558696315e-07,1.326117063623444e-07,-3.609992035859e-07,-1.165327615085491e-06,1.1114531547503414e-06,-1.528575060222567e-08,-2.6916944408442104e-09,-2.1310092725827783e-06,8.810302515521224e-07,8.986836532331776e-07
-4.1900148599588814e-06,-2.3025277649379294e-07,-8.456844167902675e-07,-9.30320831508948e-07,8.116280304776541e-07,4.109997014050135e-07,-1.8736288067299546e-06,-8.552046687348584e-07,-8.321825724617499e-07,1.4949468563972084e-07,-3.0900494973607405e-07,-1.020791486222771e-06,1.1892329745684184e-06,4.321220719856828e-08,2.9338306277260955e-08,-2.1134488099188583e-06,9.068118763207911e-07,8.883353735367099e-07
-4.320574843649845e-06,-1.6156100791449814e-07,-8.955403024400095e-07,-9.65891515837799e-07,8.598002923221138e-07,4.832750701953905e-07,-1.791965895632724e-06,-8.317320078221396e-07,-7.788949476156782e-07,1.5932818677949189e-07,-2.7224836400359927e-07,-8.598648581068295e-07,1.263631790089742e-06,1.0219713291720926e-07,4.437667861401397e-08,-2.1596289486305136e-06,9.279644439286392e-07,8.577235419077988e-07
-4.41332981462785e-06,-9.054850495970294e-08,-8.770007967892614e-07,-9.881334047528155e-07,8.790403719488857e-07,5.184058574996562e-07,-1.6433788906814855e-06,-8.282965883081744e-07,-7.292095673581275e-07,1.6323838691707028e-07,-2.5760662633915864e-07,-7.063673944829339e-07,1.3463921502372787e-06,1.565779935675384e-07,4.131654103966536e-08,-2.1955526927756244e-06,9.368875763886747e-07,8.853442824610402e-07
-4.44815416787106e-06,-1.0799460673305872e-08,-8.257516555671949e-07,-9.98707305149237e-07,8.594755816106234e-07,5.344077021802104e-07,-1.5084799970732573e-06,-8.222245806721113e-07,-6.820177515558166e-07,1.6427596196764848e-07,-2.632299407038067e-07,-5.754613245866209e-07,1.4238063338571737e-06,2.031736251286172e-07,2.1956013303874138e-08,-2.19359817930047e-06,9.275948040989362e-07,8.134942035142197e-07
-4.417888378377201e-06,3.618996874355358e-08,-7.815892098562209e-07,-9.743594715657153e-07,8.048075821643347e-07,5.414831905662334e-07,-1.3525506736373852e-06,-8.09238241005406e-07,-6.327480786122644e-07,1.642100904599432e-07,-2.792724013626302e-07,-4.598853079179477e-07,1.485219802018954e-06,2.4688601142013813e-07,-6.900305876396757e-09,-2.10003237116713e-06,9.025040048294862e-07,6.542446396073532e-07
-4.329678036140316e-06,4.2977989168791686e-08,-6.98721641794605e-07,-9.173637510835241e-07,7.266874355147772e-07,5.436462304231071e-07,-1.1892026926818836e-06,-7.963577284858439e-07,-5.783285977458078e-07,1.6632427610553244e-07,-2.9153692569749785e-07,-3.678458403183744e-07,1.5245925275290475e-06,2.9530495680590064e-07,-3.965845754161657e-08,-1.9602602272250494e-06,8.625029276534001e-07,5.522688989962857e-07
-4.213694543221917e-06,3.316495361228463e-08,-6.448928512393953e-07,-8.355707687515133e-07,6.497001241488448e-07,5.41374629939412e-07,-1.062459222299536e-06,-7.700913617153614e-07,-5.185507464987331e-07,1.7188773261059007e-07,-2.859780550066126e-07,-2.9894471962254213e-07,1.5522549924021703e-06,3.5514734640571513e-07,-6.655861826738818e-08,-1.8018317718213069e-06,8.122918551070624e-07,4.3207842623509563e-07
-4.1025811893515235e-06,2.4323174299987116e-08,-6.364719390975675e-07,-7.224108831411215e-07,5.857921574300016e-07,5.881815388357402e-07,-9.552067870213693e-07,-7.266810864836406e-07,-4.5332036085132954e-07,1.7959008158510184e-07,-2.5246838023020215e-07,-2.358263454524825e-07,1.5672382042214727e-06,4.2864987099952855e-07,-8.141715935380001e-08,-1.614518737712229e-06,7.547023218530259e-07,3.170225893175332e-07
-3.989475939013141e-06,2.794785168913565e-08,-6.162487073020472e-07,-5.938642789312407e-07,5.303472985002612e-07,6.48681904807615e-07,-8.421572627724705e-07,-6.648851677981542e-07,-3.8632827441999057e-07,1.864191289615254e-07,-1.8667447469585048e-07,-1.7220630916029676e-07,1.566600007527667e-06,5.107662378320045e-07,-8.212270211195044e-08,-1.419206357725898e-06,7.166339019834437e-07,2.714116681444735e-07
-3.889775405643766e-06,3.307594168836538e-08,-6.020038019634822e-07,-4.6336061486415407e-07,4.902763982691512e-07,6.909570851824676e-07,-7.489204507086195e-07,-5.914553202354414e-07,-3.2246020404543087e-07,1.888555787540873e-07,-8.991308239559827e-08,-1.1869601796921261e-07,1.5532200657129644e-06,5.754407973540173e-07,-6.734473564396256e-08,-1.2389953835972957e-06,7.103110129157969e-07,2.4226803891327033e-07
-3.8118088127097474e-06,5.697410698605565e-08,-5.880062912250059e-07,-3.4090508947314204e-07,4.6395300538209764e-07,7.373169015428425e-07,-6.624230254900692e-07,-5.233360944713961e-07,-2.672873705314164e-07,1.8497001349418522e-07,3.1984291046360125e-08,-6.86089225363243e-08,1.521254242120347e-06,5.992412667777758e-07,-4.246040927580708e-08,-1.0686725123521157e-06,7.513048553703453e-07,2.3753456445929247e-07
-3.7224478916629527e-06,9.306468954220054e-08,-5.763274822344019e-07,-2.6447515627400854e-07,4.449708814257596e-07,7.731510379319623e-07,-5.77050284876141e-07,-4.647171768183359e-07,-2.2550114859998873e-07,1.7585160624994596e-07,1.7003752160204292e-07,-2.0151202723025257e-08,1.4729997203908544e-06,5.744899032676419e-07,-1.4230121672573228e-08,-9.278325523819663e-07,8.020820687962097e-07,2.746158496744822e-07
-3.649243911353822e-06,1.4552635620977679e-07,-5.804372328092132e-07,-2.2617688883218964e-07,4.368170451910419e-07,8.041229680580458e-07,-5.026295833269133e-07,-4.112039770285901e-07,-1.984381226406289e-07,1.658478336262581e-07,3.135776035608097e-07,7.67531072765266e-09,1.4091178328220187e-06,5.424292149858102e-07,3.7875926333997595e-09,-8.285594581388762e-07,8.282442690308132e-07,3.1762762200448575e-07
-3.5914861157102163e-06,2.0779159271571318e-07,-5.938331183424779e-07,-2.1596787151497697e-07,4.341962795909164e-07,8.300582032092079e-07,-4.316405046827276e-07,-3.60616839242354e-07,-1.8340903866659617e-07,1.6058610262724995e-07,4.5149192820791343e-07,2.2664509151160776e-08,1.3403460113198166e-06,5.265821615589946e-07,9.363689244904026e-09,-8.175653031971968e-07,8.390950677839069e-07,3.944041259101513e-07
-3.558628504383525e-06,2.7677447245347267e-07,-6.044441071237737e-07,-2.4074243084410343e-07,4.3406686277526196e-07,8.515218023168281e-07,-3.63900394536024e-07,-3.1010700225798696e-07,-1.765908661612659e-07,1.659073545495649e-07,5.732472609910383e-07,-1.3843314804719867e-08,1.2837121490088742e-06,5.191667615402994e-07,1.2925352495295605e-08,-8.790612562655489e-07,9.232671454608584e-07,5.14136135176538e-07
-3.5543918421888452e-06,3.595163889979733e-07,-6.074396818129301e-07,-2.8200959097012173e-07,4.3977153450378257e-07,8.602617527947066e-07,-3.008334847911159e-07,-2.6372130271624396e-07,-1.7380081940784895e-07,1.8673678951156988e-07,6.705420433789496e-07,-6.305071684167581e-08,1.2559126554988912e-06,4.6064222910597066e-07,-1.5189135569931258e-08,-9.746799280184863e-07,1.0142727129657843e-06,6.215215674280629e-07
-3.5480003586201886e-06,4.393467039975744e-07,-6.045969967944403e-07,-3.137140345822131e-07,4.565145181155962e-07,8.427200729194021e-07,-2.4836511945171433e-07,-2.3137056939270317e-07,-1.7064166226254918e-07,2.1889900139070052e-07,7.400308348829265e-07,-1.6026830495594196e-07,1.263070554946977e-06,4.597077249300801e-07,-6.327582146868964e-08,-1.06069856100342e-06,1.0892917978417406e-06,7.26683497792921e-07
-3.526929618117109e-06,4.892566023301994e-07,-5.957781947572355e-07,-3.1287188531019964e-07,4.853243528516525e-07,7.97675822670899e-07,-1.98431397710088e-07,-2.0660190876592327e-07,-1.6162317917752358e-07,2.587312114412332e-07,7.860064187897536e-07,-3.105002322849282e-07,1.2634288667814105e-06,5.190606152584461e-07,-1.0130818998696744e-07,-1.066239977293852e-06,1.1435686182251859e-06,8.324083821304021e-07
-3.462656534567913e-06,4.795054263944854e-07,-5.839351123648332e-07,-2.3298211989086325e-07,5.242180385060166e-07,6.939349780410178e-07,-1.5226905991997328e-07,-1.9012750998727086e-07,-1.43451649086069e-07,2.979216096644929e-07,8.211078465756326e-07,-3.4304063805235714e-07,1.24879071325214e-06,5.807634106271021e-07,-1.0067400069611319e-07,-9.651176456338591e-07,1.1615534350027168e-06,9.334924750455236e-07
-3.3649312320498466e-06,4.5182285780684994e-07,-5.67845740660981e-07,-1.239593784845633e-07,5.712740665238515e-07,6.029947029025882e-07,-1.241878590746414e-07,-2.073142155770415e-07,-1.128713087085563e-07,3.0694385129364304e-07,8.635530848546644e-07,-3.8848386126343585e-07,1.100485842556938e-06,6.417960423895212e-07,-1.7660586455456943e-08,-8.627188996730253e-07,1.1496393850168322e-06,1.0461028040489388e-06
-3.2898553440998866e-06,4.231633121745077e-07,-5.521320768002129e-07,-5.3052908947145494e-08,6.245898545699466e-07,5.435971856881906e-07,-1.1189180346085576e-07,-2.0577161955042196e-07,-7.107552530221981e-08,2.7388642291853493e-07,9.307828192082744e-07,-4.883253110270734e-07,8.276211504244133e-07,6.973536169222706e-07,1.0578142129343202e-07,-7.880439933864825e-07,1.1610885508485872e-06,1.2025217957046311e-06
-3.2491327940121974e-06,4.1957004596773085e-07,-5.409729737162822e-07,-9.541122246586126e-09,6.695066750106396e-07,4.7650507921580643e-07,-1.1425508659820731e-07,-1.9455531227596458e-07,-2.65678379126997e-08,2.5068773505513006e-07,1.0319627344616202e-06,-5.458721904118214e-07,5.703959851894485e-07,7.829852682776519e-07,2.388915984284216e-07,-7.385570345858041e-07,1.1970792762161384e-06,1.3658576309038123e-06
-3.216953454463569e-06,4.267068489500431e-07,-5.388018457682967e-07,-5.825485189261068e-09,6.85925893389688e-07,4.5340817314388345e-07,-1.2814473441386215e-07,-1.933654426811676e-07,-1.0133459311272061e-08,2.2815383127648734e-07,1.1656824915871415e-06,-6.616936812769247e-07,4.265950090042995e-07,9.074341973444871e-07,3.321171638800241e-07,-6.867302275550649e-07,1.2477306000597224e-06,1.498654393699824e-06
-3.2129023033308843e-06,4.10072514027784e-07,-5.4064072881719e-07,-1.8227954526822268e-08,6.867646204673016e-07,3.8837894667266637e-07,-1.3569538110660312e-07,-1.789692770367389e-07,-2.687278930719109e-08,1.4392333177513948e-07,1.31537705686909e-06,-8.015703772098783e-07,2.384018505568617e-07,1.0424505594213024e-06,4.477258969301948e-07,-5.286871985956982e-07,1.2961881534676574e-06,1.5951568234879513e-06
-3.2058806078992074e-06,3.3030684983071317e-07,-5.389762938445616e-07,6.563696599445628e-09,7.09440864820941e-07,2.425941384116922e-07,-1.328062360007118e-07,-2.1224034692891685e-07,-4.8268889049601126e-08,7.252487768120272e-08,1.463124448242679e-06,-9.592337252923876e-07,3.0695348782669974e-08,1.1047982272441823e-06,5.975108548208065e-07,-2.7292397983561983e-07,1.3068122375215726e-06,1.6092051013116319e-06
-3.1147243128547775e-06,2.574403302088053e-07,-5.317452374765723e-07,1.0884638546518863e-07,7.566144094157276e-07,6.034352983571528e-08,-1.1872076109331153e-07,-2.755337312162148e-07,-7.230818992743298e-08,4.702968603646121e-08,1.5875166841579454e-06,-1.0550551591675447e-06,-7.940709223519943e-08,1.1337949631892959e-06,7.631728726742237e-07,-9.140942229083571e-08,1.268237363039079e-06,1.5955008947363417e-06
-2.995466945748306e-06,1.82991901882318e-07,-5.148383309382817e-07,2.2490356355725553e-07,8.301563444655948e-07,-7.833635212992612e-08,-9.553282262661118e-08,-3.1834454982481073e-07,-1.08780003692093e-07,5.53392646450231e-08,1.6455268389211906e-06,-1.1417095244173918e-06,-1.366540981525448e-07,1.1417911033784925e-06,9.343157953622599e-07,-1.5247027461205095e-08,1.2276165154694013e-06,1.6238455050969033e-06
-2.9369289813309847e-06,1.0524895798834181e-07,-4.998978239182666e-07,3.15827982724823e-07,9.267240922375303e-07,-1.5712649128152438e-07,-7.208082072042334e-08,-3.762681944104758e-07,-1.4967424835954404e-07,9.172372014914823e-08,1.7060362427476224e-06,-1.2175973785347387e-06,-2.038707516538025e-07,1.1672693765678476e-06,1.0588725379541745e-06,1.0238658449012958e-07,1.2090967552515262e-06,1.6909270542853843e-06
-2.8707614852861413e-06,9.251842995003734e-08,-4.949719921334578e-07,4.1138704253095116e-07,1.018858117764288e-06,-2.5748429666617174e-07,-5.993437434055819e-08,-4.20345206925945e-07,-1.9499199162069335e-07,9.667263932965672e-08,1.7227165140547827e-06,-1.271025707733562e-06,-2.3568688869340515e-07,1.2119736449622143e-06,1.1214803940639652e-06,9.791079923406405e-08,1.1830668292725276e-06,1.7027415763119676e-06
-2.8241829975549566e-06,1.0235846257063747e-07,-5.014427256902561e-07,4.6360406329166237e-07,1.1075246596686336e-06,-2.8553863862443754e-07,-6.970076395480705e-08,-4.7604845808464294e-07,-2.527535727434111e-07,1.0500066037051716e-07,1.7265400144399426e-06,-1.3138887044654797e-06,-2.1384165443882165e-07,1.2067845558855526e-06,1.1340026537064776e-06,5.622022312629915e-08,1.1672722756588616e-06,1.7334304796139751e-06
-2.814635733564377e-06,8.923178989967381e-08,-5.152423244454622e-07,4.810664257941606e-07,1.1706864075004266e-06,-4.0368977121544585e-07,-1.0205622694528239e-07,-4.99516047911822e-07,-3.162299585983099e-07,1.366531561538455e-07,1.6899647561212053e-06,-1.3513355590506875e-06,-2.0759378831645468e-07,1.1619096142045377e-06,1.1467704802322082e-06,-1.3380647518632256e-07,1.1388905390304564e-06,1.7044562507649744e-06
-2.8036660891974638e-06,7.771061054333158e-08,-5.441928816693444e-07,4.898288927228154e-07,1.213668953657061e-06,-5.342086018604255e-07,-1.5644744111132473e-07,-5.045210635263669e-07,-3.8001406033353954e-07,1.893639695923998e-07,1.663219462300709e-06,-1.4036123263250877e-06,-1.7589557981362405e-07,1.0891702997201402e-06,1.1339036368793141e-06,-3.405372636121845e-07,1.104524837929251e-06,1.6654104911881987e-06
-2.778184970267989e-06,8.319953119463689e-08,-5.79032546319922e-07,4.806033339014817e-07,1.2479990326133044e-06,-6.47010211780439e-07,-2.2548739180610156e-07,-5.124907666839663e-07,-4.393490504368672e-07,2.7088292162769086e-07,1.652892570818523e-06,-1.4891002738836477e-06,-9.232525856391286e-08,1.001837390800231e-06,1.1168550547692839e-06,-4.4267449270563416e-07,1.0488875061927561e-06,1.6242619956761565e-06
-2.7428933845062747e-06,9.81754511034402e-08,-6.140833272667655e-07,4.5818550938261004e-07,1.2671674500339501e-06,-7.191319448715701e-07,-3.012365084620684e-07,-4.944928840581899e-07,-4.915905373386993e-07,3.3582229325066183e-07,1.6501244608751132e-06,-1.544935070473806e-06,-3.0720828355837045e-08,9.332609857176103e-07,1.1185907054129263e-06,-5.076318061042939e-07,1.0145779734608889e-06,1.5710908555943957e-06
-2.6976233725734056e-06,1.1465118642134563e-07,-6.490834200824291e-07,4.193247023452968e-07,1.275117806715284e-06,-7.116410788325515e-07,-3.802902405806838e-07,-4.642529569686808e-07,-5.389216573763966e-07,3.8276329844248855e-07,1.6522910235718717e-06,-1.5655347838418482e-06,4.2918534748043376e-08,9.057906997856452e-07,1.1220486496756445e-06,-4.90959519176214e-07,9.98465473273281e-07,1.495244320803949e-06
-2.643305240096523e-06,1.3095163118337467e-07,-6.826335991274794e-07,4.333549266306027e-07,1.240334083398321e-06,-6.759478780874282e-07,-4.418524109490552e-07,-4.2733666468737034e-07,-5.841283731806905e-07,4.044716836011741e-07,1.6523418787218804e-06,-1.5523713020550527e-06,1.795441962548826e-07,8.738561614120753e-07,1.1000869348726266e-06,-4.809073657430023e-07,9.75563705334224e-07,1.402083186561263e-06
-2.589095636684959e-06,1.4811745278996363e-07,-7.492720253970044e-07,4.654458928342136e-07,1.1654807600994215e-06,-6.350674699062801e-07,-4.926561362817299e-07,-3.8754473183668935e-07,-6.305342275330074e-07,3.990082740606544e-07,1.6425396590052303e-06,-1.4304601022332494e-06,2.834924924834531e-07,8.448620581197315e-07,1.0543987265941109e-06,-6.134707957832201e-07,9.588558552948343e-07,1.2910414802998924e-06
-2.5174713743289873e-06,1.661718888742427e-07,-8.433897527433335e-07,4.5535638739190287e-07,1.0690574932607738e-06,-5.915225718367686e-07,-5.415939563583778e-07,-4.035832542211047e-07,-6.831288453548238e-07,3.8002999711525263e-07,1.6162615665654917e-06,-1.2432620911321878e-06,3.3455282936757067e-07,7.904548099139347e-07,9.7204534486813e-07,-7.847749545677635e-07,9.374337982585009e-07,1.1689911833583534e-06
-2.462789002072674e-06,1.7876515477535136e-07,-9.90944329161373e-07,4.2342891456741975e-07,9.391467388033552e-07,-5.355559068386172e-07,-5.924860287529434e-07,-4.5355031259435704e-07,-7.403266747817001e-07,3.4983484560303484e-07,1.5692656775377328e-06,-1.119983340634185e-06,4.068890734923522e-07,6.731115155112936e-07,8.49939010116118e-07,-9.140550198074431e-07,9.135234120990424e-07,1.0566797289814968e-06
-2.413791668847514e-06,1.8398035135011873e-07,-1.1915161086274972e-06,3.5994824610118225e-07,8.73380312890807e-07,-4.49549057197328e-07,-6.750862561133935e-07,-5.141308701437066e-07,-8.058534217998895e-07,3.1188886954683875e-07,1.49997939774956e-06,-1.0911139847775766e-06,4.616597159271248e-07,5.915957815588069e-07,7.971940942909772e-07,-1.0106913896768165e-06,8.674162383619444e-07,9.594451201181739e-07
-2.3894346185514383e-06,1.741462677596134e-07,-1.2992506956697235e-06,2.499771396575699e-07,8.360083349118128e-07,-3.4706304271625843e-07,-7.861016614748149e-07,-5.951007846326158e-07,-8.825533804017837e-07,2.641738142300752e-07,1.409373514031692e-06,-1.1197675703111168e-06,4.895260776566646e-07,5.280866214244263e-07,7.49928547865199e-07,-1.1118391685322044e-06,7.924889178537416e-07,8.780012066707799e-07
-2.4013952290449583e-06,1.5038657469119236e-07,-1.3286992352310566e-06,2.0485232002637934e-07,8.147623732983639e-07,-2.492167925066756e-07,-9.208895933336971e-07,-6.661482769457053e-07,-9.63067629357428e-07,2.0455611418495701e-07,1.3007313109009144e-06,-1.1668671510642135e-06,4.882359773401157e-07,4.67394517628462e-07,7.193521371293577e-07,-1.2179302878489098e-06,6.889220089835303e-07,7.953574243579948e-07
-2.4412618463089113e-06,1.1564011474241669e-07,-1.2924173769778759e-06,3.1907040153835184e-07,7.876858336333439e-07,-1.7873758082409358e-07,-1.0791884380976756e-06,-7.369928327967437e-07,-1.0498856085414825e-06,1.3291608244343882e-07,1.1789228519330447e-06,-1.1792698520854247e-06,4.3063798266271173e-07,4.314632961504668e-07,7.116247463855199e-07,-1.202186467499669e-06,5.704404800272941e-07,7.384418846717777e-07
-2.500638180703415e-06,7.070456911368492e-08,-1.2613378280890084e-06,3.6547082409751983e-07,7.54688860723628e-07,-1.4854901238806233e-07,-1.2602606120574545e-06,-8.415724040311015e-07,-1.142199186397672e-06,5.048527789660173e-08,1.0497805933957938e-06,-1.1824002273282193e-06,2.8704149209794477e-07,4.040555767863896e-07,6.997911329918147e-07,-1.2112981610218576e-06,4.431571509772695e-07,6.910508270854119e-07
-2.548606955296277e-06,1.4268618938446752e-08,-1.2810680279081246e-06,3.781005193043649e-07,7.64280463995638e-07,-1.4341178651409998e-07,-1.4641549790255069e-06,-9.544115741593241e-07,-1.2358047550432648e-06,-3.975253000781977e-08,9.207528085216434e-07,-1.2613940065294601e-06,1.1228544950071264e-07,3.4881922406431136e-07,6.446089899363001e-07,-1.1930797866616484e-06,3.1309074440128636e-07,6.449437067621035e-07
-2.6233273944230802e-06,-4.329147347565374e-08,-1.399175121465962e-06,3.467590499663204e-07,7.092274272360565e-07,-1.5302040303905183e-07,-1.656271566788456e-06,-1.0617621168842301e-06,-1.3104945616811192e-06,-1.3157989466853553e-07,8.018242234155683e-07,-1.4167563856438522e-06,-6.051703681517541e-08,2.402109924413813e-07,5.315250260880847e-07,-1.299818702907648e-06,2.0665758850118536e-07,6.07591874093083e-07
-2.680074676510906e-06,-9.537020544205357e-08,-1.4915315894037045e-06,2.557004987336141e-07,6.161617485296388e-07,-1.9802730655573583e-07,-1.8466641403122589e-06,-1.1455591897814975e-06,-1.3449634089809426e-06,-2.155194481569863e-07,7.041265845267027e-07,-1.6100295710108541e-06,-2.3138907909815545e-07,1.881580094453947e-07,4.1114898102568144e-07,-1.3621971143358718e-06,1.5454553715910725e-07,5.744107740303393e-07
-2.7222801413567025e-06,-1.416036237211167e-07,-1.5496884797100033e-06,1.4905541078599386e-07,5.673087139807905e-07,-2.3780561481565647e-07,-1.9977621686645157e-06,-1.1704435327157348e-06,-1.3303589796129668e-06,-2.8221438295288766e-07,6.361366458659196e-07,-1.7884782911548516e-06,-3.6431516878693857e-07,1.7005856637750156e-07,2.9677037978580366e-07,-1.3860648232546392e-06,1.3026507407839138e-07,5.565356373449765e-07
-2.7017844703596954e-06,-1.7495686189119176e-07,-1.6260815446260407e-06,8.530386410070511e-08,5.291244887609737e-07,-2.677886358958897e-07,-2.0535522969337554e-06,-1.2053394160248496e-06,-1.3327987125086778e-06,-3.271424925803582e-07,6.00456752515391e-07,-1.9364818751930037e-06,-4.6311894108634527e-07,1.2317940865961218e-07,1.917289534954298e-07,-1.438897870574891e-06,1.1451723757787084e-07,5.595131055857843e-07
-2.6244231140188037e-06,-1.9638240190664696e-07,-1.6622962420068227e-06,8.571733790090904e-08,4.911460607293259e-07,-2.996735593140264e-07,-2.063881524349123e-06,-1.2783295035898266e-06,-1.382623311520402e-06,-3.4841631304842007e-07,5.933373908646141e-07,-2.0400827269511832e-06,-5.286600684244587e-07,6.97106899530374e-08,1.1024194400757128e-07,-1.3995971261013431e-06,4.433614179989648e-08,5.856407795102432e-07
-2.6258951328664464e-06,-2.1126076633771995e-07,-1.6974268656941803e-06,5.962975766480136e-08,4.765193131195301e-07,-3.359140094206646e-07,-2.0701476317045734e-06,-1.3271720240486613e-06,-1.4502774192130943e-06,-3.452647422650939e-07,6.06237108413692e-07,-2.066180613463573e-06,-5.552457276178154e-07,-1.841127423321867e-08,-9.405038345922356e-10,-1.3262602230402236e-06,-1.2021250645142974e-08,6.182880064267388e-07
-2.7100389985378825e-06,-2.1558838315763992e-07,-1.7898406437859423e-06,-2.8744838313731903e-08,4.807067698470855e-07,-3.688081523127528e-07,-2.1609432033193933e-06,-1.3515575473379079e-06,-1.4766567468763015e-06,-3.248544048439338e-07,6.282135832209541e-07,-2.0486042453170074e-06,-5.369787603450884e-07,-9.553606827814937e-08,-9.854430250213042e-08,-1.3762709565136932e-06,-4.7513201338785575e-08,6.498349493947485e-07
-2.7937187068625437e-06,-2.1344157561641688e-07,-1.8889164318418117e-06,-1.764128149432197e-07,4.326429956159126e-07,-4.006557914285645e-07,-2.2371987660915926e-06,-1.360148482978034e-06,-1.4771166927275075e-06,-2.954774471285492e-07,6.490152770208846e-07,-2.0291371766549953e-06,-4.91140560891424e-07,-1.3114478330995586e-07,-2.2579831385473972e-07,-1.4296279970065862e-06,-5.900635347385552e-08,6.757089121514628e-07
-2.8709457473093804e-06,-2.159018649277877e-07,-1.9567668489587905e-06,-2.4271507477002994e-07,3.490735610123884e-07,-4.668224453903348e-07,-2.3174032490850365e-06,-1.3619748250885917e-06,-1.4589927285842437e-06,-2.7152857903990656e-07,6.619600715215568e-07,-1.995072436110914e-06,-4.289480878032866e-07,-1.16508771741697e-07,-2.4826368097342846e-07,-1.4152335126398746e-06,-5.349381416877827e-08,6.906971969875789e-07
-2.8573129377846053e-06,-2.2027262308979697e-07,-1.937628074810002e-06,-2.4802311262288704e-07,2.698478063743602e-07,-5.478841850580885e-07,-2.3484248729541994e-06,-1.363349505554826e-06,-1.4436145992977102e-06,-2.560893388857817e-07,6.644822625097259e-07,-1.9654081167402823e-06,-3.572129860172405e-07,-8.690575718645958e-08,-2.2919227099929726e-07,-1.281790544617015e-06,-3.817210969891858e-08,6.980744225853433e-07
-2.815703540146554e-06,-2.2463720333396158e-07,-1.8545723242931462e-06,-1.9043193012622295e-07,2.840630390042446e-07,-6.433012290906524e-07,-2.320891409031846e-06,-1.3398560183297317e-06,-1.4108186266867376e-06,-2.498202663632565e-07,6.552659381075418e-07,-1.9438842862899005e-06,-3.0787323237230845e-07,-3.489992383771928e-08,-2.090917839322474e-07,-1.1762911581016757e-06,-5.2557822979817845e-09,6.945111428799884e-07
-2.7535094683411718e-06,-2.2861352752737348e-07,-1.7307359405614411e-06,-9.603587948803329e-08,3.524096831873728e-07,-7.488871025125597e-07,-2.2694575495922426e-06,-1.3065834375676244e-06,-1.3805137051180654e-06,-2.4775484673998734e-07,6.370390080754306e-07,-1.9111791356557236e-06,-2.5756866724130643e-07,2.4653692312453882e-08,-1.5188277623928328e-07,-1.1420974462684776e-06,7.235647299861994e-09,6.742837185335497e-07
-2.6629231025144024e-06,-2.2846093333306253e-07,-1.6493797500320423e-06,2.10149473971981e-08,4.529502781919209e-07,-8.351961738705424e-07,-2.193379988525522e-06,-1.2691274588377917e-06,-1.349638953175177e-06,-2.4472058218261054e-07,6.103938024193453e-07,-1.8562253550344269e-06,-1.944208737258913e-07,5.428414298667485e-08,-1.323120906239682e-07,-1.1439218739581772e-06,-2.9695352682385705e-08,6.342943621789739e-07
-2.5999761737169032e-06,-2.266984313169952e-07,-1.650653098164127e-06,1.0519274637249339e-07,5.613198233299147e-07,-8.490769289299471e-07,-2.1346142033418212e-06,-1.2350105738889547e-06,-1.3180541730432082e-06,-2.494185528209953e-07,5.76909977197653e-07,-1.7722330963929375e-06,-1.3220275548942026e-07,7.634415174386508e-08,-1.371998797824142e-07,-1.2526837501717764e-06,-9.461887842741562e-08,5.681974770673196e-07
-2.5732896692668045e-06,-2.3392282129586287e-07,-1.7058043076313685e-06,1.3317936839972863e-07,5.91148996993381e-07,-8.107482462899974e-07,-2.092171763842016e-06,-1.2123779867474257e-06,-1.3007106419132765e-06,-2.666477741869122e-07,5.421524719760728e-07,-1.6621972753142316e-06,-8.37963310166545e-08,8.286800495584816e-08,-1.4528608418852628e-07,-1.346749978696383e-06,-1.4446756078543132e-07,4.804107406942378e-07
-2.5487169259897175e-06,-2.544777837822533e-07,-1.7492594509991613e-06,1.375480535195177e-07,5.663905278270253e-07,-8.214740920217668e-07,-2.0490865149227784e-06,-1.2022132923987906e-06,-1.2978350069881815e-06,-3.2181216840854837e-07,5.084682818481833e-07,-1.5410535423040226e-06,-1.180680947436869e-07,1.0354025810829321e-07,-1.414970030879086e-07,-1.309385002826365e-06,-1.8050778459702456e-07,3.8526725552756124e-07
-2.5153491883421323e-06,-2.900339274202627e-07,-1.7736409979233483e-06,1.193234955320301e-07,5.423779111346533e-07,-8.920175616649007e-07,-2.000336230620354e-06,-1.261816328599411e-06,-1.331066828337537e-06,-4.237885617108852e-07,4.866968870256311e-07,-1.521030485412661e-06,-3.159016818421245e-07,1.5524840950620803e-07,-1.359408085121041e-07,-1.2061986158853277e-06,-1.7758690587697237e-07,2.716420743022259e-07
-2.478940667824238e-06,-3.445000588077201e-07,-1.7477033117952484e-06,1.5289171431671918e-07,5.011082097541556e-07,-1.0198102964066216e-06,-1.9634262541057735e-06,-1.2892001270551946e-06,-1.3831056541701155e-06,-5.088870845695491e-07,4.874123449296056e-07,-1.6198174889693702e-06,-5.082008664432316e-07,2.0502343829408994e-07,-1.4392370191814953e-07,-1.135765628464762e-06,-1.5593303809225494e-07,2.549327756645257e-07
-2.4502007396089456e-06,-4.116526573929943e-07,-1.6547582619610164e-06,1.6337047408039945e-07,4.820678798906167e-07,-1.1352721460298218e-06,-1.9218785459543704e-06,-1.2978569033392195e-06,-1.4149111571201738e-06,-5.796465011187158e-07,4.96959352599528e-07,-1.6880708816908874e-06,-6.772357921321842e-07,2.6193236075332924e-07,-1.6274178154698374e-07,-1.0899619258006109e-06,-1.4066320214784059e-07,3.325515802411954e-07
-2.386190958725141e-06,-4.937645138205988e-07,-1.5619099663684134e-06,1.0134596038788227e-07,5.411887733147889e-07,-1.218971433284635e-06,-1.8757328584883222e-06,-1.311435003948711e-06,-1.4320164055982654e-06,-6.326403007575454e-07,5.638297532143553e-07,-1.783903707624637e-06,-8.599560857340882e-07,3.198572954368083e-07,-1.9655554814043367e-07,-1.0445731098749053e-06,-1.333344042607312e-07,4.070189336422066e-07
-2.309068412059403e-06,-5.94527325896636e-07,-1.5498633391550734e-06,3.3444022966382634e-08,6.385147959369489e-07,-1.2932804944487836e-06,-1.8310940117251001e-06,-1.3067723893394686e-06,-1.4428631517153236e-06,-6.694822646338907e-07,6.66364053583787e-07,-1.8166931570891737e-06,-9.951399830518555e-07,3.8054578077058097e-07,-2.3387687629760351e-07,-9.085608544852692e-07,-1.1935034371966203e-07,4.879195568835619e-07
-2.250187688187498e-06,-6.950366960002337e-07,-1.5101654550728742e-06,3.162463625991306e-08,7.56012480078568e-07,-1.3220808440495243e-06,-1.7786878663394737e-06,-1.3257586380010359e-06,-1.5384155886137499e-06,-7.404955058390999e-07,7.831263595296575e-07,-2.0233831171608994e-06,-1.2090262212274105e-06,4.3008948599136603e-07,-2.5868152713749724e-07,-6.188939925934755e-07,-8.787108494243e-08,6.619030062826429e-07
-2.16055597068942e-06,-7.84001599603113e-07,-1.3936483301032917e-06,4.210042641186045e-08,8.071782438894186e-07,-1.4599051592832054e-06,-1.717411824226024e-06,-1.328564101492004e-06,-1.6178644948142963e-06,-7.888099878882495e-07,8.852686059200881e-07,-2.2488435924342426e-06,-1.418229256660882e-06,4.671327190502819e-07,-2.5877518625602847e-07,-3.7563792208007085e-07,-6.943358339887968e-08,8.289401911897041e-07
-2.0625448040523776e-06,-8.559896057202581e-07,-1.3260639972748065e-06,6.912979198430445e-08,9.06866129165404e-07,-1.5757770215344716e-06,-1.6484852444757572e-06,-1.3284713336963961e-06,-1.6626871857069163e-06,-8.118303738172447e-07,9.879322286734834e-07,-2.341543623002708e-06,-1.6494556290464089e-06,4.910530055404795e-07,-2.3307329429730872e-07,-1.6901279986087912e-07,-4.726780007457709e-08,9.353551888496463e-07
-1.976023720739364e-06,-8.867695423941518e-07,-1.2814276447730982e-06,1.2060452135266185e-07,9.803296309398486e-07,-1.6205561866549029e-06,-1.574170816600478e-06,-1.3061619759688036e-06,-1.7058936916236087e-06,-8.389411263747976e-07,1.0831759348801934e-06,-2.4842557773861023e-06,-1.9052075720482014e-06,5.010581659614754e-07,-1.757022309915858e-07,4.4511541744899406e-08,-1.7467617009999676e-08,9.939291671099342e-07
-1.9093477290099733e-06,-8.817131658159378e-07,-1.2334723893182013e-06,1.7833289299925217e-07,9.866659911295412e-07,-1.707978607395708e-06,-1.489422082786725e-06,-1.2730894980214564e-06,-1.7622954691677185e-06,-8.775233526041057e-07,1.1623031474438727e-06,-2.5079904085984308e-06,-2.1096779505914125e-06,5.132522142768732e-07,-8.935775328594869e-08,1.1731855799029565e-07,1.604601316563676e-08,1.0291497908658396e-06
-1.8644521772179852e-06,-8.638123626339666e-07,-1.2403559461847676e-06,2.1185519163943758e-07,9.956885778370748e-07,-1.7734331609657428e-06,-1.405309288186305e-06,-1.2266861093802277e-06,-1.791246498360433e-06,-8.967886163557443e-07,1.2394786092848322e-06,-2.4699252249640267e-06,-2.239630354606638e-06,5.290976141109512e-07,1.319509356963826e-08,7.003933241086976e-08,-5.867788706404132e-09,1.067559639821796e-06
-1.7827670616582142e-06,-8.284843272696759e-07,-1.2355931886322444e-06,2.6213169766232597e-07,9.93642852701058e-07,-1.7674859910221043e-06,-1.3199068958801113e-06,-1.196964177444953e-06,-1.7974687775966495e-06,-9.36341429916368e-07,1.2973701624620163e-06,-2.426080915026512e-06,-2.203422510660353e-06,5.493938333734877e-07,1.2328220194804932e-07,9.57652128078939e-08,1.2941470489774125e-09,1.1627651049897683e-06
-1.6763588290694057e-06,-8.088331775436059e-07,-1.1990604655114535e-06,3.2303950671705603e-07,9.840324503163456e-07,-1.7019893936455356e-06,-1.2288353396508057e-06,-1.1301180459212393e-06,-1.8014685464251399e-06,-9.455121451273477e-07,1.3488802358187347e-06,-2.3785878204373424e-06,-2.1623006816886817e-06,5.728417803543865e-07,2.3363811414773986e-07,2.173917144748791e-07,3.2253451082340105e-08,1.237758197377838e-06
-1.5786780124351239e-06,-8.052920241546194e-07,-1.1723333657305562e-06,3.962462220151985e-07,9.746012688854322e-07,-1.6482430512478572e-06,-1.1336314808065931e-06,-1.053017012584668e-06,-1.803207472850219e-06,-8.932985939313126e-07,1.4111959463762415e-06,-2.357478384647877e-06,-2.173369419834974e-06,6.060263460527626e-07,3.423425373215771e-07,3.5547741423648085e-07,6.658942266293802e-08,1.2955017459864999e-06
-1.5214974001166742e-06,-7.785612009860508e-07,-1.1321205287929652e-06,5.071146622345452e-07,1.0105744206270404e-06,-1.5854425666938302e-06,-1.0323293719852545e-06,-9.777111724013971e-07,-1.8016882178932752e-06,-8.624885553857802e-07,1.4831917489057007e-06,-2.368785221590718e-06,-2.1500074590810054e-06,6.615351814745312e-07,4.526412001572147e-07,5.129760966472051e-07,9.101653208705886e-08,1.3224739292797138e-06
-1.5004496746057383e-06,-7.443643700168304e-07,-1.0455133892178016e-06,5.986054259665443e-07,1.1140422604396129e-06,-1.5041923034264488e-06,-9.423265749405264e-07,-9.121985580818486e-07,-1.8139475083389916e-06,-8.105980435867603e-07,1.5601929648097137e-06,-2.3969841530756914e-06,-2.152792359471508e-06,7.312062805468328e-07,5.675104008664065e-07,6.748920411422273e-07,1.4404665053587144e-07,1.3668107281446151e-06
-1.4914241015711328e-06,-6.915988051812328e-07,-9.529903820509953e-07,6.689878411077954e-07,1.2279633266029774e-06,-1.4792961232627663e-06,-8.530068532108495e-07,-8.644574818595762e-07,-1.8286087649743017e-06,-7.892903237281223e-07,1.6219532040284836e-06,-2.3890282208993573e-06,-2.182583732513204e-06,7.932825175317085e-07,6.873212273736877e-07,7.764703557310814e-07,1.3764144453249693e-07,1.2920616071278415e-06
-1.4816509538269905e-06,-6.311951139775381e-07,-8.706863273225691e-07,7.036468878021892e-07,1.3297186178293607e-06,-1.497274756307262e-06,-7.69295263559919e-07,-8.256114637341253e-07,-1.8576594838935394e-06,-7.961885534966723e-07,1.613173625900498e-06,-2.292879827427105e-06,-2.1468566148023025e-06,8.427125175498499e-07,8.116117036455076e-07,8.519802899155105e-07,1.283814039617747e-07,1.2408001083068932e-06
-1.4527499643214211e-06,-6.469466762347822e-07,-8.843714710772047e-07,7.065233004318474e-07,1.3605090987753474e-06,-1.445061430895752e-06,-7.025149111154812e-07,-8.137078975591184e-07,-1.8805396370671974e-06,-8.149265623823167e-07,1.5262983597988327e-06,-2.1363274687368567e-06,-2.0141835594264628e-06,8.715224111409658e-07,9.188946811955312e-07,8.625075661424512e-07,1.2056206295159223e-07,1.1854663504867092e-06
-1.4375446932868714e-06,-6.443148118586882e-07,-9.832940085810051e-07,6.721160336288141e-07,1.2834032332114754e-06,-1.4256610076978836e-06,-6.569701366217464e-07,-7.966351088882414e-07,-1.884996343386162e-06,-8.112980852947281e-07,1.4814948254329087e-06,-1.9651425698938326e-06,-1.8548236145177278e-06,8.723045325844481e-07,1.0069623253918009e-06,7.21724844349901e-07,9.56830786669091e-08,1.0729964482568888e-06
-1.420867241119861e-06,-6.41610099847147e-07,-1.0503531715391202e-06,5.851770276850885e-07,1.2469151688367909e-06,-1.4201573356934567e-06,-6.429313267347498e-07,-7.303308304085594e-07,-1.8761232039739e-06,-7.555512033155648e-07,1.468868831033851e-06,-1.8369449012234145e-06,-1.6927365165779374e-06,8.472695562734155e-07,1.0837150295695965e-06,6.423891529730399e-07,8.527872594239323e-08,9.393821288526766e-07
-1.408568456063342e-06,-6.550320578217953e-07,-1.0515046300152196e-06,5.494777540577355e-07,1.2651939646511023e-06,-1.3930312527500885e-06,-6.62376466873271e-07,-6.389174106594901e-07,-1.805238255368426e-06,-6.780718089132849e-07,1.4639539123400562e-06,-1.7561469720582032e-06,-1.520029786248291e-06,8.091642487252697e-07,1.1418596418645045e-06,6.83447864926613e-07,8.226704412857034e-08,8.110668473953328e-07
-1.4464333379147015e-06,-6.422890630016787e-07,-1.0254969388887678e-06,5.17192428804321e-07,1.2531895740922006e-06,-1.393423133555089e-06,-7.069983609442568e-07,-5.670036133436286e-07,-1.7537989429662374e-06,-6.107159010761554e-07,1.4418484331617902e-06,-1.622996195708655e-06,-1.373125259839841e-06,7.557201024012963e-07,1.1898896010024874e-06,7.483237984488612e-07,6.300375680092393e-08,6.514943902183129e-07
-1.4408063466799625e-06,-5.747449508289341e-07,-9.616036458744806e-07,5.27523953754199e-07,1.261525332611673e-06,-1.3946142690137579e-06,-7.383641774111282e-07,-5.098184258590458e-07,-1.7183234735799089e-06,-5.314371627042356e-07,1.3123355293456726e-06,-1.4998953294669404e-06,-1.1985492120232829e-06,6.926604375829428e-07,1.228461263576748e-06,9.232999892376033e-07,6.339610516369508e-08,5.242320366750691e-07
-1.420944550230699e-06,-4.958788848587425e-07,-9.175716602843633e-07,5.627335925811239e-07,1.2801360471320832e-06,-1.37515435014168e-06,-7.629882365130459e-07,-4.5149834035133937e-07,-1.6764579617634164e-06,-4.4913125876001276e-07,1.1866765652675604e-06,-1.3492350818448491e-06,-1.0495723000769444e-06,6.586628748531821e-07,1.2167499656931114e-06,1.0620303809324681e-06,4.1865592599071524e-08,4.100688539616229e-07
-1.4075058416520227e-06,-4.245527688258493e-07,-9.364796511625048e-07,6.020241397318625e-07,1.2992466645445122e-06,-1.324746081752941e-06,-7.847004335861852e-07,-3.532605340951119e-07,-1.623069670204262e-06,-4.1084958341646114e-07,1.1075145727664423e-06,-1.2934105776797786e-06,-9.571617694426345e-07,6.47354976027711e-07,1.1820664228269054e-06,1.1620076319399284e-06,1.0447855419406788e-08,2.735589873575689e-07
-1.3737964616248982e-06,-3.319618540028896e-07,-1.011602268208511e-06,6.620696116041715e-07,1.3456541069156187e-06,-1.2777433078187363e-06,-8.255235614776555e-07,-2.8132107187140733e-07,-1.5409565561069063e-06,-4.177641324269908e-07,1.020823900295035e-06,-1.214840436870447e-06,-8.479174186436261e-07,6.579566853531949e-07,1.1224548204793487e-06,1.0874087404763367e-06,-3.5448994567437324e-08,1.3880479461207779e-07
-1.3406984481126476e-06,-2.2684721655097392e-07,-1.0610818039828081e-06,7.11483121702599e-07,1.347670656755515e-06,-1.2823336630846171e-06,-8.844285732861155e-07,-2.621477477465596e-07,-1.4846830187795038e-06,-4.6388575289823593e-07,9.666370692378705e-07,-1.0850721225774091e-06,-7.398971672582748e-07,6.877567006329218e-07,1.0011066415692823e-06,1.0414882917598024e-06,-8.609966955188477e-08,1.7738664876944774e-08
-1.344449495589654e-06,-1.2194551992333833e-07,-1.1101456844338493e-06,6.608670245692344e-07,1.2391434046782367e-06,-1.243635209794759e-06,-9.511840239962857e-07,-2.5371572463304963e-07,-1.4569323014721696e-06,-5.08201392486491e-07,1.0001094425157936e-06,-1.042557284591907e-06,-6.52150507233656e-07,6.915065726064524e-07,9.669927208265844e-07,1.0560428057975485e-06,-1.1955533657274967e-07,-9.189024707316036e-08
-1.4193695104330562e-06,-4.7269368227988986e-08,-1.1358758437640141e-06,5.962681340734349e-07,1.0823000723537163e-06,-1.2007445610280787e-06,-1.026649360872768e-06,-2.6489939946926307e-07,-1.428039300133453e-06,-5.345700616662615e-07,1.024180941586467e-06,-9.726293517312769e-07,-6.345564672652234e-07,6.517637770172264e-07,9.481060138842386e-07,9.321735106985415e-07,-1.6936822867372277e-07,-1.4817666473064105e-07
-1.5521745406894422e-06,-1.647210399923248e-08,-1.1500114051781363e-06,5.281654211199931e-07,9.520740866886122e-07,-1.1252776942956846e-06,-1.1057653223598014e-06,-2.724941193272282e-07,-1.4016804678853885e-06,-5.684940623673467e-07,9.841794934547058e-07,-8.989523194620492e-07,-6.99984665207791e-07,5.724338877277372e-07,9.111620326045914e-07,7.804412305424433e-07,-2.2858924128464601e-07,-2.0386914198305812e-07
-1.6745649347291163e-06,3.0763407725887347e-08,-1.1958296588828458e-06,3.8996424190011064e-07,8.147507973147566e-07,-9.902874956946512e-07,-1.2143130346258642e-06,-2.602677818666284e-07,-1.3796941433260142e-06,-6.082557676998424e-07,9.067111851616976e-07,-9.279262052993863e-07,-7.957985993407188e-07,4.619864545875301e-07,8.950727612847362e-07,6.090709391359828e-07,-2.9403635941090694e-07,-2.7476389765319317e-07
-1.776700546255659e-06,4.893518786962292e-08,-1.262968462103444e-06,2.7085753603284893e-07,7.371062469984956e-07,-9.093012463025038e-07,-1.3336124919093285e-06,-2.8258350275994e-07,-1.3836354466288233e-06,-7.045474956762096e-07,8.237744957831678e-07,-1.0460818252300055e-06,-8.65965518152486e-07,3.1844655765209186e-07,8.091077350167623e-07,4.3188635216987e-07,-3.460126687050055e-07,-3.051983575818675e-07
-1.8353249783348823e-06,4.703623926733513e-08,-1.3298264631191203e-06,1.7856999517339524e-07,7.037815544287015e-07,-8.63236900792929e-07,-1.4658515039508692e-06,-3.103755020527368e-07,-1.4062598401458324e-06,-7.827242376892233e-07,7.336231522073907e-07,-1.1386172136844349e-06,-9.86665694770525e-07,1.8950545187881796e-07,6.738659105226472e-07,2.2447331899630336e-07,-4.4900425348402817e-07,-3.3669523215817954e-07
-1.8642761130791522e-06,3.889391160630904e-08,-1.3951842907704944e-06,7.930610544173239e-08,6.619075030818104e-07,-8.763147485173873e-07,-1.5714142232179182e-06,-3.478882987112578e-07,-1.4226733098086505e-06,-7.89497772161762e-07,6.458048263925716e-07,-1.2389837644148862e-06,-1.0994857972038961e-06,1.1372573414608188e-07,5.859889655244619e-07,5.988948958413291e-09,-5.218724522266992e-07,-4.399275044627031e-07
-1.931100586030788e-06,-2.2895875352395238e-08,-1.4526179181322238e-06,4.8672813684983274e-08,5.878622435127755e-07,-8.820012619055951e-07,-1.6353076040255275e-06,-3.6084748431575227e-07,-1.3991855076374716e-06,-7.999747168840225e-07,5.87411212802574e-07,-1.3157185384160269e-06,-1.0965799455832843e-06,5.418067150608045e-08,5.125156599934821e-07,-2.084882409819616e-07,-5.180631636601096e-07,-5.642753572469628e-07
-2.0349592466243435e-06,-7.707311742145466e-08,-1.4938696467711367e-06,3.221391944499683e-08,5.266398663478546e-07,-8.895859152510925e-07,-1.6631774170696426e-06,-3.5412636770425036e-07,-1.36117476700653e-06,-8.181142412631719e-07,5.620039381295897e-07,-1.3280680052400666e-06,-1.029849914792169e-06,-1.0487173050928066e-08,4.6197419912943366e-07,-4.0143782603446437e-07,-5.250532499403064e-07,-5.375558358921076e-07
-2.150673388015307e-06,-1.1079511184876927e-07,-1.507948504254274e-06,-1.377557412150885e-07,4.866914399676424e-07,-8.85667666202115e-07,-1.6478138147906337e-06,-4.0603388081023634e-07,-1.3468460787131188e-06,-8.44266301866768e-07,5.70040753999286e-07,-1.3132601098173614e-06,-9.867244743846322e-07,-9.254650433923917e-08,3.9017096734629965e-07,-5.022448324442059e-07,-5.358451195213133e-07,-4.722088940600488e-07
-2.25646480499953e-06,-1.3836320737159162e-07,-1.5182996518303862e-06,-2.780555307743809e-07,3.993050825470972e-07,-8.6465651703289e-07,-1.6015440058548334e-06,-4.80676738123915e-07,-1.3410211329616856e-06,-8.426719381878853e-07,6.090900476876491e-07,-1.2809488947933707e-06,-9.57444490391871e-07,-9.790645760520289e-08,2.8278947085699966e-07,-5.511125666548334e-07,-5.619669498670373e-07,-4.323721093610583e-07
-2.301926469468774e-06,-1.197354502389024e-07,-1.526345829503424e-06,-4.0646532713876216e-07,3.5047350642242465e-07,-8.306512854465614e-07,-1.5257295112775565e-06,-5.131091682930535e-07,-1.3241605038374097e-06,-7.830414923628254e-07,6.627139927542332e-07,-1.2329691918105597e-06,-9.352178844984491e-07,-5.1779915560041734e-08,1.9013356650263664e-07,-5.761169243300828e-07,-5.510975575169908e-07,-3.1754305416216164e-07
-2.3174524267980497e-06,-6.884425759798473e-08,-1.5371515341953127e-06,-5.259726109798392e-07,2.9404111411653376e-07,-7.834067394807071e-07,-1.4587637346377729e-06,-5.438883529712139e-07,-1.2939497024876162e-06,-7.313065024572502e-07,7.23693014077486e-07,-1.187197514778644e-06,-9.157747365153857e-07,-2.7168497744236604e-08,1.0202622799791497e-07,-5.89264461236286e-07,-5.004719353545779e-07,-1.496626805622257e-07
-2.3286155762961267e-06,-8.362493023126323e-09,-1.5699041082512444e-06,-6.082283042717772e-07,2.0906625501013933e-07,-7.39047960604607e-07,-1.3736148752622225e-06,-5.374634981210005e-07,-1.194822923433148e-06,-6.62812988812798e-07,7.85895262466873e-07,-1.1389685940838703e-06,-8.985594548824926e-07,2.1929899256950107e-08,1.3089376710282306e-07,-5.930671988860185e-07,-4.5634554875137945e-07,1.8251756944682094e-09
-2.3636556731066956e-06,6.750696277595507e-08,-1.6214412622620684e-06,-6.271289172110108e-07,1.3459601629686107e-07,-6.999444618201779e-07,-1.2840132881085562e-06,-5.008583839419053e-07,-1.0910140448723814e-06,-5.774614370995163e-07,8.421655183090601e-07,-1.083947605763794e-06,-8.792238418501115e-07,5.568679745099641e-08,2.0429012686017706e-07,-5.828172142926633e-07,-4.0653472896205465e-07,1.201113565324513e-07
-2.4294836610151133e-06,1.4518171611517754e-07,-1.6513996053996582e-06,-6.08746129660471e-07,4.2527748628169356e-08,-6.63420531077067e-07,-1.2022651770378223e-06,-4.5155218292553746e-07,-9.87864237339709e-07,-5.158998031154136e-07,8.897460097580874e-07,-1.023408309800943e-06,-8.584262129701997e-07,6.959323960030496e-08,2.8891383964818806e-07,-5.565719712363823e-07,-3.496487429817075e-07,2.2766714072113757e-07
-2.507030566999811e-06,2.2169114551415227e-07,-1.663909667154419e-06,-6.065442327408516e-07,-6.131130996531294e-08,-6.302516129938563e-07,-1.113931816395527e-06,-3.8951544502210433e-07,-8.78615296508049e-07,-4.6752755287240594e-07,9.274099433382332e-07,-9.548652971130393e-07,-8.334892509073342e-07,6.954816644461886e-08,3.931774700531586e-07,-5.136332683994903e-07,-3.1216534019527715e-07,3.0754562358086383e-07
-2.5881806300881514e-06,2.96959106921247e-07,-1.6488816333175418e-06,-6.192005353968449e-07,-1.6333837886184414e-07,-5.999976524136078e-07,-1.0255876460104622e-06,-3.412905243103809e-07,-7.984669321529165e-07,-4.2961276825063867e-07,9.565883894741553e-07,-8.784078732194575e-07,-7.991534710133785e-07,6.469852534080852e-08,4.56139423523148e-07,-4.7185494962873396e-07,-2.8107404700722363e-07,3.679970781020027e-07
-2.659491581331668e-06,3.6830989117697406e-07,-1.5921246135202783e-06,-6.378046922558176e-07,-2.0144357848088373e-07,-5.5816606796552e-07,-9.317132146871091e-07,-2.9553326077124755e-07,-7.31334543739962e-07,-3.982650416905856e-07,9.806393989831062e-07,-7.960078578639774e-07,-7.540408511322692e-07,6.985416057849651e-08,4.98607476240218e-07,-4.252445342877457e-07,-2.5143511513511837e-07,4.2309633433100323e-07
-2.7208448836669814e-06,4.4141230200415286e-07,-1.4964873669940805e-06,-6.338408256216285e-07,-2.077858763072585e-07,-5.104323700161986e-07,-8.283568132498117e-07,-2.387049356272669e-07,-6.66699559897603e-07,-3.602996032787936e-07,1.0031442390821449e-06,-7.099001531690199e-07,-7.004338374756926e-07,8.441053967529996e-08,5.432406823942662e-07,-3.7125961624400996e-07,-2.2003143944895848e-07,4.899365745128487e-07
-2.7670116939099767e-06,5.161118746107509e-07,-1.3720259524381603e-06,-6.032290825143194e-07,-1.8849366091952007e-07,-4.6055110573321704e-07,-6.986434631434935e-07,-1.7275319126061548e-07,-6.053423689656756e-07,-3.1633890435596473e-07,1.0267172057810371e-06,-6.216273869437502e-07,-6.379459260307153e-07,1.0978441073709448e-07,5.941927588539631e-07,-3.220070147367032e-07,-1.8110518151669838e-07,5.702879913516657e-07
-2.7929236941918065e-06,5.920600527169142e-07,-1.228798880468473e-06,-5.335890088978621e-07,-1.5085029054104843e-07,-3.998773838096439e-07,-5.736071107911574e-07,-9.850655222549895e-08,-5.389884915276921e-07,-2.687880080186981e-07,1.052244804077643e-06,-5.30792578869757e-07,-5.740246312201013e-07,1.415995550845532e-07,6.536611135134778e-07,-2.418058782211027e-07,-1.3786132829698697e-07,6.591706404234716e-07
-2.800899796996438e-06,6.68754410367145e-07,-1.0758148028753751e-06,-4.690504010464164e-07,-1.0236912327710204e-07,-3.3508014550171043e-07,-4.565664026350159e-07,-2.0680283379448398e-08,-4.7215912835718503e-07,-2.1902301318599608e-07,1.0794120685119826e-06,-4.3585287266633156e-07,-5.059377011572586e-07,1.7863692470995758e-07,7.181536636069238e-07,-1.4244219700902627e-07,-9.376894465525609e-08,7.512167883182148e-07
-2.7876480010556667e-06,7.434423924527203e-07,-9.472533593386262e-07,-4.1659151460788626e-07,-4.4188690169334896e-08,-2.7089631960283733e-07,-3.44433790353414e-07,5.6420818394963e-08,-4.091885063991436e-07,-1.7010789548860568e-07,1.107599904518076e-06,-3.345939048171609e-07,-4.3477012690373805e-07,2.2014536252182008e-07,7.840391320973179e-07,-3.421811133564546e-08,-5.284643109611471e-08,8.35067803483771e-07
-2.7599984502706524e-06,8.160977581133696e-07,-8.314423906776698e-07,-3.6153657037298735e-07,2.6114847216559742e-08,-2.1029921396550742e-07,-2.483067546218708e-07,1.3193569540237943e-07,-3.475842495965257e-07,-1.253430634020069e-07,1.1360212046070573e-06,-2.2648601149224837e-07,-3.6492597317551203e-07,2.634715890277659e-07,8.464939171478976e-07,8.643856941981025e-08,-1.6352600679465074e-08,9.034293455339166e-07
-2.730044453427988e-06,8.853964306765401e-07,-7.284130261810756e-07,-3.1335663800283325e-07,1.0672652242441606e-07,-1.5555281603313448e-07,-1.627688906863768e-07,2.0190098048491065e-07,-2.9198660080281254e-07,-8.72020123929816e-08,1.1637667464836207e-06,-1.1384849442084138e-07,-2.886282629659214e-07,3.0600717646915905e-07,9.032784893481462e-07,2.055059183392124e-07,1.2353514222481578e-08,9.538177493104977e-07
-2.703675060166279e-06,9.50365306597694e-07,-6.431854338615382e-07,-2.64037028119048e-07,1.5840099042549372e-07,-1.0623911985646806e-07,-9.033499155594869e-08,2.640592519218664e-07,-2.4473267465968287e-07,-5.611960748130906e-08,1.1905595314177485e-06,-1.2399290293278644e-10,-2.189397323652351e-07,3.4635069663521156e-07,9.512645453046568e-07,3.271560755754562e-07,3.1945681083109656e-08,9.857138178730877e-07
-2.684129663411376e-06,1.010369786316759e-06,-5.667594657438513e-07,-2.2195704879654496e-07,1.9818426535611298e-07,-5.932258674512185e-08,-3.060991507497474e-08,3.180469252326187e-07,-2.040023924337449e-07,-3.0090723872452726e-08,1.2171603244651393e-06,1.116466915253538e-07,-1.5835025468329624e-07,3.8447674959964334e-07,9.898754356928128e-07,4.5075975728700294e-07,4.476808833648298e-08,1.0040647198242195e-06
-2.6650840315104702e-06,1.067902834190678e-06,-4.968476203659384e-07,-1.8550480187048367e-07,2.3790444688361563e-07,-1.152450171915168e-08,1.527569178524412e-08,3.6609912911075813e-07,-1.703804201308045e-07,-5.66937321850488e-09,1.2444385080614597e-06,2.1873813584238885e-07,-1.0351091628056557e-07,4.2061691535367135e-07,1.0204517300486422e-06,5.742829983106333e-07,5.042380232722847e-08,1.0159119579831096e-06
-2.645582132064372e-06,1.1242210204615205e-06,-4.313742849700354e-07,-1.5681626976217575e-07,2.7839388962980364e-07,3.6766006373413676e-08,5.5897368479533356e-08,4.162239152676216e-07,-1.4201513125372e-07,1.856289091472928e-08,1.2722609112232748e-06,3.1902034623811943e-07,-5.370440700027524e-08,4.5430785820890666e-07,1.0438067805854472e-06,6.866108764804017e-07,5.172897963908818e-08,1.0263527338543197e-06
-2.6230267478421518e-06,1.1789367581358628e-06,-3.709252171997932e-07,-1.2618009941616862e-07,3.237049266797712e-07,8.653778187532848e-08,9.060957730671427e-08,4.6556198426407183e-07,-1.1754297306965392e-07,4.137644500642494e-08,1.2995412979247387e-06,4.117453351485334e-07,-6.67366792454531e-11,4.848149935757902e-07,1.0604290191160968e-06,7.838094050620794e-07,5.04881026733093e-08,1.0380508536633498e-06
-2.5959072111531787e-06,1.2317153087231604e-06,-3.1115272889158537e-07,-9.324101433755193e-08,3.724500394807404e-07,1.424646946113588e-07,1.1535460760013192e-07,5.126325509529559e-07,-9.836890740271049e-08,6.203225000831203e-08,1.3248365920869087e-06,4.967180189086153e-07,5.621859969589491e-08,5.117977912399634e-07,1.070520028561253e-06,8.664819268481376e-07,4.638714883797302e-08,1.0514220449665067e-06
-2.5651001336051557e-06,1.2808104100596705e-06,-2.585667985416782e-07,-6.395376754211442e-08,4.1879528289409e-07,2.0436073338785863e-07,1.2945587359960817e-07,5.555718896746711e-07,-8.71202044053221e-08,7.843650473635796e-08,1.3466091162687538e-06,5.726708977844028e-07,1.1060476532997653e-07,5.349968814271892e-07,1.073487890625521e-06,9.356675821314539e-07,3.8896096408928294e-08,1.0651960572393774e-06
-2.529886623269281e-06,1.3245253696907704e-06,-2.15514387006006e-07,-3.6920326405714866e-08,4.589981913643867e-07,2.6761547899598027e-07,1.2859901142571033e-07,5.85287788730191e-07,-8.530392584581968e-08,8.815219737556507e-08,1.36384311918262e-06,6.357662162795037e-07,1.5493549230682555e-07,5.508086482246237e-07,1.0687408349946057e-06,9.945499791890144e-07,2.788540688797523e-08,1.0776365749891682e-06
-2.490751347015863e-06,1.3607956222485743e-06,-1.796897177256676e-07,-1.2926173548042266e-08,4.972067719338382e-07,3.252453163234125e-07,1.1446832196601248e-07,6.034939206552838e-07,-9.207963613631457e-08,9.107621300349366e-08,1.377419171349999e-06,6.84470027962561e-07,1.84740613537037e-07,5.62477122229426e-07,1.0579842066481593e-06,1.044520074260277e-06,1.5207102244697804e-08,1.0905201670397567e-06
-2.448116121777596e-06,1.3897036390761798e-06,-1.495737535023244e-07,1.2563627141046738e-08,5.276291416152064e-07,3.7528243486639585e-07,9.413934687167216e-08,6.142036154110688e-07,-1.0281966511259553e-07,8.983114112932421e-08,1.390553684045016e-06,7.181295187768197e-07,2.0110930306176606e-07,5.750831316546468e-07,1.045965105657699e-06,1.0912404594848522e-06,5.166397771970713e-09,1.1085366678664988e-06
-2.4027475171755715e-06,1.4148656388182756e-06,-1.1289192810755805e-07,4.7552064619593585e-08,5.509328898231082e-07,4.1959341583818957e-07,7.813633948808467e-08,6.228794439206092e-07,-1.1050143034769002e-07,8.856357207879617e-08,1.4068265666344644e-06,7.385146297799245e-07,2.0488581380110532e-07,5.913697533922077e-07,1.0379868506715925e-06,1.1417817121770106e-06,2.106255716953804e-09,1.1358250371564121e-06
-2.3554183871523146e-06,1.4412705987974857e-06,-6.26777222766322e-08,8.785400460415684e-08,5.725116542895783e-07,4.590648596633984e-07,7.315306444350877e-08,6.352162978614681e-07,-1.1156132051522351e-07,9.060522244257791e-08,1.4274257991489802e-06,7.491547356396151e-07,2.0094808719955107e-07,6.115329032265135e-07,1.0369195364000838e-06,1.1882726667161156e-06,6.91040730251582e-09,1.172952153788184e-06
-2.311613292807366e-06,1.4690456817894417e-06,2.719523568763967e-10,1.323259274919218e-07,5.877715372992986e-07,4.964337089977651e-07,8.001939023242183e-08,6.528965927736318e-07,-1.0612866347157398e-07,9.75320037882656e-08,1.4506063285008135e-06,7.531602207468469e-07,1.9246226156653948e-07,6.312621357301108e-07,1.0428850015365635e-06,1.2280497173182048e-06,1.7189875145683275e-08,1.2164450107820241e-06
-2.277017127558965e-06,1.4983489948617914e-06,7.340608433665489e-08,1.778935767231112e-07,6.008038793324276e-07,5.283320205855328e-07,1.003431277362697e-07,6.753749858916847e-07,-9.637036155579353e-08,1.0990838124197107e-07,1.4723305653400326e-06,7.551601960199174e-07,1.8547757330893322e-07,6.462388801218078e-07,1.0547897630970912e-06,1.2585598923733163e-06,2.96832715099409e-08,1.2613183129328738e-06
-2.2513902814005923e-06,1.5290656635490941e-06,1.52457249030815e-07,2.1948244835090853e-07,6.171400201472885e-07,5.61431515027135e-07,1.279426988147347e-07,7.012374960513191e-07,-8.068633719123126e-08,1.2726465689469204e-07,1.4921295852386678e-06,7.59883663495144e-07,1.885606045333188e-07,6.544754760324987e-07,1.0710269465234159e-06,1.2758260849479138e-06,4.07296037324867e-08,1.3028897466177777e-06
-2.2344484310636297e-06,1.5595449654559392e-06,2.3354837588884864e-07,2.5700767393585306e-07,6.402359184253628e-07,5.944236932673485e-07,1.55587531103085e-07,7.292076787717485e-07,-6.323506613152889e-08,1.4566075270261348e-07,1.508928168590208e-06,7.644894492251263e-07,1.920478425946151e-07,6.56580620415584e-07,1.0894430702401934e-06,1.2778934201509215e-06,4.743442867515175e-08,1.3373985156833056e-06
-2.2249205907546556e-06,1.5887606002314993e-06,3.1567484935089063e-07,2.9134144031690345e-07,6.801166665444115e-07,6.254068675568283e-07,1.7813721738167945e-07,7.550251344732826e-07,-4.844590896983215e-08,1.6094147213833404e-07,1.5223319662161945e-06,7.663331483541802e-07,1.9556467644416429e-07,6.538748349447293e-07,1.1084638690273551e-06,1.267583931700713e-06,4.8022230622401794e-08,1.36303974656373e-06
-2.218954684705806e-06,1.6157510179039018e-06,3.993754972014276e-07,3.2629338792486024e-07,7.404316574569431e-07,6.561560513160065e-07,1.910791545188326e-07,7.785962238830058e-07,-3.611433139240883e-08,1.6924910884414843e-07,1.534515997155468e-06,7.638502291239126e-07,1.818274920292611e-07,6.497582940298158e-07,1.1286462813822653e-06,1.251258106393531e-06,4.222503637923003e-08,1.3808468604249083e-06
-2.2316759165820383e-06,1.6404859501361257e-06,4.862320481204559e-07,3.6738820266277856e-07,8.222343200902893e-07,6.802782091750865e-07,1.9540897563580698e-07,7.964422894611958e-07,-3.05462594286991e-08,1.6353680036878208e-07,1.5480589100908954e-06,7.57431764724625e-07,1.656475284206114e-07,6.48712573096473e-07,1.1519268638553395e-06,1.2352036720837326e-06,3.11263969063012e-08,1.3935134970238842e-06
-2.236951246090214e-06,1.6645907424491022e-06,5.779530033942947e-07,4.201731101876739e-07,9.267779741259263e-07,7.036088100879903e-07,1.9511145701941569e-07,8.090636106807586e-07,-2.8869817632908303e-08,1.472669692894414e-07,1.5650832514737286e-06,7.507416569126018e-07,1.5365625196205162e-07,6.529638491783513e-07,1.1788049771077115e-06,1.2255842688597571e-06,1.5010738599572295e-08,1.402909805262613e-06
-2.2345052520672916e-06,1.6905888465943981e-06,6.724704988518582e-07,4.827288960329496e-07,1.0493048073574602e-06,7.574868986506719e-07,1.9311438323890975e-07,8.200171350153719e-07,-2.4700755860543588e-08,1.3178224732685633e-07,1.5851561072255884e-06,7.569868358139547e-07,1.47975487614874e-07,6.617217257897791e-07,1.2069391004062478e-06,1.2202617557693e-06,-6.59384102285975e-09,1.409482052815084e-06
-2.2355080678216602e-06,1.7204510334561137e-06,7.545508363495303e-07,5.47320109384529e-07,1.1645660621613326e-06,8.468579057851707e-07,1.9052854890239727e-07,8.334360963050588e-07,-1.637899197174191e-08,1.1769654508711608e-07,1.6055769261477597e-06,7.870413555580647e-07,1.7205328203972765e-07,6.722354778326435e-07,1.2324624701353047e-06,1.2129442332985456e-06,-3.259242001053283e-08,1.4141627988179229e-06
-2.2429997169111235e-06,1.757240458311326e-06,8.239745945131024e-07,6.03887980250111e-07,1.273634927419243e-06,9.831419910442277e-07,1.902027030487627e-07,8.558041425475982e-07,-2.602725843748175e-10,1.0322762314825e-07,1.6214035958901857e-06,8.546406383044786e-07,2.1957200747133278e-07,6.811962495571771e-07,1.251373181404462e-06,1.1960254911270182e-06,-6.260573013289227e-08,1.4195983512346118e-06
-2.276128295903821e-06,1.8048500876769637e-06,8.819947734959893e-07,6.41351887092249e-07,1.373421625287703e-06,1.1893824788155426e-06,1.9392119478544812e-07,8.929531993282117e-07,2.437975622461511e-08,9.72876208926823e-08,1.6244564469853963e-06,9.731477804066403e-07,3.3005867280042796e-07,6.820259441868697e-07,1.2592992896606876e-06,1.1636427245427274e-06,-9.384059515192294e-08,1.4299752992304473e-06
-2.344677881074376e-06,1.8653262316439214e-06,9.257966769854379e-07,6.507467885070821e-07,1.440654879717765e-06,1.317016580337101e-06,1.9957203669671483e-07,9.478058216019191e-07,5.336066317405375e-08,9.613631322996958e-08,1.607696645830854e-06,1.1239643433256292e-06,5.10309958295682e-07,6.726655927645514e-07,1.251597811422286e-06,1.1101351955790117e-06,-1.232322747906512e-07,1.441300635797033e-06
-2.4534691084972076e-06,1.936677121189058e-06,9.569971026940535e-07,6.269075122189472e-07,1.4736095276661288e-06,1.402967274881902e-06,2.0243106692852514e-07,1.0137062449813422e-06,6.893050144687414e-08,1.2051020887509576e-07,1.5641666794842472e-06,1.30097484648915e-06,7.538154486607238e-07,6.480182564164375e-07,1.2252368730024015e-06,1.0337047480691941e-06,-1.5185820128992423e-07,1.4513184247090757e-06
-2.5649265018370474e-06,2.013340478962129e-06,9.854815461206225e-07,5.701599534547497e-07,1.4346110892116546e-06,1.6045532195746442e-06,2.0646173134353225e-07,1.0845441019532182e-06,5.3377306068460525e-08,2.1250838253535997e-07,1.488627569036749e-06,1.4959130461710596e-06,1.0513405527321517e-06,6.039110855601386e-07,1.1803495465415601e-06,9.407517604269199e-07,-1.7677564325790366e-07,1.4573286542166037e-06
-2.716876045210748e-06,2.0755419569618483e-06,1.0099494752498348e-06,4.860977871765541e-07,1.3039234211116017e-06,1.8055716013720985e-06,2.0583974292722152e-07,1.1527993931340995e-06,1.3120565785954446e-08,3.3588006609423235e-07,1.3813455518455612e-06,1.683513805331493e-06,1.3395134854598008e-06,5.399988766188423e-07,1.1195595882438229e-06,8.416078371238589e-07,-1.964131994709952e-07,1.4490269406817191e-06
-2.8770381673474205e-06,2.129478997925789e-06,1.0300464694063583e-06,3.8312032095196127e-07,1.308018999394683e-06,1.938029237285896e-06,1.990942252568253e-07,1.210498426527055e-06,-2.213090989137646e-08,4.5390861219325556e-07,1.2409035669287437e-06,1.8117255965493782e-06,1.6057422043894924e-06,4.5414184938329877e-07,1.0467651605388888e-06,7.491398865831225e-07,-2.115475429218047e-07,1.4182787217593585e-06
-3.0221064096884244e-06,2.168086871183566e-06,1.0535671956230868e-06,2.7049077336554584e-07,1.3714072460003963e-06,1.970828206807364e-06,1.8792951686371384e-07,1.2534905231979124e-06,-4.323671863126053e-08,5.57441905295025e-07,1.084452767707125e-06,1.8835379479364853e-06,1.8095804558614153e-06,3.5233808960201405e-07,9.67305990574318e-07,6.762256297602892e-07,-2.2254061376276959e-07,1.3586000773210257e-06
-3.155637379473743e-06,2.184659329177923e-06,1.0792259260412408e-06,1.5774871058030711e-07,1.409935278152195e-06,1.9320553015134634e-06,1.7644157125274388e-07,1.2812387391579936e-06,-7.341427580004296e-08,6.239640245823501e-07,9.109238673963908e-07,1.8397769456499026e-06,1.895918229177896e-06,2.487774624725491e-07,8.881483437962109e-07,6.326994904409454e-07,-2.268331126487113e-07,1.2739338192550058e-06
-3.2519118251468947e-06,2.1856645834266133e-06,1.1074086989346244e-06,5.6628817354257284e-08,1.4366752972327357e-06,1.9087323830928046e-06,1.769015920883015e-07,1.2966424589915891e-06,-1.6912244489538598e-07,6.59429641333667e-07,7.549608053423057e-07,1.6803654326163598e-06,1.8584093830727647e-06,1.7640793437734217e-07,8.164170097560221e-07,6.222921937099721e-07,-2.2503110699814576e-07,1.1669785853963764e-06
-3.2865673071731175e-06,2.172927511013773e-06,1.1276719021076174e-06,-2.4779343914358183e-08,1.3774871583195306e-06,1.873426850023913e-06,1.894660001491127e-07,1.3028614342538502e-06,-2.623742759945928e-07,6.51009852679308e-07,6.555826061990688e-07,1.6595174707171377e-06,1.764216841672197e-06,1.4283123689121201e-07,7.578632081578525e-07,6.367384313752129e-07,-2.1942549894134403e-07,1.097340634625651e-06
-3.2452654193060124e-06,2.1484079332275286e-06,1.139623587226747e-06,-7.769739345597624e-08,1.2510398972192098e-06,1.8149091816562294e-06,2.132328204502882e-07,1.3022400322806673e-06,-3.393559094946322e-07,6.22708568195147e-07,6.33802289787621e-07,1.6220200006539906e-06,1.6704095389451397e-06,1.7459059864427325e-07,7.16011270156066e-07,6.629498152794482e-07,-2.035670851122783e-07,1.1183827313381117e-06
-3.2209219680800946e-06,2.119119558924173e-06,1.1430365426858071e-06,-9.71323702599417e-08,1.0977605390029689e-06,1.760313890838188e-06,2.424219947281495e-07,1.297512616019794e-06,-4.0540999016249363e-07,6.150807421649484e-07,6.343395557490485e-07,1.5457121024144235e-06,1.652099345846968e-06,1.727296899418789e-07,6.956283920923069e-07,6.860008630316201e-07,-1.7762836791583665e-07,1.182740128524535e-06
-3.2084712366297776e-06,2.112206957556833e-06,1.1389858819729702e-06,-7.583875135261367e-08,9.318826076519701e-07,1.7078436114097775e-06,2.7058365302146095e-07,1.2877748008112833e-06,-4.337723672997632e-07,6.289933206301716e-07,6.219859832997505e-07,1.5073043192768144e-06,1.6326031429568883e-06,1.1755256647851436e-07,7.00094347608445e-07,6.91135043695204e-07,-1.4249257050105951e-07,1.30461428729093e-06
-3.2510774547707333e-06,2.093771875974968e-06,1.128809197465788e-06,-1.0318914328296504e-08,8.220491781725738e-07,1.6785196957803034e-06,2.917214115803503e-07,1.272193660026724e-06,-4.413462023386007e-07,6.138377413275946e-07,6.053899861887556e-07,1.4540426277768176e-06,1.6343363631854378e-06,1.7242654934797267e-07,7.286871115485749e-07,6.668406286500797e-07,-9.661235310003052e-08,1.3850855689921185e-06
-3.3079421789856084e-06,2.062752225426488e-06,1.118039680777251e-06,8.820076539717584e-08,7.511260083312925e-07,1.6115916459081633e-06,2.9772523578161265e-07,1.2479721571208331e-06,-4.3880836410937894e-07,6.087260200300931e-07,5.694003054275179e-07,1.4047785381873672e-06,1.6050146855983435e-06,2.7080992985122955e-07,7.773882896419714e-07,6.076790881615794e-07,-5.2335931150697955e-08,1.4638831986895228e-06
-3.350830217582026e-06,2.0227860374794274e-06,1.0923260209916067e-06,2.0325343159353682e-07,6.915312495494816e-07,1.574789993558129e-06,2.825368741401333e-07,1.2129242036993727e-06,-4.352742468823832e-07,5.553599715705186e-07,5.88494160208182e-07,1.312257090738006e-06,1.5103187505251367e-06,3.3978151218004254e-07,8.388363356202395e-07,5.171069007397257e-07,-9.227437383521468e-09,1.6485502626014073e-06
-3.2891381092028865e-06,1.9655362988252987e-06,1.0563836533421865e-06,2.8975309218607477e-07,6.680076789885714e-07,1.485929196460614e-06,2.4333627482882083e-07,1.1745049461025417e-06,-4.4591733794759576e-07,4.940440948676504e-07,6.759862756622997e-07,1.2192023387500415e-06,1.3580815389051112e-06,4.170260903726607e-07,9.053343139257618e-07,4.059390533671313e-07,1.635643024170663e-08,1.7500676170556155e-06
-3.170462513587012e-06,1.8948564927266086e-06,1.027810452683489e-06,2.8382744438137146e-07,6.558719802493879e-07,1.463816508992568e-06,1.8398918628153216e-07,1.1371177518350828e-06,-4.702238672671996e-07,4.367606542268985e-07,7.655562024530683e-07,1.2024883940765527e-06,1.3389899182885728e-06,4.61840860665909e-07,9.706185994608053e-07,2.8559023070516085e-07,1.8287690901319916e-08,1.7630595809784603e-06
-3.059044214820364e-06,1.8287010295148315e-06,1.021550435058402e-06,2.223087222068328e-07,6.773340498031551e-07,1.4561287906687858e-06,1.0963761461123999e-07,1.104943891654686e-06,-5.064081400681904e-07,3.7699186472698877e-07,8.435202491663728e-07,1.186552115787491e-06,1.3102351835660901e-06,4.703012557634377e-07,1.0306405813347166e-06,1.6122844817921428e-07,-2.284569132183397e-08,1.7976669440866965e-06
-3.0035274527116247e-06,1.7816955462939805e-06,1.0104410033322824e-06,1.2900543211197655e-07,6.868460530229545e-07,1.4081602313189382e-06,2.33288352295158e-08,1.0749034010361165e-06,-5.525858839222722e-07,3.560504845044348e-07,9.061393942046793e-07,1.1417934382472455e-06,1.2029533464170105e-06,4.5633683500305337e-07,1.0827810146778805e-06,3.2476476683143625e-08,-1.1701608236830218e-07,1.7728741762767112e-06
-3.056817626066583e-06,1.7635163107164194e-06,9.690283559552846e-07,5.154807673723129e-08,5.931186310921604e-07,1.3960197582647484e-06,-6.918611922573296e-08,1.0640706738771108e-06,-6.050966147558172e-07,3.5416599422213844e-07,9.118941414145807e-07,1.1162321372808956e-06,1.1432408995864515e-06,4.1228722453687525e-07,1.1240994768970079e-06,-1.0267807766857642e-07,-1.7059958219803095e-07,1.7342270397698193e-06
