0,1,2,3,4,5,6,7,8,9,10,11,12,13,14,15,16,17
-3.169923371650051e-07,-2.2455827802505518e-08,1.9931014781560292e-07,-2.658126909305626e-07,-2.5201369854384975e-07,-4.3600345525403087e-07,-5.257426577896359e-07,-1.563150214328972e-07,-4.977167971870398e-07,-4.366247366662558e-07,-5.5880352481854466e-08,-2.7307002064530047e-07,-2.257157969109241e-07,-6.422579550386192e-08,-1.389677224343152e-07,-6.261178769836514e-07,-1.7687908397600667e-07,-5.078675140100406e-07
-2.0949326662315673e-07,1.9763792514790975e-08,2.404005929789691e-07,-2.556782432584299e-07,-1.2669910731230468e-07,-3.9348441843521806e-07,-4.573939276494361e-07,-2.4114350372049486e-07,-4.0006843162424383e-07,-3.194995561430383e-07,-2.833521069147711e-08,-2.2722645422903832e-07,-2.3050941601077528e-07,-1.989686816173097e-07,-1.6131166171707376e-07,-5.234875725441189e-07,-1.6793259408328497e-07,-4.385435530111848e-07
-1.124904482515923e-07,4.136056375046754e-08,2.96718923068913e-07,-2.21367808276065e-07,1.0446331485106538e-08,-3.525567001571768e-07,-3.814872194622234e-07,-2.948612521238457e-07,-3.005397335764638e-07,-2.1468719341261458e-07,-1.188743327820354e-08,-1.7525743164852031e-07,-2.2483085047204367e-07,-2.5028902333057986e-07,-1.7154321015124275e-07,-3.830151468443621e-07,-1.5982816842299565e-07,-3.4644095884474014e-07
-5.8343993218677196e-08,1.8132616556851984e-08,3.472059041884742e-07,-1.6640793756220975e-07,1.345859972313143e-07,-3.0970111606812156e-07,-3.016950862657412e-07,-3.2129724903523686e-07,-2.0771200293805326e-07,-1.2814821324543507e-07,-2.0229274858285757e-09,-1.258794818708001e-07,-2.1129019516195545e-07,-2.797444844404055e-07,-1.7204276583336797e-07,-2.2616398926427764e-07,-1.50094163551511e-07,-2.4072483344964867e-07
-2.850312747778022e-08,2.2996189556686385e-08,3.940739637470427e-07,-1.0822589738375606e-07,2.125956700898711e-07,-2.606931916170676e-07,-2.219266214543209e-07,-2.983765761918222e-07,-1.290375884993269e-07,-7.050578708358995e-08,4.657516983598593e-09,-8.666163108771926e-08,-1.9237591894573912e-07,-3.193067836525764e-07,-1.6136801705673167e-07,-1.734101820588332e-07,-1.4013143669270682e-07,-1.5820894764517505e-07
-2.436507855106137e-08,4.614942831172564e-08,4.0267894207446767e-07,-4.481542912039582e-08,2.624898475536587e-07,-2.0323800756696175e-07,-1.457982248258719e-07,-2.3761871069105677e-07,-6.827450223542443e-08,-3.3674599231518e-08,-1.0990674816356727e-08,-5.925909698228364e-08,-1.703019514731094e-07,-2.9663379711423207e-07,-1.4145976183081095e-07,-1.942779056381419e-07,-1.301398415266877e-07,-8.147137287776714e-08
-3.3415408484372267e-08,6.469347516369225e-08,2.4871182743481956e-07,1.504449504837009e-09,2.753669224406271e-07,-1.3648256128877697e-07,-7.588820237684947e-08,-1.4085555488661535e-07,-2.3660773336058932e-08,-1.526188239274238e-09,-2.4805920992217774e-08,-3.795053654794432e-08,-1.4198693176351105e-07,-2.1466505230889883e-07,-1.2549304009678102e-07,-1.7335775765333396e-07,-1.20112101389641e-07,-5.678479098679388e-09
-2.650167656296713e-08,9.069211918379788e-09,1.3514146521866544e-07,4.019970079536293e-08,2.5118794915667096e-07,-6.16316519743464e-08,-1.223331657839921e-08,-3.488701841612209e-08,1.0044383644360906e-08,4.2121076732112435e-08,-3.21381650185211e-08,-1.6227435561703116e-08,-1.068777504728976e-07,-1.2959227643986112e-07,-1.0936498183877333e-07,-1.3898394083049065e-07,-9.830998431034645e-08,6.884988035920248e-08
1.1373011554017085e-08,-4.917721389483758e-08,9.416549512572747e-08,6.787931595821907e-08,2.0676932741334783e-07,1.899705663878332e-08,4.820798501200381e-08,3.968261590821578e-08,4.00117378383363e-08,1.1882517942246128e-07,8.312837841299084e-09,1.7778257893553447e-08,-6.002836689193823e-08,-5.415200843929386e-08,-6.867097797743427e-08,-2.4305584718317244e-09,-7.203308179772583e-08,1.527931493234531e-07
1.0140542326745322e-07,-5.869503237593828e-08,4.9977566775321775e-08,8.489641131436633e-08,1.2509339880372993e-07,1.0258327070843929e-07,1.0987763471616283e-07,1.2942412961384896e-07,7.486470460821358e-08,1.9496296301643521e-07,6.207443202617494e-08,7.439756791512354e-08,2.067033764329658e-09,5.057656579737215e-08,-1.6449259101976868e-08,1.0942234929330086e-07,-3.5751544770234033e-08,2.1928156124953513e-07
1.9366576282391386e-07,-5.4737557641960425e-08,-5.5599067630615075e-08,9.290606656941909e-08,2.5745688375969183e-08,1.85812552430172e-07,1.7599739451395414e-07,1.759256655742533e-07,1.224084297723642e-07,2.526165140401803e-07,9.449408180864325e-08,1.4937411770459724e-07,7.751019964464929e-08,1.678951467326458e-07,4.765896328751169e-08,2.1589647967210292e-07,3.678158107214874e-08,2.627660539271118e-07
2.2668545128244381e-07,-4.443948065304575e-08,-2.3757749156570407e-07,1.048547055038195e-07,-6.89221086945734e-08,2.645106345441289e-07,2.46340597597861e-07,2.0042668213198503e-07,1.7999901779670405e-07,2.4226933699914417e-07,7.759512057879298e-08,2.1028788810934923e-07,1.615044252739723e-07,2.3601392082325095e-07,1.2551112600282356e-07,3.428615730615796e-07,1.1730553499514151e-07,2.6394921122550794e-07
2.0616599421539775e-07,-1.7448118985502204e-08,-3.939177895307413e-07,1.2491024863109674e-07,-1.395608350244844e-07,3.3323333040524887e-07,3.158377377575364e-07,2.365148335063311e-07,2.414016176593594e-07,1.3677404301717442e-07,2.9452862443535536e-08,2.4361330808159773e-07,2.442723378472649e-07,2.7872036928409587e-07,2.0804770725934614e-07,3.907248737752931e-07,1.973333128411426e-07,2.073500764111083e-07
1.1317111113295612e-07,-1.80397130296864e-08,-5.170766483548844e-07,1.4941330432631836e-07,-2.0951884632356164e-07,3.86480060634688e-07,3.7559380302327405e-07,2.6111587367813734e-07,3.0513018240445797e-07,9.515280957374637e-08,-1.3811833919530412e-08,2.1061858410252266e-07,3.2221881234675095e-07,3.077567466076745e-07,2.7801229124599053e-07,4.2747050826830467e-07,2.6666309307882635e-07,1.949844753382215e-07
2.16000592643519e-08,3.0045842994069753e-09,-6.060080996855647e-07,1.82135373504728e-07,-2.9721095748043e-07,4.2153183121733856e-07,4.1655714964623283e-07,2.889039817904751e-07,3.3618406065154547e-07,6.451029416754708e-08,-4.108662073243619e-08,7.760587632381872e-08,3.6521220681661105e-07,3.473341017749664e-07,3.078832861142136e-07,4.6467874374317934e-07,3.0666320550128363e-07,2.0226670634790395e-07
-6.396147720592157e-08,3.9823082311474375e-08,-5.982057316604948e-07,2.1360843042325182e-07,-4.1035557917109e-07,4.406423657829022e-07,4.3375295413545047e-07,3.933611042948435e-07,3.16965695021268e-07,5.7434057052925535e-08,-5.562771226561864e-08,1.7856488442747187e-08,3.9113216240931654e-07,4.192810518270157e-07,2.995580241286224e-07,4.901904024752816e-07,3.2646527303259673e-07,2.066945447551918e-07
-1.4310830142499012e-07,5.219500875471888e-08,-5.768542004575491e-07,2.4627289783926234e-07,-5.173297837399428e-07,4.5066431751964516e-07,4.2932761098392237e-07,4.749292536895045e-07,3.3396684659730637e-07,9.572941469933323e-09,-5.8114226454460876e-08,-3.744702862857455e-08,3.9172980022361986e-07,5.15364107906396e-07,2.8840321493360874e-07,5.122284971037656e-07,3.34561706106864e-07,2.3182508600685381e-07
-1.7143904317984503e-07,5.2285721416318086e-08,-5.722946446041044e-07,2.973665428166606e-07,-6.020055059010841e-07,4.6067377144931046e-07,4.140282760704348e-07,5.057950593442971e-07,2.4313379716070575e-07,-8.856808629006225e-08,-8.800002379013292e-08,-1.0021241674220931e-07,3.487110073532997e-07,5.763864208387747e-07,2.860685947309542e-07,5.095898038407172e-07,3.3240859367534787e-07,1.8205740318018025e-07
-2.3115378551560576e-07,6.826777914601078e-08,-5.450582038107504e-07,3.4855090370841847e-07,-6.057880781079265e-07,4.784381377470484e-07,4.0547558945489416e-07,5.252902779548281e-07,1.5126795987075676e-07,-1.3638587683529708e-07,-1.3131339902038983e-07,-2.0005640501764773e-07,3.1474312128600043e-07,6.129315488464952e-07,2.475387617021645e-07,5.214198967731026e-07,3.1922097697662165e-07,9.28962755487858e-08
-2.3642926160576027e-07,1.0469621517070772e-07,-5.155953756485069e-07,4.072284135301662e-07,-4.749896604038824e-07,5.070892241535167e-07,4.228185545447513e-07,5.775045253459999e-07,9.477614998165752e-08,-1.5381773396385464e-07,-1.4322440716346357e-07,-3.221264651700305e-07,2.5002048915483946e-07,6.618895794962722e-07,2.0690768037545587e-07,5.062618980845798e-07,3.075363232766909e-07,-5.161883062922877e-09
-2.972863293363356e-07,1.3143584725535535e-07,-4.893530470343054e-07,4.044390891744725e-07,-4.325140347484974e-07,5.443891234013041e-07,4.798305136940778e-07,5.835530173435701e-07,9.607470427220209e-08,-1.8052025247024749e-07,-1.6609458315302908e-07,-3.771533100451423e-07,1.7834026755520438e-07,7.085759780807175e-07,1.8611519829696922e-07,4.7224758176294303e-07,3.067592633009497e-07,-9.812552106231094e-08
-2.8539693512153943e-07,1.477250650210093e-07,-4.5744130656630905e-07,3.5457289797055243e-07,-4.031577678052125e-07,5.848065099368361e-07,5.797084620886544e-07,6.009765976475468e-07,1.1585479936743041e-07,-1.8405118857851496e-07,-2.0030427140857123e-07,-3.965664360321088e-07,1.312264847663944e-07,7.571014238260761e-07,1.5297499337815914e-07,5.641200902757101e-07,3.244349199673609e-07,-1.8890419757368822e-07
-2.802685331283402e-07,1.4639519972151348e-07,-3.8579513290843193e-07,3.2304572653218363e-07,-3.585928126455433e-07,6.223928817491694e-07,7.135867860063093e-07,6.568680501524589e-07,1.2537890293709083e-07,-1.7037254102451018e-07,-2.4994214910941954e-07,-4.1055070398548645e-07,7.545624071301596e-08,8.280125903622622e-07,1.309526015349941e-07,7.097740746561073e-07,3.5726972590789325e-07,-2.3305936085909849e-07
-3.0593489219929743e-07,1.5775993387102658e-07,-2.7365121329557683e-07,3.2634359832466267e-07,-3.4041665445059666e-07,6.527445424208127e-07,8.629921319163628e-07,6.763628648533884e-07,2.170816247500057e-07,-1.6978450146918727e-07,-3.067217973055211e-07,-4.082268047202927e-07,5.027045867106975e-08,8.68783218586315e-07,1.1943251141142747e-07,7.43556035020216e-07,3.9303562580999457e-07,-2.3943599657045553e-07
-3.529753233950519e-07,1.8044984335072473e-07,-1.7068995367378098e-07,3.6059343944230193e-07,-3.1440780092926167e-07,6.735952527330491e-07,1.0057897205065873e-06,7.120348464596277e-07,3.22122897521548e-07,-1.244375008687313e-07,-3.274799450437584e-07,-3.85479914138594e-07,4.394365756257015e-08,8.546156869741663e-07,1.1288227659055488e-07,6.93619353758327e-07,4.2156403910008257e-07,-2.2859426072050373e-07
-4.076995379053009e-07,2.317226711973061e-07,-3.357835387033699e-08,3.882363387438156e-07,-1.7840511739544484e-07,6.840866462716066e-07,1.122850718266858e-06,7.497401114087038e-07,3.970942771469296e-07,-2.091442095148819e-08,-3.4656345717551846e-07,-3.3619161349920736e-07,4.318977641800106e-08,8.250038107391973e-07,1.1163716797246988e-07,6.76153826559382e-07,4.35699453075086e-07,-2.050510179525199e-07
-4.0394807385037683e-07,2.8548262816553813e-07,1.0608865907506088e-07,4.085344798193954e-07,1.2253943493730294e-08,6.836255570184375e-07,1.2026243413016236e-06,7.753924236095357e-07,4.4882833448174996e-07,9.057967479004488e-08,-3.179934328687252e-07,-2.6161055355366247e-07,5.960562287907344e-08,8.179819346172912e-07,1.0524629824076733e-07,6.191303260141999e-07,4.3836644427178454e-07,-1.8885526336650492e-07
-3.8570224396481124e-07,3.230490064748436e-07,2.3452962892357357e-07,3.8804189334176097e-07,1.0813741953646987e-07,6.720458235443897e-07,1.243043751448261e-06,7.573020573282946e-07,4.785439521097302e-07,2.1109044832875546e-07,-2.990321240725569e-07,-1.616518808269443e-07,8.09779473511987e-08,8.674573679127687e-07,9.219983731898439e-08,5.165600483346236e-07,4.3389432396135385e-07,-1.6964890323137092e-07
-3.5291838565037776e-07,3.567905911209617e-07,3.6583235334842277e-07,3.665379593599539e-07,2.155369799216018e-07,6.506896202953551e-07,1.250936876221168e-06,7.014910136343564e-07,4.794501364876252e-07,3.252389812270148e-07,-2.7888384268073807e-07,-6.181067259776428e-08,1.085440810089035e-07,8.583165802823701e-07,7.427724964434683e-08,5.295633974646415e-07,4.2554553542758467e-07,-1.5362460785569971e-07
-3.2687030729426456e-07,3.7778925809790314e-07,4.5783786649935167e-07,2.964657843316795e-07,4.10633726196075e-07,6.226452062745951e-07,1.2386830314075877e-06,6.926819366827865e-07,4.6121534295029e-07,3.9726194701214817e-07,-2.517882312305009e-07,4.4829761941471236e-08,1.419254352365364e-07,7.928099143990168e-07,5.4940721928215506e-08,5.674929212817453e-07,4.166082926189012e-07,-1.4269031777499462e-07
-3.0607446061812454e-07,4.0887476072992126e-07,5.111888577705935e-07,2.0902608655045257e-07,5.647433009845535e-07,5.920191675536864e-07,1.219692483994505e-06,7.188551906210678e-07,4.348188683073367e-07,4.245873039994914e-07,-2.3857230043981585e-07,1.3815969121804317e-07,1.7626390686672302e-07,7.068648776499108e-07,3.630294956784205e-08,5.6642826741019e-07,4.103457343165723e-07,-1.4012659973758607e-07
-2.6333294521475954e-07,4.474109112270816e-07,5.308980482320394e-07,1.705139215430895e-07,6.418987357250399e-07,5.632292934904621e-07,1.205130198228118e-06,7.345481283559923e-07,4.1074357978635357e-07,4.614364596488909e-07,-2.2285319849647205e-07,1.8510335892485536e-07,2.0815658805002348e-07,6.724710800078862e-07,1.93008990753408e-08,5.563973578109803e-07,4.0803134701561e-07,-1.4797950971114056e-07
-2.5004281784318396e-07,5.007559804978897e-07,5.481897288796763e-07,1.7082735407394834e-07,6.677773568580629e-07,5.399266309216582e-07,1.201887069773875e-06,6.838384723326792e-07,3.9635838427587365e-07,5.0133790574101e-07,-2.074670284850578e-07,2.0756782461632287e-07,2.3467740604419653e-07,6.845509515461397e-07,4.37154027504566e-09,5.293107336317111e-07,4.0885552121782366e-07,-1.5890601039414586e-07
-2.394023688938841e-07,5.612660174571076e-07,5.593151886326652e-07,1.8255782880557272e-07,7.157064392047567e-07,5.235873510451504e-07,1.2112015150110572e-06,6.745505642096024e-07,3.9389837149715886e-07,5.468378529017252e-07,-1.8700178022712224e-07,2.152257736680865e-07,2.537331076528605e-07,7.049076663638949e-07,-1.0075020385393594e-08,4.914457452845222e-07,4.112543129902738e-07,-1.6987745246092857e-07
-2.240628420604177e-07,6.165156265871412e-07,5.452317904265363e-07,1.8473845688202352e-07,7.831814959608648e-07,5.131489424028234e-07,1.2291289863847928e-06,6.675669105835936e-07,4.0069028645941643e-07,5.865132123078881e-07,-1.5841226642869075e-07,2.1143190381407522e-07,2.6434476184196177e-07,7.128605973270295e-07,-2.5496485924625286e-08,4.6503331014138284e-07,4.1242945359156577e-07,-1.7867247586723352e-07
-1.971300620817098e-07,6.710475880502758e-07,5.386374879540516e-07,1.8421224943887666e-07,8.548977577512343e-07,5.059026720688268e-07,1.2490174316242066e-06,6.594116890101576e-07,4.111098062071458e-07,6.140027582244784e-07,-1.329402364235485e-07,2.084323941160292e-07,2.6655932963804205e-07,7.101458211313358e-07,-4.255406989907543e-08,4.39322940436857e-07,4.0913216552597954e-07,-1.8657027535777933e-07
-1.531578551495977e-07,7.181323767841226e-07,5.354350821606746e-07,1.6509895025556368e-07,8.845233390026952e-07,4.98383731810632e-07,1.2639171194988082e-06,6.529628007232651e-07,4.1914045348611875e-07,6.381343268179563e-07,-1.2644604642354744e-07,2.045560790681629e-07,2.607880171231744e-07,6.780387253097932e-07,-6.217760854243982e-08,3.9163322399285085e-07,4.009366425335422e-07,-1.9348351732441657e-07
-9.11276927760033e-08,7.639337883822887e-07,5.14998508846246e-07,1.3928570371795582e-07,8.843474170787497e-07,4.872215326970811e-07,1.2682319405230761e-06,6.362158296324131e-07,4.1952883566702e-07,6.599453694164528e-07,-1.2294803246406096e-07,1.9802052374798829e-07,2.475837860437534e-07,6.25982171826961e-07,-8.525199572954282e-08,3.4271267628288407e-07,3.874569296352198e-07,-2.0031798228428336e-07
-4.620427746783274e-08,8.083492479247391e-07,4.790728538363619e-07,1.1643872082267325e-07,8.61219862101363e-07,4.704914553590689e-07,1.2591857538414604e-06,6.259498908478816e-07,4.099219562685006e-07,6.87531282036355e-07,-1.2273681677647327e-07,1.8989253182129467e-07,2.2820858076665501e-07,5.623672905811719e-07,-1.1179908738290292e-07,2.880470108685026e-07,3.685268031006021e-07,-2.0960643572285945e-07
-2.221925267389405e-08,8.58491430828564e-07,4.213166866460014e-07,9.177556400932112e-08,8.104256289804821e-07,4.483613720552115e-07,1.2372165967136429e-06,6.105285325542762e-07,3.910322230699659e-07,7.105072394529751e-07,-1.2650068683971747e-07,1.8096555728044482e-07,2.0460896413183563e-07,4.916608027168644e-07,-1.403908888826211e-07,2.2677474299112327e-07,3.4569319692775267e-07,-2.2370979044030704e-07
-7.789638543887508e-09,9.264719638940841e-07,3.4865921329270897e-07,5.843162761894169e-08,7.498038771484447e-07,4.2213326190260964e-07,1.2045453417129115e-06,5.689117337965633e-07,3.658356609861865e-07,7.303632048573663e-07,-1.272131391838476e-07,1.7190234025990795e-07,1.7842701510496487e-07,4.256929307633684e-07,-1.6927902378150983e-07,1.679242623616992e-07,3.2031562434810635e-07,-2.428909819251578e-07
-5.91957287867365e-09,9.80363660019905e-07,2.818507352061026e-07,1.6901594219333316e-08,6.777029785586608e-07,3.9318822601792953e-07,1.163476041325534e-06,5.14401003071644e-07,3.377281361876546e-07,7.510084848500276e-07,-1.276639225800282e-07,1.6319209298700788e-07,1.50550283091852e-07,3.611854924484358e-07,-1.9652960260316114e-07,1.0706209443615201e-07,2.939685170431488e-07,-2.6590821454881426e-07
-4.626912039287616e-09,1.0127647713115811e-06,2.2053421413462502e-07,-3.0736713742927156e-08,6.000426132350764e-07,3.63140146364126e-07,1.1165088018428089e-06,4.567746188411142e-07,3.1031115104482337e-07,7.752800152183805e-07,-1.2489269496697361e-07,1.5576346691186632e-07,1.2160591865554792e-07,2.9699090867270195e-07,-2.2027139276279848e-07,4.3545160840097873e-08,2.6812988001506596e-07,-2.904285347319708e-07
-2.072693219647071e-09,1.0317160060000521e-06,1.6771928686703875e-07,-7.768578996693186e-08,5.243474340730054e-07,3.3361837126266196e-07,1.0663242011625599e-06,4.00516166832101e-07,2.87145197430806e-07,8.035268885567897e-07,-1.1753786150220033e-07,1.5071889000075652e-07,9.210603149990338e-08,2.3681435169447794e-07,-2.39757236626313e-07,-1.883009948062974e-08,2.435293873120917e-07,-3.142062003825952e-07
5.762232211315467e-09,1.0326018301145586e-06,1.2652426693272006e-07,-1.195802003177778e-07,4.6032459450140414e-07,3.053631757738069e-07,1.01489361589056e-06,3.4806123700057397e-07,2.698350061702747e-07,8.316685318644068e-07,-1.0229694339791044e-07,1.4845405595538162e-07,6.20678144747024e-08,1.710587448970622e-07,-2.555717436487452e-07,-8.000170934771299e-08,2.2061793404540512e-07,-3.340022842356065e-07
1.7886804967736714e-08,1.0215672748304694e-06,9.258825963347574e-08,-1.498568362716162e-07,4.046745282835074e-07,2.7834858427437695e-07,9.633777830953797e-07,2.97871362568464e-07,2.5816102801668136e-07,8.561545530959386e-07,-8.528389150563712e-08,1.486461380148072e-07,3.12018777121097e-08,9.742219125583914e-08,-2.6752634393096304e-07,-1.2575908894200287e-07,1.9938063024792036e-07,-3.5071102741138375e-07
4.045368010962436e-08,1.0027401178690108e-06,6.429226389011175e-08,-1.7163378133433016e-07,3.5300449791773516e-07,2.5290899348403524e-07,9.131930323589824e-07,2.4312952499550025e-07,2.5099761487048135e-07,8.734747167766008e-07,-6.92079264753021e-08,1.5065593217771991e-07,-7.494393784976584e-10,2.319967197158768e-08,-2.773485490230589e-07,-1.603842934408481e-07,1.7974478432995717e-07,-3.6435309024168226e-07
7.19335422240946e-08,9.648285792896373e-07,4.116897991662244e-08,-1.9336310423527062e-07,3.043230492604102e-07,2.2983914327827368e-07,8.660110901209425e-07,1.865319756541938e-07,2.4677274534510244e-07,8.828658341026652e-07,-5.4754147676902084e-08,1.5317392641577728e-07,-3.4584368854575245e-08,-5.378045487267756e-08,-2.867951538859763e-07,-1.8932432486427596e-07,1.6155892477013002e-07,-3.7515401940105114e-07
1.0553305483016585e-07,9.061970277178937e-07,2.0219612082065688e-08,-2.1067305778346338e-07,2.546055448819237e-07,2.0942048934715254e-07,8.219107691266617e-07,1.3274480453870482e-07,2.430966656764316e-07,8.847827972941528e-07,-4.502508735633389e-08,1.5409603613550765e-07,-7.232596685428232e-08,-1.3596767444351863e-07,-2.968189494845293e-07,-2.1307548670934407e-07,1.4405158061036282e-07,-3.8491977246453886e-07
1.4002802622601296e-07,8.579022010813322e-07,-5.760452791622029e-10,-2.2577798446368256e-07,2.0431772493094323e-07,1.913641585925441e-07,7.784037045924201e-07,7.551591457143742e-08,2.376387918023293e-07,8.816561365188269e-07,-3.955017734727561e-08,1.5176050573887368e-07,-1.1678281104282858e-07,-2.244662321491573e-07,-3.066093638832271e-07,-2.3538914767769393e-07,1.2697257976321164e-07,-3.927672222471517e-07
1.752195685606586e-07,8.196726117190006e-07,-2.1317624694932e-08,-2.3825261524466744e-07,1.5444042441108346e-07,1.7546935719128865e-07,7.312746603333677e-07,2.8616738559527916e-08,2.300414274740907e-07,8.789930790404355e-07,-3.761324441474377e-08,1.458931743032998e-07,-1.709097042778127e-07,-3.2212080940855856e-07,-3.1189107986550903e-07,-2.5269482623408857e-07,1.116282579234336e-07,-3.968951964420466e-07
2.099082065948787e-07,7.901144212074845e-07,-4.362514561153552e-08,-2.443070552954272e-07,1.0738604593060716e-07,1.6103384631874234e-07,6.751464406436185e-07,-1.038510799753981e-08,2.2179687599804053e-07,8.839642851359116e-07,-3.6966486718968584e-08,1.3671732111944334e-07,-2.377767024291737e-07,-4.2966873072999815e-07,-3.068574209682185e-07,-2.5887837507365754e-07,9.98702124988468e-08,-3.9356438755513747e-07
2.505422321688616e-07,7.746667841177632e-07,-6.822354326339736e-08,-2.431221640715745e-07,6.73862524466521e-08,1.4565409335640823e-07,6.035317861438118e-07,-4.6712625046178614e-08,2.150967857059702e-07,9.030973029972778e-07,-3.447051635689043e-08,1.2380949990323933e-07,-3.200609749123156e-07,-5.470553842570141e-07,-2.8578182575186584e-07,-2.440032858118013e-07,9.249027705014515e-08,-3.817099320616875e-07
3.0404746684111747e-07,7.627794385394941e-07,-9.737724652921437e-08,-2.3701765397663036e-07,3.774209510986112e-08,1.2550853348384226e-07,5.104549366775834e-07,-7.934011526691593e-08,2.124358622839439e-07,9.408513023402345e-07,-2.6791393615732828e-08,1.0648234034047352e-07,-4.1819070588456326e-07,-6.717751045660643e-07,-2.4482478813406763e-07,-2.1230448482561744e-07,9.010660141377513e-08,-3.6087511932334833e-07
3.73850766820375e-07,7.541996318357012e-07,-1.352832933440441e-07,-2.2559392019092343e-07,2.1408291357972243e-08,9.686141447909076e-08,3.9327438440987866e-07,-1.1261098791597797e-07,2.1586340234623502e-07,9.983722035130073e-07,-1.1553172287332329e-08,8.457335962868652e-08,-5.287822192404307e-07,-7.993338660222369e-07,-1.8327436880542437e-07,-1.6225114516650342e-07,9.346707847004388e-08,-3.324702963683397e-07
4.606012516762133e-07,7.545595154734522e-07,-1.8461907573141073e-07,-2.1009906638437964e-07,1.947546335387588e-08,5.6937536918129175e-08,2.540288171371538e-07,-1.4976124173904243e-07,2.2548230156886798e-07,1.0724520590699714e-06,1.1856626929412372e-08,5.8359615434709995e-08,-6.450238693117482e-07,-9.215846395405864e-07,-1.0472256058513539e-07,-9.535638428243714e-08,1.0191679369247603e-07,-2.9902169242764834e-07
5.588855412202623e-07,7.597234930392108e-07,-2.493462889468857e-07,-1.9192497867120293e-07,2.8620335936458555e-08,4.465546032609686e-09,9.884384737828209e-08,-1.8728014363062319e-07,2.3798649169314634e-07,1.155499354465934e-06,4.186648990575201e-08,2.871606414680047e-08,-7.581250971633537e-07,-1.031745366198588e-06,-1.9970205181364142e-08,-2.159839109187758e-08,1.1353971953620546e-07,-2.648066326286537e-07
6.582380222471788e-07,7.581023011131525e-07,-3.314956738559485e-07,-1.7561988999278577e-07,4.1691535446513585e-08,-5.9049446868242114e-08,-6.27440028273298e-08,-2.248940096502919e-07,2.4789215306458754e-07,1.2377905932950903e-06,7.495640078938327e-08,-2.0356192179786616e-09,-8.587851121173119e-07,-1.1232452241622075e-06,6.138833324142809e-08,5.13163055119014e-08,1.2622066769361465e-07,-2.3482462167442536e-07
7.470350868877179e-07,7.481496398603126e-07,-4.289667740839367e-07,-1.65363676841111e-07,5.011957201366477e-08,-1.2894022507141108e-07,-2.1901865921297528e-07,-2.662870530774196e-07,2.496924316676879e-07,1.3102817497648497e-06,1.0643820846995763e-07,-3.0624554083369054e-08,-9.393777874006276e-07,-1.191774037891379e-06,1.2382911005852618e-07,1.1562539317530819e-07,1.3820274571131123e-07,-2.1129962905437332e-07
8.162648580951575e-07,7.33238038163074e-07,-5.384191899150145e-07,-1.628587730359447e-07,4.554167604936308e-08,-1.9939141341530034e-07,-3.59264154299838e-07,-3.0816133239629325e-07,2.390536952079468e-07,1.3658643710967269e-06,1.3157618077567853e-07,-5.519525484387548e-08,-9.96679468699467e-07,-1.2393030513724985e-06,1.3765457586786455e-07,1.6510754145001765e-07,1.47700458898003e-07,-1.9551815863215642e-07
8.59547931717221e-07,7.028743472797537e-07,-6.526953884054613e-07,-1.6999783664628275e-07,2.1116925311572052e-08,-2.659155750056288e-07,-4.772362515947925e-07,-3.4899062468863614e-07,2.1384097338871056e-07,1.4002201546350763e-06,1.4566587078760965e-07,-7.662111366483547e-08,-1.0327648208236222e-06,-1.2725534252378581e-06,1.7530966094349193e-07,1.9707148747601515e-07,1.5290179254203014e-07,-1.8852551582630242e-07
8.742478122983001e-07,6.599543769745477e-07,-7.638989871298103e-07,-1.8934304031841302e-07,-2.5502321720712765e-08,-3.255485257464492e-07,-5.715418704037149e-07,-3.875173263067412e-07,1.7540488227355868e-07,1.4121556336316262e-06,1.4599959994386878e-07,-9.713427236711986e-08,-1.0531361933286844e-06,-1.2975787406063846e-06,1.9117752286528477e-07,2.0923644052347757e-07,1.531836355037973e-07,-1.887247582649808e-07
8.620229104156353e-07,6.098100946863246e-07,-8.636633427342698e-07,-2.1713101047698881e-07,-8.973870871263463e-08,-3.7578626059733514e-07,-6.434051427161445e-07,-4.2000793493007456e-07,1.2901129896045835e-07,1.403443401074545e-06,1.3242637560150216e-07,-1.1862645185312959e-07,-1.0642872777512899e-06,-1.3189336334296004e-06,1.7679848269481215e-07,2.085932627975494e-07,1.4966407180188374e-07,-1.9334431264821923e-07
8.268793391383387e-07,5.552455410981509e-07,-9.444114705826995e-07,-2.4672208240406924e-07,-1.6187854702879408e-07,-4.1465080580375293e-07,-6.952122141497017e-07,-4.444192505682599e-07,8.155451275627161e-08,1.3775255854797179e-06,1.0721253350557572e-07,-1.4254672243626129e-07,-1.072443570425518e-06,-1.3389346988676365e-06,1.4770066592466824e-07,2.038107721654147e-07,1.4439001356019692e-07,-2.0094007754473238e-07
7.753223628809353e-07,5.068308858757292e-07,-1.0017754195639645e-06,-2.7540675949146196e-07,-2.3166530558197328e-07,-4.41493102692492e-07,-7.302898462835868e-07,-4.612829679048352e-07,3.880221533337591e-08,1.3389051419567228e-06,7.412217734687822e-08,-1.699485533830444e-07,-1.0826092452819578e-06,-1.3585980145827002e-06,1.316186579361952e-07,2.0127992366275246e-07,1.3926323944635877e-07,-2.0700300682772437e-07
7.149717986401906e-07,4.66292650898798e-07,-1.035234151491932e-06,-2.9954570037411997e-07,-2.9118879566306493e-07,-4.5670862610152564e-07,-7.520983489108029e-07,-4.6873569776794914e-07,4.636789315066365e-09,1.292954943665265e-06,3.740626865534431e-08,-2.0056794284759654e-07,-1.0973220169508558e-06,-1.3782737826329904e-06,1.292243865348092e-07,2.076536430009343e-07,1.3665022436335184e-07,-2.0922177978044757e-07
6.535376356091817e-07,4.343278181691055e-07,-1.0477638224730383e-06,-3.1669902618533513e-07,-3.3560659116005333e-07,-4.611622953464614e-07,-7.632783338193605e-07,-4.693749406084526e-07,-1.8797860039826962e-08,1.2455121847369957e-06,1.3956664446014009e-09,-2.3258373348972785e-07,-1.1165161989702702e-06,-1.3968952956385998e-06,1.390764099262729e-07,2.2636582490762987e-07,1.387228496533644e-07,-2.062120870367143e-07
5.984788292667009e-07,4.101738474046145e-07,-1.0440549725844496e-06,-3.2662460799611787e-07,-3.638626338267283e-07,-4.5680901840383546e-07,-7.663662498747192e-07,-4.6248646070329953e-07,-3.155128707520101e-08,1.2015846507946106e-06,-3.107926347788581e-08,-2.639477679687848e-07,-1.138887174460094e-06,-1.4146487784115736e-06,1.6122384233544614e-07,2.572396975263366e-07,1.461026618522282e-07,-1.982877608300805e-07
5.547565525459688e-07,3.929114589797294e-07,-1.0310143857646382e-06,-3.3049936973708033e-07,-3.7917686787606495e-07,-4.4726089917180864e-07,-7.651109929175618e-07,-4.47836527920915e-07,-3.6150610803949945e-08,1.1640195060649713e-06,-5.922718186338121e-08,-2.933563979279748e-07,-1.1630278245463871e-06,-1.4335396803716995e-06,1.912555736011131e-07,2.960350102119439e-07,1.572613010532048e-07,-1.870512664496416e-07
5.243199944569543e-07,3.792642678144766e-07,-1.0152419806285207e-06,-3.3054371584882233e-07,-3.871195990269502e-07,-4.367882261419089e-07,-7.641565690729056e-07,-4.279092376736575e-07,-3.636729600167081e-08,1.1335145639149284e-06,-8.376084291517769e-08,-3.199112930805527e-07,-1.1874828115913163e-06,-1.455376699195607e-06,2.2369103121687299e-07,3.3821674137045585e-07,1.698686980783964e-07,-1.7485822653273435e-07
5.059746080374121e-07,3.642743041661935e-07,-1.001445012608649e-06,-3.302482743603682e-07,-3.932247546848169e-07,-4.291044373964012e-07,-7.678054819004708e-07,-4.0433514651381135e-07,-3.5906786541941205e-08,1.1089465135466598e-06,-1.059366377526975e-07,-3.432825319966985e-07,-1.2110710648861256e-06,-1.4809065546510913e-06,2.539436428307889e-07,3.7776444793933815e-07,1.8163726583264028e-07,-1.644916092364448e-07
4.955458298325001e-07,3.4474560621102683e-07,-9.925575883253806e-07,-3.331821228031722e-07,-4.0242175754577297e-07,-4.275023300817513e-07,-7.797556377018442e-07,-3.798715490984614e-07,-3.840092740796876e-08,1.0871637376767412e-06,-1.2754536334938393e-07,-3.648814927214031e-07,-1.2338133139164209e-06,-1.51055396947432e-06,2.7743347756226e-07,4.0877285200567787e-07,1.9004268688311637e-07,-1.5882503225234086e-07
4.871792296231466e-07,3.175202265888276e-07,-9.901529641723745e-07,-3.4200496081864735e-07,-4.1901557222222003e-07,-4.346670939583871e-07,-8.029820822658689e-07,-3.579921547311884e-07,-4.7088416972995486e-08,1.0633850864338543e-06,-1.5067339784724976e-07,-3.877362935031205e-07,-1.25671660639133e-06,-1.5450178234871053e-06,2.912249016098747e-07,4.2713386370698444e-07,1.9322878819867352e-07,-1.6188203046583058e-07
4.749369680299511e-07,2.8124332328082073e-07,-9.939927234462526e-07,-3.578457933625993e-07,-4.4484843612758387e-07,-4.511900892755511e-07,-8.382052896901091e-07,-3.4136128063402784e-07,-6.310675792051732e-08,1.0334799429579335e-06,-1.7651578840786089e-07,-4.1446982255949715e-07,-1.2801696286948452e-06,-1.58220056775656e-06,2.9532811752758997e-07,4.319201425395323e-07,1.912172501201005e-07,-1.742594696767207e-07
4.540602349260749e-07,2.3745994008744528e-07,-1.002108906294386e-06,-3.78897819796128e-07,-4.779118042574912e-07,-4.7485498967151797e-07,-8.827310611201e-07,-3.2933336646258257e-07,-8.473212673628315e-08,9.954738410647907e-07,-2.0603508908166e-07,-4.4602125834832227e-07,-1.3031892823747917e-06,-1.6168970279056722e-06,2.924768564691627e-07,4.2632661363620086e-07,1.857047971284118e-07,-1.9362348032518903e-07
4.2221339885556713e-07,1.8755582441021296e-07,-1.0119426478966454e-06,-4.0202272300298195e-07,-5.1405818776542e-07,-5.020064745393227e-07,-9.316221225131476e-07,-3.2138112505399733e-07,-1.0889448932655878e-07,9.492294098368576e-07,-2.380587610800713e-07,-4.821647159252407e-07,-1.3243773369193695e-06,-1.6444862975498043e-06,2.8652036234843144e-07,4.1501950905143924e-07,1.7871555254806204e-07,-2.166130802251212e-07
3.796282786592619e-07,1.375920337080396e-07,-1.0212745398578027e-06,-4.24620949214335e-07,-5.4921834095702e-07,-5.291257416268802e-07,-9.79727462847434e-07,-3.174579008439488e-07,-1.3273952275772552e-07,8.963470416529679e-07,-2.712673521918214e-07,-5.216313067491914e-07,-1.342555665516963e-06,-1.6625038141875397e-06,2.810061627241204e-07,4.0263395030123836e-07,1.7226702476819766e-07,-2.393830351913373e-07
3.285518522067338e-07,9.048509376066351e-08,-1.0282990226981612e-06,-4.4409028374559696e-07,-5.793717069324465e-07,-5.529230161534489e-07,-1.0223339279757441e-06,-3.1551873418959517e-07,-1.5369942418676222e-07,8.402650526218151e-07,-3.030936488189473e-07,-5.611301636552865e-07,-1.3562661949223029e-06,-1.669390009979506e-06,2.78364788143585e-07,3.9447051129021367e-07,1.6895614799029475e-07,-2.570252570518245e-07
2.7339406814649925e-07,4.9658469715869354e-08,-1.031071708196837e-06,-4.574105993406961e-07,-6.001669431079465e-07,-5.704044374824158e-07,-1.055358985058437e-06,-3.13065381030293e-07,-1.6953009662701216e-07,7.858489123561224e-07,-3.3162560239979716e-07,-5.956776354076439e-07,-1.3638218017199034e-06,-1.6644779839131398e-06,2.8221541837043466e-07,3.9603344556098535e-07,1.7141096372585652e-07,-2.647277764078422e-07
2.19187086565853e-07,1.8998187573663717e-08,-1.0280723073549817e-06,-4.6266778425963355e-07,-6.088010302880875e-07,-5.801619735767728e-07,-1.0767974625040222e-06,-3.077406715259531e-07,-1.7946735719865877e-07,7.380488904131254e-07,-3.55776499641766e-07,-6.209300192327225e-07,-1.3644293655456016e-06,-1.6501342463428616e-06,2.9416100663494657e-07,4.105809494090074e-07,1.8067038232692687e-07,-2.5947349121675424e-07
1.700569106488103e-07,-1.71889091760158e-09,-1.019278732236184e-06,-4.6037609878980304e-07,-6.058185776603424e-07,-5.828139792042721e-07,-1.0878535261235245e-06,-2.984235507686056e-07,-1.8451911209862277e-07,7.005863395782207e-07,-3.751231469397321e-07,-6.347980988581991e-07,-1.35867521586622e-06,-1.6312828043568146e-06,3.1294666526353e-07,4.381335511599658e-07,1.9588657811093259e-07,-2.411335136585422e-07
1.2905568223171896e-07,-1.397935478177828e-08,-1.0060671557326479e-06,-4.5237134426766095e-07,-5.94169017276303e-07,-5.812858872026252e-07,-1.0918713770565584e-06,-2.851829250990468e-07,-1.8639975987085056e-07,6.759565145740467e-07,-3.90201271539738e-07,-6.370370810358449e-07,-1.3478735706517468e-06,-1.6129240225064994e-06,3.3641436669104727e-07,4.7665058023503005e-07,2.1523060954625117e-07,-2.1228683114970584e-07
9.852485569541762e-08,-2.0755161989730766e-08,-9.90072445166697e-07,-4.4067612818596564e-07,-5.774184821464832e-07,-5.784151565800401e-07,-1.0925166819386882e-06,-2.688298834165843e-07,-1.8654102796379845e-07,6.651381314773758e-07,-4.011858277454845e-07,-6.289125783518141e-07,-1.3339189453015677e-06,-1.5989797163468138e-06,3.614463427934847e-07,5.225158232432062e-07,2.3635666468762535e-07,-1.7884677218303403e-07
7.996697250590268e-08,-2.565805119682669e-08,-9.742519718011605e-07,-4.279839354667079e-07,-5.59992774920664e-07,-5.774601592338607e-07,-1.0934911253923047e-06,-2.51272175784338e-07,-1.8674871157652782e-07,6.664177311470285e-07,-4.0936876381292243e-07,-6.1378730447217e-07,-1.3199636731119442e-06,-1.5931614007941205e-06,3.841191689013767e-07,5.697404772640158e-07,2.563082372522727e-07,-1.430243890653625e-07
7.368110921060578e-08,-3.397254737112082e-08,-9.618287564639248e-07,-4.178119399797401e-07,-5.471103204284141e-07,-5.823043368686582e-07,-1.0984523728795418e-06,-2.3498631310957587e-07,-1.8936495350990088e-07,6.74802584127435e-07,-4.1687951936077485e-07,-5.965444143535198e-07,-1.3100281446842554e-06,-1.5982641380458098e-06,4.00454419203013e-07,6.109769445192307e-07,2.7215436516248587e-07,-1.1062213668657067e-07
7.817722148967166e-08,-4.846273185755522e-08,-9.553096018374316e-07,-4.1299718067838884e-07,-5.427331834798e-07,-5.953629179143981e-07,-1.1094734943433875e-06,-2.2215325680774483e-07,-1.9585746843512727e-07,6.833479379720042e-07,-4.257610299073817e-07,-5.814117067076649e-07,-1.3072361889710525e-06,-1.6133414143790193e-06,4.0849606672451896e-07,6.404311370445447e-07,2.8277704149266423e-07,-8.644607502546023e-08
9.04386612633193e-08,-6.964273942580073e-08,-9.554560890660945e-07,-4.1450922722114995e-07,-5.479227409464157e-07,-6.16989195429167e-07,-1.1259765840016924e-06,-2.1325412706416642e-07,-2.0582227031948347e-07,6.850054702674557e-07,-4.369014734009343e-07,-5.708203869116541e-07,-1.3128538365237497e-06,-1.6337780981880048e-06,4.093344871642378e-07,6.551442047885086e-07,2.8824847358946603e-07,-7.375856856654986e-08
1.0627717870223299e-07,-9.698578102729724e-08,-9.612051464317253e-07,-4.2245143941193013e-07,-5.619056885572367e-07,-6.462188882486606e-07,-1.1460220398343979e-06,-2.0779107728708866e-07,-2.1821453420834192e-07,6.737123628515784e-07,-4.5080851071451596e-07,-5.661489516064456e-07,-1.3268459844243378e-06,-1.6548737991994788e-06,4.0362839539543317e-07,6.541295099470489e-07,2.8903576735545727e-07,-7.341743674868397e-08
1.2061625798370108e-07,-1.2833108780253956e-07,-9.704689275934147e-07,-4.368375922598371e-07,-5.833963487476083e-07,-6.815289150137352e-07,-1.16809287230127e-06,-2.0559978535969016e-07,-2.321534790310823e-07,6.459067749068495e-07,-4.6799620249265723e-07,-5.678988683383287e-07,-1.348105269730673e-06,-1.6733133393128617e-06,3.9290040302301167e-07,6.38522172762335e-07,2.861583570198229e-07,-8.36465800008583e-08
1.2902286522045524e-07,-1.616504004942298e-07,-9.797154134650942e-07,-4.5642471258165525e-07,-6.096082557609048e-07,-7.197563529235963e-07,-1.1909598527689447e-06,-2.0582810881202095e-07,-2.4580506562706145e-07,6.023997883104447e-07,-4.878766858729379e-07,-5.745569428588794e-07,-1.3737801956744067e-06,-1.6857004094352283e-06,3.8056165538533004e-07,6.131202471879442e-07,2.8159387116854376e-07,-1.0027217489827395e-07
1.28742560673415e-07,-1.9385432205056799e-07,-9.837195242854703e-07,-4.779322139655069e-07,-6.353856979255751e-07,-7.559332001267063e-07,-1.2128197831767037e-06,-2.0647934351587417e-07,-2.5597579657206375e-07,5.486802939243299e-07,-5.080820342921821e-07,-5.826601383900106e-07,-1.3995230421143448e-06,-1.6886048881021498e-06,3.7078334658380587e-07,5.858880557071824e-07,2.786717419777092e-07,-1.165147081738518e-07
1.186459955944725e-07,-2.2533064668120714e-07,-9.771151643969672e-07,-4.97528045843356e-07,-6.549323036170669e-07,-7.845213296920036e-07,-1.231719995098672e-06,-2.053916379937196e-07,-2.595110919780679e-07,4.929132246310155e-07,-5.258784348585423e-07,-5.888273528980958e-07,-1.421113122405776e-06,-1.6808245715742078e-06,3.672896030853652e-07,5.648417807743707e-07,2.7972930136536505e-07,-1.2830872021166501e-07
9.939892539313406e-08,-2.473705457983717e-07,-9.562889414704983e-07,-5.126728138816403e-07,-6.641805916665123e-07,-8.009381902255784e-07,-1.2461459569418257e-06,-2.006890262419044e-07,-2.5454805003753815e-07,4.434382099678895e-07,-5.388297150356735e-07,-5.910801628709483e-07,-1.4355637001146191e-06,-1.6638865361757375e-06,3.7201767497968746e-07,5.557541333914198e-07,2.8570938869298146e-07,-1.3217955063127348e-07
7.323836022266105e-08,-2.5778590216858464e-07,-9.201962404748003e-07,-5.218367702647218e-07,-6.610415298662545e-07,-8.022292709299775e-07,-1.2542898698637013e-06,-1.9080812263144217e-07,-2.4025546603465866e-07,4.0725518594306156e-07,-5.45326398130284e-07,-5.882729736851354e-07,-1.4410059532590023e-06,-1.6401102592486861e-06,3.8585373828514516e-07,5.619498881913246e-07,2.9688346043010893e-07,-1.2591433268379134e-07
4.370366759096908e-08,-2.5788420004785526e-07,-8.707366306640022e-07,-5.241631896486564e-07,-6.451710811662625e-07,-7.87452173931685e-07,-1.2536840463162587e-06,-1.744302169322666e-07,-2.1686642156594257e-07,3.8862680633661175e-07,-5.443527588587063e-07,-5.79746401726541e-07,-1.4368280367108692e-06,-1.6118646393250725e-06,4.078942941568959e-07,5.838792422248473e-07,3.126901138573869e-07,-1.0919370326728675e-07
1.545097785563276e-08,-2.4780067416172743e-07,-8.126980481003394e-07,-5.204260570307805e-07,-6.190353755778706e-07,-7.587419573032556e-07,-1.242815684327639e-06,-1.5134038783015857e-07,-1.8669237437671824e-07,3.8765622037180545e-07,-5.364228444877587e-07,-5.661356621980354e-07,-1.424373958320071e-06,-1.5827187289780362e-06,4.3562725487939763e-07,6.181304507219296e-07,3.313950216620435e-07,-8.443527301290895e-08
-7.804497871050657e-09,-2.3275312268369745e-07,-7.530332491875623e-07,-5.131245169159894e-07,-5.880686143934009e-07,-7.213059280823936e-07,-1.222757656523953e-06,-1.2316242962666496e-07,-1.5409757664004767e-07,4.004877536300126e-07,-5.23821795162173e-07,-5.49589912624885e-07,-1.4066621997428399e-06,-1.5571573604672136e-06,4.647818393817614e-07,6.582756102605173e-07,3.5048199991885234e-07,-5.72571796162218e-08
-2.3415937867617793e-08,-2.1709951794098012e-07,-6.986800679394561e-07,-5.048713091908415e-07,-5.58392338396858e-07,-6.816255775730783e-07,-1.1967545281283508e-06,-9.260596026104792e-08,-1.2355838626581683e-07,4.211469204437103e-07,-5.093124693964612e-07,-5.328973108490736e-07,-1.3870568765657582e-06,-1.5387043114087123e-06,4.913076602238515e-07,6.971450278637837e-07,3.675548073500164e-07,-3.240346314203963e-08
-3.051861943475748e-08,-2.0392705449950198e-07,-6.546899078598734e-07,-4.974712573406278e-07,-5.347573724478527e-07,-6.440445138087817e-07,-1.1691630285533462e-06,-6.243283642898844e-08,-9.837282616624216e-08,4.4340989122742607e-07,-4.954981511627693e-07,-5.189788201216192e-07,-1.3686043065899911e-06,-1.5292978947562773e-06,5.118957552204584e-07,7.282112119736493e-07,3.8037143933543864e-07,-1.3329911716099066e-08
-3.073788188422898e-08,-1.9485505480594832e-07,-6.235614635010327e-07,-4.926385867872399e-07,-5.204452137247078e-07,-6.135581419138849e-07,-1.1450794656970558e-06,-3.549420597498041e-08,-8.125326841555358e-08,4.6146686478412224e-07,-4.844131482694531e-07,-5.107378072143966e-07,-1.3540604396195642e-06,-1.5300416815072523e-06,5.238760375074374e-07,7.463166221986677e-07,3.873010995397978e-07,-3.5915687126001807e-09
-2.764940602095745e-08,-1.9286204895960025e-07,-6.056381882926206e-07,-4.919762506836937e-07,-5.169470715899897e-07,-5.935489552909861e-07,-1.1291891043803229e-06,-1.4331951200332378e-08,-7.342762098781738e-08,4.710171681986835e-07,-4.773206808398154e-07,-5.100595623685765e-07,-1.3453751854470862e-06,-1.540451859899813e-06,5.264147646674338e-07,7.492473860698452e-07,3.878646210673603e-07,-4.228633541019051e-09
-2.530424014262989e-08,-1.9782510233290723e-07,-5.985131427118435e-07,-4.955316708419681e-07,-5.225051399708558e-07,-5.839261043097185e-07,-1.1234726351542564e-06,2.3086464038343767e-10,-7.404050442334772e-08,4.7031208239163793e-07,-4.74181929829905e-07,-5.168083668555088e-07,-1.3429818510598016e-06,-1.55750624226747e-06,5.207950996706395e-07,7.387496950364709e-07,3.8330942593013163e-07,-1.379000878430478e-08
-2.6675140701322287e-08,-2.0692692290516367e-07,-5.979101744491493e-07,-5.013742492178952e-07,-5.324006981270439e-07,-5.838127734364735e-07,-1.1263603559406316e-06,9.139739316673108e-09,-8.029958060953884e-08,4.6026820918458536e-07,-4.7408168075333943e-07,-5.293923703866564e-07,-1.346124272499454e-06,-1.5771746907979933e-06,5.093175764381604e-07,7.190917315840621e-07,3.7576459475972753e-07,-2.8982038553262062e-08
-3.308770859798158e-08,-2.17504829711524e-07,-5.992175652154372e-07,-5.072904940955858e-07,-5.417784982505889e-07,-5.891191119935774e-07,-1.1343028445900656e-06,1.3933825147700706e-08,-8.949621128861342e-08,4.4360624542181317e-07,-4.7602939226440385e-07,-5.458612692962549e-07,-1.3536134330402556e-06,-1.5969384478522724e-06,4.948192655358072e-07,6.950819122484569e-07,3.6752222722341344e-07,-4.597295021690292e-08
-4.403489082003243e-08,-2.26607353367125e-07,-5.992715173432443e-07,-5.115358097658357e-07,-5.472642048906934e-07,-5.954755539626543e-07,-1.143291741340316e-06,1.646230915577967e-08,-9.931934202259229e-08,4.23992218929686e-07,-4.791008001343491e-07,-5.638206560859737e-07,-1.3637532835455051e-06,-1.6151197884833358e-06,4.803858214538847e-07,6.718486789128328e-07,3.6114258015460776e-07,-6.103322014967969e-08
-5.751810626697105e-08,-2.314428442132683e-07,-5.958578584049075e-07,-5.119298659790364e-07,-5.462198144089797e-07,-5.998773497657919e-07,-1.149025937566975e-06,1.9586514607728338e-08,-1.0729565819241067e-07,4.0584547651339567e-07,-4.821090067881634e-07,-5.800873134578962e-07,-1.3740767799863113e-06,-1.62968405379843e-06,4.692766059269421e-07,6.54954494262429e-07,3.596548324901248e-07,-7.00825226403834e-08
-7.048645388733926e-08,-2.2953175023624687e-07,-5.870949005616522e-07,-5.060449498034898e-07,-5.365732471764919e-07,-5.998219270874353e-07,-1.1475683625294837e-06,2.5585672675445913e-08,-1.1125344821518566e-07,3.931839807096798e-07,-4.833695481423193e-07,-5.915209197466125e-07,-1.3819596352271843e-06,-1.6388719831604761e-06,4.642690455279171e-07,6.490206962687881e-07,3.652913583683665e-07,-7.013630137310025e-08
-8.012108554530999e-08,-2.1853359510070732e-07,-5.721523916261237e-07,-4.928372091232093e-07,-5.180484669269929e-07,-5.942444114710125e-07,-1.1367650209316736e-06,3.592926235294804e-08,-1.0978560473610495e-07,3.883061315557167e-07,-4.819119592813533e-07,-5.959661200372136e-07,-1.3853440342250318e-06,-1.6416259016795401e-06,4.6671550310022033e-07,6.565095860457161e-07,3.787931368766889e-07,-5.975452395038056e-08
-8.496161719610182e-08,-2.008012390377644e-07,-5.512198870821257e-07,-4.7321033011887765e-07,-4.924031233802046e-07,-5.837043466168627e-07,-1.1166527276736533e-06,5.140689666262802e-08,-1.02714665072514e-07,3.918011206936206e-07,-4.771907324140872e-07,-5.921386385520952e-07,-1.3827378033952007e-06,-1.6372046554170903e-06,4.769865998663849e-07,6.780216031541491e-07,4.0020287081484943e-07,-3.9504140787006593e-08
-8.472258323625659e-08,-1.7985811665991113e-07,-5.249520827422044e-07,-4.4930541090241854e-07,-4.623028217852468e-07,-5.694701086405077e-07,-1.0887390812520305e-06,7.155089902237518e-08,-9.045718727794978e-08,4.027832741122048e-07,-4.69317045839322e-07,-5.796985730581423e-07,-1.3734430601497442e-06,-1.625244306658938e-06,4.949470151144748e-07,7.123002429904657e-07,4.284107628069474e-07,-1.044195454277236e-08
-8.01303370646215e-08,-1.5732940299898954e-07,-4.944548264875058e-07,-4.2429479150441835e-07,-4.309586692824072e-07,-5.532609357778934e-07,-1.0558524610901965e-06,9.494504158755578e-08,-7.446416854315418e-08,4.1886254007151704e-07,-4.590101004457712e-07,-5.602596539392685e-07,-1.3584662800039636e-06,-1.607512114839892e-06,5.183026472096068e-07,7.551464705860225e-07,4.608788861779576e-07,2.4190758750041934e-08
-7.268285893781355e-08,-1.3618957231901496e-07,-4.618603194902607e-07,-4.022156191371418e-07,-4.0218946267133294e-07,-5.384278192559404e-07,-1.0223567144835568e-06,1.1908554323433497e-07,-5.737990651465746e-08,4.3679181530207763e-07,-4.4788562749111906e-07,-5.375200176016321e-07,-1.3406786100877372e-06,-1.5882667726010743e-06,5.428493887504019e-07,7.996464686938055e-07,4.937134780212913e-07,5.980720821955191e-08
-6.373394643267242e-08,-1.1899750910667723e-07,-4.295957278191612e-07,-3.8663519591550636e-07,-3.792444934096129e-07,-5.317218528895314e-07,-9.932429481774475e-07,1.413215681266722e-07,-4.208744225095285e-08,4.538914316157357e-07,-4.378301161644481e-07,-5.156618156157139e-07,-1.3237101744045565e-06,-1.5723468243506655e-06,5.642641240230421e-07,8.384422180724822e-07,5.228852244248502e-07,9.147875202806034e-08
-5.417904890407392e-08,-1.0716454505951461e-07,-3.9962252361057483e-07,-3.7953076950558756e-07,-3.636587984390759e-07,-5.306346970651605e-07,-9.729675781371102e-07,1.598223764084937e-07,-3.075570181752424e-08,4.687688675722912e-07,-4.301529618689721e-07,-4.979670929475383e-07,-1.3111571634338784e-06,-1.5640432406691022e-06,5.788675868248577e-07,8.655128672206785e-07,5.452145436095791e-07,1.154108538603275e-07
-4.41825396743127e-08,-1.0155564348235015e-07,-3.7363026547640383e-07,-3.815672089500557e-07,-3.5576677571724094e-07,-5.363897343554875e-07,-9.6534618481928e-07,1.7354176214485194e-07,-2.5097883833063392e-08,4.808782821263076e-07,-4.2600507944926286e-07,-4.866215957021955e-07,-1.3064607947957832e-06,-1.5676135300119916e-06,5.8426792774524e-07,8.766722853916681e-07,5.584715253741086e-07,1.3018370800707524e-07
-3.3128028056878116e-08,-1.0229297452823398e-07,-3.5288811171188964e-07,-3.9228772765469896e-07,-3.552619830273673e-07,-5.496321294261576e-07,-9.731112955582388e-07,1.8207280477481073e-07,-2.610456657934131e-08,4.903815849612376e-07,-4.259579151368159e-07,-4.823527541909985e-07,-1.3122718110016662e-06,-1.5862058467718266e-06,5.800400561765817e-07,8.706640824401664e-07,5.619521103934002e-07,1.351157549818573e-07
-1.9725091289702035e-08,-1.0768038102580854e-07,-3.375719974950735e-07,-4.091892232981106e-07,-3.6036653047765607e-07,-5.665251819126749e-07,-9.96013808394401e-07,1.8656092785845304e-07,-3.2807606512427496e-08,4.986178696477395e-07,-4.2935317521245444e-07,-4.837958552244557e-07,-1.3291276637558844e-06,-1.6195569012608857e-06,5.681558535161169e-07,8.505500517032007e-07,5.572037052247383e-07,1.3351156731249044e-07
-2.2363677740081744e-09,-1.1494635580697425e-07,-3.2683683882475344e-07,-4.2771472368550915e-07,-3.677786505470618e-07,-5.837673837074529e-07,-1.0295478628149861e-06,1.901851383966618e-07,-4.206905637876081e-08,5.080374308253419e-07,-4.3414898813582463e-07,-4.88160486567287e-07,-1.35507804004307e-06,-1.6638403281079423e-06,5.522563047876517e-07,8.231066861368158e-07,5.473175185648869e-07,1.2991453167877525e-07
2.0433759905363218e-08,-1.224109010312672e-07,-3.1982313830015996e-07,-4.431388118307806e-07,-3.746825882669678e-07,-5.961059365205904e-07,-1.0658600468960507e-06,1.9629201729494913e-07,-5.042486402383949e-08,5.211208560979238e-07,-4.3781714954161025e-07,-4.928060249397735e-07,-1.386424679180934e-06,-1.7133658150651823e-06,5.360283001517025e-07,7.967746578179785e-07,5.359111109631256e-07,1.2852635035259488e-07
4.781229049533065e-08,-1.2938241540043484e-07,-3.161534955434863e-07,-4.516755170601605e-07,-3.7982224677018807e-07,-6.002915395259804e-07,-1.0951355057908715e-06,2.0770914792033653e-07,-5.4993654235121905e-08,5.399836851615448e-07,-4.3799198296316964e-07,-4.957186996722938e-07,-1.4181729811947646e-06,-1.761002394152445e-06,5.232404226887752e-07,7.803465959701259e-07,5.269285046276839e-07,1.324441117677879e-07
7.778659996232825e-08,-1.3373344717703661e-07,-3.1433243750039767e-07,-4.4994736312215993e-07,-3.821663091840443e-07,-5.908766795823237e-07,-1.1064494169116055e-06,2.2673679131651894e-07,-5.304084533070485e-08,5.670467611031963e-07,-4.323517494617352e-07,-4.950914002855357e-07,-1.4445377014455077e-06,-1.7984034407085915e-06,5.171652534922657e-07,7.817337002669145e-07,5.24419654555442e-07,1.4468075698621937e-07
1.0636033667894498e-07,-1.357108777863827e-07,-3.1065072324263023e-07,-4.353206461646556e-07,-3.8023306846304805e-07,-5.670075960253557e-07,-1.0900264213078734e-06,2.541761949592589e-07,-4.231247238350775e-08,6.047848313678128e-07,-4.189687211629242e-07,-4.897409809844833e-07,-1.4607707283628153e-06,-1.81912441683226e-06,5.194297004354634e-07,8.052021056063672e-07,5.311265378239061e-07,1.6722402278913823e-07
1.2965590576156031e-07,-1.3477568155942518e-07,-3.0029598422007816e-07,-4.0779927230175765e-07,-3.7378257939731503e-07,-5.319767751584797e-07,-1.0410467354097167e-06,2.8823614208240294e-07,-2.261173200749984e-08,6.54215722863197e-07,-3.9751947894116365e-07,-4.799796266176046e-07,-1.4654273892737578e-06,-1.822214410456628e-06,5.29018495836331e-07,8.488364486219067e-07,5.470457604003182e-07,1.995303373461131e-07
1.4447995669695875e-07,-1.296665593149769e-07,-2.793093366347088e-07,-3.707528344209668e-07,-3.6504566602934763e-07,-4.876718597262868e-07,-9.615544481061093e-07,3.2392470415623207e-07,3.3780946580382865e-09,7.133858573028678e-07,-3.694778837908371e-07,-4.673948842031452e-07,-1.4609698456530184e-06,-1.8126578669905337e-06,5.425067328141978e-07,9.048029309819266e-07,5.698177632583529e-07,2.3924544616501745e-07
1.4886417765977427e-07,-1.2307562486198284e-07,-2.465245655983604e-07,-3.295295152361778e-07,-3.577487517824786e-07,-4.375693784004514e-07,-8.584793889239787e-07,3.5443153914345657e-07,3.130523982718651e-08,7.765657464662175e-07,-3.3758066711054237e-07,-4.541339362197724e-07,-1.4527414453718008e-06,-1.79916843290456e-06,5.55283272698195e-07,9.615217873027348e-07,5.953727509557976e-07,2.816412636151446e-07
1.4353532353204707e-07,-1.167168938231033e-07,-2.0482940740748368e-07,-2.9042494422811303e-07,-3.5611010364333214e-07,-3.8388407754379196e-07,-7.40503300634805e-07,3.7310753357108834e-07,5.627284162505541e-08,8.344042143620634e-07,-3.052096668865609e-07,-4.4299896159363094e-07,-1.44749510413931e-06,-1.7919548808037785e-06,5.618865869840348e-07,1.005979605941975e-06,6.184836423546899e-07,3.1926189664641903e-07
1.304218834791853e-07,-1.1402253570589637e-07,-1.613890146287808e-07,-2.6047894956990125e-07,-3.6469298111065933e-07,-3.2699722193509873e-07,-6.146555551268677e-07,3.7487332904145816e-07,7.373869532925034e-08,8.756947052552876e-07,-2.759426549614566e-07,-4.374788774915285e-07,-1.4513907721443503e-06,-1.8002181895460482e-06,5.575157029258677e-07,1.0270625274249636e-06,6.337029956853076e-07,3.4324098693890333e-07
1.1018565021555634e-07,-1.2027336864171745e-07,-1.2566638623488555e-07,-2.4619562575332837e-07,-3.8731360971392755e-07,-2.648467296078521e-07,-4.829349110372206e-07,3.5803581590301135e-07,8.104218767918012e-08,8.904713777774328e-07,-2.5246635205200193e-07,-4.406560993656758e-07,-1.4674744982066523e-06,-1.82885667594913e-06,5.388888760648205e-07,1.02013834002539e-06,6.375187060616774e-07,3.4675563585975677e-07
8.084516883590747e-08,-1.3951188378399052e-07,-1.0486929088335278e-07,-2.5124287176564426e-07,-4.2505507624652407e-07,-1.8447132361324147e-07,-3.4022884196019036e-07,3.2523081762743755e-07,7.876969344557873e-08,8.745636575309076e-07,-2.357527029151279e-07,-4.541235241453291e-07,-1.4942671422463395e-06,-1.876618600805345e-06,5.063826613925491e-07,9.897198780276128e-07,6.299326887885444e-07,3.2712882506284494e-07
3.7616627073441974e-08,-1.7276648167379414e-07,-1.0053933851654181e-07,-2.7500933874645314e-07,-4.754604373275504e-07,-8.127342835856247e-08,-1.7560230901993997e-07,2.827113298766296e-07,7.050815616369732e-08,8.307992651275541e-07,-2.2525767265152855e-07,-4.777780647798486e-07,-1.5264689930362087e-06,-1.9373289551124946e-06,4.637367307603123e-07,9.48009818692486e-07,6.140704602614212e-07,2.8844080879149207e-07
-2.4996602452736603e-08,-2.1779202445875392e-07,-1.0796212071371945e-07,-3.123372595536512e-07,-5.329782539475997e-07,4.2801373554371514e-08,2.3020788951435638e-08,2.3882441538305217e-07,6.197733489066546e-08,7.680040160000297e-07,-2.1916121337214148e-07,-5.094550314307283e-07,-1.5567612638877423e-06,-2.0016722741089287e-06,4.167051056077985e-07,9.107019728079031e-07,5.951414431601283e-07,2.4065267547070356e-07
-1.0903148741548938e-07,-2.6926257012108587e-07,-1.1696487465192514e-07,-3.541025194915933e-07,-5.897095660184303e-07,1.9752777629417396e-07,2.6314338099960475e-07,2.0266332518107302e-07,6.05986379460902e-08,6.98549610423772e-07,-2.1442002647184582e-07,-5.443283897048371e-07,-1.57782530354291e-06,-2.0586508800203766e-06,3.72008907178053e-07,8.920925286756191e-07,5.787529171364553e-07,1.9722219931432201e-07
-2.099315471061974e-07,-3.189523094236257e-07,-1.1622803676557062e-07,-3.8954375219742806e-07,-6.373245634125779e-07,3.8242177416053004e-07,5.423762285663153e-07,1.8208258868726503e-07,7.38660721786941e-08,6.340034619482311e-07,-2.0716029010608524e-07,-5.757356902740883e-07,-1.5846185296985009e-06,-2.0980998306348053e-06,3.354126286582264e-07,9.010802325026624e-07,5.692444143018818e-07,1.7008852541445558e-07
-3.166105835772274e-07,-3.599188225165803e-07,-9.90133653203907e-08,-4.099727391726989e-07,-6.702439089627942e-07,5.875417039849705e-07,8.457062245888308e-07,1.8111341406561764e-07,1.0678140802718947e-07,5.819143439393727e-07,-1.9386202377728854e-07,-5.975293719750783e-07,-1.5759661859260754e-06,-2.1135966579671134e-06,3.1056888405261185e-07,9.401412885396757e-07,5.690648536733553e-07,1.6584794194338555e-07
-4.1397944592086066e-07,-3.882005884959692e-07,-6.659087724600044e-08,-4.112055298596199e-07,-6.872826188996576e-07,8.105944675775501e-07,1.1487903064695583e-06,1.9901414189884761e-07,1.5968522005420036e-07,5.451263820226173e-07,-1.729087993628329e-07,-6.061679714081548e-07,-1.5543292947303574e-06,-2.1043855118501362e-06,2.991259283999498e-07,1.0073191843466268e-06,5.79569428648569e-07,1.8454972050126818e-07
-4.874957907511712e-07,-4.028762324606425e-07,-2.750399802832306e-08,-3.938134098971508e-07,-6.906957234176226e-07,1.0318969888690055e-06,1.4260625006955353e-06,2.3103178040469685e-07,2.2783916202968976e-07,5.231867457530742e-07,-1.4543040213381046e-07,-6.017973151641734e-07,-1.5244535882033779e-06,-2.072712334143211e-06,3.0102210682804363e-07,1.097853444346468e-06,6.01176980800516e-07,2.2050355483992208e-07
-5.274288715053399e-07,-4.061294004895747e-07,6.842950166749693e-09,-3.625202364353808e-07,-6.846846085610937e-07,1.2048205626975352e-06,1.6591703510601769e-06,2.7015752896098795e-07,3.020513539722147e-07,5.138389200558229e-07,-1.1522254197078446e-07,-5.883989826044426e-07,-1.4919473066088157e-06,-2.0265720600726404e-06,3.1397321370980573e-07,1.2036849513064154e-06,6.323888715356522e-07,2.6462013365898407e-07
-5.307983125247097e-07,-4.0075465947467366e-07,2.7213015351817406e-08,-3.2495475138495507e-07,-6.745749015735539e-07,1.3200183944364982e-06,1.8415391980004267e-06,3.0907487492931584e-07,3.709002236302359e-07,5.147370317739783e-07,-8.755980074750585e-08,-5.723037002269065e-07,-1.4615778889686334e-06,-1.976860252578435e-06,3.3371216272064435e-07,1.3134102807870275e-06,6.694274440202061e-07,3.06458440871236e-07
-5.025373103315315e-07,-3.8974664687840267e-07,2.927267777958916e-08,-2.891106767041602e-07,-6.656517727117056e-07,1.4040907986044102e-06,1.978384587019962e-06,3.4266622998166546e-07,4.243814164133552e-07,5.248404696882647e-07,-6.711037031959118e-08,-5.594458584270212e-07,-1.435757766430523e-06,-1.93257889977752e-06,3.555976853004215e-07,1.4146155690052114e-06,7.074275045564581e-07,3.376135517487865e-07
-4.5148456169888926e-07,-3.7549684234603575e-07,1.3709861987774281e-08,-2.609488754275086e-07,-6.619865024897811e-07,1.4601540925272834e-06,2.0829482455410715e-06,3.689007905445077e-07,4.56424766575266e-07,5.4405826769479e-07,-5.6622016461462565e-08,-5.537280265624031e-07,-1.414546399208309e-06,-1.8998085211063207e-06,3.7562116421169933e-07,1.4966163605688962e-06,7.418037067184785e-07,3.5332405810243534e-07
-3.873518221153874e-07,-3.589222153602015e-07,-1.5611958532420983e-08,-2.439475201098739e-07,-6.665083718152118e-07,1.5011496056288993e-06,2.1699701634259706e-06,3.880045764420162e-07,4.6520013430077867e-07,5.712048009179679e-07,-5.7038650680758434e-08,-5.572668751298033e-07,-1.3972316753433304e-06,-1.881246776438742e-06,3.9050689630069673e-07,1.5521779327437525e-06,7.689130393203707e-07,3.5221402282453854e-07
-3.204738931310612e-07,-3.411317860956023e-07,-5.387504053942291e-08,-2.39434933105541e-07,-6.81118227525684e-07,1.5397323057885017e-06,2.247399224983658e-06,4.0075297611666125e-07,4.5244932354409694e-07,6.027369167668196e-07,-6.78683471143459e-08,-5.70472283585444e-07,-1.3833739136794954e-06,-1.8765894487669869e-06,3.9810844785242017e-07,1.578952301914752e-06,7.870154873877696e-07,3.355550224855177e-07
-2.590962179604717e-07,-3.239077390472718e-07,-9.600850248591995e-08,-2.46280607532477e-07,-7.054493668657571e-07,1.5701879391303166e-06,2.319258638391572e-06,4.082870030936388e-07,4.2345371279800167e-07,6.33129247046166e-07,-8.689186951009715e-08,-5.911668810722907e-07,-1.3724422039286667e-06,-1.881727577467367e-06,3.980408081608623e-07,1.5803205495740264e-06,7.967865249216025e-07,3.074395873182825e-07
-2.095047044201663e-07,-3.0833518038587804e-07,-1.3651034178650806e-07,-2.610008266534982e-07,-7.359183919972716e-07,1.5810590219202995e-06,2.3835297113955725e-06,4.1190433904235095e-07,3.8616273737511875e-07,6.563331387243955e-07,-1.1019530598797125e-07,-6.145993390068986e-07,-1.3634907658869854e-06,-1.890144478297739e-06,3.9190656412620473e-07,1.563952368639444e-06,8.006534084158434e-07,2.7350117583432405e-07
-1.7581322956728591e-07,-2.9490400917886187e-07,-1.7043825362978877e-07,-2.7906393922043996e-07,-7.669288327308592e-07,1.6036853564684543e-06,2.4331966661191553e-06,4.121770945595207e-07,3.4834217446457577e-07,6.673036157213786e-07,-1.332230624558202e-07,-6.350833146734394e-07,-1.355376802460099e-06,-1.8951329608111306e-06,3.822473563966886e-07,1.5388816087778316e-06,8.015564390037715e-07,2.396095065199723e-07
-1.5883733283043295e-07,-2.8384969429053907e-07,-1.9466109870945276e-07,-2.959189230450365e-07,-7.927171959262726e-07,1.634177649403109e-06,2.463565418283405e-06,4.092753648310054e-07,3.158119416989579e-07,6.640907221724216e-07,-1.5194910334228248e-07,-6.476890358715344e-07,-1.346579035920552e-06,-1.8919341877582936e-06,3.72178707642972e-07,1.5137455155499726e-06,8.02512609583405e-07,2.114826298516799e-07
-1.5578281776524645e-07,-2.7426639099422627e-07,-2.0769297528855053e-07,-3.069635490678282e-07,-8.080578125862111e-07,1.6419720551287448e-06,2.4701367014469885e-06,4.0415322344832053e-07,2.9250964232950083e-07,6.491194663795765e-07,-1.63513369512798e-07,-6.491939420832527e-07,-1.334822382515989e-06,-1.878239012249652e-06,3.651701467727788e-07,1.4960712381416116e-06,8.064689049926215e-07,1.9476025851374133e-07
-1.6133065865473387e-07,-2.643578090062255e-07,-2.1016829165918865e-07,-3.0827134083508866e-07,-8.092365115403392e-07,1.6388972116846837e-06,2.454679109429595e-06,3.9901504553373966e-07,2.8119552031607405e-07,6.281284432917401e-07,-1.6669780989088585e-07,-6.388397262060249e-07,-1.3176717210694405e-06,-1.8544161992838708e-06,3.639724183708952e-07,1.4909013139236257e-06,8.154519997834372e-07,1.9227938740181716e-07
-1.6940646132984332e-07,-2.5297884288100714e-07,-2.0419446425690477e-07,-2.983731566976409e-07,-7.955069697430296e-07,1.6269982412081064e-06,2.42374821365084e-06,3.960516900023412e-07,2.8211964814057267e-07,6.073723952343226e-07,-1.622243054567952e-07,-6.184882172133528e-07,-1.2936233370334278e-06,-1.8239399984274383e-06,3.697545984794473e-07,1.4996302709973749e-06,8.29998065297505e-07,2.0543595066995448e-07
-1.7514051334602903e-07,-2.396764395671796e-07,-1.9292588512119898e-07,-2.787832254799131e-07,-7.694879936413095e-07,1.6091490914975623e-06,2.3837365402045514e-06,3.964512944623804e-07,2.932134374562807e-07,5.915873036322465e-07,-1.5231926067199088e-07,-5.914959317907368e-07,-1.2623523325657537e-06,-1.7914705418742264e-06,3.823059354454946e-07,1.5208122741960697e-06,8.494947414721187e-07,2.3390423450465022e-07
-1.7598366211646535e-07,-2.2450389553882002e-07,-1.7981787804330743e-07,-2.5271845714484673e-07,-7.358146684323375e-07,1.5731803926424792e-06,2.33923366069922e-06,4.0023623719462186e-07,3.11071902484839e-07,5.831511671991394e-07,-1.396875633539316e-07,-5.614977420360568e-07,-1.2244943159215682e-06,-1.7604892757329144e-06,4.0047990248104924e-07,1.5515887849532632e-06,8.728434482234361e-07,2.7574257943795255e-07
-1.7167079354792507e-07,-2.0803412623050448e-07,-1.6766593285721177e-07,-2.2395604622208982e-07,-6.99959907836854e-07,1.5360451864944597e-06,2.2924771647063533e-06,4.063620017587679e-07,3.309542038481492e-07,5.817930502823519e-07,-1.2680037611623104e-07,-5.323634658959198e-07,-1.181929328988138e-06,-1.7337906840861216e-06,4.217446262767235e-07,1.5878200709696404e-06,8.980739959517977e-07,3.261961460427123e-07
-1.6413431248789542e-07,-1.921127281737729e-07,-1.5926700221651295e-07,-1.964943674461458e-07,-6.681572890326048e-07,1.4850728335668865e-06,2.2428535714058838e-06,4.128250872244816e-07,3.4745396179300985e-07,5.850119977685902e-07,-1.1578598207351027e-07,-5.083080768685452e-07,-1.1379297433868753e-06,-1.7131942173492203e-06,4.420895145413383e-07,1.6240362139217142e-06,9.222061614190383e-07,3.774234639523132e-07
-1.5672553140839002e-07,-1.7862258344892714e-07,-1.5740374606104419e-07,-1.7395037451754277e-07,-6.467138775831294e-07,1.4063405103612644e-06,2.18597633338064e-06,4.1713514044626607e-07,3.5545354581326467e-07,5.890601579850381e-07,-1.0810027120195526e-07,-4.930847531310255e-07,-1.0964690395877062e-06,-1.6990061519016316e-06,4.5700938739099177e-07,1.6544716789549282e-06,9.419600551263825e-07,4.203439150250648e-07
-1.5234424986894988e-07,-1.6991751792711864e-07,-1.6438858664486057e-07,-1.59053341031966e-07,-6.406738548215042e-07,1.3328982392308318e-06,2.112220570770547e-06,4.1664209636949047e-07,3.5107281095704597e-07,5.899333137395166e-07,-1.045521127664749e-07,-4.891706927746147e-07,-1.0614217630834192e-06,-1.6905172391411565e-06,4.6255039770418156e-07,1.6740196504583934e-06,9.54783511645241e-07,4.4626337756359936e-07
-1.5303365079884608e-07,-1.6805264237812033e-07,-1.8187807100706463e-07,-1.539483993184535e-07,-6.530098841481713e-07,1.2506622448475856e-06,2.0157329816422747e-06,4.0855078453942645e-07,3.3192648301019995e-07,5.840379640600183e-07,-1.0584834997519105e-07,-4.975067840536511e-07,-1.0360592993895708e-06,-1.6872096763197614e-06,4.560313314162537e-07,1.678608901235908e-06,9.589938135511874e-07,4.4969930882679335e-07
-1.5962525522726013e-07,-1.7389905049179443e-07,-2.1027319110282564e-07,-1.6003412247675176e-07,-6.839755446915759e-07,1.1668891735053377e-06,1.8928791805570372e-06,3.905568856413121e-07,2.976735942501915e-07,5.692864528437443e-07,-1.1252845048420623e-07,-5.170279944493373e-07,-1.022048101315972e-06,-1.689059847656266e-06,4.368923373895401e-07,1.6661285004972095e-06,9.542430435144254e-07,4.2945430089946556e-07
-1.7121583700260397e-07,-1.868252783681741e-07,-2.479281816108337e-07,-1.7694754229604785e-07,-7.302380640638323e-07,1.084760976181809e-06,1.7702979693375815e-06,3.624257594679584e-07,2.51058517619675e-07,5.459075727641132e-07,-1.2426065815816276e-07,-5.444785968499729e-07,-1.0185030897513675e-06,-1.6954193776550442e-06,4.0710999151703645e-07,1.6373201120987908e-06,9.418625718905201e-07,3.891156303172559e-07
-1.861846955314504e-07,-2.0422134520629553e-07,-2.915749225466e-07,-2.0261479597514786e-07,-7.858095154801218e-07,1.0020328041525234e-06,1.651147613155893e-06,3.262763401146704e-07,1.9690483118731638e-07,5.157854515003371e-07,-1.3987164448592012e-07,-5.759019304009613e-07,-1.0226890114426107e-06,-1.7053826144033203e-06,3.6990495240214606e-07,1.5947531217834628e-06,9.237475269046631e-07,3.348167210297524e-07
-2.0279613709506357e-07,-2.2349186801342272e-07,-3.3808559965600854e-07,-2.3498818900216767e-07,-8.452134512234432e-07,9.22467472871729e-07,1.538851100329055e-06,2.8508803019931016e-07,1.3977469545272325e-07,4.809252260235542e-07,-1.582873249435182e-07,-6.086445559015673e-07,-1.0317163555107113e-06,-1.7189985495367996e-06,3.2827875049953767e-07,1.5408881793191753e-06,9.012975681919608e-07,2.727531604231316e-07
-2.1955228033425018e-07,-2.429405198670087e-07,-3.8548390624743983e-07,-2.729202325998975e-07,-9.053352456779775e-07,8.535736709801455e-07,1.4397771575380178e-06,2.418559691607207e-07,8.313955168044438e-08,4.4249431853353444e-07,-1.7876986683760293e-07,-6.413258655704934e-07,-1.042992174816318e-06,-1.7366082678748313e-06,2.848736740095393e-07,1.4780011913568425e-06,8.757854690363335e-07,2.0948498651484635e-07
-2.3528406525587283e-07,-2.6111542541972364e-07,-4.3214248820735105e-07,-3.149047198460369e-07,-9.640357880497814e-07,8.316820082427663e-07,1.3396328130410063e-06,2.0016878206319485e-07,3.075425775473692e-08,4.0168584963795083e-07,-2.0014792360887003e-07,-6.722212628086261e-07,-1.0534764658811436e-06,-1.7565888109858694e-06,2.4240938313606356e-07,1.409163722952148e-06,8.49108852570576e-07,1.4991687506807792e-07
-2.4899701925460196e-07,-2.7660508751674167e-07,-4.759217962211364e-07,-3.583093243334254e-07,-1.0185625317785819e-06,8.424689928702265e-07,1.3018863632398265e-06,1.6433588956795562e-07,-1.2338431676218526e-08,3.599408552634638e-07,-2.204913390507157e-07,-6.989468939150647e-07,-1.0598738822920889e-06,-1.7747687567714023e-06,2.0353260870359624e-07,1.337730511984872e-06,8.229663926096736e-07,9.925939735656113e-08
-2.6031119723839883e-07,-2.88447619090354e-07,-5.142137695360128e-07,-4.0030885756597063e-07,-1.0663690441283388e-06,9.021672292819334e-07,1.3429785852237165e-06,1.3796791253639977e-07,-4.103701567302943e-08,3.1795587800218556e-07,-2.377859184957348e-07,-7.198558326974784e-07,-1.0599415103044597e-06,-1.789698955956681e-06,1.6960002878538595e-07,1.265947154436655e-06,7.976785557224454e-07,6.088931959519579e-08
-2.70169095148972e-07,-2.969425644889866e-07,-5.456097740186085e-07,-4.3878557820168556e-07,-1.1066293924552273e-06,1.0188174859303303e-06,1.5032940478892683e-06,1.229622184584139e-07,-5.128718443903436e-08,2.7604095158223953e-07,-2.5037953120416516e-07,-7.348878118681502e-07,-1.052981982374164e-06,-1.8019600582549273e-06,1.4059281832249225e-07,1.1953727298129815e-06,7.722888059663849e-07,3.505372569457305e-08
-2.808367958364735e-07,-3.0342033838846626e-07,-5.701167530905468e-07,-4.719446022341451e-07,-1.140084080437688e-06,1.0741058806399346e-06,1.6999244942844791e-06,1.1996377145446398e-07,-3.9936656348013775e-08,2.3521087050905357e-07,-2.567690649699303e-07,-7.453372160128775e-07,-1.0392486749003883e-06,-1.8132257751763335e-06,1.1608343360235647e-07,1.128679750323124e-06,7.455530084470713e-07,2.049063194849122e-08
-2.955709060648055e-07,-3.0961957416513567e-07,-5.864654073098397e-07,-4.982560500791452e-07,-1.168470601348681e-06,1.1354064498633186e-06,1.7460398715069528e-06,1.2873534704694218e-07,-5.090751607588352e-09,1.9749624473448175e-07,-2.5579191398085605e-07,-7.539210252432668e-07,-1.0199039717840347e-06,-1.8264293467570682e-06,9.538294652325989e-08,1.0699948070969593e-06,7.162732318606918e-07,1.3496358954979017e-08
-3.178840391972081e-07,-3.1782342752447276e-07,-5.944261979186039e-07,-5.174190275204051e-07,-1.1947103511493617e-06,1.2039081513020063e-06,1.7112763065174061e-06,1.4753906356750816e-07,5.262637307071083e-08,1.6526343878546015e-07,-2.4749559926301356e-07,-7.64791944872438e-07,-9.975496256450178e-07,-1.845799648551198e-06,7.729181736012254e-08,1.0237886047149697e-06,6.833650283439812e-07,8.6886724753734e-09
-3.499807301776748e-07,-3.303390452599556e-07,-5.947751530336656e-07,-5.304272695617208e-07,-1.2220619826759633e-06,1.230666210816862e-06,1.7741774247115214e-06,1.7319640199596226e-07,1.2937901493487062e-07,1.3946549058801505e-07,-2.3318658950178057e-07,-7.818702507384881e-07,-9.755820564729234e-07,-1.874557626556812e-06,6.088133804564646e-08,9.94311485502285e-07,6.469287886452256e-07,1.4802327953064767e-09
-3.9086369121505604e-07,-3.4836428829935147e-07,-5.884359068688513e-07,-5.382318236918172e-07,-1.2516387518682965e-06,1.3227549891737505e-06,1.9917684230771614e-06,2.023591368643741e-07,2.1950059450447907e-07,1.1992641349512972e-07,-2.1438772316416957e-07,-8.063670655403643e-07,-9.563927748509533e-07,-1.9118722881199654e-06,4.651520724508967e-08,9.851957198931737e-07,6.091618334360725e-07,-8.41346726285048e-09
-4.3544905156090574e-07,-3.7085057045873766e-07,-5.772095857189156e-07,-5.411958466261607e-07,-1.28125351018621e-06,1.4194302815866736e-06,2.2639467402923794e-06,2.325364459762762e-07,3.1654648179595406e-07,1.0539925845460267e-07,-1.9209885877791606e-07,-8.359888789411022e-07,-9.403098254671637e-07,-1.953781092036174e-06,3.53140664038197e-08,9.978288204703385e-07,5.728583110238627e-07,-2.0005428113155175e-08
-4.761163541594584e-07,-3.9564150429085657e-07,-5.636725249353611e-07,-5.401284588207796e-07,-1.3072041377077604e-06,1.5184622895723612e-06,2.497079085976457e-06,2.610664295742422e-07,4.12852910790697e-07,9.32206069605574e-08,-1.670162416629561e-07,-8.660761657428913e-07,-9.258813271062324e-07,-1.9948486839947932e-06,2.815266014426235e-08,1.0301722078212217e-06,5.404470371851971e-07,-3.0502725338103286e-08
-5.04667653621152e-07,-4.2065104115832307e-07,-5.541902170879397e-07,-5.366023786969164e-07,-1.326402189981639e-06,1.5904979029202332e-06,2.614165267487318e-06,2.842730073594227e-07,4.998573239144602e-07,8.036690258283782e-08,-1.401308436389687e-07,-8.91316974818906e-07,-9.10542191519094e-07,-2.0282078345080747e-06,2.5529855680215864e-08,1.0780134214214588e-06,5.141234532197213e-07,-3.699633196737545e-08
-5.137583455803118e-07,-4.436071357823564e-07,-5.575284202830112e-07,-5.317643616344668e-07,-1.336697632949406e-06,1.622021126637431e-06,2.680068731486541e-06,2.980481745236027e-07,5.69485217739075e-07,6.425201917962168e-08,-1.1333759502444171e-07,-9.077963441461147e-07,-8.91635553995869e-07,-2.047963916815509e-06,2.7775968273003046e-08,1.136939098704004e-06,4.964227580546742e-07,-3.962032876450259e-08
-4.990657025849526e-07,-4.6339817587984873e-07,-5.821361156855115e-07,-5.256838400401657e-07,-1.3366512664655364e-06,1.6902272625105025e-06,2.7069304215621694e-06,2.986262077019957e-07,6.157955522583101e-07,4.3199304945424274e-08,-8.992782337782196e-08,-9.149696841037041e-07,-8.678710733362182e-07,-2.050694273484359e-06,3.4780565732869644e-08,1.2028476012660437e-06,4.891599735516555e-07,-4.081691599422162e-08
-4.609256878190142e-07,-4.796652401905723e-07,-6.331248914658184e-07,-5.178728285972528e-07,-1.3257695582099523e-06,1.7248763220481348e-06,2.823596265214227e-06,2.841945608286692e-07,6.365020488469342e-07,1.7124143711311512e-08,-7.387246617699948e-08,-9.155432642495572e-07,-8.397603522000447e-07,-2.0357078957718115e-06,4.5975431574554586e-08,1.2723457463386548e-06,4.931430452252017e-07,-4.405080156316605e-08
-4.0494960222872687e-07,-4.916570431309922e-07,-7.075044736468096e-07,-5.073586063836031e-07,-1.3041552234660204e-06,1.7694273295345268e-06,2.901868859064443e-06,2.5706350365411654e-07,6.350888997111317e-07,-1.0892598164686142e-08,-6.74700379448848e-08,-9.128143456391648e-07,-8.083571218556167e-07,-2.0043042983905476e-06,6.132749409382936e-08,1.3443092729029826e-06,5.085570580862902e-07,-5.007877674835871e-08
-3.404478141224312e-07,-4.969700594157402e-07,-7.92763988615191e-07,-4.921419674263133e-07,-1.2716536392703633e-06,1.7772222090803679e-06,2.8194621057642155e-06,2.2437600724338806e-07,6.214195236990738e-07,-3.4201073679592854e-08,-6.928596508559367e-08,-9.083430992105287e-07,-7.740771928766846e-07,-1.958270603906821e-06,8.185872395357799e-08,1.4204078645149119e-06,5.347581655736335e-07,-5.5121360904683456e-08
-2.770204141213452e-07,-4.914891212816021e-07,-8.708526407451542e-07,-4.6954621739465685e-07,-1.2281057438939454e-06,1.7245702055181434e-06,2.712540920449965e-06,1.958533994116121e-07,6.090109914719007e-07,-4.3926772633340657e-08,-7.44591094119498e-08,-9.019079230362158e-07,-7.368867945548632e-07,-1.900737180216464e-06,1.0870114491240435e-07,1.5030548429667879e-06,5.700222690401594e-07,-5.3054162506161636e-08
-2.2106667587862046e-07,-4.717843022386907e-07,-9.251118987681301e-07,-4.3738483960088506e-07,-1.1743209409854069e-06,1.643104647089641e-06,2.6234740982612e-06,1.8044390281886679e-07,6.105021439420513e-07,-3.094249742984671e-08,-7.680124829445991e-08,-8.922371745907997e-07,-6.9659488629274e-07,-1.8361900586875193e-06,1.4237540867282355e-07,1.5932088361636846e-06,6.114903409741432e-07,-3.689986463891963e-08
-1.7410310988871526e-07,-4.369378118014911e-07,-9.450407125347929e-07,-3.9459449802273124e-07,-1.1123049648182941e-06,1.6032103561609227e-06,2.549794628580701e-06,1.8422455692935682e-07,6.344206645532921e-07,1.2025115958129203e-08,-7.09481167391088e-08,-8.77287548328462e-07,-6.525568027404515e-07,-1.7700509479325192e-06,1.8271125848499975e-07,1.6899014531903052e-06,6.561421395482298e-07,-2.423435158719877e-09
-1.335414433016956e-07,-3.8941131316029896e-07,-9.281234019032203e-07,-3.4169243742845524e-07,-1.0450495548078747e-06,1.517857223275701e-06,2.5727568151474493e-06,2.0935510363536258e-07,6.828568085069739e-07,8.789129401534004e-08,-5.4197856714995784e-08,-8.552269553710601e-07,-6.040945939320417e-07,-1.707267059842061e-06,2.2851856404390406e-07,1.7897985385279639e-06,7.009778577245696e-07,5.117497761396532e-08
-9.595978003687144e-08,-3.34803298869357e-07,-8.79760386838643e-07,-2.8180174145029866e-07,-9.771835304078429e-07,1.4281375154284417e-06,2.6381839565526033e-06,2.5328657594155714e-07,7.501567108243172e-07,1.9244381988995476e-07,-2.788692046681912e-08,-8.262424904829456e-07,-5.519706829095659e-07,-1.6528110856091708e-06,2.764225365857796e-07,1.8859508143334035e-06,7.432248667372177e-07,1.198146092770771e-07
-6.043639159245133e-08,-2.809450316049721e-07,-8.098156068354894e-07,-2.209459605209939e-07,-9.154279388241633e-07,1.4801921899637674e-06,2.729997148251028e-06,3.090210947701592e-07,8.241866583202472e-07,3.134005329105864e-07,2.976412549683115e-09,-7.930891246829573e-07,-4.991809195419638e-07,-1.611547360690511e-06,3.208814337393555e-07,1.967896749140255e-06,7.798434281753554e-07,1.946688154008695e-07
-2.9267336886837296e-08,-2.359403135926196e-07,-7.292297827985132e-07,-1.664893886134723e-07,-8.671722417673309e-07,1.5614859926415273e-06,2.835910112205809e-06,3.6684216308097347e-07,8.90251294649067e-07,4.331152915947764e-07,3.188597067522075e-08,-7.598412435998828e-07,-4.5026891214399427e-07,-1.586342751790558e-06,3.556933227584812e-07,2.0241722664207543e-06,8.078794891961531e-07,2.6458795955965094e-07
-6.01952364937724e-09,-2.04674256787807e-07,-6.482556372272827e-07,-1.2516330062223384e-07,-8.38507530424606e-07,1.6165006273444391e-06,2.9204945131605713e-06,4.1660595452032806e-07,9.354508118026947e-07,5.330130809665586e-07,5.2953354074861485e-08,-7.30589583576201e-07,-4.102519822444901e-07,-1.577401032193674e-06,3.7561126998800195e-07,2.0456134876170655e-06,8.250373988310677e-07,3.181965189523208e-07
6.525844539365148e-09,-1.8939624819417435e-07,-5.754006821406941e-07,-1.0186236671555389e-07,-8.332605261402641e-07,1.5985094917888954e-06,2.970965942415348e-06,4.495857376986028e-07,9.51627096478516e-07,5.968666050592803e-07,6.215171631746087e-08,-7.085956325174809e-07,-3.8346028056925567e-07,-1.5808480996134728e-06,3.7790789500881705e-07,2.0283988522399547e-06,8.301934324017077e-07,3.463717047046427e-07
8.578843586617326e-09,-1.9071186172597356e-07,-5.186557955751451e-07,-9.81737582178023e-08,-8.517872975318867e-07,1.5254617783260277e-06,2.968961403722541e-06,4.6086914230269176e-07,9.357194360657686e-07,6.176056796787554e-07,5.8203690121780835e-08,-6.951038317294016e-07,-3.7176491499135256e-07,-1.591124591622206e-06,3.6421790441988533e-07,1.9764529906593207e-06,8.242259442848058e-07,3.4650825473282534e-07
3.876611702382478e-09,-2.050353726729658e-07,-4.845427233742146e-07,-1.1176259044484742e-07,-8.888925420672423e-07,1.447983123566312e-06,2.9049602964990342e-06,4.517009023421638e-07,8.947644563389656e-07,5.971367048408288e-07,4.3010458259423275e-08,-6.887148656273867e-07,-3.738808864974538e-07,-1.5998476685979248e-06,3.398165697298364e-07,1.901175260646473e-06,8.108424766165344e-07,3.2205146377979575e-07
-2.317379304470498e-09,-2.2709539920777448e-07,-4.7244276824074195e-07,-1.349483456564334e-07,-9.337715921967553e-07,1.365766606437243e-06,2.7866195734644268e-06,4.2914338391908917e-07,8.402839431646526e-07,5.437525729698787e-07,2.061832977138868e-08,-6.867738084520701e-07,-3.850984226170686e-07,-1.5977279410074763e-06,3.1184290352788164e-07,1.8171806519241705e-06,7.944101801028637e-07,2.8081086297615797e-07
-5.2495152459484686e-09,-2.5204757064140443e-07,-4.786485253790981e-07,-1.591506230259708e-07,-9.73582135010587e-07,1.184800945352117e-06,2.636408985667295e-06,4.0285707740688904e-07,7.836435353545136e-07,4.689232321308129e-07,-4.8792529707329386e-09,-6.874293784734651e-07,-4.0014009575633494e-07,-1.5793825781674518e-06,2.861024382039978e-07,1.7370870461173836e-06,7.788561001684841e-07,2.3122005361815965e-07
-2.0284710095735746e-09,-2.754900114161075e-07,-4.982621254224327e-07,-1.780189967515651e-07,-9.976931093432375e-07,9.82027524283558e-07,2.4861702550802884e-06,3.81601980844148e-07,7.33881079624878e-07,3.835468978025836e-07,-3.06160170139956e-08,-6.899443367243356e-07,-4.1464970116695713e-07,-1.543640923896824e-06,2.667313277325144e-07,1.6693537910234419e-06,7.670740031104086e-07,1.802463581653481e-07
8.536604224003777e-09,-2.95727159991991e-07,-5.256347899434711e-07,-1.8663198257556785e-07,-9.999358334871331e-07,8.435017271289601e-07,2.362924817648641e-06,3.7145709099430175e-07,6.95615705980013e-07,2.980099009034995e-07,-5.4938528766405385e-08,-6.936623716337962e-07,-4.244289969058186e-07,-1.4921409811127062e-06,2.5591877561706645e-07,1.6187763912902605e-06,7.610628404658158e-07,1.304461716927791e-07
2.662712136348617e-08,-3.1197568240709274e-07,-5.549445757926338e-07,-1.8426408864185424e-07,-9.798243808256403e-07,7.620598945624114e-07,2.279031580854425e-06,3.7496871944442097e-07,6.697741670162682e-07,2.1903336789039982e-07,-7.727282782820702e-08,-6.976238347707131e-07,-4.2724311904267965e-07,-1.4277674611821982e-06,2.537848067169847e-07,1.5870843111450745e-06,7.623932282962071e-07,9.587548604102355e-08
5.111851049855432e-08,-3.2395051277172054e-07,-5.859024303743338e-07,-1.7365177290215128e-07,-9.433836579674129e-07,7.261783226220408e-07,2.2301695961417146e-06,3.9086895016958823e-07,6.565981024015326e-07,1.5124277594230581e-07,-9.825451897091673e-08,-7.007798394143718e-07,-4.2206831265746923e-07,-1.3658611903632632e-06,2.589136368470301e-07,1.5735542314075249e-06,7.711806583146813e-07,7.84138514417674e-08
7.840413130651289e-08,-3.324850193735035e-07,-6.214731442690003e-07,-1.601334057258965e-07,-9.01610570637697e-07,7.25889920773719e-07,2.1976791961796884e-06,4.152362142319168e-07,6.53182182837597e-07,9.663969824780263e-08,-1.1940102954998074e-07,-7.017802989199334e-07,-4.082807718491699e-07,-1.3042158393939208e-06,2.6903634618200124e-07,1.5763728337201467e-06,7.889275558506041e-07,7.757585377898124e-08
1.0191075661767181e-07,-3.388185130893922e-07,-6.583278658105741e-07,-1.498655587508821e-07,-8.662231147630426e-07,7.334754624973166e-07,2.159398541962129e-06,4.4361952675472623e-07,6.561339389787222e-07,5.434119655117402e-08,-1.424571006270169e-07,-6.990196082833563e-07,-3.8544091385206106e-07,-1.2404325247200952e-06,2.8218750629314695e-07,1.5930925130426704e-06,8.154225613086006e-07,9.478471043815187e-08
1.1315476769072023e-07,-3.442751731598155e-07,-6.841680281607329e-07,-1.4803235472358192e-07,-8.459253089018922e-07,7.099456336972786e-07,2.101821854543693e-06,4.7238988695057687e-07,6.636678021977235e-07,2.1532249947567037e-08,-1.6910613677833659e-07,-6.915734312850829e-07,-3.537305718140149e-07,-1.1734508268256678e-06,2.9626122409937584e-07,1.6191595646834264e-06,8.494338113116369e-07,1.2436013010511478e-07
1.0431849006695795e-07,-3.510251636105024e-07,-6.981002139710077e-07,-1.5817188666937324e-07,-8.450210136694985e-07,6.917460130866102e-07,2.01855701487488e-06,4.989712558683184e-07,6.733253186803386e-07,-6.764549505906548e-09,-2.0054326710338647e-07,-6.795729309327143e-07,-3.144830563758346e-07,-1.0965820116205798e-06,3.088542665895538e-07,1.6469245593506281e-06,8.884281745303036e-07,1.577650994061185e-07
7.165119141939255e-08,-3.6351781851686113e-07,-6.993098749503014e-07,-1.8158449435115478e-07,-8.6305975723152e-07,6.505632898632724e-07,1.9100490363864697e-06,5.217593542299006e-07,6.794894805969312e-07,-3.636891748574067e-08,-2.3658959464228355e-07,-6.63190833158337e-07,-2.697649412901789e-07,-1.0064929330202522e-06,3.179693167379344e-07,1.6668717033404954e-06,9.283697365284247e-07,1.8600685435344573e-07
1.779361221827073e-08,-3.8396876545482115e-07,-6.94011181733539e-07,-2.1725487784720577e-07,-8.947552516387158e-07,5.72479709307523e-07,1.7747648571656968e-06,5.396116252919807e-07,6.794943580360701e-07,-7.569163894645796e-08,-2.7520561720388255e-07,-6.419706584681622e-07,-2.2227230478636213e-07,-9.019577464920883e-07,3.22860838723086e-07,1.669445259907975e-06,9.655573450472986e-07,2.0100084496600656e-07
-4.888935693027268e-08,-4.1375933401776846e-07,-6.916855197505335e-07,-2.633978623984545e-07,-9.312897067947682e-07,4.795657125590878e-07,1.6325505492140735e-06,5.508217346298254e-07,6.682202727765403e-07,-1.2938767635908708e-07,-3.1306945771837883e-07,-6.156080430433908e-07,-1.7616407414262681e-07,-7.87492166973794e-07,3.2450641514123947e-07,1.6464496933397584e-06,9.950437422710955e-07,1.828977840894189e-07
-1.1588244483158217e-07,-4.531969409180179e-07,-7.058578631127497e-07,-3.1595179452365124e-07,-9.625665502819837e-07,3.603332112573742e-07,1.476857803400313e-06,5.528654737497666e-07,6.384532750855385e-07,-1.886737611205098e-07,-3.467145355926845e-07,-5.84890369969007e-07,-1.349838767097568e-07,-6.770633618027052e-07,3.2306734649575573e-07,1.5932956764603637e-06,1.0148455806408837e-06,1.4629931446756307e-07
-1.7044980212690244e-07,-4.924786781059612e-07,-7.520813926514564e-07,-3.7063773150484155e-07,-9.790893024746629e-07,2.2144426808605879e-07,1.2861838257548666e-06,5.437602125114357e-07,6.018029700887889e-07,-2.546310217554485e-07,-3.736148918144584e-07,-5.519317485249545e-07,-9.839160437936649e-08,-5.698033929319402e-07,3.167551707962225e-07,1.5117504340688977e-06,1.0248144466168894e-06,9.31743653579492e-08
-2.037670658981163e-07,-5.28304894720619e-07,-8.100671443671145e-07,-4.1419402430715756e-07,-9.73930232487726e-07,9.489105414189807e-08,1.0645764100419816e-06,5.234182881404467e-07,5.495149881904472e-07,-3.276997594363263e-07,-3.931689455967044e-07,-5.201727560294854e-07,-6.42200690433843e-08,-4.7308888754750536e-07,3.087117967283615e-07,1.4107344952132939e-06,1.0269722825050524e-06,2.2860697146173476e-08
-2.134416414948198e-07,-5.61817024287006e-07,-8.823634062125899e-07,-4.4627361426431776e-07,-9.449163895428226e-07,-2.0092416355328143e-08,8.144842112963732e-07,4.932949840652927e-07,4.832047913700732e-07,-4.0124157147859764e-07,-4.068227099858229e-07,-4.936390960861968e-07,-2.9460539739960145e-08,-3.969072754975527e-07,3.0150801600365045e-07,1.3045557845417312e-06,1.0289322085696457e-06,-4.9506964719682334e-08
-2.043516148495834e-07,-5.906208028614569e-07,-9.666179522982074e-07,-4.68400309661788e-07,-8.950535046203733e-07,-1.2838407431897715e-07,5.801421717141236e-07,4.5669932542199784e-07,4.117363863915616e-07,-4.6877276185983155e-07,-4.1666122031354974e-07,-4.7481781995424973e-07,9.515989059894815e-09,-3.369408578903475e-07,3.0035934986016984e-07,1.2095686863286854e-06,1.0345814580273557e-06,-9.942193433049931e-08
-1.8567961889983557e-07,-6.094763827161764e-07,-1.0586951582970277e-06,-4.789845725324129e-07,-8.303253372931007e-07,-2.0535961808340074e-07,3.8149262422641424e-07,4.1887412619791383e-07,3.6342561138810725e-07,-5.184666091531443e-07,-4.2365492645774554e-07,-4.6294734237822175e-07,5.492641506337161e-08,-3.088618942393196e-07,3.0690552115002266e-07,1.139632093828002e-06,1.0473899323299185e-06,-1.1296243033438857e-07
-1.6706816176073596e-07,-6.10624855106516e-07,-1.119305156316736e-06,-4.862106593478561e-07,-7.569403521666864e-07,-2.2370771910711443e-07,2.3535952703969e-07,3.859202501927353e-07,3.409421977389982e-07,-5.293509561826779e-07,-4.272116049861583e-07,-4.547225571687593e-07,1.0574448164798846e-07,-3.1192287146944645e-07,3.211707232486266e-07,1.1018907745403663e-06,1.069517105637331e-06,-3.9758706754450894e-08
-1.5557796293832278e-07,-5.757060211387174e-07,-1.1371443518386445e-06,-4.7295768277790646e-07,-6.7936385602932e-07,-1.8839094171593436e-07,1.5395595155813437e-07,3.6368329040260255e-07,3.7700158972213063e-07,-4.946471173159081e-07,-4.257290671136575e-07,-4.463481326965162e-07,1.7035606764803248e-07,-3.488929547797788e-07,3.3764024795718444e-07,1.09606745605153e-06,1.0965364555642171e-06,8.618289255591371e-08
-1.5371268806991646e-07,-4.930571205592659e-07,-1.0715691302679795e-06,-4.3710689422859517e-07,-5.987065247966668e-07,-1.0211234590870329e-07,1.3595587803811287e-07,3.5735964680297924e-07,4.826131395548175e-07,-4.3805186751162567e-07,-4.1703232850692433e-07,-4.351342118781269e-07,2.4123592339228413e-07,-3.870216813281922e-07,3.6355724958812307e-07,1.1176628476291408e-06,1.1265072856782697e-06,1.8179403163397078e-07
-1.5851908663718338e-07,-4.3525798731755207e-07,-9.446947950866818e-07,-3.801041585073626e-07,-5.122881898348471e-07,3.3728661991250827e-08,1.8449252321717054e-07,3.7120536528107663e-07,5.226265042612932e-07,-3.899048525938281e-07,-3.989493526929913e-07,-4.2090480967367563e-07,2.9644857526651283e-07,-4.3343098276377707e-07,4.0700764986265254e-07,1.1613447696059605e-06,1.1532219946515168e-06,2.3690325875247117e-07
-1.6253227063964105e-07,-4.0025015721335493e-07,-8.641410108376736e-07,-3.2349292150668336e-07,-4.161385071852887e-07,1.0867870341043341e-07,2.9013417372668843e-07,4.0722327315103336e-07,5.587566168312659e-07,-3.5828073930485524e-07,-3.7048297891707714e-07,-4.071920430222796e-07,3.274282542136808e-07,-4.4875542940614885e-07,4.633134717344674e-07,1.2221805772634962e-06,1.172372540764829e-06,2.870607414342564e-07
-1.5640911466752366e-07,-3.667141671663155e-07,-8.352317431661269e-07,-2.8245591323225495e-07,-3.0886675576399785e-07,1.5170180144009242e-07,4.2194881413916394e-07,4.6405457375788114e-07,5.991436720168995e-07,-2.9614006956792923e-07,-3.3274565057136746e-07,-4.00296872481821e-07,2.551574986429844e-07,-4.2771342413164484e-07,5.393767405129296e-07,1.2959136755733294e-06,1.1739171834957314e-06,3.187744701355634e-07
-1.3230337540075855e-07,-3.507357173033557e-07,-8.008455660997049e-07,-2.4304134138897085e-07,-1.9369624164675208e-07,1.218908508962548e-07,5.258488074668795e-07,5.367935637856212e-07,6.132414532315661e-07,-2.3071565389679613e-07,-2.8906236212212475e-07,-4.0573250815595995e-07,1.8247731240140576e-07,-4.023880133625162e-07,6.068054582948882e-07,1.3787767865110075e-06,1.1563968235963274e-06,3.470669932193474e-07
-8.767963568667738e-08,-2.779613834288207e-07,-7.904218653083896e-07,-2.0142619894794575e-07,-7.816734236535534e-08,4.140870721296716e-08,6.1342298853776e-07,6.176835149765834e-07,6.852669256728203e-07,-1.516357910163114e-07,-2.4465799194487313e-07,-4.245416567141209e-07,1.452723413091278e-07,-3.7728995973225233e-07,6.590345224562352e-07,1.4660746956166057e-06,1.1219467899369593e-06,4.108227640907178e-07
-2.829321723337835e-08,-1.8249898410151033e-07,-7.318446251419711e-07,-1.2738191174944995e-07,2.732974947009509e-08,-6.336369994516947e-09,7.040732933881143e-07,6.970511503763563e-07,7.929068970511167e-07,-5.921788044291634e-09,-2.0563316621276075e-07,-4.5175653507520207e-07,3.298615731075724e-08,-4.0777487242235926e-07,6.955271368784721e-07,1.5515549189288422e-06,1.0717718413486958e-06,4.820756398653329e-07
3.1859586409371714e-08,-1.295780526814567e-07,-6.340397676128934e-07,-3.071004210266535e-08,1.123668335563981e-07,-1.5934186622206953e-10,7.636700028719126e-07,7.651541831689782e-07,9.059132370921081e-07,1.2287441940933505e-07,-1.7666502915440339e-07,-4.774590659933793e-07,-9.50028281757068e-08,-4.590162053111704e-07,7.023384908688606e-07,1.630215043107439e-06,1.0196067528950636e-06,5.487209307563158e-07
7.472412534172269e-08,-1.0850996426596817e-07,-5.577067655119523e-07,5.842826377198756e-08,1.701394959301563e-07,4.5629622132095024e-08,8.199483166510186e-07,8.149598293629821e-07,9.90557122743636e-07,1.9507209561669784e-07,-1.58720149030628e-07,-4.904076236218533e-07,-1.8214890487792955e-07,-4.920400473472592e-07,6.97908429575721e-07,1.701950227727302e-06,9.655744803443073e-07,6.093606685008661e-07
8.464777200271842e-08,-7.070130413536436e-08,-4.794381666762766e-07,1.292553215883775e-07,1.9920910730481406e-07,1.1465213541845071e-07,9.094164687953065e-07,8.435939440674386e-07,1.0715137241669748e-06,3.079863150665074e-07,-1.4915657695913865e-07,-4.830646465513157e-07,-2.3084753504693326e-07,-5.349076968585673e-07,6.625893226966331e-07,1.7713409591889126e-06,9.13662950774695e-07,7.154191110947683e-07
5.3259188130485804e-08,-7.825675267644722e-09,-3.9718761971858524e-07,1.752826949160333e-07,2.02447136090316e-07,2.172816694043095e-07,1.031101084114948e-06,8.519750248331193e-07,1.1587869843112603e-06,3.694952275623351e-07,-1.440419666453927e-07,-4.5478069731988087e-07,-2.5983009800323816e-07,-6.53876314614889e-07,6.180425297557591e-07,1.8440769293769948e-06,8.683753431772548e-07,8.014463075824597e-07
-1.860250877006645e-08,7.366444036215073e-08,-3.1937766222004755e-07,2.0018411846721108e-07,1.8555519615819067e-07,3.109435936856301e-07,1.2337107789660981e-06,8.441954644766512e-07,1.2758854684977334e-06,3.6716449938790734e-07,-1.4025313437455486e-07,-4.109969846045466e-07,-2.682280402777432e-07,-7.549105352446766e-07,5.648805289373183e-07,1.9236206771248976e-06,8.353437560209552e-07,8.381859469986849e-07
-1.217657331966837e-07,1.2269335995632056e-07,-2.28188379149476e-07,2.1394213040785994e-07,1.5613354854591211e-07,4.2979330351524173e-07,1.484286000806192e-06,8.264187462792584e-07,1.2909343415157636e-06,3.273608438910677e-07,-1.362625231429751e-07,-3.602380774623807e-07,-2.1459363843221215e-07,-7.815437208370186e-07,5.134919983489993e-07,2.009034591021477e-06,8.16588905690752e-07,8.171874680652211e-07
-2.4201889632712403e-07,1.2961776746825886e-07,-1.263707841303373e-07,2.2267392715771714e-07,1.2178568649767368e-07,5.557472118759464e-07,1.7256984867010295e-06,8.048819857772016e-07,1.284601584086145e-06,3.1408007023653756e-07,-1.3210978443682087e-07,-3.115103946627324e-07,-1.1653193059112138e-07,-7.680039678935132e-07,4.6807871419077e-07,2.093916572143029e-06,8.105063606744924e-07,7.866056916460999e-07
-3.6378444159734824e-07,1.0904241251565742e-07,-2.2110858496023308e-08,2.186487066208576e-07,8.777561601286811e-08,5.980577934447839e-07,1.8777469285332257e-06,7.842223101012932e-07,1.2998446761778893e-06,2.986725234543606e-07,-1.286841093557361e-07,-2.7219846906660746e-07,-2.224223047762214e-08,-7.684026613863484e-07,4.2938576987156224e-07,2.168167050730935e-06,8.145565484145007e-07,7.631499655445642e-07
-4.736053111006466e-07,7.645119209052922e-08,5.141954503089842e-08,2.0621737897336457e-07,5.64794612093868e-08,6.186404728327113e-07,1.9108011523296275e-06,7.673356720766407e-07,1.317452577335319e-06,2.7407436319385055e-07,-1.2648610560016982e-07,-2.4629290668301896e-07,3.2448311699793015e-08,-7.933871645550353e-07,3.9728730868560113e-07,2.2224695569335756e-06,8.18606496054704e-07,7.47886072857186e-07
-5.620800837334589e-07,3.159291618024697e-08,1.130998625911314e-07,1.8893036976818763e-07,2.8157365043126503e-08,6.586647392570497e-07,1.9643644433410295e-06,7.558209732730031e-07,1.333607255937464e-06,2.4249936888671627e-07,-1.2511103636424215e-07,-2.3440401918165506e-07,5.899825485734489e-08,-8.069024957861499e-07,3.6976196420449215e-07,2.2516478416529184e-06,8.215882634602291e-07,7.357112354250225e-07
-6.242838943785622e-07,2.5988330550325895e-09,1.5517467232857023e-07,1.664389232798641e-07,1.1740739133267828e-09,7.176253220042954e-07,2.047393576429532e-06,7.497835896526997e-07,1.3402337042729616e-06,2.0284125283436488e-07,-1.2400239933208384e-07,-2.3571176339582628e-07,6.187996217732242e-08,-8.045208489469151e-07,3.4763095141607424e-07,2.254773993548309e-06,8.243256793344732e-07,7.275962491495915e-07
-6.588138665930171e-07,-1.4149953223631487e-08,1.6580770994305626e-07,1.3860950153352722e-07,-2.7707290491725963e-08,7.990658592379046e-07,2.1431938915230272e-06,7.478792365137061e-07,1.3357960147453228e-06,1.603517855040437e-07,-1.232765637166454e-07,-2.496543227391017e-07,5.1270751498053076e-08,-7.988165711075053e-07,3.2936453879585694e-07,2.233888677854747e-06,8.236520075868169e-07,7.221757861481103e-07
-6.661050028575067e-07,-3.0151246392693853e-08,1.7398724713635142e-07,1.0661787172369794e-07,-6.215381113658022e-08,8.643697951988174e-07,2.148483062040845e-06,7.481847162776905e-07,1.3479750689260919e-06,1.1259515301224951e-07,-1.2373576513306804e-07,-2.76280533991004e-07,2.7322878843808577e-08,-7.906004941471119e-07,3.1268866554409135e-07,2.1928488728745342e-06,8.178284227157742e-07,6.958156065980056e-07
-6.477564832081181e-07,-4.7814392331418634e-08,1.708840000441846e-07,7.305836599661695e-08,-1.0572743198007946e-07,8.053668581051751e-07,2.146730725045358e-06,7.488828132464393e-07,1.361833495967247e-06,5.930563752062575e-08,-1.2659533973870584e-07,-3.160692263024298e-07,-1.1943429289226955e-08,-7.878253167464612e-07,2.943113097431232e-07,2.136243730583409e-06,8.062236968096385e-07,7.420122548912162e-07
-6.073401091161019e-07,-7.185537241580829e-08,1.5274277940000387e-07,4.04549021725518e-08,-1.6224427402838523e-07,7.05851710240848e-07,2.0005248754898704e-06,7.48280711637504e-07,1.3414442489285319e-06,6.794052898674221e-10,-1.3305473419138734e-07,-3.6906570446394783e-07,-6.291230027340096e-08,-7.936952232152902e-07,2.7239848579343285e-07,2.0693478160873457e-06,7.886258664166324e-07,8.145190245477566e-07
-5.51431494419137e-07,-1.024261092429345e-07,1.2375976581606406e-07,1.4818282876708255e-08,-2.3457699177299456e-07,6.402118387986108e-07,1.7969106333475737e-06,7.454932426561844e-07,1.297960004841173e-06,-5.806271616954628e-08,-1.4328356357471133e-07,-4.3293955665564934e-07,-1.1909015348601026e-07,-8.053876075175437e-07,2.468369995586296e-07,1.999427119842791e-06,7.674219904554561e-07,8.037061954928536e-07
-4.888534836674882e-07,-1.376468562107666e-07,8.842283357338357e-08,-2.8169561332208296e-09,-3.217495888580675e-07,6.50343254580298e-07,1.638924549303617e-06,7.413913632309731e-07,1.2361995356730437e-06,-1.1564365421773042e-07,-1.556162741011525e-07,-5.020956205388485e-07,-1.7001675097131581e-07,-8.212340570153237e-07,2.1895892481569676e-07,1.935295952396157e-06,7.461638600770827e-07,7.092185769191253e-07
-4.287962402369675e-07,-1.7425030219299016e-07,4.6896921839902363e-08,-1.1787388549114866e-08,-4.179901266091874e-07,6.60565607933675e-07,1.5131623727048297e-06,7.381996736932804e-07,1.1717667756568963e-06,-1.6932757689774438e-07,-1.6742311402157077e-07,-5.700131366515609e-07,-2.056998785768471e-07,-8.406204289620921e-07,1.9113957309901216e-07,1.8831501403797041e-06,7.306790651312969e-07,6.205335176876745e-07
-3.783617301939088e-07,-2.0866175399458553e-07,-6.099098852560888e-09,-1.2640360684585258e-08,-5.149449920364027e-07,6.751531442549344e-07,1.4879312484136897e-06,7.369871614372413e-07,1.1196972620954666e-06,-2.1519107501138263e-07,-1.7704374399397874e-07,-6.327101309162594e-07,-2.2120992284492774e-07,-8.506627701401861e-07,1.6428984621343522e-07,1.8426938932515666e-06,7.178903898799661e-07,5.676198497068328e-07
-3.411094781936394e-07,-2.3696009107324663e-07,-6.091905081696374e-08,-9.709679251195402e-09,-6.039131232619464e-07,6.49708569710225e-07,1.5538358035809507e-06,7.367210467041277e-07,1.0791291452071232e-06,-2.5224894059463245e-07,-1.8457207963632624e-07,-6.895278226151092e-07,-2.1804023611884576e-07,-8.604447188987805e-07,1.3851890781923598e-07,1.8085829912555274e-06,7.05822698086267e-07,5.244088887469016e-07
-3.1740585183380766e-07,-2.567548839266636e-07,-1.1169793772504541e-07,-6.342527921384676e-09,-6.766767152376706e-07,6.772138192391431e-07,1.6949380942667374e-06,7.362166005386749e-07,1.0297076664113426e-06,-2.7912247703712674e-07,-1.9109558731683232e-07,-7.412881000099168e-07,-2.0070281194896732e-07,-8.799245124833917e-07,1.143518687611427e-07,1.7757715669332177e-06,6.93322337645941e-07,4.98844346989445e-07
-3.053614063173245e-07,-2.678882499289418e-07,-1.5590625069434875e-07,-4.201883951405723e-09,-7.268622081303411e-07,7.749229795891964e-07,1.8304341786135288e-06,7.356363683335841e-07,9.764041121695095e-07,-2.963497673516661e-07,-1.979287030833152e-07,-7.884701558650049e-07,-1.7505979485727937e-07,-9.107452139046419e-07,9.279173559558723e-08,1.7435197256521732e-06,6.78599766642664e-07,4.348937846642669e-07
-3.015203252141792e-07,-2.726303411232345e-07,-1.8984584814191285e-07,-3.851119550668038e-09,-7.518764389695864e-07,9.182100984718122e-07,1.938559025156675e-06,7.361822765433073e-07,9.454245629575447e-07,-3.0748154744490596e-07,-2.0637676222048382e-07,-8.30032112937676e-07,-1.4697416361515721e-07,-9.54791740267331e-07,7.51716073383519e-08,1.7161364758374463e-06,6.638836819736528e-07,3.633913442268558e-07
-3.008135630479554e-07,-2.750955474880144e-07,-2.1631984150343903e-07,-4.790471580931452e-09,-7.527722646294204e-07,1.0261793833323726e-06,2.0194854673837193e-06,7.389166697533447e-07,9.289314980228746e-07,-3.1783492454822217e-07,-2.172204893818416e-07,-8.624785720078967e-07,-1.2068084061587837e-07,-1.0038427912190312e-06,6.345097101142076e-08,1.701539565666087e-06,6.529292081735683e-07,3.4438313800795943e-07
-2.9686316869668574e-07,-2.790170912308703e-07,-2.394202710876066e-07,-5.19834656288156e-09,-7.321639571329371e-07,1.0509014877961533e-06,2.047579832999376e-06,7.43950194903095e-07,9.247366359396341e-07,-3.3231573069787666e-07,-2.2995819082833832e-07,-8.804975419086428e-07,-9.80489831950399e-08,-1.0448549383239106e-06,6.013243685695733e-08,1.7078394203321308e-06,6.512395861602522e-07,3.480466077490399e-07
-2.837982935072922e-07,-2.8578530064636133e-07,-2.615602835396028e-07,-2.4097293966890106e-09,-6.932782547247392e-07,9.57192875919385e-07,1.981819053586092e-06,7.501082008139037e-07,9.298768780065747e-07,-3.5308328536976693e-07,-2.4259703161851737e-07,-8.798174252681782e-07,-7.913270029403885e-08,-1.0655533904681624e-06,6.702086361538996e-08,1.7387469988258995e-06,6.621616691614436e-07,3.615569804791109e-07
-2.584808764341586e-07,-2.9404566248504357e-07,-2.796781967101426e-07,5.8790290901916135e-09,-6.40986447189004e-07,8.342090118230802e-07,1.8706521694451846e-06,7.55516630612785e-07,9.337902799614111e-07,-3.7824038796444845e-07,-2.520421519330045e-07,-8.599417329740384e-07,-6.307418379225715e-08,-1.0672440304230817e-06,8.408919074748636e-08,1.7908953639842168e-06,6.867864666350962e-07,3.77478777677732e-07
-2.213105233169753e-07,-3.003095794450484e-07,-2.957284475967509e-07,2.0999644268994604e-08,-5.821820623006063e-07,7.815946770196714e-07,1.7039460039347343e-06,7.589152027306298e-07,9.353887097195645e-07,-4.021939886137741e-07,-2.5485293417871435e-07,-8.246107454478845e-07,-4.866337464414084e-08,-1.0501423274576617e-06,1.0956874178424265e-07,1.854811833168535e-06,7.230411484533438e-07,3.9267185989028187e-07
-1.7560143189416812e-07,-3.003479266835967e-07,-3.153602429299779e-07,4.291753935717342e-08,-5.247864636238891e-07,7.334665634456636e-07,1.4327219765886065e-06,7.602720315783655e-07,9.398849414568997e-07,-4.1823474205992144e-07,-2.48620124299202e-07,-7.805196431581135e-07,-3.506068433075185e-08,-1.0180389787905066e-06,1.4044509001274e-07,1.918058221254256e-06,7.659675774057461e-07,3.847171655131387e-07
-1.2629282844586188e-07,-2.913941880483626e-07,-3.355365742478754e-07,6.952131166643821e-08,-4.766178616856986e-07,7.073563038313731e-07,1.2333812563686238e-06,7.602384195952008e-07,9.441091887441251e-07,-4.21946119354827e-07,-2.334537358743537e-07,-7.352763381844461e-07,-2.2391581050719322e-08,-9.796603298632855e-07,1.7320759502166042e-07,1.968992535576183e-06,8.097969879572301e-07,3.605751427193672e-07
-7.85782861765294e-08,-2.7370370196799995e-07,-3.5522714422013243e-07,9.684410735088783e-08,-4.440238841294183e-07,7.365222830301698e-07,1.1448833867970556e-06,7.592742863981906e-07,9.396161310849833e-07,-4.1306175057519844e-07,-2.1219580496189827e-07,-6.95015444889389e-07,-1.1325627762191906e-08,-9.410770947355459e-07,2.0491229187377266e-07,2.0002939114872927e-06,8.492950663053011e-07,3.339916173418846e-07
-3.682161235591086e-08,-2.5032278407054384e-07,-3.7409934999895245e-07,1.2065779689019883e-07,-4.3029924427576936e-07,7.121719167187642e-07,1.0552229334915401e-06,7.574351270087871e-07,9.270867230892765e-07,-3.952451664760526e-07,-1.8933847885627861e-07,-6.62945171223184e-07,-2.293607017799032e-09,-9.078389088310921e-07,2.336984990642946e-07,2.0102840919325596e-06,8.810121299082171e-07,3.091863816555119e-07
-3.96368441853236e-09,-2.257341024747696e-07,-3.9063359338496685e-07,1.3775706329271174e-07,-4.35210309042925e-07,6.408889464566046e-07,9.365474470914223e-07,7.544134694425209e-07,9.061247309677329e-07,-3.745766941441267e-07,-1.696424010104462e-07,-6.396199447029881e-07,4.591239896068119e-09,-8.817335535274091e-07,2.583461553484182e-07,2.001311309307146e-06,9.037312384820197e-07,2.972953323819678e-07
1.8130130913940066e-08,-2.0486552347168048e-07,-4.0585892418150854e-07,1.4646980835423654e-07,-4.5557425839064126e-07,5.099757073182188e-07,7.279389312467412e-07,7.49832834989012e-07,8.775700655904912e-07,-3.573895465704505e-07,-1.5670382720148122e-07,-6.235043117233919e-07,9.618797891031895e-09,-8.636889288344563e-07,2.781795659004958e-07,1.9778568130119145e-06,9.153088672615875e-07,2.906689807343589e-07
2.8772689417789207e-08,-1.9127815664918258e-07,-4.1748903560297433e-07,1.4735228921525802e-07,-4.854770577669281e-07,3.8763997534960074e-07,4.502551245200006e-07,7.444589221706729e-07,8.462363185346659e-07,-3.479266410323439e-07,-1.5162412498377846e-07,-6.109279720973678e-07,1.4125031253912058e-08,-8.527827946011308e-07,2.9389142542728776e-07,1.9461606146884105e-06,9.19844664131766e-07,2.835012805327883e-07
2.8687228046080502e-08,-1.859958480951302e-07,-4.2599945496593383e-07,1.4330553038178574e-07,-5.170234285231329e-07,2.6190141945120677e-07,1.6165102309899578e-07,7.407261650938605e-07,8.164196085270806e-07,-3.4712893787799345e-07,-1.5273900385346993e-07,-5.969677348887767e-07,2.0411667998444766e-08,-8.40816714230748e-07,3.075813747402079e-07,1.913526947130769e-06,9.206677329077675e-07,2.833917647335473e-07
1.9436841620773053e-08,-1.880231153017962e-07,-4.319650541558183e-07,1.3806911115572798e-07,-5.429192365149383e-07,1.9182603901460613e-07,-1.0571931380265114e-07,7.415022170597671e-07,7.923874219193749e-07,-3.532907509817692e-07,-1.5683527628598896e-07,-5.777517094186821e-07,3.0459232173620356e-08,-8.21853567362667e-07,3.2148043228581514e-07,1.8863010843454945e-06,9.203974378589476e-07,2.8563568410337595e-07
2.9487276399506742e-09,-1.955348197841295e-07,-4.348072452287501e-07,1.3460974204851816e-07,-5.588491865757905e-07,1.1986808233117808e-07,-2.786052030041498e-07,7.487168667885069e-07,7.771344991289763e-07,-3.6326699559692085e-07,-1.6063004438283118e-07,-5.520015059205772e-07,4.501757313452651e-08,-7.932833860667614e-07,3.369425612562003e-07,1.8684362855671404e-06,9.222651911166463e-07,2.8802653738568364e-07
-1.8653157288637795e-08,-2.064706592873952e-07,-4.3532667030670175e-07,1.3490151771358965e-07,-5.635162597281413e-07,3.6248818850755787e-09,-4.191537502430938e-07,7.630679130079557e-07,7.717841319374295e-07,-3.7339159406968127e-07,-1.6154808769228798e-07,-5.207842818193273e-07,6.367432374316606e-08,-7.547000421164385e-07,3.543215058814098e-07,1.8613130860407695e-06,9.270446509868069e-07,2.912650129016151e-07
-4.334381522961937e-08,-2.1893019709946635e-07,-4.3341461293978085e-07,1.3974993403607308e-07,-5.580257817288257e-07,-9.219805610219678e-08,-5.417235547113053e-07,7.839200125364196e-07,7.758088810011983e-07,-3.806867571122241e-07,-1.5834929074131498e-07,-4.869053025007601e-07,8.475903279681486e-08,-7.097804466454914e-07,3.727636294748264e-07,1.863515138778592e-06,9.34507763259734e-07,2.9287060803410587e-07
-6.951376704978687e-08,-2.3206395337850628e-07,-4.294585383698248e-07,1.478598003899905e-07,-5.461984586194386e-07,-1.670741618786344e-07,-6.375597523836736e-07,8.089060654680653e-07,7.86459902725789e-07,-3.837688164096748e-07,-1.5176182078977827e-07,-4.5438888383421327e-07,1.0514220635036063e-07,-6.650035818058683e-07,3.901644475642919e-07,1.8710347310635822e-06,9.428859470906802e-07,2.9194499445795436e-07
-9.595733772725872e-08,-2.46222901180443e-07,-4.2516562645762713e-07,1.560872563088414e-07,-5.338922209456289e-07,-2.1659287745210338e-07,-7.306535821166679e-07,8.343755473856253e-07,7.992212698914273e-07,-3.8289718153053285e-07,-1.4423441665856266e-07,-4.2721672833249646e-07,1.21021414492996e-07,-6.269390365017535e-07,4.0414171340215153e-07,1.8791087776557885e-06,9.505141977412682e-07,2.891048813850397e-07
-1.2148497199014203e-07,-2.620215885062603e-07,-4.233536522463453e-07,1.613272702338062e-07,-5.26439664047647e-07,-2.9530900120704576e-07,-7.773899992845003e-07,8.566956707781656e-07,8.094387251182725e-07,-3.7922407904620544e-07,-1.388804681761876e-07,-4.080963245341471e-07,1.2905244768529988e-07,-5.999108497873146e-07,4.1302162374272114e-07,1.8839816601530428e-06,9.553162745220846e-07,2.863455051222582e-07
-1.4470236568831263e-07,-2.7971178505432427e-07,-4.253511442932134e-07,1.6147701171487246e-07,-5.270729028085925e-07,-3.17682941920073e-07,-8.005427425621979e-07,8.729831510822657e-07,8.13371089756266e-07,-3.74236408141392e-07,-1.3872148270160702e-07,-3.985121366966245e-07,1.2661968394514543e-07,-5.878691482462333e-07,4.1569280100171464e-07,1.8827270450563098e-06,9.56128518985554e-07,2.8059579447903043e-07
-1.6427116701110558e-07,-2.996126091773369e-07,-4.3220389727761e-07,1.5484039508594457e-07,-5.374147886008246e-07,-3.042923964409851e-07,-8.239382602955239e-07,8.811870572581056e-07,8.083241647738079e-07,-3.69551631233612e-07,-1.4629555161045745e-07,-3.990215335918844e-07,1.1203210908644845e-07,-5.931682304207674e-07,4.114289724537631e-07,1.8729134264764949e-06,9.522620260800138e-07,2.716730598739793e-07
-1.7928428698244833e-07,-3.221577175707057e-07,-4.455722698316235e-07,1.4030288525564864e-07,-5.575278622106577e-07,-3.316656704473087e-07,-8.507019794858157e-07,8.806234259841166e-07,7.934664887306466e-07,-3.6623394906321375e-07,-1.628505783408267e-07,-4.0860457716916214e-07,8.554563141881576e-08,-6.152410262745865e-07,4.0078488822683835e-07,1.8538442982133628e-06,9.438670054650205e-07,2.608163188688039e-07
-1.892991586822099e-07,-3.4709538029324694e-07,-4.6547087708493544e-07,1.1849976109175531e-07,-5.85081402568976e-07,-3.69635662645111e-07,-8.80097016610925e-07,8.725936803560593e-07,7.706041704192713e-07,-3.642185488944942e-07,-1.8780301298377336e-07,-4.2446036654589625e-07,4.982095097486092e-08,-6.506652658635515e-07,3.859150925028969e-07,1.8272666547518085e-06,9.328021390618597e-07,2.4947096438965535e-07
-1.9443882802588456e-07,-3.7339476549902105e-07,-4.906668388324479e-07,9.153899381177654e-08,-6.162413462539678e-07,-4.2997156141325e-07,-9.112930982840052e-07,8.596958721424964e-07,7.431407048137965e-07,-3.6279073045623575e-07,-2.1932039339946998e-07,-4.4344009002778365e-07,8.632032980109927e-09,-6.950350692583738e-07,3.6925130482855e-07,1.7959026483243854e-06,9.209060632641686e-07,2.405655219453375e-07
-1.957857259232304e-07,-4.0022073863779765e-07,-5.194137283368556e-07,6.13442777299395e-08,-6.480761993091845e-07,-5.113715996231497e-07,-9.440134789061182e-07,8.445385725876804e-07,7.142536611845384e-07,-3.612243163250091e-07,-2.5526043814177815e-07,-4.6339865594902034e-07,-3.4660782033631124e-08,-7.449056072679029e-07,3.5242795423166666e-07,1.7622017971915638e-06,9.092861956389213e-07,2.3507996086446957e-07
-1.950058949317781e-07,-4.2723775606576434e-07,-5.493964714246874e-07,2.9156676033334165e-08,-6.793109235760207e-07,-5.909876907201071e-07,-9.769399923406709e-07,8.292380181825877e-07,6.862444903106093e-07,-3.585479977591489e-07,-2.934252480382124e-07,-4.829667759299343e-07,-7.733461567006905e-08,-7.973204574648463e-07,3.3671645238210975e-07,1.7289501405069277e-06,8.993605982848722e-07,2.3316489453693895e-07
-1.9410366079135283e-07,-4.5401029397620873e-07,-5.776012867946724e-07,-3.742757205482571e-09,-7.092280213364198e-07,-6.647372076887637e-07,-1.0211721942845122e-06,8.15498435986014e-07,6.608449249487235e-07,-3.53256808930032e-07,-3.3157047757445794e-07,-5.011749074308148e-07,-1.1730639584160901e-07,-8.496177657111244e-07,3.23271071141249e-07,1.6992890803963165e-06,8.912993156618114e-07,2.3430378927905112e-07
-1.952645973828922e-07,-4.799291216636766e-07,-6.007756523331842e-07,-3.612435869991594e-08,-7.373846450245364e-07,-7.405362903826456e-07,-1.067474615805405e-06,8.039812498130684e-07,6.38836433615127e-07,-3.4386113945131997e-07,-3.6797504263694845e-07,-5.181647168482343e-07,-1.53898775212385e-07,-9.0074953863679e-07,3.121652374200147e-07,1.674755647092843e-06,8.847059473122856e-07,2.3584808906952104e-07
-2.0048608471798398e-07,-5.049487016787957e-07,-6.163592164758288e-07,-6.752458835338006e-08,-7.642966960369605e-07,-8.012734309735548e-07,-1.1076475281539265e-06,7.939418165995362e-07,6.196554161249008e-07,-3.297285601207792e-07,-4.0192300689219985e-07,-5.355675669044049e-07,-1.8824390564272265e-07,-9.518755598011004e-07,3.0194167524581447e-07,1.6540822903243402e-06,8.778516414440813e-07,2.3655574978996247e-07
-2.1154284845925418e-07,-5.298063971420198e-07,-6.233381739779385e-07,-9.800123594986723e-08,-7.91130148741001e-07,-8.462994807682614e-07,-1.1378406398050884e-06,7.838036553135325e-07,6.021960765017512e-07,-3.11036571218973e-07,-4.3346304076771353e-07,-5.556331881355318e-07,-2.226391780110456e-07,-1.0054574919130308e-06,2.9051198683095105e-07,1.6343354381473788e-06,8.681371374531854e-07,2.345407678167191e-07
-2.289643228864434e-07,-5.555666279313663e-07,-6.227915505169467e-07,-1.276864247918325e-07,-8.189671666618343e-07,-8.821463244245073e-07,-1.1499519184657727e-06,7.717977656271266e-07,5.855358092391065e-07,-2.889599263216036e-07,-4.6319065401137814e-07,-5.805509437375315e-07,-2.600798038302657e-07,-1.0642462542507323e-06,2.7582488837137565e-07,1.6121052348745043e-06,8.534686946721676e-07,2.276223385855624e-07
-2.5139715353658657e-07,-5.83474527585016e-07,-6.185683183338385e-07,-1.5741220421074416e-07,-8.492430573138397e-07,-9.035019209452968e-07,-1.140602075929823e-06,7.559541166595922e-07,5.687272731787886e-07,-2.6614607842744845e-07,-4.924839297389135e-07,-6.124763902349439e-07,-3.042484642497947e-07,-1.1316461141293052e-06,2.558048187838839e-07,1.583767569017371e-06,8.318440861284973e-07,2.1433865647654825e-07
-2.7561693788386695e-07,-6.148244889315022e-07,-6.17208131691544e-07,-1.8893419597822115e-07,-8.838828245425336e-07,-9.099369007129941e-07,-1.1050818267363098e-06,7.346077383570546e-07,5.508884972579293e-07,-2.4624507137200743e-07,-5.230860733298258e-07,-6.524107325443049e-07,-3.582425127577282e-07,-1.2102128527691418e-06,2.2917561541469306e-07,1.5470222192200816e-06,8.023965786357019e-07,1.936561935047543e-07
-2.9692888884940013e-07,-6.500096330143689e-07,-6.256245709625382e-07,-2.235431279763921e-07,-9.234275867403847e-07,-8.992923518837559e-07,-1.043796415243812e-06,7.080825844182861e-07,5.326220378883168e-07,-2.319768441630672e-07,-5.556021393676923e-07,-6.979132396076038e-07,-4.219634447749106e-07,-1.2977469487120099e-06,1.9711179876698847e-07,1.5036373617743389e-06,7.667942205597916e-07,1.6745168243783222e-07
-3.1089427231493133e-07,-6.877495644228177e-07,-6.477524389345569e-07,-2.6117743020270103e-07,-9.658550229758968e-07,-8.643385372196265e-07,-9.561403516093576e-07,6.793294206787892e-07,5.16330203006876e-07,-2.233112710995745e-07,-5.885565549726484e-07,-7.427700281313152e-07,-4.909095019755202e-07,-1.3864226350643817e-06,1.632608170164518e-07,1.4598675366029002e-06,7.293329179691059e-07,1.403104983140333e-07
-3.1637964551019665e-07,-7.258851462248932e-07,-6.826110669777063e-07,-3.017270986299103e-07,-1.0081260342650755e-06,-8.032191563433581e-07,-8.461039608970002e-07,6.524445265518749e-07,5.0453932245087e-07,-2.1780947719033097e-07,-6.191732031774374e-07,-7.79815639743748e-07,-5.578533798506036e-07,-1.466578246727287e-06,1.3168963095434603e-07,1.42356227697733e-06,6.946882453391026e-07,1.1737424754972982e-07
-3.177804365545366e-07,-7.627459569163142e-07,-7.245631620719619e-07,-3.4624217962642944e-07,-1.048521057593465e-06,-7.201376683622957e-07,-7.175625280781882e-07,6.310455119239192e-07,4.981952789099826e-07,-2.1180298508321978e-07,-6.446895773204941e-07,-8.040349175434642e-07,-6.156429855011683e-07,-1.5299283156872854e-06,1.0532430866695562e-07,1.4010925356677673e-06,6.667053198713188e-07,1.0144128975767174e-07
-3.2373027937227083e-07,-7.973096737230646e-07,-7.648160892853499e-07,-3.957719126764661e-07,-1.0864898029719783e-06,-6.162589224050495e-07,-5.751738227075025e-07,6.181817029452683e-07,4.972305382933673e-07,-2.0186884324147965e-07,-6.629727002435838e-07,-8.136051614961958e-07,-6.59343298926879e-07,-1.5703989420501143e-06,8.59219998267479e-08,1.3959592667111025e-06,6.483122386178859e-07,9.350714200455926e-08
-3.432751475365345e-07,-8.285376094782527e-07,-7.940219885131495e-07,-4.495620170350932e-07,-1.121082964909882e-06,-4.990815687651413e-07,-4.2826687858609514e-07,6.162771750946309e-07,5.018722360822307e-07,-1.864535943818604e-07,-6.729054016746462e-07,-8.097912820591072e-07,-6.877854163966338e-07,-1.5848579446588457e-06,7.421699962925835e-08,1.408100013318215e-06,6.408986701742831e-07,9.306845938411046e-08
-3.8177397070717993e-07,-8.552567989036631e-07,-8.053919139189284e-07,-5.048414461042989e-07,-1.1507832145501724e-06,-3.7874613355501593e-07,-2.8854803403695387e-07,6.260733613378161e-07,5.125107022953975e-07,-1.668516622612827e-07,-6.748919357310944e-07,-7.965776329769907e-07,-7.042056583236578e-07,-1.5752401587902584e-06,6.973459812210677e-08,1.4338794737770874e-06,6.438808321915023e-07,9.797577699150147e-08
-4.3841877237714647e-07,-8.764840726116271e-07,-7.969749851101579e-07,-5.574582788968094e-07,-1.1739573287473972e-06,-2.6694553631347773e-07,-1.710470627902634e-07,6.460698965195108e-07,5.294563314312355e-07,-1.4647101157870908e-07,-6.708412975706013e-07,-7.792708928998976e-07,-7.147462353161217e-07,-1.5481099896089813e-06,7.119893842151453e-08,1.4677194391726264e-06,6.550729750592345e-07,1.0604510842312802e-07
-5.062403656774299e-07,-8.91307632119721e-07,-7.717998023241131e-07,-6.024976780269335e-07,-1.1887825662497833e-06,-1.7711675263957818e-07,-8.59938141908467e-08,6.733690143484092e-07,5.531563955059277e-07,-1.2883117784931925e-07,-6.633872541161392e-07,-7.624214245985396e-07,-7.254399977929649e-07,-1.5121624741066352e-06,7.716865204169284e-08,1.5040598947637083e-06,6.713914446028066e-07,1.1623147695608094e-07
-5.746082187433609e-07,-8.994084186515798e-07,-7.36559286985638e-07,-6.359159686997104e-07,-1.1940416059802149e-06,-1.1894378022302349e-07,-3.753400537273681e-08,7.046005048416752e-07,5.835487973694211e-07,-1.1646782075632696e-07,-6.551978196769372e-07,-7.487814234286389e-07,-7.400434982136029e-07,-1.476321774321579e-06,8.59732723515147e-08,1.5379295715081824e-06,6.891530234001259e-07,1.2868357817872021e-07
-6.332425999116401e-07,-9.018950253184908e-07,-6.998141468382311e-07,-6.567585648642481e-07,-1.1911117315096472e-06,-9.177514636446071e-08,-1.6147958033544358e-08,7.363313093810499e-07,6.188330164153501e-07,-1.1083741133367141e-07,-6.485648186493033e-07,-7.393529329724685e-07,-7.594519668435075e-07,-1.448052345255145e-06,9.575668942010154e-08,1.5654427822361315e-06,7.047712859964717e-07,1.4440027487248876e-07
-6.752308947836194e-07,-9.009740185875409e-07,-6.695760834168507e-07,-6.672557446239264e-07,-1.1840471375524736e-06,-9.274520619190024e-08,-9.554927624812538e-09,7.659033876394726e-07,6.557769996489101e-07,-1.1172940407840409e-07,-6.446536381874375e-07,-7.333132982384406e-07,-7.816611935231102e-07,-1.4310065967239999e-06,1.0545869348388684e-07,1.5855086083375109e-06,7.162674797068408e-07,1.6524606638270883e-07
-6.973384550038262e-07,-8.983439580044792e-07,-6.508137838203867e-07,-6.705622274344538e-07,-1.1768831313143805e-06,-1.087085744452455e-07,-3.3114508717157655e-10,7.926934322941906e-07,6.91565318047655e-07,-1.1625853323445478e-07,-6.427772345068282e-07,-7.281502901192438e-07,-8.023214502898874e-07,-1.423919752825022e-06,1.1544222119968925e-07,1.6004926167042847e-06,7.238530407105995e-07,1.9342150907293437e-07
-6.98480957835378e-07,-8.938963264148922e-07,-6.447328760505833e-07,-6.689666585542954e-07,-1.1713583777860093e-06,-1.2039639680321736e-07,3.052515981689039e-08,8.184186235474922e-07,7.248042963779694e-07,-1.1868468598888275e-07,-6.405734987905615e-07,-7.207546771960244e-07,-8.164142447335002e-07,-1.4225519283646177e-06,1.266692971596595e-07,1.614046639223758e-06,7.287374902052305e-07,2.2984640894906535e-07
-6.776531028264263e-07,-8.859446661228643e-07,-6.501189046480247e-07,-6.63607814567589e-07,-1.1666878355960814e-06,-1.1120193084005086e-07,1.0195482145799267e-07,8.464653865659448e-07,7.554129477826151e-07,-1.1127074565169737e-07,-6.347740573289448e-07,-7.082836750102498e-07,-8.199345675740863e-07,-1.4222608798051997e-06,1.3982774826992077e-07,1.6284854070277008e-06,7.319212002423848e-07,2.732575752583668e-07
-6.322565762620626e-07,-8.718084939729408e-07,-6.648921136245326e-07,-6.54377136243494e-07,-1.1599401872245343e-06,-7.470376052013528e-08,1.9768389475624684e-07,8.811177687125368e-07,7.845911411618184e-07,-8.578603343699058e-08,-6.218428727346585e-07,-6.879308498274231e-07,-8.105300607042875e-07,-1.419123579325395e-06,1.5547067916333286e-07,1.6440223564533342e-06,7.340646712652238e-07,3.210343743960684e-07
