0,1,2,3,4,5,6,7,8,9,10,11,12,13,14,15,16,17
-1.780733000072694e-08,-7.045090611673491e-09,-7.658082377260875e-08,-1.9923429246767018e-07,-5.0853844889802476e-08,-1.5211932869618804e-07,-5.559157013014181e-08,1.4855047849896596e-07,4.185216720542858e-08,-4.759897334922921e-08,2.5398802981473684e-08,-1.078730871518235e-07,5.625429941323256e-08,-1.3071350386769297e-07,3.828476761935497e-08,8.748487847252257e-08,-1.2654727080878203e-07,-1.122114267279873e-07
-6.453940812656551e-08,6.760129903774606e-09,-6.397006776032725e-08,-1.5693759274955783e-07,-4.941217770051639e-08,-9.783677613099358e-08,-7.862697845465998e-10,1.8481844515542388e-07,2.9737804799417276e-08,-7.039789166623412e-08,-3.304006641812155e-08,-8.204107020672166e-08,-1.4052369446936313e-08,-1.0596434703065732e-07,-6.973925659831542e-08,2.0062776409980034e-09,-7.33750889033548e-08,-1.3009096982121553e-07
-1.2910884941346106e-07,1.4495988970155204e-08,-5.7382261392683996e-08,-1.1350314129161594e-07,-1.1318628925285898e-08,-5.286443663695174e-08,1.2967827911826304e-08,2.2705316345572696e-07,3.5504203300293912e-09,-1.0738769148975923e-07,-8.80075983813318e-08,-6.579482518679729e-08,-6.85300834319574e-08,-1.0520068764472878e-07,-1.551284004654362e-07,-7.077215450876163e-08,-5.4426345240431805e-08,-1.4012652715145857e-07
-1.403585658178453e-07,2.43439166307743e-08,-5.642599504758331e-08,-6.947630794237858e-08,3.118149981506638e-08,-7.524938257206797e-08,8.502142321387955e-09,2.2090607717202762e-07,-2.6329494098802412e-08,-1.4308198860575682e-07,-1.205421939564071e-07,-4.1116567876632925e-08,-9.125897755792772e-08,-1.3069456839489202e-07,-1.693379180569207e-07,-1.200686373893625e-07,-4.725442410082557e-08,-1.3155127897515834e-07
-1.3864500710168904e-07,2.3474823511970546e-08,-5.97343082619812e-08,-4.429636665649346e-08,4.839288332738729e-08,-1.04849041572356e-07,-1.825914575560424e-08,2.033340788418333e-07,-5.688420975741023e-08,-1.472469058488106e-07,-1.2542958322254404e-07,-2.7268673754083594e-08,-8.414018918793031e-08,-1.7368812057436544e-07,-2.0016978303618422e-07,-1.4350419889476142e-07,-5.8374617995736124e-08,-9.389506306798163e-08
-1.1306864930804118e-07,1.3346943440297227e-08,-6.439661374135491e-08,-3.476049889028656e-08,4.0160707527292125e-08,-9.309353438526516e-08,8.689977028135658e-10,1.2849546904172468e-07,-8.311804356496376e-08,-1.296926730355604e-07,-1.2926528453933096e-07,-3.688188194173658e-08,-5.938810039117077e-08,-2.174067324336422e-07,-2.2666790005551492e-07,-1.4429794022428848e-07,-7.095849215979449e-08,-6.072603476227456e-08
-6.656131950286615e-08,-2.8541404303048987e-10,-6.603930578435433e-08,-3.545938773123775e-08,1.832213902604049e-08,-7.326530109343919e-08,7.777467952980944e-10,5.085615109631742e-08,-8.589944942740195e-08,-1.1741639745782763e-07,-9.486269223133645e-08,-4.431914496209059e-08,-3.177931548369222e-08,-2.1000234956013108e-07,-1.5980952495625014e-07,-1.2710262962366102e-07,-7.803613495025815e-08,-3.564836888028512e-08
-1.961851842252347e-08,-1.4193770198677574e-08,-6.066411973382805e-08,-4.1336922233383494e-08,-7.533034030563923e-09,-6.28128992940307e-08,-7.249040485640989e-08,-8.799152417230556e-09,-6.584721875327714e-08,-1.0288297036395245e-07,-5.261185799020909e-08,-4.3579419824531484e-08,-1.7177622878512029e-09,-1.6194936186981358e-07,-7.694259727153308e-08,-9.591252154713972e-08,-7.17654603967581e-08,-1.0274874905037536e-08
2.844936910391131e-08,-2.3580542780990434e-08,-4.60778703101129e-08,-4.0322202180954216e-08,-2.792726295693683e-08,-3.3704556362777436e-08,-9.607401933841159e-08,-6.287157615764573e-08,-7.430960693826661e-08,-6.343872442791155e-08,-1.9962404076354607e-08,-3.7857234218348214e-08,2.196526600444381e-08,-1.0967504351704366e-07,-1.5575597217506997e-08,-5.367753759836938e-08,-5.108875157360556e-08,1.5746987957111133e-08
6.461915281271414e-08,-2.573613488643292e-08,-2.2238636998087133e-08,-2.693849505634309e-08,-3.7191643322843016e-08,1.2236400227994773e-08,-8.184354369105086e-08,-9.841344985058515e-08,-7.128028114012605e-08,-3.8715105188002165e-09,1.2980564314056545e-08,-2.2749705931177717e-08,4.103639394971144e-08,-5.502148102878742e-08,3.792214610079635e-08,-2.935979401446101e-09,-1.6601429405554503e-08,4.0811854570670126e-08
8.655661830539415e-08,-2.0798921986394833e-08,9.10367667673368e-09,3.3611321435084266e-10,-3.43475601594498e-08,5.090719091643591e-08,-7.660382650985798e-08,-1.0888110780750022e-07,-5.1636340967169155e-08,5.124441567240299e-08,4.977192968193381e-08,5.148548470771337e-09,5.80221630806468e-08,5.954570432860485e-08,9.01601746050574e-08,5.1798876955515606e-08,2.697203406788252e-08,6.690622243400441e-08
9.758416446049054e-08,-1.2410294105484452e-08,4.492298645691915e-08,3.9119726102303535e-08,-2.1849782851449063e-08,6.943100510057929e-08,-5.266320588187414e-08,-9.576760008863765e-08,-3.138160606258464e-08,1.0161246792052511e-07,8.441320924517933e-08,4.0337621691451036e-08,6.765842810589752e-08,1.815789722493315e-07,1.3538330828304238e-07,1.0243109205165439e-07,7.180326464322314e-08,9.231823016769994e-08
1.0233305140931765e-07,-1.98963308104742e-09,8.178690015187218e-08,8.965097682071606e-08,-1.7739810872492479e-09,8.945386154982918e-08,3.725428423603062e-08,-9.603038792498192e-08,3.331555322847825e-08,1.4784986455375809e-07,1.1083899567984368e-07,7.650457127685034e-08,6.61676907552114e-08,2.699200531820129e-07,1.705728044847309e-07,1.3869112517401703e-07,1.1055212577793044e-07,1.1311185917402384e-07
1.0053848886459935e-07,6.494175080626106e-09,1.168305380949414e-07,1.4668816902677379e-07,1.874851661614198e-08,1.1957068502617475e-07,1.4058944495809528e-07,-1.2391491701155083e-07,9.560049871401217e-08,1.8557090583445907e-07,1.2613061869388806e-07,1.0821597884704545e-07,4.8948203254236004e-08,2.8447194252584505e-07,1.9253708569412835e-07,1.5139463790849564e-07,1.3815815940426882e-07,1.2591719161792094e-07
1.0057462985167396e-07,9.964152332665934e-09,1.4786123560432252e-07,2.0936043097806613e-07,3.635978132584054e-08,1.674822333048963e-07,1.6547614012915473e-07,-2.1564134958963913e-07,1.455138862648088e-07,2.1352636839458777e-07,1.2954945927429292e-07,1.3161975519844695e-07,1.672354427980902e-08,2.90608103534451e-07,2.021499481736861e-07,1.350437007530286e-07,1.5161823829275787e-07,1.3033348845132084e-07
1.0905217288561745e-07,7.159671823468428e-09,1.7300466581813262e-07,2.7710979105771085e-07,4.9042388286326784e-08,2.3671388061815443e-07,8.787540189329139e-08,-3.536943224142488e-07,1.9711592016782738e-07,2.3321170438810927e-07,1.2463810094496756e-07,1.476551355693784e-07,-2.5909191055722514e-08,3.1419142010150827e-07,2.0636074269686522e-07,8.942101023155819e-08,1.4932419334903865e-07,1.2937870991864713e-07
1.6023309228286813e-07,-3.487165642441959e-09,1.908352390665603e-07,3.470796454101501e-07,3.0869611275424174e-08,3.039466827006756e-07,1.2738926667218826e-08,-4.3255347245406995e-07,2.2535386640735533e-07,2.484375812453038e-07,1.1794096220463299e-07,1.60358438221003e-07,-6.75591273617004e-08,2.795135168552132e-07,2.1635623325505052e-07,2.0352851091364057e-08,1.3311823787015877e-07,1.2765436028587907e-07
2.391253013884821e-07,-2.194616916142122e-08,2.0095215614036897e-07,4.169221017535263e-07,-2.0365315169756535e-08,3.8686725672445486e-07,-5.135737796119384e-08,-4.639053240392802e-07,2.438525768082319e-07,2.636704127885121e-07,1.1594434470404178e-07,1.7556730450147605e-07,-9.378868259478387e-08,2.0228735048414885e-07,2.4244999142078815e-07,-6.178235317090399e-08,1.0837021082154105e-07,1.2795289123986346e-07
3.947379306974075e-07,-4.6577279945801926e-08,2.0397352787985434e-07,4.81586055818866e-07,-4.098695401305872e-08,5.251871772605324e-07,-1.298181650501335e-07,-4.806605731387644e-07,2.663630650409556e-07,2.812039439756682e-07,1.2181311804492815e-07,2.006477783070964e-07,-1.0178002882838859e-07,1.3736198198774613e-07,2.8863118849654086e-07,-1.453045967017748e-07,8.121974673980272e-08,1.2899309114390019e-07
5.210973125430511e-07,-7.473161887515352e-08,2.0119916102757013e-07,5.361300349726267e-07,-1.1347425591566829e-07,6.632446247618288e-07,-1.9079620658155444e-07,-5.511004934831399e-07,2.941278160092876e-07,3.004642368102141e-07,1.3462559682507356e-07,2.3878674578184024e-07,-9.357798708829252e-08,1.2895219079563944e-07,3.5094560046686484e-07,-2.1930096449457938e-07,5.821550497688548e-08,1.266600679152458e-07
6.318734986443804e-07,-1.0298759040525147e-07,1.9475747681299867e-07,5.772556402157844e-07,-2.1163331723389837e-07,7.81814204333546e-07,-3.034320263456098e-07,-6.735846075180121e-07,3.331592979318996e-07,3.1953159921280033e-07,1.514266755227729e-07,2.8749187845670727e-07,-7.638505526950812e-08,1.5639714886199422e-07,4.209755361112286e-07,-2.7377667341262703e-07,4.4526880932167885e-08,1.1782458168059858e-07
6.954160592210102e-07,-1.2657816944833183e-07,1.8754472882115572e-07,6.051848281469085e-07,-2.8180749981128973e-07,8.540986159019092e-07,-3.5623252666044134e-07,-7.405079441825031e-07,3.798502549722619e-07,3.3691171578879e-07,1.7060773077724642e-07,3.630786403412299e-07,-5.776463940504581e-08,2.1043136543196657e-07,4.908255290188612e-07,-3.0084609883731905e-07,4.3154754123399094e-08,1.0302384945477557e-07
6.992624373336125e-07,-1.4132629484414018e-07,1.8219224383818818e-07,6.221299993994108e-07,-3.005133012756367e-07,8.992446945050329e-07,-3.872279123649864e-07,-7.577361097983022e-07,4.29240716908409e-07,3.519200684508107e-07,1.925087519145945e-07,4.4272314039489453e-07,-4.0695486856850507e-08,2.592241756935927e-07,5.558230725963933e-07,-2.976531937916235e-07,5.3534736779719985e-08,8.609042562645844e-08
7.444255342534245e-07,-1.4547009977185447e-07,1.798200955571327e-07,6.316160105483368e-07,-2.983717650315009e-07,9.151156869651619e-07,-4.082715832344781e-07,-7.67084883077432e-07,4.786709246169665e-07,3.6408498944072756e-07,2.176767531755865e-07,5.301516091611567e-07,-3.0699240871810963e-08,3.3825040586277684e-07,6.14649092732634e-07,-2.6786866378367493e-07,7.582004609566306e-08,7.218803572905401e-08
7.618754699219725e-07,-1.423300039985324e-07,1.7978294296655424e-07,6.363536453311107e-07,-2.938082996110725e-07,9.552132200468073e-07,-3.992181601752195e-07,-7.77635908989323e-07,5.263149374545776e-07,3.7324990319448306e-07,2.4742134533395257e-07,6.144906134777207e-07,-2.8390737850328625e-08,4.5125141423413024e-07,6.686115130622982e-07,-2.2015725329630692e-07,1.1087527082196166e-07,6.603102848547715e-08
7.276846070571357e-07,-1.3351067134313838e-07,1.800559728322792e-07,6.382433925669858e-07,-3.4237033990958535e-07,1.0106961999188959e-06,-4.22944895154738e-07,-8.133823484019984e-07,5.717650997640344e-07,3.7955583009795905e-07,2.798821688232463e-07,6.884893935827332e-07,-3.590404423178443e-08,5.761224963314254e-07,7.206826368936406e-07,-1.65167607088613e-07,1.3959804847158773e-07,7.07285991483464e-08
6.739404727220241e-07,-1.217579376861017e-07,1.777612280802043e-07,6.385830908277136e-07,-3.5821302641391953e-07,1.048006245104017e-06,-4.419680189826089e-07,-8.374031433055067e-07,6.13455932233734e-07,3.844279644329064e-07,3.1265715185838137e-07,7.477452360486076e-07,-5.414870740581191e-08,6.706210004247631e-07,7.744079176868034e-07,-1.1204350025416151e-07,1.5163611471877197e-07,8.737984059523149e-08
6.333058691812245e-07,-1.1122430658673079e-07,1.7017822222475883e-07,6.368815590432755e-07,-3.31487870758662e-07,1.096218864099917e-06,-4.214826816027103e-07,-8.646110459320972e-07,6.550825411632848e-07,3.8977895696562186e-07,3.4440720379193114e-07,7.919546332508819e-07,-8.147558756053945e-08,7.39693936635401e-07,8.3279572296989e-07,-6.523539573255339e-08,1.3166337906067173e-07,1.1518389787482105e-07
6.007666735499136e-07,-1.0155562695383669e-07,1.562019434515127e-07,6.329639162340131e-07,-3.0665528659819475e-07,1.0904221902956647e-06,-3.634384559164882e-07,-8.434467016389841e-07,6.977730188463956e-07,3.9814797929700144e-07,3.744503258004709e-07,8.227673461768285e-07,-1.1406023739922851e-07,7.96482455360444e-07,8.969588998460126e-07,-2.35010439577137e-08,9.179043256271266e-08,1.5072226523813233e-07
5.744300543182175e-07,-9.539482452295162e-08,1.3715714423919952e-07,6.278140947009744e-07,-2.6759819670081485e-07,1.0612044845782502e-06,-3.27599183306043e-07,-7.882883301143218e-07,7.405542809169426e-07,4.12003467390819e-07,4.0162162910565105e-07,8.438513711027035e-07,-1.453774432585559e-07,8.447830752009736e-07,9.649086705059956e-07,1.8032146059465987e-08,6.575777113714849e-08,1.9026008149116242e-07
5.569783913079835e-07,-9.406342722069483e-08,1.164829911458102e-07,6.226020283471481e-07,-2.139115387890204e-07,1.0256606867726544e-06,-2.9308574881861994e-07,-7.420319939607848e-07,7.817531935159035e-07,4.3231757744200646e-07,4.298440776627351e-07,8.660275529279419e-07,-1.7260156891848655e-07,8.904806405424006e-07,1.0317377308823018e-06,6.542866205821852e-08,3.569711893015243e-08,2.276841269299943e-07
5.49206015251788e-07,-9.652406739482662e-08,9.870147337602323e-08,6.173723566797913e-07,-1.7767987320510813e-07,9.694323933477444e-07,-2.605982654911841e-07,-6.800964729238641e-07,8.17148897758427e-07,4.585912502080579e-07,4.5899904165060493e-07,8.884847952634509e-07,-1.8947737250590961e-07,9.371201012798691e-07,1.091264032813448e-06,1.198045361186972e-07,7.071543949608699e-09,2.564658150900218e-07
5.513573255989609e-07,-1.0108527324496915e-07,8.77884641932789e-08,6.14317027002412e-07,-1.5138687811097687e-07,9.578822334374798e-07,-2.769186173656521e-07,-6.324133987568547e-07,8.439217603417627e-07,4.886963522725651e-07,4.874002335948514e-07,9.135887760377449e-07,-1.837271399867603e-07,9.850142760537896e-07,1.1377916781714444e-06,1.786406232507657e-07,2.4698291684388643e-09,2.7785169534213537e-07
5.620353972826249e-07,-1.0605381862399203e-07,8.532272971389935e-08,6.143259130196747e-07,-1.3023778671605878e-07,9.757607246293068e-07,-2.992254818068242e-07,-6.03504670542949e-07,8.610520822092478e-07,5.188673483620292e-07,5.145167358748625e-07,9.436403679111151e-07,-1.6243960486642387e-07,1.0317932165860104e-06,1.1672935532891062e-06,2.351981007816488e-07,1.3878666709143892e-08,2.79624194054106e-07
5.77535414406176e-07,-1.106454738356639e-07,8.970638149150852e-08,6.152398741298932e-07,-1.1484594782475647e-07,1.006598099885999e-06,-3.2448785637124027e-07,-5.748448369586516e-07,8.69721186377053e-07,5.444433206084489e-07,5.376001681258938e-07,9.709866625376152e-07,-1.302526728840556e-07,1.0730412465792605e-06,1.178332137309734e-06,2.8087440268517165e-07,4.514948291846554e-08,2.4866937736168877e-07
5.926220020208566e-07,-1.1476017535008041e-07,9.744876892485907e-08,6.145706206550541e-07,-9.08667681296584e-08,1.0523163492357246e-06,-3.538991762521978e-07,-5.314741765553055e-07,8.715588572268189e-07,5.618812890960821e-07,5.524510384797736e-07,9.996601533056939e-07,-1.108127939543859e-07,1.1045097120178701e-06,1.1725485772955295e-06,3.104739385532534e-07,6.38208377820108e-08,2.0417616812444268e-07
6.027959289115898e-07,-1.1950935923757648e-07,1.0478399221360349e-07,6.094267766930036e-07,-8.130966078029995e-08,1.0967344177537747e-06,-3.6999269483801165e-07,-4.6948697569326734e-07,8.697909143321468e-07,5.699411604342856e-07,5.603802174816511e-07,1.0382282775586397e-06,-1.0593798889031714e-07,1.123177053465817e-06,1.1541771646931479e-06,3.2031314754391815e-07,7.696226606320098e-08,1.5764278752096092e-07
6.055576009409119e-07,-1.25233217968583e-07,1.0897627782948667e-07,5.974742011594564e-07,-8.502185213964778e-08,1.1260991480232885e-06,-3.7333316050535034e-07,-4.29880060515381e-07,8.679119716390822e-07,5.700342029556194e-07,5.643161062504395e-07,1.0786508175563564e-06,-1.1345920466663302e-07,1.1277930156711362e-06,1.1290819608661718e-06,3.1756236965111297e-07,9.253466190319855e-08,1.0303870065620935e-07
6.011084152509043e-07,-1.3251397688869965e-07,1.089499808650295e-07,5.782126925515806e-07,-7.573969740255048e-08,1.1414731347043042e-06,-3.8841192599395665e-07,-3.75990138849732e-07,8.679749404974105e-07,5.661305595790827e-07,5.60909461586514e-07,1.0931857661503378e-06,-9.840887116616073e-08,1.1205367578049095e-06,1.103783676477245e-06,3.085343953697909e-07,9.783818522912026e-08,4.8749481521334796e-08
5.909575968546476e-07,-1.4151794231738426e-07,1.0780521898205675e-07,5.531146347941014e-07,-5.2486263049772144e-08,1.146700479557502e-06,-4.064080185063363e-07,-3.3452760228851763e-07,8.704289582614136e-07,5.634513228450141e-07,5.559189134847209e-07,1.087678541621217e-06,-3.1820667235458285e-08,1.1059171347975768e-06,1.0840343274207844e-06,3.140171635258033e-07,9.953665828806818e-08,6.520566566274543e-09
5.793255244648464e-07,-1.4992514166732175e-07,1.0978790687988163e-07,5.245588318115775e-07,1.2276705510118141e-08,1.134322261215256e-06,-4.1698557369769147e-07,-2.4424992115560626e-07,8.7274983155609e-07,5.663613260425333e-07,5.499877611629286e-07,9.85337628084303e-07,6.976390602117571e-08,1.0917491303048008e-06,1.0730978636891207e-06,3.595533395739791e-07,1.0302386402998456e-07,-1.823900043584592e-08
5.697484982878305e-07,-1.550296462486927e-07,1.1913241061807628e-07,4.960749878245735e-07,1.367240891148885e-07,1.1142097568917712e-06,-3.981260888463973e-07,-1.4295140609335215e-07,8.697327901354056e-07,5.769825836172002e-07,5.436088957341841e-07,8.8916512737486e-07,1.7363910426286057e-07,1.0873124511619405e-06,1.0709095810583291e-06,4.910082075819819e-07,1.107253184109932e-07,-2.286694837878003e-08
5.639556433238768e-07,-1.528864211520757e-07,1.3925547844538967e-07,4.725689768445019e-07,2.1579169632124144e-07,1.0822795422156752e-06,-3.375554298543445e-07,-7.42898077357045e-08,8.559923726831571e-07,5.949381936287995e-07,5.379680748079768e-07,8.391212304484301e-07,2.1870371143204878e-07,1.087778058036327e-06,1.0747204497549808e-06,5.987904245836199e-07,1.2961738857865635e-07,-8.293003777889785e-09
5.641851625871266e-07,-1.3913820115404072e-07,1.7240287027514644e-07,4.594292530085099e-07,2.6087111112452013e-07,1.0326649565040759e-06,-2.3793805685538995e-07,-5.031060292014639e-08,8.254432672096427e-07,6.185888130774542e-07,5.362068702879629e-07,7.111463669485232e-07,3.078628468779729e-07,1.1156388283331565e-06,1.0809361974054283e-06,7.210482126047934e-07,1.6067305035322647e-07,2.201621458912007e-08
5.697200212194892e-07,-1.1216092655699033e-07,2.1971721638923527e-07,4.6098496344422436e-07,2.9371078384971284e-07,9.729692401166592e-07,-1.0165632218012703e-07,-1.1465241644138624e-08,7.806619922038114e-07,6.463226712418794e-07,5.358633950094565e-07,6.094187940659e-07,4.359837440022396e-07,1.1931356602772091e-06,1.0876629219390043e-06,9.066411702040552e-07,2.030889034011916e-07,6.409429226705562e-08
5.79684912321172e-07,-7.175183158095943e-08,2.774274948246045e-07,4.809396188932171e-07,3.433325113998197e-07,9.267083191389141e-07,4.9933642866934834e-08,7.392486257281484e-08,7.273121196235111e-07,6.779178542881232e-07,5.398987847932819e-07,6.139458142639706e-07,5.386001236221249e-07,1.29917529286103e-06,1.096437207100293e-06,1.1279243637137203e-06,2.50156657523843e-07,1.1479250088609431e-07
5.940343603179627e-07,-1.990202971197827e-08,3.447576016867655e-07,5.173905191347688e-07,4.526004897108583e-07,9.113955743619949e-07,2.0072977747830273e-07,1.6626072485422742e-07,6.775418571997807e-07,7.145298308651708e-07,5.557175237097269e-07,6.287180022344518e-07,5.844729934979279e-07,1.4102715869930753e-06,1.1109581293660289e-06,1.2812190869747101e-06,3.0328225978975535e-07,1.724711614127485e-07
6.119400297362635e-07,3.937277002860018e-08,4.0938546959073985e-07,5.658018653446063e-07,5.500253904489273e-07,9.355328568510613e-07,3.4471984097500166e-07,2.3697137301257033e-07,6.68672980015014e-07,7.564347858891165e-07,5.825202789678293e-07,6.579556365559827e-07,6.352300112790637e-07,1.521680827477101e-06,1.1331163535928855e-06,1.326268241894782e-06,3.61358068842247e-07,2.34393617978473e-07
6.304635849975116e-07,1.0071195138144423e-07,4.3851295762614566e-07,6.193748279926875e-07,5.955460493372054e-07,9.559563817781456e-07,4.6250208173483417e-07,2.8828115549642917e-07,6.688922877561662e-07,8.011273264804494e-07,6.198027338028327e-07,6.860185693297835e-07,6.891257645931905e-07,1.6358235472322084e-06,1.1600222230028051e-06,1.3484615336791777e-06,4.143261405117562e-07,2.9563477947750453e-07
6.445922338522789e-07,1.5825590740774257e-07,4.44007055643665e-07,6.702089302023453e-07,6.411510059618768e-07,9.554163053753173e-07,5.406627288742723e-07,3.4181727479894364e-07,6.594187236976741e-07,8.433479873060506e-07,6.623406206636858e-07,7.217604656114771e-07,7.562849877508163e-07,1.738262978668113e-06,1.1847721083889475e-06,1.3892635010425003e-06,4.5629855566513985e-07,3.4997670952401607e-07
6.490493803771829e-07,2.0674941872849458e-07,4.330115756095748e-07,7.130331207874949e-07,6.84699675741331e-07,9.497596682113121e-07,5.829469538247138e-07,3.892635797277053e-07,6.810401796719454e-07,8.768037312589834e-07,7.019157902380744e-07,8.168490729997463e-07,8.31046820480263e-07,1.8185964382422561e-06,1.2000454180661954e-06,1.4343214593969442e-06,4.6683162150422543e-07,3.9157449725605336e-07
6.397711623872563e-07,2.4180198459304054e-07,4.529716590275493e-07,7.44558117258829e-07,7.228030775103034e-07,1.0106777548229818e-06,5.933289685795748e-07,4.5669189538245574e-07,7.172645763606554e-07,8.96164521587432e-07,7.288133641527467e-07,9.31464024136325e-07,8.515490497888354e-07,1.8732056868883948e-06,1.2014831460928396e-06,1.4876593308303704e-06,4.2868600353998294e-07,4.1612963342515866e-07
6.162103769129006e-07,2.6027767533758274e-07,4.7392403945207815e-07,7.63061835979451e-07,7.489651701985168e-07,1.0818398330668787e-06,5.784341179932029e-07,5.778083177931824e-07,7.359510292266927e-07,8.988047618251088e-07,7.418846605103165e-07,9.713498079664494e-07,8.164962592974856e-07,1.9028018583854163e-06,1.1885769621318674e-06,1.4869171150866562e-06,4.2576175811136153e-07,4.21092305771638e-07
5.810232306212897e-07,2.605829531182405e-07,4.827241818383017e-07,7.676841240258672e-07,7.601181770217682e-07,1.1499362154932594e-06,5.477545952731667e-07,6.335973170117449e-07,7.307342656004562e-07,8.854977692962998e-07,7.428505254673154e-07,1.0137658542837448e-06,7.715716187255338e-07,1.9090959627675936e-06,1.1633872325153236e-06,1.4140562659608706e-06,4.5387226628585084e-07,4.0640084458110005e-07
5.393105115071814e-07,2.4383533411106524e-07,4.7092558779205175e-07,7.592316934179561e-07,7.479410422708931e-07,1.2074112786824317e-06,5.418117013183794e-07,6.834375857783323e-07,7.079842649607619e-07,8.599399812591987e-07,7.349628581031604e-07,1.076784536692867e-06,7.267062169576619e-07,1.8936354720819044e-06,1.1294019377671131e-06,1.3201176666877952e-06,4.993934973613164e-07,3.7541871670726003e-07
4.987750688786749e-07,2.1411510843282616e-07,4.480777860976421e-07,7.400213934807072e-07,7.475897523857326e-07,1.230652558822067e-06,5.186011278500193e-07,7.128339203929887e-07,6.714795649411863e-07,8.28189228982817e-07,7.261229795298515e-07,1.0738741839121635e-06,6.859893920792005e-07,1.861729910014375e-06,1.0918774952442717e-06,1.2269984634238416e-06,5.083172713132307e-07,3.3601522870527263e-07
4.682890785220099e-07,1.786506827577885e-07,4.171530929792438e-07,7.14884698173537e-07,7.303417905990765e-07,1.237502778759596e-06,4.86057904438717e-07,7.291151177472899e-07,6.307465365117552e-07,7.978709813265894e-07,7.250707624578902e-07,1.0226488502501717e-06,6.743756082987024e-07,1.8199451185570928e-06,1.0580369196208562e-06,1.1253620627755125e-06,4.713496788391789e-07,2.9947067504919396e-07
4.5662244196039865e-07,1.4486665247576976e-07,3.8486538539929966e-07,6.903761367007305e-07,7.012080869821854e-07,1.2327507998885598e-06,4.4394227840695417e-07,7.399371712473195e-07,5.945624676798771e-07,7.761448377846268e-07,7.351091185209482e-07,9.810436827214905e-07,6.793652801262967e-07,1.776683979083859e-06,1.0351936596488705e-06,1.0663346966370864e-06,4.2697630055757447e-07,2.739247507629652e-07
4.689760647744071e-07,1.1860141297533054e-07,3.6903445357488165e-07,6.717946046912449e-07,6.870394335418336e-07,1.229305908980687e-06,3.890492369988387e-07,7.273207910865319e-07,5.74942785792492e-07,7.669578916189486e-07,7.558599648544875e-07,9.57593066035717e-07,6.854054719754525e-07,1.7403505337636755e-06,1.027696983332811e-06,1.0416342959310505e-06,3.905629651756785e-07,2.6299890470253776e-07
5.035324836004045e-07,1.0228661380112524e-07,3.689093887304057e-07,6.613545189573491e-07,6.806302720420588e-07,1.2410077550556148e-06,3.4225317118376417e-07,7.220848005289016e-07,5.692293441848477e-07,7.69847778250902e-07,7.844650735658952e-07,9.451464133233528e-07,6.916182856918798e-07,1.7163280277158558e-06,1.035182794869812e-06,1.0385895520254897e-06,3.5743658450775274e-07,2.638602650760381e-07
5.528058953685118e-07,9.379019544393289e-08,3.7897784854254096e-07,6.579359571854445e-07,6.683742964230497e-07,1.2632734514782943e-06,3.065086855426542e-07,7.154881909240689e-07,5.754501018449022e-07,7.811760290702657e-07,8.139825488221932e-07,9.402475011224399e-07,6.858623608118365e-07,1.7065575301225e-06,1.0531637702537836e-06,1.0567249924886063e-06,3.5369904842620616e-07,2.6917398874862184e-07
6.064844994670858e-07,9.010207447120379e-08,3.946727420258965e-07,6.578436775087913e-07,6.523888451915605e-07,1.287285754965283e-06,2.884079400372454e-07,7.083716959359878e-07,5.918237938283187e-07,7.963221622867239e-07,8.369685040545936e-07,9.383528755264184e-07,6.677089025691526e-07,1.7101855034936057e-06,1.0752733515268563e-06,1.0830730070298332e-06,3.56104391263064e-07,2.72118041113834e-07
6.549436581699621e-07,8.775703984495639e-08,4.085762268345358e-07,6.575153213310618e-07,6.310406048326214e-07,1.308156509475307e-06,2.5772372116668365e-07,7.014811779304952e-07,6.11865232011874e-07,8.115941728181626e-07,8.522688221324747e-07,9.374955935842429e-07,6.438935401937071e-07,1.724363058365996e-06,1.0959724016790137e-06,1.1156438458020319e-06,3.5473029662650905e-07,2.685176449469396e-07
6.926446927808518e-07,8.391757216582465e-08,4.1997636113700574e-07,6.550386909262447e-07,5.995497481189342e-07,1.322437112360165e-06,2.5219372867084205e-07,6.844601106855692e-07,6.336236508851722e-07,8.252240573572193e-07,8.608971307824568e-07,9.376799617044516e-07,6.19590427546727e-07,1.7454403222337563e-06,1.1123060950991572e-06,1.1528041159482572e-06,3.507638507867414e-07,2.5834439830060325e-07
7.186465541600475e-07,7.736371792828308e-08,4.2892081166805275e-07,6.494327130305026e-07,5.847569073471558e-07,1.3328966996724668e-06,2.6997642858471934e-07,6.631042426068124e-07,6.564142195926452e-07,8.368558881376536e-07,8.643009807281267e-07,9.394006572050837e-07,6.026562819665358e-07,1.7711072796028127e-06,1.1238378780662955e-06,1.1908307970573923e-06,3.4730736163270244e-07,2.4505454948102776e-07
7.345685888676327e-07,6.778835380398176e-08,4.34528531894409e-07,6.409968118724194e-07,5.843423435302928e-07,1.340538903741179e-06,2.998728365102605e-07,6.527897615636511e-07,6.788058713319937e-07,8.461936917663143e-07,8.654154000628467e-07,9.422832764544678e-07,5.976000851894186e-07,1.8026751118097948e-06,1.1313854036756138e-06,1.227438583546657e-06,3.453953748373147e-07,2.3222225917025229e-07
7.423829439991854e-07,5.516874217947339e-08,4.362343183477702e-07,6.302923333496441e-07,5.908924544097078e-07,1.3448489839559361e-06,3.447477098043603e-07,6.519258855637359e-07,6.987400907661139e-07,8.523916888122552e-07,8.654101292819794e-07,9.453705077221316e-07,6.03921512927551e-07,1.839519582078508e-06,1.1362513427683566e-06,1.2615524110354701e-06,3.436055005840677e-07,2.2236994535900344e-07
7.435486636330394e-07,4.009173886826154e-08,4.337480799585378e-07,6.177426333764047e-07,6.030867347642687e-07,1.3465859510372257e-06,3.869327251820141e-07,6.574471503286459e-07,7.084756796218826e-07,8.54484404852977e-07,8.649534606002124e-07,9.479455174789319e-07,6.198435735274408e-07,1.8797014581870094e-06,1.1396898580996608e-06,1.2934647967986625e-06,3.430837399057205e-07,2.1658311667729032e-07
7.385243422430599e-07,2.4264528052905778e-08,4.275985145861397e-07,6.041223347902993e-07,6.175607122734822e-07,1.3448681722632904e-06,4.2252127435318507e-07,6.678952566326453e-07,7.103013816226306e-07,8.518278799497777e-07,8.653040368307313e-07,9.499775014772318e-07,6.420870459570476e-07,1.9105408434055727e-06,1.14200886316089e-06,1.3236372338039005e-06,3.4281098857025177e-07,2.1465412068078404e-07
7.269730527637997e-07,9.351695859611885e-09,4.1910015453235567e-07,5.902588038570771e-07,6.32434930465493e-07,1.3372391010497659e-06,4.523193384137728e-07,6.797355233226159e-07,7.055649950876686e-07,8.44354497986694e-07,8.681955516744319e-07,9.520378073139355e-07,6.656928969227891e-07,1.9330100317414656e-06,1.1418801351812e-06,1.3514335337502314e-06,3.470650938150469e-07,2.1412470949865555e-07
7.083152627419645e-07,-3.1903479042524106e-09,4.101712704804823e-07,5.768632931265464e-07,6.466228065213679e-07,1.3257500664821119e-06,4.885693231009825e-07,6.975004092697998e-07,6.979112630793218e-07,8.328663867367674e-07,8.742445821208517e-07,9.549840941322077e-07,6.859541175240874e-07,1.9622257643806535e-06,1.1362960738472173e-06,1.374720943943679e-06,3.5559191160585304e-07,2.119224851733594e-07
6.824321925850842e-07,-1.20775336190898e-08,4.029808628252308e-07,5.64878104676188e-07,6.620837010943421e-07,1.3125463976405015e-06,5.282097707591816e-07,7.267444707400271e-07,6.874992113063543e-07,8.186328418056754e-07,8.830398104520825e-07,9.589156404828315e-07,6.979797423313042e-07,1.989546560009043e-06,1.1208306491203615e-06,1.3897248633284469e-06,3.6632200457889776e-07,2.0533333085727528e-07
6.490303615040715e-07,-1.6932090451234295e-08,3.992562031009729e-07,5.555163921754101e-07,6.729883788796938e-07,1.2974763618405764e-06,5.772374914795751e-07,7.669565212217793e-07,6.553308783265603e-07,8.022121784134075e-07,8.91499169357426e-07,9.617808182837934e-07,6.967817418685859e-07,2.008564616031031e-06,1.0900795469105764e-06,1.3910341098800946e-06,3.7545636919498366e-07,1.9174958565649398e-07
6.081621067994313e-07,-1.8092506731470558e-08,3.997045658082947e-07,5.497217265573772e-07,6.811043390455302e-07,1.2832540319518874e-06,6.474218651057569e-07,8.144292657120947e-07,6.095007260618751e-07,7.829155523854306e-07,8.950053906827534e-07,9.591949280689856e-07,6.783417934439742e-07,1.9920158308877394e-06,1.0388767464966614e-06,1.3727683669525195e-06,3.8230456996192416e-07,1.7068575850968997e-07
5.607959743570174e-07,-1.663845349345336e-08,4.041869644233233e-07,5.48186699707245e-07,6.896123368670225e-07,1.2689449336179036e-06,7.175818733826521e-07,8.681666924626968e-07,5.459653112131666e-07,7.594321110744891e-07,8.884649851158397e-07,9.455707839701721e-07,6.406954894977656e-07,1.9353284879680126e-06,9.639493816374561e-07,1.3304982979749462e-06,3.8749731200825496e-07,1.4279802921601636e-07
5.083575513595859e-07,-1.4338779358421223e-08,4.1184695161068357e-07,5.510522718570621e-07,6.984750753019089e-07,1.2530729179364993e-06,7.932112186566677e-07,9.266760546251004e-07,4.895152598974657e-07,7.304722750084932e-07,8.673703894392334e-07,9.153961138080928e-07,5.840915662113897e-07,1.8628992182752013e-06,8.650626151034977e-07,1.262134565720793e-06,3.898787093092436e-07,1.093418530359465e-07
4.53182931246466e-07,-1.3835141984722785e-08,4.2069105454640926e-07,5.570023558285527e-07,7.083674288720105e-07,1.234114065780251e-06,8.845588461993418e-07,9.828199383378089e-07,4.595836442691138e-07,6.950415734734309e-07,8.292982715013931e-07,8.645207009591718e-07,5.111668685036064e-07,1.7937933700946049e-06,7.454606874013434e-07,1.1682084555696258e-06,3.8717427352997055e-07,7.142029459174834e-08
3.97628875221623e-07,-1.903956872593001e-08,4.2772313219147323e-07,5.627355193238585e-07,7.164178658993226e-07,1.2101504330631986e-06,9.696796031857779e-07,1.0281594733946132e-06,4.4712234007623335e-07,6.530240335061916e-07,7.751794627850728e-07,7.917543720065855e-07,4.269878451877084e-07,1.761052122299569e-06,6.117910549795794e-07,1.0524259649123634e-06,3.754691257867424e-07,3.426357725881778e-08
3.443901964250955e-07,-3.327076932878623e-08,4.2991079117359234e-07,5.650289073123328e-07,7.190610577051015e-07,1.1805426356488934e-06,1.0331584729150726e-06,1.0533005744358742e-06,4.4136895135833956e-07,6.056931842473773e-07,7.082903128071528e-07,6.997541309356597e-07,3.381487770175389e-07,1.7212748907424025e-06,4.7300694959920293e-07,9.213850035834306e-07,3.5181011171021797e-07,-2.267982823853353e-09
2.9653639468624834e-07,-5.7937949537745033e-08,4.2491570928297446e-07,5.607863576773303e-07,7.142403071499664e-07,1.1450424245586947e-06,1.0328256955860312e-06,1.0499151483277499e-06,4.1956215395745577e-07,5.553046222494025e-07,6.340178492709475e-07,5.942925798063288e-07,2.5120318986731817e-07,1.637387896758291e-06,3.3838006122520737e-07,7.827390526239402e-07,3.1521610088751787e-07,-3.829698948401578e-08
2.5668096433251644e-07,-9.261232089336637e-08,4.1148193854977845e-07,5.476014602780642e-07,7.003139651848434e-07,1.104786794837673e-06,9.927983665791368e-07,1.015539530047928e-06,3.8381409508164225e-07,5.044043426277776e-07,5.584768277951358e-07,4.828255400555423e-07,1.7079084387103325e-07,1.534513449556606e-06,2.1559184384334158e-07,6.43623932254963e-07,2.667040332421209e-07,-7.473914757621768e-08
2.2646309008611156e-07,-1.3524161117390948e-07,3.8977911644918873e-07,5.244912141333705e-07,6.767549486979921e-07,1.0615196280515877e-06,9.656555188406094e-07,9.522525569374373e-07,3.277737776607355e-07,4.5569203947631464e-07,4.866309453291492e-07,3.733945942739307e-07,9.916049194202333e-08,1.4007459575142205e-06,1.1008371164767059e-07,5.105065553710993e-07,2.0952364423286246e-07,-1.109274110266949e-07
2.060622109932894e-07,-1.824526487606858e-07,3.61501317291904e-07,4.919560671632274e-07,6.445195618966948e-07,1.017254159451282e-06,9.205512930408293e-07,8.674076968194669e-07,2.640790390555331e-07,4.117248004968221e-07,4.2239674490717114e-07,2.736467011898037e-07,3.7139521478645543e-08,1.261906330853304e-06,2.5057506700250442e-08,3.892414891149651e-07,1.4852951491577582e-07,-1.4403048889498165e-07
1.9444885829448158e-07,-2.3045268082582783e-07,3.2923509369270083e-07,4.520151823495432e-07,6.061288167928878e-07,9.733966616025656e-07,8.29639743520867e-07,7.698231583155772e-07,2.04565327752863e-07,3.7411260828056007e-07,3.6790969539754625e-07,1.898900428982293e-07,-1.6099792142046716e-08,1.156693772138358e-06,-3.840711740888388e-08,2.847363239310972e-07,8.913682605812302e-08,-1.7159160809588273e-07
1.8899179215805464e-07,-2.759494698041705e-07,2.9568695206386716e-07,4.0763338191434595e-07,5.635489889311315e-07,9.30766271388136e-07,7.154673365485657e-07,6.713881536467519e-07,1.4754986405293932e-07,3.432101320284746e-07,3.233813980178729e-07,1.2666753921083577e-07,-6.16194332632904e-08,1.0637543301173003e-06,-8.089151292453917e-08,2.0080406175555642e-07,3.670482732133258e-08,-1.908512555254348e-07
1.8663235653541466e-07,-3.161006574584911e-07,2.63415500078136e-07,3.624491883539583e-07,5.175714792727104e-07,8.904971324688455e-07,6.039147097596746e-07,5.810931471730517e-07,9.488176742342619e-08,3.1859132340982935e-07,2.878939154483303e-07,8.653703850698606e-08,-9.908882869903041e-08,9.896361885817022e-07,-1.0427446204576356e-07,1.3988923066237297e-07,-4.218904824846523e-09,-2.010743888451325e-07
1.853050980094377e-07,-3.487743765186054e-07,2.346204886929984e-07,3.199419764098218e-07,4.716738005075507e-07,8.541357452240519e-07,4.906397529076629e-07,5.056269443708608e-07,5.145650100234471e-08,2.995094604702196e-07,2.6050108893404585e-07,6.942428556970339e-08,-1.279890582304638e-07,9.5901006979692e-07,-1.1170008880815485e-07,1.0206965041804577e-07,-3.1274186505310136e-08,-2.0129362171682337e-07
1.842424464954419e-07,-3.732515654337817e-07,2.1076244310783263e-07,2.827663853758097e-07,4.2898196970856123e-07,8.237949300324796e-07,3.857561911199805e-07,4.497439922357313e-07,1.4653963962828801e-08,2.8529705199445113e-07,2.4054690302627767e-07,7.216465949971996e-08,-1.478582033973116e-07,9.640588618309266e-07,-1.0714522696384472e-07,8.479880982108196e-08,-4.513223930953287e-08,-1.9180949663368503e-07
1.8480979086746852e-07,-3.903439110356355e-07,1.9249019510417665e-07,2.5243531831156705e-07,3.9332806394327596e-07,8.012275937783641e-07,3.050995950077537e-07,4.1591459075771353e-07,-1.930590450577826e-08,2.758734241193382e-07,2.2805549455320818e-07,8.909760785276901e-08,-1.577500681658334e-07,9.817456780038304e-07,-9.410608899994377e-08,8.422681975695137e-08,-4.902955101659631e-08,-1.7793509708006872e-07
1.902078373394172e-07,-4.018175403552027e-07,1.7979496035491664e-07,2.2915132864767756e-07,3.684184129491722e-07,7.875130384474416e-07,2.440231759110445e-07,4.0070976704338576e-07,-3.3728070979785706e-08,2.716810034640395e-07,2.2374219402034502e-07,1.133985829351474e-07,-1.5715148732958554e-07,1.00882166092224e-06,-7.453381643407907e-08,9.674024272442772e-08,-4.7614927988501975e-08,-1.5607710751325527e-07
2.0407397287389264e-07,-4.0988836479958186e-07,1.7194066663479478e-07,2.1196884856511218e-07,3.5456500596789435e-07,7.832574837108455e-07,1.6632793320462347e-07,3.9977099012601423e-07,-3.677527483967771e-08,2.7291071757983554e-07,2.2818394726245008e-07,1.3862647704452447e-07,-1.469002413151068e-07,1.037786766635912e-06,-4.882650554175504e-08,1.1971062721714563e-07,-4.541119783670175e-08,-1.2759136297110158e-07
2.2880343021454557e-07,-4.1682995927476745e-07,1.6754125824166193e-07,1.9917428216663846e-07,3.4852565468027717e-07,7.884582170280143e-07,7.366352404623176e-08,4.073890013118136e-07,-2.6392840637376443e-08,2.7902782445516737e-07,2.412741757158028e-07,1.6019219599776334e-07,-1.2876958009899498e-07,1.056437215451188e-06,-1.6556639220507367e-08,1.5175257126948224e-07,-4.511737662662929e-08,-9.43594336313663e-08
2.6432210880526136e-07,-4.242715110842982e-07,1.6510589230132758e-07,1.8870227111681254e-07,3.4458795604232495e-07,8.025249831541183e-07,-1.4055335867379817e-09,4.1653182765341275e-07,-4.511630918452491e-10,2.889261761029805e-07,2.619058160173129e-07,1.7588805258170983e-07,-1.0566882402317703e-07,1.0868048870241224e-06,2.2345839655859972e-08,1.9209391142673866e-07,-4.712444009424388e-08,-5.77761892407848e-08
3.0786079037097646e-07,-4.3294214295687454e-07,1.6343797286414406e-07,1.7888497307436627e-07,3.3688554307670844e-07,8.240018780075008e-07,-6.970853736266499e-08,4.23429481824116e-07,1.8995989839441454e-08,3.0106329931068753e-07,2.877105457768279e-07,1.850833511525073e-07,-8.127775097584732e-08,1.1269891048636929e-06,6.640901816075008e-08,2.3815751708609063e-07,-5.074795054344112e-08,-3.086643751955543e-08
3.54395561667574e-07,-4.4319430561748674e-07,1.6160365615508564e-07,1.6802986972683305e-07,3.2295676431427547e-07,8.500078201437277e-07,-1.2887859458828853e-07,4.2590521121109763e-07,3.755240961998186e-08,3.137241332568139e-07,3.1550821244173056e-07,1.879684477551893e-07,-5.9077759080117346e-08,1.1653253517195935e-06,1.1261340639363841e-07,2.8760103222256685e-07,-5.5440854864842715e-08,-1.4092519935526021e-08
3.981051484168619e-07,-4.551275307842749e-07,1.5901418510214654e-07,1.5486875461187637e-07,3.0179683948885986e-07,8.772741520516736e-07,-1.7441753974190744e-07,4.225953575705712e-07,5.504851004801123e-08,3.257425351069109e-07,3.426447894590459e-07,1.860724219241298e-07,-4.070275043886271e-08,1.2082298299335968e-06,1.5787040477252648e-07,3.395980876481179e-07,-6.081706547796603e-08,-6.528057398499606e-09
4.341618019483221e-07,-4.680349020014897e-07,1.5568867123271858e-07,1.3909454906556675e-07,2.7738851206941967e-07,9.027636762549138e-07,-2.1121174817934486e-07,4.182725868985849e-07,6.891309988492348e-08,3.3678673444119765e-07,3.6797159074215775e-07,1.8240816110283682e-07,-2.4817961324621455e-08,1.2517743640810964e-06,2.0058608334725778e-07,3.931690987471766e-07,-6.628205899253493e-08,-4.081204622624175e-09
4.5933971959206377e-07,-4.802891748037875e-07,1.5201539314591828e-07,1.212745822544133e-07,2.569677992731532e-07,9.240597545515744e-07,-2.3191853780166148e-07,4.169437049924469e-07,7.921067357291236e-08,3.46684232555553e-07,3.9161961600801864e-07,1.8429721943653344e-07,-7.893743487484321e-09,1.2962064258522813e-06,2.409790898638852e-07,4.4915375588201015e-07,-7.073014148458811e-08,-4.14966645589722e-09
4.7165372525338395e-07,-4.897313294699364e-07,1.4842322612249648e-07,1.0282028342279563e-07,2.467103196140563e-07,9.398385960902892e-07,-2.2307159472076163e-07,4.2213113996827834e-07,8.695784759496181e-08,3.548804335070916e-07,4.1434446097669815e-07,1.9980835538405821e-07,1.4295937045601919e-08,1.3451491424552118e-06,2.802509850444776e-07,5.091634092868568e-07,-7.213395265279245e-08,-5.307442915889352e-09
4.700538554883139e-07,-4.939120006833624e-07,1.452910672474387e-07,8.596161539898438e-08,2.4799202443601124e-07,9.519755206920205e-07,-1.833672803791003e-07,4.4566617247965827e-07,9.370934618886889e-08,3.60648181838526e-07,4.369863082404859e-07,2.3675711690686132e-07,4.453158221386572e-08,1.3971229950699389e-06,3.192655306741807e-07,5.728614130936246e-07,-6.790299607293907e-08,-4.420399672876608e-09
4.548379890570078e-07,-4.907156551111918e-07,1.4282360120481092e-07,7.36674774701701e-08,2.6753919106671766e-07,9.62377941294486e-07,-1.1916480032578334e-07,4.758763828699495e-07,1.0191778879556955e-07,3.633869732154825e-07,4.597205149938675e-07,2.99961007619242e-07,8.309452022736495e-08,1.4510970876871238e-06,3.572371521831915e-07,6.392566804947464e-07,-5.655246510213254e-08,-4.548903445065788e-09
4.2783243142646517e-07,-4.796214409748133e-07,1.4078529667936094e-07,6.897658998737952e-08,3.13931195382388e-07,9.750103029829534e-07,-2.6138628917487024e-08,5.14216399499117e-07,1.2166273699992966e-07,3.6286462182990794e-07,4.809346473861582e-07,3.8914920327568967e-07,1.2641311946383854e-07,1.5111977387323867e-06,3.914071465585052e-07,7.128020275143833e-07,-3.91241723887604e-08,-1.8619871469974457e-09
3.9272149526217047e-07,-4.623122043705587e-07,1.3854319558477642e-07,7.434090362847945e-08,3.5625411107505407e-07,9.949382170688016e-07,9.611333670065095e-08,5.702553977027188e-07,1.4716048767802141e-07,3.596350669756089e-07,4.98981231257287e-07,4.983512278774266e-07,1.683342800184597e-07,1.5690258900059411e-06,4.181677450613671e-07,7.823136066031375e-07,-1.894842804706018e-08,3.928031893756053e-09
3.5527896425400775e-07,-4.4203808509873566e-07,1.3533211823645156e-07,9.092311207179423e-08,3.8980396263266377e-07,1.0291602367253499e-06,2.3357314957342466e-07,6.473177501631826e-07,1.77121769982257e-07,3.549959380682107e-07,5.104760634823846e-07,6.164533791554264e-07,2.0234957708256275e-07,1.6207461681827916e-06,4.347553448707694e-07,8.423704611524216e-07,-3.312886472748816e-10,1.3775858660120177e-08
3.2177848519306583e-07,-4.225823361514589e-07,1.3017698150058967e-07,1.1770215964210243e-07,3.693350323434592e-07,1.083594820283563e-06,3.7239207900711146e-07,7.076665306518815e-07,2.107247844905921e-07,3.5028263179995655e-07,5.122430461984563e-07,7.434728895190505e-07,2.227429571546304e-07,1.6468993855988896e-06,4.406296935882088e-07,8.714989914189133e-07,1.297557792822804e-08,3.7553949790764026e-08
2.9670722188170496e-07,-4.070830528876843e-07,1.2193623813333215e-07,1.5064227398119785e-07,3.1696037512959565e-07,1.1596675278187822e-06,4.960031495324962e-07,7.638564176574946e-07,2.4065457779597026e-07,3.4652196985746024e-07,5.106475888557804e-07,8.627680481074477e-07,2.2709887599645883e-07,1.6112850778548925e-06,4.3824327349930956e-07,8.294941650299937e-07,1.903881883986839e-08,6.910868721269096e-08
2.8116546746754307e-07,-3.967231033705355e-07,1.0970064034316304e-07,1.8543399355982913e-07,2.907879276749209e-07,1.2538470595619046e-06,5.53916422019274e-07,7.562480833512368e-07,2.648304469047932e-07,3.446859256557434e-07,4.9279259090656e-07,9.395726805093505e-07,2.1681104511879523e-07,1.5362688717953481e-06,4.3274486973966064e-07,7.24232067658242e-07,1.7700890213630238e-08,1.0964817592427239e-07
2.72516060830262e-07,-3.904944644776179e-07,9.30501660405126e-08,2.158193117430691e-07,2.7180021227148974e-07,1.3567799367517254e-06,5.514688084857788e-07,6.421906247945029e-07,2.7794447345793977e-07,3.4570748326092846e-07,4.5482646403709797e-07,9.751529473534792e-07,1.961098961633499e-07,1.4651490501414168e-06,4.305507699487997e-07,6.373467066974011e-07,9.200355344794999e-09,1.5132944184339203e-07
2.653427246355088e-07,-3.8644370455287513e-07,7.200162009062163e-08,2.3609557409921703e-07,2.4467415243644824e-07,1.4567370480652494e-06,6.138383378125047e-07,5.531274328196948e-07,2.7869302388714903e-07,3.505138132373544e-07,4.1790111008046417e-07,9.646015348029704e-07,1.7113341605346792e-07,1.398435866778466e-06,4.3786194076218817e-07,5.544957395202063e-07,-6.537527763802173e-09,1.9810658131288312e-07
2.5380728764778684e-07,-3.826740057936265e-07,4.7370601079947406e-08,2.5230220821497137e-07,1.980688295512758e-07,1.5429668797334483e-06,5.847172109101829e-07,5.190143777395645e-07,2.889300503963744e-07,3.606056342310645e-07,3.85493804507618e-07,9.571274228476693e-07,1.493139770264416e-07,1.3419948541510152e-06,4.5883784717918455e-07,4.834431359802777e-07,-2.9031788215921367e-08,2.5768132476898754e-07
2.3428396476352197e-07,-3.772511407572493e-07,2.133509588342434e-08,2.4738984468615175e-07,1.0175372108849183e-07,1.6095803209566136e-06,4.939737073093297e-07,4.933099200050763e-07,3.044946944779674e-07,3.781523428493423e-07,3.55320762124147e-07,9.462723311169953e-07,1.3827772550945665e-07,1.3098413399655937e-06,4.977228752598958e-07,4.4136690814459365e-07,-5.653461399436384e-08,3.256612574988535e-07
2.0650271291122025e-07,-3.6831463346804284e-07,-2.8289797630714764e-09,2.156697210706775e-07,-1.3879240353261508e-08,1.6565791524358765e-06,4.056004377129207e-07,4.6413567464462675e-07,3.488200202120057e-07,4.0470830641022285e-07,3.319348003216643e-07,9.275541067256467e-07,1.43564501880505e-07,1.2973622938154987e-06,5.540532539492266e-07,4.217117494201044e-07,-8.651055748702466e-08,3.797067734554856e-07
1.7323240529812464e-07,-3.548573153475315e-07,-2.1618065739411932e-08,1.8347789263400895e-07,-7.454328259283897e-08,1.6914413464041705e-06,3.345234279855094e-07,4.227053652719043e-07,4.013336991192752e-07,4.3975795444074333e-07,3.20513243366248e-07,9.236355819970724e-07,1.6668989332631214e-07,1.3084894338890326e-06,6.227878097644997e-07,4.2922125052914536e-07,-1.1620674889327895e-07,4.1029693191368867e-07
1.3932954263619612e-07,-3.371199285493938e-07,-3.1856209076348884e-08,1.5541879389659852e-07,-1.099624584852318e-07,1.719548970358257e-06,2.7765252363882584e-07,2.9258664736974726e-07,4.490343337130665e-07,4.804187907175844e-07,3.2105037997513083e-07,9.267229913306339e-07,2.047193404051945e-07,1.3389255467138562e-06,6.960034984566504e-07,4.5730341821461576e-07,-1.4288195513547992e-07,3.8745768414489395e-07
1.1039347254386219e-07,-3.1650176331378754e-07,-3.1253925893520566e-08,1.290344574309852e-07,-1.50185580800864e-07,1.7498468371279322e-06,2.466839352789366e-07,1.8435938721039488e-07,5.247277764508156e-07,5.218981953123936e-07,3.316948850299837e-07,9.356997566726414e-07,2.509294525262297e-07,1.3803405174328314e-06,7.63623044164617e-07,4.932872348566633e-07,-1.6436428688705076e-07,3.409673292424472e-07
9.074564205276005e-08,-2.9559800182031565e-07,-1.9393504075989624e-08,1.0965546849757856e-07,-1.81241753890901e-07,1.775341780267549e-06,2.439237823949488e-07,1.3260383946731577e-07,5.995810290509145e-07,5.584531093459018e-07,3.48543487373698e-07,9.510008628471993e-07,2.9652828437431015e-07,1.4259449345500038e-06,8.171252418861622e-07,5.288248855184971e-07,-1.794634480778366e-07,3.318536793553456e-07
8.22363808519078e-08,-2.7790622592272624e-07,1.5506705712319844e-09,1.027401218186944e-07,-1.7845261086474325e-07,1.8017313939649894e-06,2.6455012538869855e-07,4.3927244845584897e-08,6.195290689896889e-07,5.850285482150462e-07,3.6679975909972405e-07,9.63643191655415e-07,3.328377869955679e-07,1.4639077038346226e-06,8.515561318088316e-07,5.516830617238028e-07,-1.875479892078497e-07,3.6415880495546995e-07
8.445306273393375e-08,-2.6689657998930454e-07,2.7558095645036065e-08,1.0709933366218507e-07,-1.4297051396874684e-07,1.8344326430733263e-06,2.981852577979018e-07,-2.9162839142427537e-08,5.8692984143984e-07,5.985390303763139e-07,3.8195532282628655e-07,9.719923847133566e-07,3.5345211652249527e-07,1.4853735393280358e-06,8.73823807308455e-07,5.549270332246532e-07,-1.8832010743917727e-07,4.112087841645581e-07
9.50027956315706e-08,-2.6544018502865905e-07,5.350668014492261e-08,1.1907244025965507e-07,-1.3126393952206608e-07,1.8781061798413584e-06,3.329578847343597e-07,-1.5395534647008438e-08,5.675487731081467e-07,5.977612272719154e-07,3.899174569552049e-07,9.712333333046115e-07,3.542714180688422e-07,1.486878146170413e-06,8.729142934688723e-07,5.367564163869688e-07,-1.824420648012507e-07,4.2615832186030563e-07
1.0950235127024499e-07,-2.7582486005632583e-07,7.409836422425335e-08,1.3255890825087435e-07,-1.3764348154050362e-07,1.9210839667821026e-06,3.596486750437395e-07,3.2513645408699808e-09,5.688165310706748e-07,5.827906583082852e-07,3.8700813081515906e-07,9.569680590721591e-07,3.3235729606426193e-07,1.4694473020901628e-06,8.479613997933108e-07,4.97627364861605e-07,-1.7157289616252306e-07,4.2118397247756175e-07
1.2221394380181938e-07,-2.9918447336187104e-07,8.532982826674428e-08,1.4081417902084592e-07,-1.5212465649372245e-07,1.9271176508759257e-06,3.749428077507174e-07,2.7000993415487573e-09,5.682067294503042e-07,5.552209934831364e-07,3.7073109204087053e-07,9.284933351575459e-07,2.8813582655775763e-07,1.4384670528618893e-06,8.008343310298574e-07,4.406700746224479e-07,-1.5719871861365013e-07,4.3048930583915825e-07
1.2748805763587968e-07,-3.344315246463859e-07,8.553261959785197e-08,1.3882770416838477e-07,-1.7870545894457618e-07,1.8753599060276464e-06,3.817697312721139e-07,-5.650996840269297e-10,5.77310968868127e-07,5.182209157350788e-07,3.4068792980339775e-07,8.87688034000999e-07,2.2549451335616296e-07,1.4014235850865114e-06,7.141945815812393e-07,3.7148993116304353e-07,-1.3997848901276763e-07,4.121256606107314e-07
1.209073377601772e-07,-3.7823737602222465e-07,7.538189937836108e-08,1.2451081014405243e-07,-2.0819331580499658e-07,1.7966303881830944e-06,3.86329874254073e-07,1.3020144251402806e-09,5.859826763551192e-07,4.7572668699769944e-07,2.985987295137947e-07,8.385554664502056e-07,1.5167140667087847e-07,1.3644393206504467e-06,6.140755260855037e-07,2.975112014648257e-07,-1.2040067892201624e-07,3.845427997852315e-07
1.000216182054272e-07,-4.260683261914857e-07,5.7116070528824754e-08,1.0017905963741756e-07,-2.3208668502599295e-07,1.7730850636088146e-06,3.9416728671771356e-07,2.072692155421493e-08,5.930825741787468e-07,4.317511966560753e-07,2.4815939917247074e-07,7.864009698409752e-07,7.489931928179672e-08,1.3304347466215787e-06,5.07921688492675e-07,2.2653495696179033e-07,-9.936255108452125e-08,3.321907025869957e-07
6.523061439606902e-08,-4.729068646762413e-07,3.402149247679675e-08,6.935902817604553e-08,-2.4761061953730185e-07,1.7996375430994817e-06,4.080170573366612e-07,6.285567810905847e-08,5.833342921605994e-07,3.903756236139134e-07,1.9475138819412912e-07,7.370452297682428e-07,3.5925122753587655e-09,1.299945310246089e-06,3.9975343456669446e-07,1.6579962834909096e-07,-7.80475828492337e-08,2.7529063899196855e-07
2.0135208944292977e-08,-5.13742092237179e-07,9.921360860006245e-09,3.66966981203234e-08,-2.5705735767237586e-07,1.7727159619636283e-06,4.2752812214344385e-07,1.1668178189473452e-07,5.788754408835826e-07,3.553585937918064e-07,1.4416239694718517e-07,6.954232034808888e-07,-5.55415877307346e-08,1.272579688590045e-06,3.1397488372398747e-07,1.2016709088159113e-07,-5.785200365513937e-08,2.367274794918151e-07
-2.9381861594148604e-08,-5.446475156734119e-07,-1.1608919735054006e-08,6.172916494529649e-09,-2.5628326028750086e-07,1.6929186513373778e-06,4.497388564232567e-07,1.75426328672715e-07,5.789681608603481e-07,3.2906890931960203e-07,1.0075481017167583e-07,6.640436002368516e-07,-1.0035564494142551e-07,1.2479557176786086e-06,2.410459599566396e-07,9.074836650221302e-08,-4.0240212088599696e-08,1.993363819420352e-07
-7.692521704364952e-08,-5.636260323082771e-07,-2.789986545153433e-08,-1.8512151390193237e-08,-2.4656792129006537e-07,1.6274170161471844e-06,4.6994890243191595e-07,2.2940543347102908e-07,5.614584844792068e-07,3.1201606405656865e-07,6.654115849066646e-08,6.425348815665855e-07,-1.3087423928641766e-07,1.2264977450583375e-06,1.8431926706429733e-07,7.528866190687926e-08,-2.6112997399123572e-08,1.7363038704016204e-07
-1.1678543369145844e-07,-5.703805516640218e-07,-3.7288573274470356e-08,-3.463163265508049e-08,-2.3173092667554196e-07,1.547439700338372e-06,4.834672436431061e-07,2.727005658176047e-07,5.507689918511768e-07,3.0324226360781386e-07,4.150783669936439e-08,6.28287740481591e-07,-1.4914346338601143e-07,1.209454669483262e-06,1.4814752552982544e-07,6.963517129630259e-08,-1.570721543492967e-08,1.607621358721295e-07
-1.4481249483094465e-07,-5.661281197860851e-07,-3.943982091099436e-08,-4.123882039942614e-08,-2.1464128044061702e-07,1.491495942749806e-06,4.864465198280003e-07,2.93953721351062e-07,5.049767436303388e-07,3.006069620257865e-07,2.4201997268653913e-08,6.174963289477184e-07,-1.5838840475034785e-07,1.1973784734322023e-06,1.253812179138484e-07,6.880506654863112e-08,-9.539178596826589e-09,1.6450590885804603e-07
-1.5930124557411027e-07,-5.540654874610816e-07,-3.5806659037771374e-08,-3.912863523034212e-08,-2.0098000093908604e-07,1.468691132520299e-06,4.757546569901201e-07,2.9105313852209904e-07,4.662379195548032e-07,3.011743359808548e-07,1.2498962048301372e-08,6.065277119791324e-07,-1.6170122636650673e-07,1.1892119423268847e-06,1.1672454936017145e-07,6.818623301812383e-08,-8.778326847934633e-09,1.7260719471552456e-07
-1.6077045012904168e-07,-5.389840918083924e-07,-2.9111895063162207e-08,-3.1500455949793125e-08,-1.9446766119060868e-07,1.4391788416482306e-06,4.4929730810565493e-07,2.6503242379446787e-07,4.377738032043629e-07,3.0236322799301015e-07,4.818051891509109e-09,5.933150890513973e-07,-1.6136146395897573e-07,1.1835691836319318e-06,1.1899563903502704e-07,6.520617332210183e-08,-1.4224245062649466e-08,2.0591826919357948e-07
-1.50779012139224e-07,-5.255408252274141e-07,-2.2096574589461854e-08,-2.176514784658983e-08,-1.9558847853014421e-07,1.4130755375772542e-06,4.069803817280377e-07,2.174124792809176e-07,3.9458680118442234e-07,3.0244710062299943e-07,7.728590839643853e-10,5.776441352188035e-07,-1.5772412732155218e-07,1.1800998708814368e-06,1.2920277274206681e-07,6.017385086367559e-08,-2.549891259187365e-08,2.401567816408427e-07
-1.3125543492925441e-07,-5.169656441313256e-07,-1.6883173613259e-08,-1.2773808786753289e-08,-2.0240084219098411e-07,1.3840639635913146e-06,3.512259721523339e-07,1.5529492659123253e-07,3.7476083118137855e-07,3.018205985167722e-07,5.615274012012915e-10,5.601755640127512e-07,-1.5130306362342263e-07,1.1790621635384e-06,1.4651002661766677e-07,5.487061403439522e-08,-4.1669187611859746e-08,2.594797094374476e-07
-1.0461642155909218e-07,-5.149674155093595e-07,-1.481324250158572e-08,-6.308008823263755e-09,-2.1218290740936493e-07,1.3698307101923667e-06,2.866428856011045e-07,8.479862846366972e-08,3.6173377990483553e-07,3.009897507705832e-07,4.2429217541062844e-09,5.415944268949809e-07,-1.3995090783933092e-07,1.180588637825183e-06,1.6969956480584483e-07,5.134956362809716e-08,-6.074416076357686e-08,2.807326676132925e-07
-7.359869988698772e-08,-5.197413854382381e-07,-1.616264193207543e-08,-3.014343081912536e-09,-2.2327927562726373e-07,1.371961442849578e-06,2.196826571224243e-07,1.2986345059259208e-08,3.5967916176301906e-07,3.010797047890987e-07,1.180035407732859e-08,5.225595353291731e-07,-1.2418496576341375e-07,1.1850893223701762e-06,1.973542087853065e-07,5.0886694744970585e-08,-7.948318357727124e-08,2.931855499727381e-07
-4.070667812866411e-08,-5.29948350159975e-07,-2.0091398091006972e-08,-6.528679026790082e-10,-2.3532016546592242e-07,1.3817979793595992e-06,1.5758101432543e-07,-5.264213107545669e-08,3.779445234158749e-07,3.0383267316580924e-07,2.3186125564719404e-08,5.036045765486242e-07,-1.0725142893550596e-07,1.1932600313598158e-06,2.2781362942553803e-07,5.5131046641249496e-08,-9.461110381280523e-08,2.9876218022833285e-07
-8.068561913538494e-09,-5.434128556368003e-07,-2.5203073677890067e-08,1.4063282827508522e-09,-2.48582741109653e-07,1.3986006572213608e-06,1.0652816410557678e-07,-1.059165792758255e-07,3.875292357701511e-07,3.096801577863026e-07,3.780214825039026e-08,4.848052808191452e-07,-8.942794597063706e-08,1.2047226774506004e-06,2.586961184158926e-07,6.780192249246326e-08,-1.0396234837536668e-07,2.993586048953772e-07
2.2639183611418872e-08,-5.578856537926668e-07,-3.008089072603637e-08,4.460560928390827e-09,-2.629875654957372e-07,1.4153785907250512e-06,7.031373019318686e-08,-1.4264790626673922e-07,3.9831275582180805e-07,3.175280325771047e-07,5.433125665237783e-08,4.661778802585419e-07,-7.834931968974827e-08,1.2207540521045556e-06,2.8673007198796834e-07,8.675116644739444e-08,-1.0573945223686153e-07,2.887903775205392e-07
5.0444056532319036e-08,-5.710473920151702e-07,-3.3261231026521674e-08,7.482288230392908e-10,-2.7707311382745065e-07,1.4380711858706078e-06,5.0250308672677166e-08,-1.6074522308599557e-07,4.1180551708835456e-07,3.2507005814968383e-07,7.10673316483411e-08,4.486286906143102e-07,-7.575235307264031e-08,1.2403471687588337e-06,3.0820416593806923e-07,1.0822240357145081e-07,-1.003739445604776e-07,2.636723232770263e-07
7.395033157143059e-08,-5.80724220550403e-07,-3.3425866015354684e-08,-7.117568211126449e-09,-2.880839972923385e-07,1.465115503618282e-06,4.5343787091168625e-08,-1.6015196619146605e-07,4.2065982018109627e-07,3.2950748593085853e-07,8.594685439258234e-08,4.340944173263853e-07,-8.150307386907964e-08,1.2609328639976938e-06,3.1966089361203816e-07,1.2777938387635133e-07,-8.919237882139933e-08,2.3222716197362084e-07
9.220183739543901e-08,-5.859087619793636e-07,-3.0117846116683794e-08,-1.660317947862684e-08,-2.935039494349655e-07,1.491832597259061e-06,5.1935422428165034e-08,-1.4371304199612141e-07,4.282924090595072e-07,3.2791595638780475e-07,9.645786967001851e-08,4.245811954917187e-07,-9.86143524653047e-08,1.2792407713550097e-06,3.1893893222490187e-07,1.4270386545487932e-07,-7.760141844383791e-08,1.9755583733590316e-07
1.0481220092364129e-07,-5.871446529771552e-07,-2.4030551348855837e-08,-2.056452718594981e-08,-2.9258206209245963e-07,1.510973129297189e-06,6.38696792155529e-08,-1.1676903291796538e-07,4.3089629811338425e-07,3.1887366487686545e-07,1.0033151671337269e-07,4.208411192703817e-07,-1.2714469886950786e-07,1.2916009720704428e-06,3.06559544834789e-07,1.524227097780064e-07,-7.120343971174811e-08,1.6437464904944974e-07
1.1185338338664426e-07,-5.857205144276821e-07,-1.6447925492792978e-08,-2.4784348141041663e-08,-2.867603924852089e-07,1.5212857989746483e-06,7.38486222950379e-08,-8.563910476706118e-08,4.2158362232539237e-07,3.0321295196966213e-07,9.667319531827534e-08,4.227768988245247e-07,-1.7325531103649493e-07,1.2979146536368557e-06,2.863721676551853e-07,1.5358422319535454e-07,-7.584074127356698e-08,1.3624744148207281e-07
1.1673050434724707e-07,-5.833335643275429e-07,-9.180426595589884e-09,-5.007088835656335e-08,-2.7895933682802e-07,1.5245833664353806e-06,7.49604099815983e-08,-5.5870328328717825e-08,4.008478824102857e-07,2.833203080163599e-07,8.652570351871057e-08,4.2500144719216633e-07,-2.074387909244594e-07,1.297941924381747e-06,2.649630360496703e-07,1.5374003802964565e-07,-9.111389084362049e-08,1.1195821448668057e-07
1.2432804475370718e-07,-5.826648407401889e-07,-4.954854482166974e-09,-9.013509852670239e-08,-2.7256807639277137e-07,1.5216067764101289e-06,6.252145825179553e-08,-3.0810280201433176e-08,3.7002390473654507e-07,2.6222297403240416e-07,7.305633887869823e-08,4.18652763086185e-07,-2.2848846476471282e-07,1.2955543730905488e-06,2.5060313586808735e-07,1.4951234394373626e-07,-1.0814847885807808e-07,9.272111076913542e-08
1.3987709691852158e-07,-5.870812210341933e-07,-7.206531688416643e-09,-1.6096216907167888e-07,-2.6997010595320624e-07,1.5151135733781453e-06,3.6402489563172736e-08,-1.0720331899146877e-08,3.355576643415369e-07,2.4298916160981174e-07,6.156824333195836e-08,3.990526660898839e-07,-1.7912851669291023e-07,1.2969730567674662e-06,2.521530846194344e-07,1.4661406624703556e-07,-1.2419655430634644e-07,7.882629349255825e-08
1.6564256955592826e-07,-5.989865372092001e-07,-1.9201561936425798e-08,-2.438453467358247e-07,-2.7127334010799846e-07,1.5059067719283375e-06,3.4454746766163117e-09,1.190247011026051e-08,3.0166491060607906e-07,2.276694576942842e-07,5.854413321875979e-08,3.652374800348963e-07,-3.6231597615019106e-08,1.3016577677695044e-06,2.7706270488492103e-07,2.0943614645726327e-07,-1.0816324674957134e-07,7.06060514485049e-08
2.043699877739768e-07,-6.184159266067758e-07,-4.311344542234746e-08,-2.6249155459146266e-07,-2.7440561390735816e-07,1.4948166726740364e-06,-2.285440620378884e-08,4.7074300033134226e-08,2.727116968866395e-07,2.1737709492699924e-07,6.943093843970249e-08,3.216050100518003e-07,9.431770173364005e-08,1.3208343731324133e-06,3.284910685601628e-07,3.332823294700531e-07,-6.705685178426913e-08,7.194655691962692e-08
2.51398477757684e-07,-6.42664613310735e-07,-7.935893585416183e-08,-2.650118849398227e-07,-2.76285748765684e-07,1.4807624218851876e-06,-2.586268692099406e-08,1.0437094763815417e-07,2.5185029956876663e-07,2.1048167637293408e-07,9.646274402024037e-08,2.781039921823286e-07,1.9791910656815063e-07,1.389958097193178e-06,4.0333384140532544e-07,4.771247353814886e-07,-2.2791227455761785e-08,8.382498673018961e-08
2.925951122134683e-07,-6.667451553153376e-07,-1.2591506325889913e-07,-3.219313813266627e-07,-2.7378137037393355e-07,1.4619106900836406e-06,8.447369118909964e-09,1.8868115076641818e-07,2.4227763056896765e-07,2.0323637480266355e-07,1.375337709491047e-07,2.469823711203674e-07,3.0935127235435667e-07,1.4705858082260076e-06,4.923834823158394e-07,6.202507509626837e-07,1.0780578000740625e-08,1.0536633285801909e-07
2.9342830185337117e-07,-6.850447785794764e-07,-1.784079512468603e-07,-3.898043740471347e-07,-2.640719375909593e-07,1.4384937708873912e-06,8.563686732550278e-08,3.005119142972055e-07,2.4328962802316024e-07,1.996930499448005e-07,1.8632694131217761e-07,2.391133058795262e-07,4.6141171589149326e-07,1.5623614290658736e-06,5.823946483847021e-07,8.480254118699077e-07,3.39146935932246e-08,1.355381034177504e-07
2.4100067839616157e-07,-6.938236597985489e-07,-2.3120999145667674e-07,-4.491852666821661e-07,-2.4482505475114835e-07,1.412243747110596e-06,1.9967462475875393e-07,4.2889889482651087e-07,2.5080158172909315e-07,1.8872450144277907e-07,2.340232820908398e-07,2.6074124859031925e-07,6.00570927661158e-07,1.6675663920486493e-06,6.595671183151856e-07,1.0913138583285447e-06,1.072392273180595e-07,1.6981869435042001e-07
1.5434460060781936e-07,-6.92536244553412e-07,-2.7886541873025877e-07,-4.80041891835142e-07,-2.150511441903432e-07,1.3860608007869212e-06,3.34234170219516e-07,5.572791714520028e-07,2.6027716663382214e-07,1.5977286416669174e-07,2.7247339792466017e-07,3.11452266783061e-07,6.737267876366303e-07,1.7807310959620784e-06,7.136720057666401e-07,1.1991278932917511e-06,1.7223267471970729e-07,2.0297459168388022e-07
8.568879578983058e-08,-6.838834494694077e-07,-3.1740098074705244e-07,-5.115974590872026e-07,-1.755212551797501e-07,1.3617977398039577e-06,4.680803083536953e-07,6.881066799317554e-07,2.65754941994027e-07,1.1685042248848648e-07,2.9684152145553105e-07,3.844663811582721e-07,6.907168338610003e-07,1.871543367630825e-06,7.408354960486283e-07,1.2169720456985393e-06,1.9465107866335375e-07,2.3069593055809246e-07
2.325084478062513e-08,-6.705487866161291e-07,-3.4524937976352923e-07,-5.618424238156024e-07,-1.2941987728339804e-07,1.3386287724401606e-06,5.815696787304911e-07,7.590897377534584e-07,2.652048688629722e-07,8.606143226731213e-08,3.060017717504174e-07,4.718388580109992e-07,7.460343382367548e-07,1.9352775477538507e-06,7.43478385346915e-07,1.2043418588521864e-06,1.9796495173430172e-07,2.5086231632343577e-07
-2.791841221018499e-08,-6.542381006024047e-07,-3.632325171828551e-07,-6.053349914369749e-07,-8.211733885764058e-08,1.3134012165815408e-06,6.619426743102631e-07,7.780070184501446e-07,2.58491291209413e-07,6.1794784736845e-08,3.017217020621769e-07,5.633056367772554e-07,7.834455810499045e-07,1.9717321155740434e-06,7.2821875270385e-07,1.2669150692824034e-06,2.1208070162345657e-07,2.6353493824130216e-07
-6.156280475713785e-08,-6.369129628762981e-07,-3.7342642703884026e-07,-6.506703890611213e-07,-3.912366907987189e-08,1.2824340133582613e-06,7.057555651210359e-07,8.09826521420761e-07,2.4705646484141656e-07,3.964042220494217e-08,2.879390173487708e-07,6.491687725314668e-07,7.558849404985262e-07,1.977841700220288e-06,7.032884562679959e-07,1.3120711835062668e-06,2.1832639149507843e-07,2.715348007823115e-07
-8.74057080104758e-08,-6.188683438981063e-07,-3.780797944425478e-07,-6.734017673483439e-07,-4.1801337186378215e-09,1.2451656853359092e-06,7.176323647658609e-07,8.186402330164319e-07,2.3354407719981915e-07,2.3688439756674865e-08,2.697823278757839e-07,7.270781409002762e-07,7.578691329770392e-07,1.9615071041842717e-06,6.760261934170205e-07,1.325731552402911e-06,1.996098435450604e-07,2.7754420838738893e-07
-1.0441251443076785e-07,-5.998325697254636e-07,-3.7937194606405264e-07,-6.555095513563124e-07,2.121782052464221e-08,1.2015414868021097e-06,7.066706071324839e-07,7.883799843640893e-07,2.2145257140054912e-07,1.5450132464467802e-08,2.5203675221022574e-07,7.829171503242914e-07,7.031950029966196e-07,1.927164144205189e-06,6.508772305410226e-07,1.304229731957169e-06,1.8167926776418e-07,2.8375425276967687e-07
-1.1577683231867803e-07,-5.80112537928721e-07,-3.7925918584825953e-07,-6.309398057290121e-07,3.7052830923731066e-08,1.1548939847437959e-06,6.831674257704868e-07,7.389977724487313e-07,2.1417778932536582e-07,1.2351965038144713e-08,2.3788226647510922e-07,8.235809910895021e-07,6.363727652837691e-07,1.8858100111737235e-06,6.285754294190724e-07,1.2436826915389409e-06,1.439582849463259e-07,2.9023551479453407e-07
-1.2512797044466673e-07,-5.598881485642457e-07,-3.7895139032187903e-07,-6.045467415709298e-07,4.4219149193694245e-08,1.1098532501980778e-06,6.571581044211199e-07,7.039112701991337e-07,2.1415851842024918e-07,1.1593318766066481e-08,2.2829655979308564e-07,8.727298961822963e-07,5.822176098386733e-07,1.826238591804734e-06,6.06484965563635e-07,1.1967314049644973e-06,1.1013327843695388e-07,2.952464953175174e-07
-1.316650091320571e-07,-5.393762225571102e-07,-3.787594215624834e-07,-5.743491911293197e-07,4.417748211196239e-08,1.068029831591422e-06,6.367911591598487e-07,6.965112561718093e-07,2.2139204353405803e-07,1.0607709691051717e-08,2.2196137336236002e-07,9.240299440618166e-07,5.252887911437963e-07,1.7793731218249496e-06,5.79748364487384e-07,1.147080143269631e-06,8.704994861659716e-08,2.964832962446885e-07
-1.3815746478475234e-07,-5.199015692594542e-07,-3.785213716354011e-07,-5.567754696856016e-07,3.877378756118288e-08,1.0321501143984698e-06,6.28376009384664e-07,6.975762151853751e-07,2.3520423587750803e-07,7.774078193289276e-09,2.1604933381345227e-07,9.53790088294244e-07,5.004056723060579e-07,1.7409392634880997e-06,5.433004299314617e-07,1.106109338739514e-06,6.665813286212484e-08,2.9164912376895434e-07
-1.457567237495109e-07,-5.037642910582603e-07,-3.7797457440710803e-07,-5.460288945775574e-07,3.001280549755848e-08,1.008842195399734e-06,6.363080970704996e-07,7.102564995833876e-07,2.5319332299725243e-07,6.968250884621912e-09,2.0781793349237452e-07,9.59996863846131e-07,4.918214598438391e-07,1.6959574498587475e-06,4.941524588181705e-07,1.0409259409354752e-06,6.470668308506941e-08,2.8013441595022547e-07
-1.5321318650625952e-07,-4.930746564979462e-07,-3.770981217764137e-07,-5.409030299824079e-07,1.9356808857508307e-08,9.941266826892057e-07,6.564028937478477e-07,7.379335517199044e-07,2.7143147805402546e-07,3.809112618087822e-09,1.9566279879911754e-07,9.324241062018747e-07,4.963889562120949e-07,1.651802812499406e-06,4.323442086403848e-07,9.60720015654069e-07,7.81331108573806e-08,2.630049804015374e-07
-1.5907396844492084e-07,-4.89899498474388e-07,-3.766992544923533e-07,-5.483455763001288e-07,6.8857141769999696e-09,9.844331459669507e-07,6.819091584430774e-07,7.678140326854198e-07,2.858041548837947e-07,-1.7408430462652672e-09,1.789447236246954e-07,8.407113084927069e-07,4.825481226040384e-07,1.5988363281069296e-06,3.6020031304844333e-07,8.742438507022513e-07,9.693500352081229e-08,2.4212384465018844e-07
-1.6243150353085472e-07,-4.958264778371967e-07,-3.7833946584066e-07,-5.659502183893844e-07,-8.748613591125203e-09,9.783543765359092e-07,7.038304892149627e-07,7.974029375940274e-07,2.921451838072203e-07,-9.809519511936645e-09,1.5756202184626666e-07,8.47911961727406e-07,4.698000576424942e-07,1.5378760833498783e-06,2.812939753468118e-07,7.830222103206032e-07,1.1126371091145559e-07,2.1890196088317568e-07
-1.6270447993014672e-07,-5.108585797882026e-07,-3.83217534606594e-07,-5.928011019524336e-07,-2.92237388196957e-08,9.72424986543595e-07,7.124897671294461e-07,8.177691519899496e-07,2.879559242688776e-07,-2.3704294250712752e-08,1.319806113777511e-07,8.795600044073216e-07,4.5896781419519863e-07,1.4592034118588617e-06,1.9997661364957058e-07,7.013102358761028e-07,1.1664747752930034e-07,1.945585012296601e-07
-1.592348636738346e-07,-5.331117109840323e-07,-3.9130374209282304e-07,-6.261642827836036e-07,-5.5138130319884265e-08,9.596218301612351e-07,7.025071605817875e-07,8.21174823869091e-07,2.7342899190698713e-07,-4.297972285437104e-08,1.0324544167133978e-07,8.272333164425535e-07,4.366088199798654e-07,1.3757205614790922e-06,1.211433192799841e-07,5.958781231867912e-07,1.1134351908331765e-07,1.6979608215344185e-07
-1.5170038703486635e-07,-5.523024853142818e-07,-4.014897367589943e-07,-6.597476764056368e-07,-8.580789308441565e-08,9.450476011893814e-07,6.72504582416152e-07,8.030845514352257e-07,2.5173244883533746e-07,-6.651521717593641e-08,7.285954011645559e-08,7.267361244665394e-07,4.0212858524520626e-07,1.2789026975503957e-06,5.001304846779925e-08,4.811331711708186e-07,9.595962271771735e-08,1.4558366619820525e-07
-1.4065491504634538e-07,-5.668558331844393e-07,-4.1199039611985043e-07,-6.891304179348468e-07,-1.1958240895741438e-07,9.306917810436134e-07,6.252911087761764e-07,7.621627592948717e-07,2.2794611308149773e-07,-9.09614938243626e-08,4.285067268066611e-08,6.211677829669254e-07,3.535441505428752e-07,1.1706388534359845e-06,-8.210302551028419e-09,3.7077074914719897e-07,7.228827136232919e-08,1.2385645358370644e-07
-1.2731428198725386e-07,-5.825260654946914e-07,-4.2048086000675383e-07,-7.11101829764569e-07,-1.5377709335031687e-07,9.132855464782235e-07,5.679440546792355e-07,7.014812099357899e-07,2.0849487366812233e-07,-1.1175237362858402e-07,1.5582309220749766e-08,5.184129396551801e-07,2.991132518146112e-07,1.0825164967620623e-06,-4.9330395942505084e-08,2.977521920628732e-07,4.291135189096742e-08,1.0694454804169549e-07
-1.1284149157873124e-07,-5.928986488625307e-07,-4.244113003223538e-07,-7.233405725992239e-07,-1.8452952021769713e-07,8.996167603554719e-07,5.121224158438134e-07,6.307206651835054e-07,1.993331247413762e-07,-1.212954756786297e-07,-6.972336013301785e-09,4.5766204268027914e-07,2.4500130245649734e-07,9.88958967290515e-07,-7.169735836457641e-08,2.5634901953075077e-07,9.402116689433247e-09,9.65237412707275e-08
-9.755127106109715e-08,-5.946514959883298e-07,-4.213873795087809e-07,-7.245745908555339e-07,-2.0604922578387898e-07,8.9276857974413e-07,4.6893568822795514e-07,5.852164946495046e-07,2.0389338304054273e-07,-1.1664657052055438e-07,-2.3708163698056143e-08,4.307550503399281e-07,2.0742473611630256e-07,9.425522355191485e-07,-7.715007974954368e-08,2.413412233566267e-07,-2.2515351011938972e-08,9.266647289585521e-08
-8.040137853725836e-08,-5.849603380240086e-07,-4.0925955071192675e-07,-7.14472978846809e-07,-2.1334251449140615e-07,9.063878142256801e-07,4.5056784338146436e-07,5.693872505182281e-07,2.2249130084633984e-07,-9.80353631947726e-08,-3.411540709806118e-08,4.072109672050089e-07,1.8345078459354394e-07,9.41496913727499e-07,-7.063963175779447e-08,2.548218687540603e-07,-3.749543992540344e-08,9.388710688701732e-08
-5.95554044175885e-08,-5.606627778878497e-07,-3.863741639851775e-07,-6.939228223794816e-07,-2.0324827885047648e-07,9.363661405024356e-07,4.6412728603575243e-07,6.246868311248982e-07,2.5226930167735724e-07,-6.767682000743684e-08,-3.782139531280873e-08,3.881833198603539e-07,1.7389008821381566e-07,9.286871652738559e-07,-5.8808514678447336e-08,2.855890430860106e-07,-3.828239811536389e-08,9.781139429734932e-08
-3.397711302958744e-08,-5.234229434786021e-07,-3.524012756640086e-07,-6.65485873749161e-07,-1.7373256563237245e-07,9.712863844110542e-07,5.101789521745874e-07,6.954863733765007e-07,2.8790638980831964e-07,-2.8963446637547567e-08,-3.4228085911240464e-08,3.8964485509277215e-07,1.8198550474319333e-07,9.578577727351233e-07,-4.772485767451928e-08,3.3902876630617733e-07,-1.2077786790939145e-08,1.0266354898451599e-07
-4.449585369319488e-09,-4.901588378324309e-07,-3.088775314114143e-07,-6.33302027085894e-07,-1.2664934121076713e-07,1.0121768457488334e-06,5.901425121316043e-07,7.589784538349162e-07,3.2337644009346154e-07,1.5690798607630235e-08,-2.204793453339491e-08,4.0114832208104746e-07,2.078338451926678e-07,1.0142216309112017e-06,-4.0254453043770494e-08,4.1625236953306955e-07,3.050742323250927e-08,1.093485207467966e-07
2.716391279477201e-08,-4.6013887318256676e-07,-2.5883745443966286e-07,-6.020164786818109e-07,-6.856017228634776e-08,1.04104060168164e-06,6.9363257918951e-07,7.782595389108695e-07,3.54055571734551e-07,6.532621671545645e-08,8.874429362482295e-10,4.21014851970032e-07,2.590580806416753e-07,1.0660765337882884e-06,-3.4582532045919836e-08,5.112307670688541e-07,5.520344655095266e-08,1.2224599275564592e-07
5.9362724003012636e-08,-4.1424568461050673e-07,-2.060866027571243e-07,-5.755267340882261e-07,-5.722558292780951e-09,1.0659634953959187e-06,7.863790136328674e-07,8.280462865356065e-07,3.7811238435678897e-07,1.1231778726872874e-07,3.6962625400925166e-08,4.455344739173775e-07,3.413827596284119e-07,1.1474450709471383e-06,-2.4939446224639132e-08,6.142873158786871e-07,8.583942208316058e-08,1.4771254222348768e-07
9.202236744322747e-08,-3.5682025420492957e-07,-1.5454249176371144e-07,-5.560770094489552e-07,5.204701371868486e-08,1.094917002323655e-06,8.670603006075267e-07,9.34818329648274e-07,3.969145894914795e-07,1.6800296340529505e-07,8.782356477109721e-08,4.6316126126256835e-07,4.415483974511086e-07,1.214224415378796e-06,-3.827638200148337e-09,7.244172457667156e-07,1.2584054634895157e-07,1.9134697164494645e-07
1.2684910581900048e-07,-2.897102442989253e-07,-1.0717802613857456e-07,-5.434415340241858e-07,8.88906471519653e-08,1.1587086744022334e-06,9.332728240587594e-07,1.0938837848264042e-06,4.143759713767269e-07,2.343797603546393e-07,1.5366133324811954e-07,4.7319734272863184e-07,5.544643936849649e-07,1.2826187335019099e-06,3.521753365289386e-08,8.385386968290892e-07,1.8268563395068547e-07,2.552043990918041e-07
1.6683151720737343e-07,-2.2248638198097663e-07,-6.524565769445913e-08,-5.34618541302836e-07,1.1156930201545575e-07,1.2017390845386136e-06,9.412190205011148e-07,1.2095991023371299e-06,4.348651260924013e-07,3.063753641615542e-07,2.3366469783554573e-07,4.819805923865932e-07,6.771535338441064e-07,1.3374204212589149e-06,9.459273474435622e-08,9.21940895208431e-07,2.5272305021752886e-07,3.3563906000419904e-07
2.1449005674515987e-07,-1.6677998496811743e-07,-2.8467524133752333e-08,-5.2473544169769e-07,1.1868829530930151e-07,1.1846152497295353e-06,9.037542212415842e-07,1.2619040137707663e-06,4.6015701441248957e-07,3.8291421828149216e-07,3.2019223087733015e-07,4.864930331279524e-07,7.653838667390513e-07,1.368781343096983e-06,1.7038503456371953e-07,9.705859855637326e-07,3.026389198555193e-07,4.230259777461534e-07
2.701379539551212e-07,-1.454286866178019e-07,4.269844050708515e-09,-5.087621531156297e-07,8.660495374707376e-08,1.150346445948169e-06,8.510352656029194e-07,1.3004265759316314e-06,4.876443312273666e-07,4.5526271028024413e-07,4.054206520761879e-07,4.783520219977365e-07,7.440487139776833e-07,1.3768516947483784e-06,2.5260744840421565e-07,9.741988518746616e-07,3.263481478493136e-07,5.060149515970399e-07
3.313659650120225e-07,-1.3637621125472634e-07,3.428255451159632e-08,-4.83612058006678e-07,8.378757242231768e-08,1.1681228552674262e-06,7.61973102480949e-07,1.3273704953927027e-06,5.113197928508124e-07,5.041064227198139e-07,4.793827096959885e-07,4.6019148864826485e-07,7.363717570746236e-07,1.344083947348586e-06,3.279306139680286e-07,9.375569317048872e-07,3.248877653465693e-07,5.701788073024194e-07
3.936156667475771e-07,-1.1711971233147718e-07,6.247101744598141e-08,-4.5033616455646645e-07,8.386931825190298e-08,1.2119531197161461e-06,5.930976371367915e-07,1.343011024308455e-06,5.246110636103328e-07,5.285011472938994e-07,5.08632115386592e-07,4.333084156759884e-07,7.229846941732331e-07,1.3117849434565717e-06,3.8358642112849733e-07,9.401843281652158e-07,3.3719404570567376e-07,5.93279073425834e-07
4.51489625209712e-07,-9.254512264835317e-08,8.899782796384014e-08,-4.143169278404076e-07,4.7058395937636674e-08,1.2696744973776077e-06,4.249412980688814e-07,1.36176992659913e-06,5.234762371096955e-07,5.76665922511789e-07,5.278140414481722e-07,3.9997733535683733e-07,6.911040245308714e-07,1.2534892889938223e-06,4.1181672140735107e-07,9.986823301675922e-07,3.528707064923423e-07,6.187906200773857e-07
5.014592283526282e-07,-6.963208811593115e-08,1.1387174470824694e-07,-3.828001945646841e-07,8.930006262005326e-10,1.306681931908245e-06,2.770852486575503e-07,1.306054979156629e-06,5.083529268711264e-07,5.821078645085888e-07,5.551017288983526e-07,3.6611694440897014e-07,6.722003527500527e-07,1.178583795752131e-06,4.139559711183121e-07,9.308062421828576e-07,3.3653272030993685e-07,6.00832535211156e-07
5.443016063477857e-07,-7.511189880164817e-08,1.3756263288239174e-07,-3.610003424583916e-07,-5.152314391623643e-08,1.3042725300724188e-06,1.712870474872884e-07,1.226761744682664e-06,4.842586247781402e-07,5.654502416550723e-07,5.482547690841067e-07,3.357916626600098e-07,5.839443655191401e-07,1.1210324227044693e-06,4.0137880488150704e-07,8.299496881455495e-07,3.213482773664834e-07,5.811439588321573e-07
5.845810684370499e-07,-1.0688354747948769e-07,1.6046949197370346e-07,-3.497574363453773e-07,-1.0841605713577473e-07,1.2969338388291256e-06,8.596546678053703e-08,1.164606661642143e-06,4.5884734169490313e-07,5.590849354781505e-07,5.215662227514671e-07,3.121141742634227e-07,4.782758624755874e-07,1.059033901065178e-06,3.911897389279e-07,7.220445690691733e-07,3.063710702633452e-07,5.672842417166423e-07
6.290778385067444e-07,-1.3589130842417956e-07,1.820383737095231e-07,-3.4596110324279367e-07,-1.5046353240891536e-07,1.2884596526698584e-06,-4.550492953876316e-09,1.1135870768404404e-06,4.399501329654444e-07,5.742854382470976e-07,5.058549223745466e-07,2.96343148398742e-07,4.0350123556128274e-07,1.0237770592247485e-06,4.002847690519532e-07,6.160902966206241e-07,2.9283607971946776e-07,5.692302901380163e-07
6.74790784008077e-07,-1.55962836689727e-07,2.008262507792153e-07,-3.4457702268377124e-07,-1.8433738559191114e-07,1.2588593588733446e-06,-1.0081877938955055e-07,1.0811773405432453e-06,4.3452747604171644e-07,6.048335595297376e-07,5.051902248806982e-07,2.875160183815493e-07,2.962068824928455e-07,1.021402512632454e-06,4.335005330407298e-07,5.63775794619204e-07,2.7124361008500977e-07,5.870563861540506e-07
7.164259209184724e-07,-1.836631419298614e-07,2.150516941920297e-07,-3.4113720713513884e-07,-2.1240162372079447e-07,1.257365845019103e-06,-1.7786763472375634e-07,1.0561056363768662e-06,4.4298028733450527e-07,6.320980613641227e-07,5.099132093277574e-07,2.830450384873522e-07,2.2152661128626515e-07,1.0343823335304573e-06,4.821499868524029e-07,5.46726137623975e-07,2.497407209352738e-07,6.125134360224845e-07
7.396181844751363e-07,-1.9899230776280432e-07,2.2389291045453625e-07,-3.336951279358174e-07,-2.409194585480683e-07,1.2318153686337605e-06,-2.324669083325278e-07,1.026226780374529e-06,4.6029066701465037e-07,6.27902419736902e-07,5.13247594119634e-07,2.783691025102261e-07,2.2785491226000714e-07,1.0641029293169627e-06,5.288825020516158e-07,5.511694350099003e-07,2.2479529170136103e-07,6.333436534672625e-07
6.949202970328449e-07,-2.0741872540373235e-07,2.264139115585661e-07,-3.233679380442196e-07,-2.6225398637896293e-07,1.173701485431981e-06,-2.6977794418248063e-07,9.95957386513947e-07,4.746728615510285e-07,6.055123920140016e-07,5.055066624869933e-07,2.671084729860298e-07,2.483455866374444e-07,1.0930933081253584e-06,5.228479587399469e-07,5.627593230260803e-07,1.8895407033632703e-07,6.16415868632552e-07
6.508799432685575e-07,-2.195344149250849e-07,2.220506385268745e-07,-3.1333678012542344e-07,-2.7059733941054584e-07,1.164721615197861e-06,-2.1415967697294106e-07,9.68291136635188e-07,4.496659472588605e-07,5.823217514385237e-07,4.800483253905667e-07,2.425887869595818e-07,2.0223954501674132e-07,1.1073382598520003e-06,4.7458234712578074e-07,5.55681124974991e-07,1.4468226734738877e-07,5.721600458639986e-07
5.882451293836348e-07,-2.339578448502102e-07,2.110894821328606e-07,-3.0740529542293393e-07,-2.6433691066392265e-07,1.1788638206770242e-06,-2.335482147495085e-07,9.56113053808229e-07,3.9582522897920367e-07,5.745115585402864e-07,4.3517538911458944e-07,2.00118429128551e-07,1.3734802271766504e-07,1.0996808241653846e-06,4.1830609387087667e-07,5.278823534681643e-07,9.164312280131618e-08,5.243851829583888e-07
5.009672584301392e-07,-2.552055424015587e-07,1.9439764403027642e-07,-3.088058505902276e-07,-2.3006649771932255e-07,1.1948346123743667e-06,-2.699706264471446e-07,9.670852652799167e-07,3.316667256877766e-07,5.772812916023267e-07,3.753883327618502e-07,1.3945430986233071e-07,4.8303710128680544e-08,1.06431138364196e-06,3.602511194340049e-07,4.833347209140856e-07,3.5406099602359944e-08,4.7631859059647376e-07
3.8459718256899797e-07,-2.814923700089172e-07,1.7416975394437967e-07,-3.1896133309658633e-07,-1.9181215519306893e-07,1.227179219599287e-06,-1.9968556098621433e-07,9.988976044129418e-07,2.789172707900603e-07,5.693909401277049e-07,3.094749456881531e-07,6.634242484206464e-08,-4.7075014939201396e-08,1.0017707861720387e-06,2.29598120336238e-07,4.2899327036259065e-07,-1.8114500170594275e-08,3.834537281503399e-07
3.372178511646835e-07,-3.0831064450534144e-07,1.5410820509319554e-07,-3.3677559494070614e-07,-1.583497590886042e-07,1.2166674914644085e-06,-9.609373958285583e-08,1.0443809232691795e-06,1.9304273811370482e-07,5.322202154488398e-07,2.4801237206245204e-07,-8.914801595217278e-09,-1.2594632458570215e-07,9.188168188127889e-07,8.68971452264034e-08,3.7652302456798736e-07,-6.486179345657231e-08,2.850658989858026e-07
3.273960317969529e-07,-3.32542840892246e-07,1.383346147246116e-07,-3.5945587838224055e-07,-1.33962419973093e-07,1.1565531174658162e-06,-3.5310482333328447e-08,1.0937368767093852e-06,8.452888425745276e-08,4.866427302597544e-07,2.0034357870612781e-07,-7.594140321128149e-08,-1.8729907789002736e-07,8.254480166242539e-07,1.4367188137861765e-08,3.3803319757015674e-07,-1.0196330446730031e-07,2.1494712466535597e-07
3.3658077594496554e-07,-3.521395501187385e-07,1.293754052005292e-07,-3.841674433775145e-07,-1.377412639123477e-07,1.1043284257349472e-06,-5.206420870690349e-08,1.1379769055386587e-06,-7.491570094506272e-09,4.539879251030011e-07,1.7121557389592078e-07,-1.2890490599094197e-07,-2.2558326360017818e-07,7.320665680704066e-07,-1.4336998678594223e-08,3.203915820895514e-07,-1.2919238718975257e-07,1.8178448182411476e-07
3.419007606100671e-07,-3.6703191514696285e-07,1.276615119763943e-07,-4.089662840435422e-07,-1.591085131207318e-07,1.0493311424991903e-06,7.191613414796033e-09,1.1722075587151792e-06,-4.526987966766461e-08,4.1664274915334443e-07,1.598115285688411e-07,-1.6867200942418028e-07,-2.4459907260371e-07,6.478191939185775e-07,-5.1418023958849126e-08,3.231870208092507e-07,-1.4907713640219043e-07,1.5342280946206667e-07
3.8893575912845213e-07,-3.7886617574021505e-07,1.31847440939205e-07,-4.325135699069288e-07,-1.962572214586394e-07,9.80730275272422e-07,-6.084028929897134e-09,1.1960510763972202e-06,-9.805764422055073e-08,3.754468882019237e-07,1.6040206007449135e-07,-2.0217340001623592e-07,-2.464277179952088e-07,5.78597956610531e-07,-6.446861592511657e-08,3.383082290534715e-07,-1.6634633729304614e-07,1.5296384763700773e-07
4.675137200934607e-07,-3.901970909048582e-07,1.3900919442881775e-07,-4.536438116775522e-07,-2.470991825893694e-07,9.07320175350997e-07,-7.317563306321652e-08,1.2106283084101652e-06,-1.561088901811273e-07,3.570451303121429e-07,1.6437471030252112e-07,-2.393526768593701e-07,-2.487744676181303e-07,5.249828189749675e-07,-3.719608884051078e-08,3.5251924063357814e-07,-1.8649551846348796e-07,1.514609703389868e-07
5.530346360189745e-07,-4.0315100553238366e-07,1.4654561741431657e-07,-4.7116193840390256e-07,-3.005544088817702e-07,8.305014076309723e-07,-1.695945555146086e-07,1.2171064718238213e-06,-1.6170388726547105e-07,3.352903171936429e-07,1.6350824913237718e-07,-2.886069115505783e-07,-2.6520520799584563e-07,4.82652325126996e-07,1.0460325997313338e-09,3.520843238437565e-07,-2.1338513194024225e-07,1.4131066153677002e-07
6.039229108487559e-07,-4.1786391901630193e-07,1.5267301698499665e-07,-4.838137353286053e-07,-3.5333290022224476e-07,7.773746260072542e-07,-2.414559732797016e-07,1.2165331213650516e-06,-1.5227565908287464e-07,3.051620424841923e-07,1.5194587637186563e-07,-3.533140300996424e-07,-3.024299986094143e-07,4.450700534031775e-07,5.9612601784683065e-09,3.275692744874612e-07,-2.477166653267659e-07,1.1616189320331311e-07
6.223077376702104e-07,-4.3296535865111003e-07,1.568480053569536e-07,-4.908921816565864e-07,-4.006099824458808e-07,7.424567897195353e-07,-2.845964936445533e-07,1.209392147100444e-06,-1.5855373186489339e-07,2.6202246588470565e-07,1.278627909272775e-07,-4.315473082630205e-07,-3.644921302536562e-07,4.060788172687814e-07,-1.9055969541574922e-08,2.762183295836116e-07,-2.87734049619431e-07,7.494163924777517e-08
6.191971128186426e-07,-4.461139760783975e-07,1.6068434406030082e-07,-4.932829012702998e-07,-4.401505506659077e-07,7.114186693227087e-07,-3.1160513812331414e-07,1.1956218952961311e-06,-1.7888566319295463e-07,2.0714386730234347e-07,9.270850611339501e-08,-5.179329707087376e-07,-4.463372822764421e-07,3.617458455278104e-07,-6.497668620157943e-08,2.0136365496560916e-07,-3.305607324553888e-07,2.0480167380868172e-08
5.980070453613711e-07,-4.570698731627914e-07,1.5953622285909328e-07,-4.938079252131769e-07,-4.7436809630095743e-07,6.941568754907474e-07,-3.3024813414686793e-07,1.175074389840311e-06,-2.0893941973129627e-07,1.4551508945063725e-07,4.981065963935801e-08,-6.055579256948418e-07,-5.400756213514455e-07,3.1192130695895705e-07,-1.2541688360804238e-07,1.1138979641378708e-07,-3.7257309753511213e-07,-4.199957446344969e-08
5.662195780080865e-07,-4.6681715050509017e-07,1.5181085282541953e-07,-4.963272423377277e-07,-5.072683630817543e-07,6.710739161487189e-07,-3.4788127668335954e-07,1.1491252420342117e-06,-2.481926233380191e-07,7.78456295701898e-08,3.553255456993668e-09,-6.875796571602135e-07,-6.368575004598122e-07,2.597628836020001e-07,-1.8996911200928645e-07,1.778092612778719e-08,-4.0962702945785314e-07,-1.062448596371328e-07
5.310664730744672e-07,-4.759846311097864e-07,1.3770659105710834e-07,-5.044498929422061e-07,-5.425997812849279e-07,6.237864600869569e-07,-3.689356329658409e-07,1.1214684210009888e-06,-2.9241668472070985e-07,1.601218411424718e-08,-4.203803686544965e-08,-7.585647217464285e-07,-7.291441018227329e-07,2.098839766405681e-07,-2.4924217820581433e-07,-6.778727913707222e-08,-4.378044346956273e-07,-1.6617519797147005e-07
4.979905260967841e-07,-4.846719118331164e-07,1.2047570562964243e-07,-5.205482521001549e-07,-5.82278461532982e-07,5.619342085120699e-07,-3.9201537079508894e-07,1.0979572750143187e-06,-3.361788722293875e-07,-3.5927639012097414e-08,-8.379198695734554e-08,-8.146602729527944e-07,-8.115727271700654e-07,1.6675481054309488e-07,-2.9660772840957354e-07,-1.3560752896515377e-07,-4.5387193607601095e-07,-2.1632646871753032e-07
4.7029246392587297e-07,-4.918209954541258e-07,1.0162175645676717e-07,-5.450271264851292e-07,-6.253724525853555e-07,4.894581304141307e-07,-4.0995090353106973e-07,1.0857322165096424e-06,-3.73159929040134e-07,-7.72145175474674e-08,-1.196662758925164e-07,-8.528024818634603e-07,-8.803230242837207e-07,1.3448568438664195e-07,-3.281567036526845e-07,-1.7904899431451962e-07,-4.5549335258920204e-07,-2.517952823751793e-07
4.494685139104972e-07,-4.941077341852123e-07,8.495662114038095e-08,-5.762618815772724e-07,-6.683799891209546e-07,4.177350542040234e-07,-4.1275748426806065e-07,1.0914530215374121e-06,-3.972659668851566e-07,-1.0872792140118512e-07,-1.484004183242943e-07,-8.707005980715194e-07,-9.26865274919377e-07,1.156783111785024e-07,-3.42076388144766e-07,-1.9583767778598207e-07,-4.4206038585506096e-07,-2.6889060990648254e-07
4.354756848249438e-07,-4.859166594259018e-07,6.95591094216297e-08,-6.112707133850398e-07,-7.064268645301108e-07,3.558796809282748e-07,-3.9304824696760203e-07,1.1183069429016102e-06,-4.0400513861148946e-07,-1.3125831563997784e-07,-1.7029061132236768e-07,-8.680815499295551e-07,-9.503676916290696e-07,1.0974828455101898e-07,-3.3822483891487493e-07,-1.8918142195489288e-07,-4.1553360970784895e-07,-2.6622667401100066e-07
4.272518364311093e-07,-4.7272744189733993e-07,3.1803568784012246e-08,-6.464719982320044e-07,-7.352980196066024e-07,3.048125533876943e-07,-3.5073229796960575e-07,1.1641199361150748e-06,-3.916427224370882e-07,-1.4563711995505443e-07,-1.8741644566173998e-07,-8.478002425166252e-07,-9.567727196733782e-07,1.1334196848076089e-07,-3.176926789603142e-07,-1.672474291732427e-07,-3.8017097701174733e-07,-2.4529327766253564e-07
4.2373466796411194e-07,-4.509734213610129e-07,-1.8545275197732248e-08,-6.779760030882553e-07,-7.52860935010303e-07,2.6297572989444615e-07,-2.941339179547882e-07,1.2216743494248748e-06,-3.616050582124006e-07,-1.5452429630915472e-07,-2.0255017209819003e-07,-8.157973263393859e-07,-9.468289993746491e-07,1.2207668742243417e-07,-2.82755501618431e-07,-1.4126418788730733e-07,-3.41581193734055e-07,-2.1055942518788205e-07
4.246768369052499e-07,-4.395199503545228e-07,-7.585245955262527e-08,-7.019288388104475e-07,-7.593293397249964e-07,2.3761100003621124e-07,-2.3656753398535094e-07,1.2807107480231802e-06,-3.1842898754228977e-07,-1.6087800561857766e-07,-2.1814301400231345e-07,-7.798706373264633e-07,-9.274614595544471e-07,1.3160476722254273e-07,-2.3755527503699732e-07,-1.2350809189230345e-07,-3.057988246708517e-07,-1.690421908998413e-07
4.3070056088990693e-07,-4.4645452157705927e-07,-1.193909349995313e-07,-7.152382922692615e-07,-7.570571769043399e-07,2.4393713732526387e-07,-1.9029760843290076e-07,1.331190835969258e-06,-2.6857617142972535e-07,-1.684714533431654e-07,-2.353574861309543e-07,-7.474711890612941e-07,-9.092126457423316e-07,1.3789529100961152e-07,-1.883211724807462e-07,-1.2509630507399687e-07,-2.7811141465590916e-07,-1.2871530957586512e-07
4.428600170256612e-07,-4.5874411755353994e-07,-1.4854892787735807e-07,-7.162347101740824e-07,-7.499818070598158e-07,2.7355824908554183e-07,-1.6159801581677838e-07,1.3671199020189646e-06,-2.188436534466714e-07,-1.79647503618822e-07,-2.5374484934017913e-07,-7.228415072248084e-07,-9.016246765955934e-07,1.370098677318438e-07,-1.421363538378874e-07,-1.5372723045912457e-07,-2.6188662610938675e-07,-9.624894466406118e-08
4.6145246856005903e-07,-4.693263477204539e-07,-1.7244972438951802e-07,-7.055807509628955e-07,-7.43084031543196e-07,3.2012787177736163e-07,-1.4985437246467826e-07,1.3866424980599494e-06,-1.748677450117716e-07,-1.9565528224410145e-07,-2.720138509284068e-07,-7.083361291415173e-07,-9.139044491228567e-07,1.2477253070452314e-07,-1.0507996826899011e-07,-2.1276251928936124e-07,-2.581606925611919e-07,-7.544294173263259e-08
4.844131984726823e-07,-4.858880292567913e-07,-1.9107220934139337e-07,-6.869571998549523e-07,-7.41790100285089e-07,3.7724943709687393e-07,-1.4998327580818923e-07,1.3908609137993862e-06,-1.3979736937913095e-07,-2.162392043052353e-07,-2.888710542237358e-07,-7.048824216797792e-07,-9.615730654061496e-07,9.763251675646308e-08,-8.060027337675708e-08,-3.0144660833813446e-07,-2.655764989591518e-07,-6.650441153331424e-08
5.072323886713406e-07,-4.986915888814239e-07,-1.9305495898071837e-07,-6.661214656241897e-07,-7.507843601623117e-07,4.4267815014562005e-07,-1.554669858590799e-07,1.3835591980345477e-06,-1.13402778872058e-07,-2.406094434518898e-07,-3.0432660405186683e-07,-7.121876040155852e-07,-1.0395859567974826e-06,5.407056306517504e-08,-6.827407343829992e-08,-4.1453037133195466e-07,-2.8040742315823854e-07,-6.576932571642149e-08
5.251982101181834e-07,-5.110421122939968e-07,-1.7617786323576726e-07,-6.483215556775272e-07,-7.721908421479249e-07,5.161899030597102e-07,-1.6023029400814714e-07,1.3708027055215898e-06,-9.214952447641049e-08,-2.65841965225804e-07,-3.167146133981534e-07,-7.29474468089247e-07,-1.1264505854659256e-06,-3.6315041320925545e-09,-6.385340237000854e-08,-5.418901271890767e-07,-2.9725861800651466e-07,-6.677553690667938e-08
5.359397322351394e-07,-5.215695205914872e-07,-1.5857450180047381e-07,-6.362371287344635e-07,-8.045372199355268e-07,5.904192215300062e-07,-1.5996374175933902e-07,1.3589795759892262e-06,-7.072967527081529e-08,-2.874276054393773e-07,-3.236519741256305e-07,-7.53383273333474e-07,-1.2142151683640005e-06,-7.099094238287997e-08,-6.152171092277092e-08,-6.703717730654735e-07,-3.115672227254998e-07,-6.334277696278844e-08
5.401178898507209e-07,-5.277486058901196e-07,-1.4386350594270378e-07,-6.299875877419893e-07,-8.431703194544541e-07,6.763101496845466e-07,-1.5251698452675625e-07,1.3521489500978184e-06,-4.449547023120128e-08,-3.0208420970262467e-07,-3.2795194530229387e-07,-7.800664336193552e-07,-1.284807148927541e-06,-1.4311791335012618e-07,-5.742183657419753e-08,-7.873833638306254e-07,-3.231975757777088e-07,-5.31110627645812e-08
5.404001303327478e-07,-5.330917614209291e-07,-1.2846659062247692e-07,-6.284836390958137e-07,-8.813666856261004e-07,7.418624704189811e-07,-1.3616671029320978e-07,1.3507579521894857e-06,-1.1523350607433177e-08,-3.0612579692106447e-07,-3.3199880468728604e-07,-8.089095414694767e-07,-1.3343679603649244e-06,-2.1485773463084446e-07,-5.211229257842457e-08,-8.838961253222912e-07,-3.3484462087379355e-07,-3.932388564989653e-08
5.398876362748825e-07,-5.379585705820238e-07,-1.1173525000130617e-07,-6.310983520442849e-07,-9.117595414330136e-07,7.697220662539936e-07,-1.0728501221636595e-07,1.3518976486135569e-06,2.6476111669393605e-08,-3.0509498282222786e-07,-3.2946667122468374e-07,-8.470478446381482e-07,-1.3693396680442262e-06,-2.8114968046578877e-07,-5.038595243631969e-08,-9.558239203441802e-07,-3.5024946036367725e-07,-2.986890247949776e-08
5.408514947947782e-07,-5.446535748382696e-07,-9.744963101564825e-08,-6.388431763605229e-07,-9.283641286902275e-07,7.519483584561956e-07,-6.040377213105348e-08,1.351149009802769e-06,6.449128261172546e-08,-3.112245879046242e-07,-3.609920676425655e-07,-8.946838666803457e-07,-1.400716780196968e-06,-3.3700547168417504e-07,-5.836757864870687e-08,-1.0036778536278825e-06,-3.714938137782565e-07,-3.342949503587081e-08
5.447069779980887e-07,-5.546211395175515e-07,-8.97391933003376e-08,-6.541230341850347e-07,-9.28643274338048e-07,7.166725242272339e-07,8.838096982189594e-09,1.3450300335407181e-06,9.628720406315087e-08,-3.3016882987630126e-07,-4.048485260542028e-07,-9.5944103924616e-07,-1.4252047628278786e-06,-3.782783312164416e-07,-7.943946834834929e-08,-1.030877644232895e-06,-3.9626433298138843e-07,-5.4624338193949695e-08
5.521849252790669e-07,-5.663784264863273e-07,-9.060724523123523e-08,-6.790975704524822e-07,-9.143146137753398e-07,6.968912634685975e-07,1.0056287362145223e-07,1.3325624934161295e-06,1.1704864138781276e-07,-3.6468234747158247e-07,-4.4406844997402824e-07,-1.0207358543400836e-06,-1.4453310000259054e-06,-4.0127890355381576e-07,-1.118867801700003e-07,-1.0421576066501318e-06,-4.187475137341212e-07,-9.14309551703538e-08
5.626751993108474e-07,-5.769998330515386e-07,-1.0200673144881613e-07,-7.141381390363147e-07,-8.904595185938179e-07,6.777357656752669e-07,2.0928247283707036e-07,1.3150273699371625e-06,1.2489097634574143e-07,-4.13435882999424e-07,-5.035733791707972e-07,-1.0359974437946684e-06,-1.470542473621004e-06,-4.0377176121335723e-07,-1.4989253363330526e-07,-1.0430069259119547e-06,-4.333265429432782e-07,-1.3675062671032336e-07
5.731941275653757e-07,-5.838524540858018e-07,-1.225817947460572e-07,-7.575246344373241e-07,-8.637876671299496e-07,6.2308206324042e-07,3.2483250431763503e-07,1.2943542808897505e-06,1.2087165251423382e-07,-4.683592088428865e-07,-5.792183931339401e-07,-9.951223913420739e-07,-1.4938487023867966e-06,-3.85762123965665e-07,-1.86378576707487e-07,-1.0388658809437385e-06,-4.372891718382362e-07,-1.8198745053047558e-07
5.786325210570614e-07,-5.856441569122414e-07,-1.5112782250488724e-07,-8.058743881812153e-07,-8.407263489755821e-07,5.589036067559248e-07,4.3519511591469187e-07,1.2721672900100136e-06,1.083245457226382e-07,-5.145875717965255e-07,-6.481149948118783e-07,-9.155508325280357e-07,-1.5149783377247476e-06,-3.4894452577014555e-07,-2.15342041038827e-07,-1.0335193878066698e-06,-4.308919539599392e-07,-2.1987210790631423e-07
5.737044489198189e-07,-5.820736607163979e-07,-1.852295381952284e-07,-8.547589621346491e-07,-8.257965947109295e-07,4.800755432784161e-07,5.297722198925007e-07,1.2493467288414139e-06,9.142128306809719e-08,-5.473580569489729e-07,-6.854501007483204e-07,-8.269706422610356e-07,-1.5316933422736072e-06,-2.971174092671504e-07,-2.33182093888723e-07,-1.0284313941411224e-06,-4.169265620590619e-07,-2.460149979124509e-07
5.551673585710353e-07,-5.733867942367305e-07,-2.204829588895709e-07,-8.996590877807598e-07,-8.208243612753068e-07,4.0057986116956724e-07,6.01511011936226e-07,1.2253651083023584e-06,7.338350055731216e-08,-5.500568714426071e-07,-6.846542576592938e-07,-7.461683216811263e-07,-1.5394756584300584e-06,-2.3717881399069349e-07,-2.391953640430706e-07,-1.0236525025459796e-06,-3.9951312413491034e-07,-2.5925254958673684e-07
5.237913349994407e-07,-5.603231400679609e-07,-2.528196404165865e-07,-9.368849183796459e-07,-8.249356939195287e-07,3.239654834295532e-07,6.475802043588518e-07,1.1984792106621945e-06,5.608280860574535e-08,-5.403414074019403e-07,-7.020659628880698e-07,-6.670004513088177e-07,-1.5367663631298386e-06,-1.78650355852235e-07,-2.3481992590413904e-07,-1.0185154647236173e-06,-3.8283446144629015e-07,-2.607545084859024e-07
4.859902396157501e-07,-5.440068158444615e-07,-2.78356720053035e-07,-9.64002003406181e-07,-8.351056152444662e-07,2.65597007534208e-07,6.688271531367075e-07,1.1672476375657553e-06,3.943821807436024e-08,-5.376662289368822e-07,-7.322121309268443e-07,-5.95105595119867e-07,-1.5248918560359427e-06,-1.3081548756341894e-07,-2.21739534535947e-07,-1.0113647815767337e-06,-3.7018601253548125e-07,-2.5258576653317305e-07
4.515663500704304e-07,-5.261391569731673e-07,-2.9474229986413643e-07,-9.801148786126074e-07,-8.472965828252477e-07,2.362767072449781e-07,6.677263771653375e-07,1.1314275727851334e-06,2.262532552729423e-08,-5.173704114222266e-07,-6.996198320575309e-07,-5.415047487120832e-07,-1.501373970423895e-06,-9.98097964310504e-08,-2.0028086714354669e-07,-9.995715387478424e-07,-3.6342352700573885e-07,-2.3689342368078518e-07
4.3668308645118135e-07,-5.095609699950245e-07,-3.0241353380750565e-07,-9.86252195626692e-07,-8.585209226202553e-07,2.243559078814309e-07,6.456169212103406e-07,1.091039651371411e-06,5.385529898698203e-09,-4.82377159037167e-07,-6.522385662032801e-07,-4.941139612929061e-07,-1.4617756327110787e-06,-8.697199030641121e-08,-1.6892211345705442e-07,-9.80104054464044e-07,-3.624643421762909e-07,-2.1547767568937752e-07
4.68859919009977e-07,-4.978321866042065e-07,-3.043865043716864e-07,-9.851019343850992e-07,-8.682611585654307e-07,2.1522272893160796e-07,6.015099656827089e-07,1.0453208442084876e-06,-1.2548979884672542e-08,-4.48423369211125e-07,-6.176843956280431e-07,-4.569584929894814e-07,-1.4074671275378875e-06,-8.741269105327126e-08,-1.2479999598003394e-07,-9.499512540259463e-07,-3.6455011057870397e-07,-1.893591838793492e-07
5.026988398082108e-07,-4.9341677279392e-07,-3.036565928158238e-07,-9.79760583456698e-07,-8.782064044064e-07,2.0736307240862256e-07,5.338664785890437e-07,9.92587038484625e-07,-3.106141947674119e-08,-4.311388098842302e-07,-5.888573119467042e-07,-4.2965641047290786e-07,-1.3564511588086536e-06,-9.11534557280145e-08,-6.524439059170393e-08,-9.068073966757804e-07,-3.6436606168729945e-07,-1.5898786749049128e-07
5.940656323104863e-07,-4.961611015506594e-07,-3.0391395329463196e-07,-9.724080470690057e-07,-8.907094432444804e-07,2.0530555917943621e-07,4.4362190195200723e-07,9.309998014106208e-07,-4.815135262109186e-08,-4.3125856440210437e-07,-5.617484715181903e-07,-4.041563400068627e-07,-1.3107123313774963e-06,-8.676924496021739e-08,1.0086945648212122e-08,-8.502740724621872e-07,-3.5673771638902474e-07,-1.2512499910602155e-07
6.923066191221024e-07,-5.031282047069916e-07,-3.067592929589724e-07,-9.63540338343072e-07,-9.067746507827964e-07,2.126850329121484e-07,3.3619331588168173e-07,8.603344807389772e-07,-6.141139992816003e-08,-4.412987249769865e-07,-5.41326488638918e-07,-3.764013108613919e-07,-1.2728011809758647e-06,-6.491436136009362e-08,9.794089805853786e-08,-7.822886141659126e-07,-3.386229134220288e-07,-8.93038036339912e-08
7.886998094904029e-07,-5.092062289577523e-07,-3.0968379654977664e-07,-9.51722823073856e-07,-9.246816712116926e-07,2.343313533688775e-07,2.219338625652871e-07,7.839441067495901e-07,-6.867898244758665e-08,-4.480124715949955e-07,-5.193350322252413e-07,-3.404917375421214e-07,-1.2329860021163492e-06,-2.027230832707062e-08,1.9194855601524765e-07,-7.065058203982091e-07,-3.094927389466689e-07,-5.367476370570373e-08
8.44434678943573e-07,-5.084360727721833e-07,-3.08676199022443e-07,-9.341937574860965e-07,-9.398796802437827e-07,2.708560358880305e-07,1.1448956346365447e-07,7.08645984086813e-07,-6.81613608373471e-08,-4.317698265682178e-07,-4.905194546428475e-07,-2.9523717043148996e-07,-1.1923195583522698e-06,4.73145949112831e-08,2.8404501162886184e-07,-6.279339467639378e-07,-2.7122364556788927e-07,-2.1159703275822403e-08
8.307806734433773e-07,-4.963581713697995e-07,-2.9911085038668086e-07,-9.086033205935944e-07,-9.470028803316432e-07,3.17840922522276e-07,2.726596484765057e-08,6.421586648269498e-07,-6.000501054062555e-08,-3.963942905742308e-07,-4.7204201507114626e-07,-2.4620577590045596e-07,-1.1552867076069393e-06,1.3200535086677516e-07,3.661676295975401e-07,-5.527380789677866e-07,-2.2752045923175791e-07,4.275175031662214e-09
8.493127725321737e-07,-4.720546159336472e-07,-2.79726106013448e-07,-8.743991625575099e-07,-9.424715110246713e-07,3.712580191076329e-07,-3.0036426966001824e-08,5.902518250238455e-07,-4.661694368705381e-08,-3.51111598866776e-07,-4.4202484766890334e-07,-2.055450868525931e-07,-1.1212451119813014e-06,2.2376439120206456e-07,4.3232861518244477e-07,-4.868471627846019e-07,-1.8295317151469687e-07,1.8410835657172486e-08
8.759610582460986e-07,-4.37080943847219e-07,-2.53521619315541e-07,-8.345577545125363e-07,-9.261395525357728e-07,4.2686221433705107e-07,-5.386780380922639e-08,5.550991918590458e-07,-3.16367230814949e-08,-3.0463508606214233e-07,-4.0636783386039027e-07,-1.8168826706210509e-07,-1.0930678525618709e-06,3.116511964163583e-07,4.804030986728049e-07,-4.339788525851938e-07,-1.4128502013468073e-07,1.83092385323698e-08
8.142167904273924e-07,-3.988531347958652e-07,-2.3557912878987427e-07,-7.937791804918928e-07,-9.014320275532662e-07,4.7605338332005274e-07,-4.837037800334742e-08,5.343508908407869e-07,-1.8969486068038403e-08,-2.556572112159615e-07,-3.7670133151218414e-07,-1.8419442680517824e-07,-1.0650031226430664e-06,3.866262596335448e-07,5.124799269223337e-07,-3.9482717553462297e-07,-1.0577259124224072e-07,3.347354931787895e-09
7.224778326017978e-07,-3.6387071254269775e-07,-2.3444102327836423e-07,-7.577994241256787e-07,-8.740056089521121e-07,5.124687870955554e-07,-2.5161378049384844e-08,5.214038341908146e-07,-1.2288187835608776e-08,-2.2949616287421218e-07,-3.5058818474674646e-07,-2.180043740055883e-07,-1.0361508961145257e-06,4.435182595986472e-07,5.338217536100675e-07,-3.67169122126939e-07,-7.903609125673342e-08,-2.441061324378678e-08
6.49640765186908e-07,-3.3977388416122154e-07,-2.544619371915114e-07,-7.322298240714346e-07,-8.496365931897703e-07,5.330877232864692e-07,-6.25694443090846e-11,5.077148873389907e-07,-1.3682518505191575e-08,-2.1275201015488062e-07,-3.3226288060619353e-07,-2.804148885575875e-07,-1.0064115807225501e-06,4.822493742817257e-07,5.511956096820732e-07,-3.4610034685722555e-07,-6.218884020083265e-08,-6.034692839040193e-08
5.934400089471414e-07,-3.5468488664179145e-07,-2.7606604050153736e-07,-7.204778375389911e-07,-8.323489531120673e-07,5.379702619437819e-07,1.2185690463889599e-08,4.86346591351085e-07,-2.3129203062597816e-08,-1.7943333920623423e-07,-3.1243202630462755e-07,-3.5602373236541215e-07,-9.773855497323772e-07,5.068304796153393e-07,5.708612573067179e-07,-3.2518332997409203e-07,-5.452987029443427e-08,-9.82803733624207e-08
5.496028509977995e-07,-3.7569394898161486e-07,-2.796243727104966e-07,-7.234478625440392e-07,-8.237851206450855e-07,5.30921562689474e-07,2.342705264012095e-09,4.539713239810405e-07,-3.8735811885955103e-08,-1.6441015991576863e-07,-2.9171463009259136e-07,-4.284181053564976e-07,-9.47603676390177e-07,5.226325580155217e-07,5.96859800975829e-07,-2.9855358440208025e-07,-5.4664009823589456e-08,-1.3197891759497948e-07
5.224438280850648e-07,-3.8694674110500847e-07,-2.9447781642760753e-07,-7.395093448839368e-07,-8.234035974847789e-07,5.166889168046596e-07,-3.143668276354684e-08,4.112525439726871e-07,-5.7435345799092145e-08,-1.8250777350697186e-07,-2.5883103217739764e-07,-4.799595362343676e-07,-9.15283416843705e-07,5.37700515399397e-07,6.309872245160364e-07,-2.620699649768678e-07,-5.898406531591152e-08,-1.5602611307965168e-07
5.111957543072738e-07,-4.2840791374826764e-07,-3.3324515347535133e-07,-7.646870180909273e-07,-8.287067219050741e-07,4.999457171729184e-07,-8.416129809356938e-08,3.6231683994097504e-07,-7.558621351840124e-08,-2.1586058901860483e-07,-2.2933210243306662e-07,-4.3682777676431606e-07,-8.803210580869722e-07,5.567225719015198e-07,6.741937713901212e-07,-2.130617268426994e-07,-6.437214425771251e-08,-1.6607911843557912e-07
5.136172249714569e-07,-4.903673046099242e-07,-3.777092754842273e-07,-7.930802624396665e-07,-8.358596823437513e-07,4.854421958883861e-07,-1.4712546884586043e-07,3.1189740112798904e-07,-8.9117934113355e-08,-2.3709534613610073e-07,-2.0429992261380574e-07,-3.8390839782710794e-07,-8.425564530346844e-07,5.842867391815462e-07,7.27507451788084e-07,-1.5047898332163662e-07,-7.11599346957332e-08,-1.5946426403625125e-07
5.264687466848588e-07,-5.452565580141333e-07,-4.244091443288354e-07,-8.187496233030671e-07,-8.411806699599509e-07,4.776544129024675e-07,-2.1287790319284198e-07,2.6182067611744166e-07,-9.465171556740497e-08,-2.469392324574787e-07,-1.7748602692468402e-07,-3.5238628704930904e-07,-7.938166074727716e-07,6.238614772992557e-07,7.915536121964945e-07,-7.575671023694224e-08,-7.230744746954373e-08,-1.3589301985058538e-07
5.460527914124706e-07,-5.862647651901553e-07,-4.663604017651278e-07,-8.36986081336451e-07,-8.430347874519225e-07,4.804688722604214e-07,-2.7890362151637044e-07,2.0974495959101873e-07,-9.086022450098783e-08,-2.413447080075583e-07,-1.5251471498443554e-07,-2.577706306521671e-07,-7.424865611132909e-07,6.74661445497778e-07,8.655916286438998e-07,7.143096700533653e-09,-6.677949848388814e-08,-9.759334836164516e-08
5.690838476881071e-07,-6.14896243648664e-07,-4.930372137363736e-07,-8.446597439400633e-07,-8.423181984669554e-07,4.971247024077455e-07,-3.4750005510951823e-07,1.5129983751914388e-07,-7.815983855272055e-08,-2.2080283201096846e-07,-1.1810439095854921e-07,-1.5836461092924082e-07,-6.982571276905631e-07,7.33801899169348e-07,9.468212783863454e-07,9.246503550915423e-08,-5.5784239225332004e-08,-4.938117027913643e-08
5.927458520286793e-07,-6.276443951676896e-07,-5.087892354103142e-07,-8.405229505528276e-07,-8.418563351208971e-07,5.297813562417577e-07,-4.2276868040579686e-07,8.338607445327868e-08,-5.8467635059937286e-08,-1.9522580575155863e-07,-8.007882764729304e-08,-4.590591144721804e-08,-6.778909167269629e-07,7.934986426106955e-07,1.029890567909246e-06,1.731648485633758e-07,-3.856187782711034e-08,1.1397476329839539e-09
6.135886600049834e-07,-6.255953170743596e-07,-5.132658033600455e-07,-8.252888619452901e-07,-8.451445850005108e-07,5.786434489692531e-07,-5.069443266084621e-07,7.1157730466835255e-09,-3.5182412158708526e-08,-1.6275543645418364e-07,-4.338475652531492e-08,6.835834463182522e-08,-6.860543859731605e-07,8.479775960933369e-07,1.1071960764428472e-06,2.4183551900591557e-07,-1.6733784944676424e-08,4.4462954190580876e-08
6.270661152268192e-07,-6.128256730588958e-07,-5.096282598110308e-07,-8.01037694260931e-07,-8.54418727931639e-07,6.417029550377395e-07,-5.976248869175563e-07,-7.132026347357285e-08,-1.139813295516926e-08,-1.291920118696652e-07,-1.244785209818328e-08,1.73380912865312e-07,-7.188629792283565e-07,8.914812367487045e-07,1.170594427377794e-06,2.92464456770702e-07,7.461331041329702e-09,7.191600797031418e-08
6.28713833521013e-07,-5.946697061607994e-07,-5.025697353445244e-07,-7.700441656628551e-07,-8.690026964769231e-07,7.15452163838397e-07,-6.876729379429291e-07,-1.4215123314965422e-07,8.67733063873362e-09,-9.957916529373632e-08,1.3797974143868705e-08,2.9732916932056315e-07,-7.69913192708952e-07,9.200155641950581e-07,1.213683626577214e-06,3.21384184192871e-07,3.7458674526163976e-08,7.866037112341106e-08
6.158247841927971e-07,-5.763664113121347e-07,-4.920809076018686e-07,-7.33914816644062e-07,-8.860321609678605e-07,7.95591048880374e-07,-7.686482076107094e-07,-1.965303309226192e-07,2.119334626191138e-08,-7.457433563145302e-08,3.676930743949614e-08,4.0256564805239097e-07,-8.257913698922292e-07,9.312984449545945e-07,1.2334533910348585e-06,3.266100065762462e-07,7.212652909611257e-08,6.508182031075177e-08
5.885086219560216e-07,-5.628388404191975e-07,-4.795619031276388e-07,-6.944927570819718e-07,-9.026873866063219e-07,8.772875504833609e-07,-8.355104622496063e-07,-2.3133504805093838e-07,2.335385439834688e-08,-5.7476332914862675e-08,5.686324586594354e-08,4.957729888499172e-07,-8.78254667606911e-07,9.227941333631227e-07,1.2313628084421795e-06,3.0801356854473953e-07,1.0584078807734925e-07,3.666247642111517e-08
5.501247724974493e-07,-5.581847582296052e-07,-4.682102087277977e-07,-6.542344582274585e-07,-9.176872630948188e-07,9.557790892161805e-07,-8.888225790488663e-07,-2.5014515168213166e-07,1.483773314348103e-08,-5.044309066964262e-08,7.701134248797114e-08,5.705591859672976e-07,-9.164135557641211e-07,8.949098769664415e-07,1.2137284668154484e-06,2.6912984137321524e-07,1.3533866350119878e-07,2.497356743186688e-09
5.06695823862746e-07,-5.646204820636344e-07,-4.6144537053462203e-07,-6.160212287426847e-07,-9.315617815127735e-07,1.0270802505233696e-06,-9.334477488794412e-07,-2.6061317582961766e-07,-1.2208755928538294e-09,-5.1403414561004956e-08,9.645983874909157e-08,5.924780344595809e-07,-9.32050352133618e-07,8.514360540455848e-07,1.1901813404623973e-06,2.1751984738400983e-07,1.6087883696055284e-07,-2.7878389849113473e-08
4.6473371086840546e-07,-5.823651378473288e-07,-4.624565075953193e-07,-5.831387302633792e-07,-9.462355213068908e-07,1.088122945270538e-06,-9.758674197431693e-07,-2.7157417115724275e-07,-2.4555318475655308e-08,-5.666473710811475e-08,1.1069703766042634e-07,5.590189844324602e-07,-9.214674032805982e-07,7.985116405531858e-07,1.1702696825228967e-06,1.6219463332595016e-07,1.842855986040971e-07,-4.7952997042332386e-08
4.2874128553033926e-07,-6.103908021829496e-07,-4.734551776229179e-07,-5.58670387167756e-07,-9.64333207585916e-07,1.136746178883714e-06,-1.021897702214206e-06,-2.90527559896226e-07,-4.904593724385422e-08,-6.555639288433563e-08,1.2345842290373065e-07,5.186737740651637e-07,-8.900814348901903e-07,7.416320708912933e-07,1.1607734989951125e-06,1.109033579191834e-07,1.9252013934941163e-07,-5.536406665569034e-08
4.004701908407744e-07,-6.464146838151717e-07,-4.945751623457765e-07,-5.442485917247517e-07,-9.877165664286046e-07,1.1724259962572222e-06,-1.0750077675150678e-06,-3.214709557256515e-07,-6.745537399105046e-08,-7.687082161837982e-08,1.365774401144117e-07,4.6754815690097053e-07,-8.480529783421539e-07,6.807017428184935e-07,1.1651154304118951e-06,6.93116617244682e-08,1.7632731119722562e-07,-5.059694129733945e-08
3.7969735209835987e-07,-6.863798942159923e-07,-5.233366707595088e-07,-5.390697651652513e-07,-1.0160380594457504e-06,1.1969281943973712e-06,-1.135364036751884e-06,-3.6468492075643564e-07,-7.670064177010516e-08,-8.909052509034088e-08,1.499694578302949e-07,4.1856527684000584e-07,-8.057972159278288e-07,6.22944891149539e-07,1.183525734078401e-06,4.0329138023708546e-08,1.35991258682072e-07,-3.584505654842909e-08
3.647620559042968e-07,-7.251910079445213e-07,-5.556042600797831e-07,-5.405146744738387e-07,-1.0466198796268358e-06,1.2137701668610402e-06,-1.2000752994437487e-06,-4.1803817896712434e-07,-7.118866966277074e-08,-1.017117069660908e-07,1.645174025146073e-07,3.924222730284221e-07,-7.742188040278943e-07,5.724953345156747e-07,1.21268328198048e-06,2.2667147265146304e-08,9.642171214268564e-08,-1.517735477910161e-08
3.5265984752440245e-07,-7.584751677174591e-07,-5.872019162065948e-07,-5.454924168443071e-07,-1.0755168053778601e-06,1.2269289355363219e-06,-1.2636463711093488e-06,-4.777941530975356e-07,-4.395780071900117e-08,-1.1466680257602576e-07,1.7755360688613157e-07,3.9105721581009375e-07,-7.643685492947236e-07,5.273547809825107e-07,1.2455652818572163e-06,1.0603315249496397e-08,5.9572639572946414e-08,5.335553335220775e-09
3.3982351734402686e-07,-7.835187212802944e-07,-6.147540805115207e-07,-5.513969620482932e-07,-1.0986097706542525e-06,1.239630305602182e-06,-1.3179265843853407e-06,-5.379550034787878e-07,1.3107285487158282e-09,-1.3038141591442731e-07,1.8582654821799297e-07,4.09175891083502e-07,-7.797265295727158e-07,4.84194935354111e-07,1.2724994691436413e-06,-4.167781015775765e-09,1.4907645583786012e-08,1.7699414191001494e-08
3.235055380098293e-07,-7.992275781474629e-07,-6.359842089930365e-07,-5.564497253567611e-07,-1.112726359924183e-06,1.2533870494329415e-06,-1.352928690797152e-06,-5.904592776416895e-07,5.793805380604913e-08,-1.5064985274812195e-07,1.8320722284189574e-07,4.3190731233391203e-07,-8.201258657537692e-07,4.3599028260258e-07,1.2832699135441836e-06,-3.026021363904921e-08,-2.6163476880489214e-08,1.5894572524679253e-08
3.0269212234755883e-07,-8.06252380913482e-07,-6.501323035932571e-07,-5.598393655213978e-07,-1.1169376192352653e-06,1.2665860719626045e-06,-1.3599790622413097e-06,-6.278523675631079e-07,1.2007401471343602e-07,-1.7444344210203752e-07,1.699437176153404e-07,4.4943776664360986e-07,-8.804697609749598e-07,3.807133769826898e-07,1.26994811326595e-06,-7.45590313511171e-08,-6.089273038514693e-08,-2.796576293783735e-09
2.7847967121897285e-07,-8.069407533082907e-07,-6.580047566231414e-07,-5.613299593644901e-07,-1.1131677857623086e-06,1.277522137579525e-06,-1.335799183054928e-06,-6.465337270913647e-07,1.7857967407301732e-07,-2.033630139799329e-07,1.4388236813402412e-07,4.556972118414128e-07,-9.55900342323217e-07,3.1196127586525624e-07,1.2297592453150723e-06,-1.3981170644254478e-07,-9.782004610286386e-08,-3.6228649714096655e-08
2.5393569478381084e-07,-8.04200313517246e-07,-6.611252560320402e-07,-5.602465360981813e-07,-1.1050440254290268e-06,1.2852549254955794e-06,-1.2844540526402505e-06,-6.479848763198095e-07,2.1805999196917775e-07,-2.364289876660369e-07,1.0479466298508416e-07,4.45552205343453e-07,-1.0414621065355333e-06,2.298425808305226e-07,1.166284919326664e-06,-2.2315852412255525e-07,-1.322188149908532e-07,-7.71274756395141e-08
2.3288141618761436e-07,-8.001981106735065e-07,-6.608664836089791e-07,-5.551067806955779e-07,-1.0962042072791275e-06,1.2903518812409116e-06,-1.2164098656899249e-06,-6.382446410720276e-07,2.392956553370813e-07,-2.6981892865926585e-07,5.7539063173000895e-08,4.202317171341401e-07,-1.129474475311007e-06,1.3915438028167213e-07,1.0879028260976429e-06,-3.1754643431971504e-07,-1.6092135629984004e-07,-1.1592785765274017e-07
2.179475961073197e-07,-7.961562264184102e-07,-6.583983049996059e-07,-5.440399638569012e-07,-1.0891499618040756e-06,1.2957460111311337e-06,-1.1457174376094118e-06,-6.263156455285574e-07,2.421973832985728e-07,-3.0170159179407926e-07,6.53475966631165e-09,3.825813650964777e-07,-1.214335539297424e-06,4.507357732282943e-08,1.0047682049055445e-06,-4.1457996006304324e-07,-1.8879695886037747e-07,-1.4537899295980937e-07
2.0957676754132767e-07,-7.925208798669449e-07,-6.547585937274826e-07,-5.259644738770507e-07,-1.084890296261076e-06,1.3027191759275219e-06,-1.0861546951170447e-06,-6.211813881383554e-07,2.3063910716490958e-07,-3.301460594292224e-07,-4.298775036627046e-08,3.3765339843504094e-07,-1.2904104637704941e-06,-4.481897373059978e-08,9.262981795694848e-07,-5.063695210288849e-07,-2.115340891065833e-07,-1.6091721061330707e-07
2.0656458164724298e-07,-7.886410279860899e-07,-6.505232297855382e-07,-5.005279413429784e-07,-1.082876035970312e-06,1.3120433959369538e-06,-1.0473285627499246e-06,-6.282372937399657e-07,2.0985505268460432e-07,-3.5332027844355097e-07,-8.676397026822379e-08,2.922470723018183e-07,-1.3562580739405148e-06,-1.244713769050516e-07,8.593033360352923e-07,-5.86522697643497e-07,-2.3243230260251768e-07,-1.6105049491994482e-07
2.0668363999609943e-07,-7.829428048787396e-07,-6.458141896765995e-07,-4.6809255163735264e-07,-1.0811833909547243e-06,1.3238434375876745e-06,-1.0325849594347943e-06,-6.487406643446013e-07,1.7881876527153936e-07,-3.709344579328453e-07,-1.221626459169618e-07,2.4839239206585084e-07,-1.4133172148702434e-06,-1.9018089320500064e-07,8.06267540269711e-07,-6.513498569174287e-07,-2.5272118031117766e-07,-1.47342273024035e-07
2.0672744353359191e-07,-7.741744970335246e-07,-6.408690238723301e-07,-4.2987216181349253e-07,-1.0773387384030477e-06,1.3361451325491603e-06,-1.0395125229655668e-06,-6.810685021773888e-07,1.4961504409093328e-07,-3.840828380447144e-07,-1.4863562182589072e-07,2.0784075396876232e-07,-1.4649802634494658e-06,-2.426772439936541e-07,7.646901202244959e-07,-7.009664576259849e-07,-2.7458498809260823e-07,-1.2980000244636632e-07
2.0318417104396213e-07,-7.622303765340221e-07,-6.36164471655193e-07,-3.89287854793346e-07,-1.069033827466333e-06,1.3449158523008953e-06,-1.061790852971419e-06,-7.216845921230532e-07,1.213449249037768e-07,-3.9345819252276934e-07,-1.6983427417415508e-07,1.6839562423123248e-07,-1.51413469786722e-06,-2.830956339372335e-07,7.283753882822472e-07,-7.380463658317061e-07,-2.9485206189872036e-07,-1.1538678230643147e-07
1.9383632738581055e-07,-7.477551018218986e-07,-6.319060740489331e-07,-3.5105105060953815e-07,-1.0545079849919067e-06,1.3451796744560267e-06,-1.0913733647113768e-06,-7.654459696319866e-07,1.124727948149911e-07,-3.999835520325357e-07,-1.8995761127921939e-07,1.2265795711699803e-07,-1.561393433812638e-06,-3.092864732685389e-07,6.896936315238344e-07,-7.665305406753594e-07,-3.107498950234263e-07,-1.1510394358757937e-07
1.7864073927754098e-07,-7.319235028650392e-07,-6.279866240221837e-07,-3.188702626920516e-07,-1.0330933340475218e-06,1.3324901421480484e-06,-1.1210317276283857e-06,-8.062169070319919e-07,1.0587062185768093e-07,-4.052063644050003e-07,-2.1289120171931775e-07,6.091919324011459e-08,-1.6064425915680853e-06,-3.265434501847336e-07,6.416420393737317e-07,-7.913849038249853e-07,-3.244557726004209e-07,-1.6953608413088197e-07
1.5908633785733184e-07,-7.169695019338423e-07,-6.246012171740157e-07,-2.963506649482202e-07,-1.005756188121405e-06,1.3039224713833572e-06,-1.1463521406960982e-06,-8.379950721384566e-07,1.0347776872856378e-07,-4.1075585042117145e-07,-2.4190805355870394e-07,-1.31316115403816e-08,-1.647745644499251e-06,-3.4026738315441146e-07,5.799832856114298e-07,-8.173977699954325e-07,-3.40615641887419e-07,-2.321272694518672e-07
1.372533793126503e-07,-7.05962671819132e-07,-6.224532190678317e-07,-2.8536502490066175e-07,-9.744954801796253e-07,1.260211349278157e-06,-1.165855282453896e-06,-8.555589134572838e-07,8.513017122935149e-08,-4.1844910370259225e-07,-2.776209335363677e-07,-1.1132012352919384e-07,-1.682782500619721e-06,-3.529772110399631e-07,5.054358044170846e-07,-8.467564601496409e-07,-3.5259751141327425e-07,-2.772986436328745e-07
