0,1,2,3,4,5,6,7,8,9,10,11,12,13,14,15,16,17
-6.542106178037092e-07,-5.469498156034915e-07,-3.953982011697038e-07,1.8923178048115014e-07,-2.660520491402246e-06,-3.103689082555453e-06,1.8205285269938467e-06,-1.2515121325678307e-05,4.529582625114087e-06,-1.5054752280661255e-06,-8.637968486495712e-07,-6.636184504474522e-06,7.235674063785218e-06,1.0045903651271325e-05,6.051789940846206e-06,2.713252177090385e-06,-3.0189230654859734e-06,-3.005985988248976e-06
-5.259661769325756e-07,-4.586189476207093e-07,-2.644425442020917e-07,2.0729103237295807e-07,-2.088038751342234e-06,-1.0010336478620284e-06,-1.4889478739286596e-06,-1.4481033596055273e-05,4.674445435688563e-06,-1.3166952796118769e-06,-1.22419034915713e-06,-1.0390635203902902e-05,4.249027904325961e-06,7.905297355574045e-06,3.916467423827304e-06,3.7688060447018893e-07,-1.0050076452228343e-06,-6.842820805492837e-06
-4.1862515255697946e-07,-3.6049324203808877e-07,-1.350398124853955e-07,2.1489421269072717e-07,-2.7740110487551624e-06,1.1727016377515384e-06,-5.37713034746341e-06,-1.4384666628999404e-05,4.564382525459539e-06,-1.103571553011613e-06,-1.4664414489760056e-06,-1.2031893500788118e-05,6.616051856678802e-07,5.7133808473348185e-06,1.5467420217347475e-06,-7.769658829614409e-07,1.1520199443682311e-06,-1.0345897283284713e-05
-3.2844663927002705e-07,-2.5601235513768456e-07,-5.658342297414e-09,2.090550217634653e-07,-4.4457053724418014e-06,3.0460549315561064e-06,-8.60384720241919e-06,-1.2272488599568465e-05,4.294318016118193e-06,-8.73156821693992e-07,-1.5039232379138556e-06,-1.1154150936666466e-05,-2.8463347519907233e-06,3.5146291560116133e-06,-7.811315607972479e-07,-7.600083157685902e-07,2.8077472921419863e-06,-1.2654716252854962e-05
-2.481060648184151e-07,-1.5147561861579847e-07,1.1926997984194991e-07,1.87720472136529e-07,-6.176577103431827e-06,4.394923418154616e-06,-1.040078053257585e-05,-8.773982820914185e-06,3.931631578417067e-06,-6.352775102413188e-07,-1.3113581308634798e-06,-8.159205504763928e-06,-5.5978319223738325e-06,1.2185850189385516e-06,-2.5747085478698366e-06,5.508344189275587e-08,3.5030493669240247e-06,-1.3119332636275359e-05
-1.6799775651325817e-07,-5.535138146166563e-08,2.2771109574565355e-07,1.5027966734813293e-07,-6.9187013347003805e-06,5.185713924909176e-06,-1.0402946714459207e-05,-4.768032577103565e-06,3.4587630600081604e-06,-4.020073805769508e-07,-9.189826082611502e-07,-4.136099873403582e-06,-7.124946784649906e-06,-1.2782947424672682e-06,-3.277732952054571e-06,1.1702829109509149e-06,3.073864336414583e-06,-1.1042925252068829e-05
-8.065950868593503e-08,2.514256090273404e-08,3.098689787198947e-07,9.163661314586012e-08,-6.062626460822151e-06,5.4723644614235834e-06,-8.729460142546999e-06,-1.0270619059931149e-06,2.7685256626434405e-06,-1.8532549178018954e-07,-3.804627223490194e-07,-3.4014775411428734e-07,-7.25723346844138e-06,-3.975443523931862e-06,-2.564950057888328e-06,2.113765993534466e-06,1.6490541787214557e-06,-8.457461748613353e-06
1.8588036850444616e-08,8.659351687553701e-08,3.562138099057175e-07,1.969966951087449e-08,-3.6644186973038294e-06,5.294917917939385e-06,-5.925251829009011e-06,2.0285486101995526e-06,1.7573723236636558e-06,8.417587530458248e-09,2.3985886314819454e-07,2.4024161618594857e-06,-6.1123038204545405e-06,-6.664656253708616e-06,-6.045992933618508e-07,2.493070783237383e-06,-4.254527106172949e-07,-4.877215037283752e-06
1.285227435936219e-07,1.2937922076155397e-07,3.614505483879982e-07,-5.96137038875562e-08,-2.8206518285881404e-07,4.61512482240634e-06,-2.2869226006942383e-06,4.3549615473623516e-06,4.2668848133039633e-07,1.7720100634022827e-07,8.533786657200756e-07,4.004068151814772e-06,-4.028763510997737e-06,-8.88235472112271e-06,1.8753125527612644e-06,2.052201412858355e-06,-2.691200666997429e-06,4.841083145357657e-07
2.386245555940808e-07,1.569604448606911e-07,3.1997217850714656e-07,-1.3811803515612547e-07,3.1017308741424145e-06,3.3475404935409474e-06,1.5735678536258902e-06,6.122477884835941e-06,-1.1199459485798316e-06,3.2441972082210506e-07,1.351474906904209e-06,4.951685736592183e-06,-1.4632715448419738e-06,-9.992631293521026e-06,3.81940752627503e-06,7.886535392341033e-07,-4.6645575960956666e-06,6.23181010387651e-06
3.313107597912974e-07,1.752139807100469e-07,2.313151972892342e-07,-2.0288422376120193e-07,5.740418140173904e-06,1.4597808918490284e-06,5.140972262605253e-06,7.5353129646174155e-06,-2.7523937174033894e-06,4.620615870980235e-07,1.644568192810211e-06,5.870447556420406e-06,1.1250630226537218e-06,-9.40702610350292e-06,4.300500660934133e-06,-9.584982199108279e-07,-5.869401228074167e-06,1.0309828856377622e-05
3.89464852768745e-07,1.915618103386666e-07,1.0138222403570222e-07,-2.441930125987278e-07,7.271908729718059e-06,-9.54284232600741e-07,7.816230512960654e-06,8.702000079206958e-06,-4.350272006260881e-06,6.074317372256183e-07,1.6900868096701625e-06,7.032840345704574e-06,3.3346536265489584e-06,-6.846697027274163e-06,2.974008024217897e-06,-2.582343606938768e-06,-5.823380423591819e-06,1.2728388768834481e-05
4.039760362826393e-07,2.1357437027777905e-07,-5.697926151576407e-08,-2.480275346233707e-07,7.500603243399721e-06,-3.6585190892873054e-06,9.345044504895455e-06,9.604125571385997e-06,-5.691048954894219e-06,7.779530192659104e-07,1.4759573796297273e-06,8.134166953720473e-06,4.814265705049516e-06,-2.5491656334270895e-06,2.500150105201038e-07,-3.4364056235170234e-06,-4.0735966889247754e-06,1.2920592709697488e-05
3.752287295982899e-07,2.453014690148314e-07,-2.27673991469139e-07,-2.092197834590461e-07,6.4470553137819855e-06,-6.320269802425585e-06,9.71263762219856e-06,1.0138337029882078e-05,-6.376441108514413e-06,9.823706314456515e-07,9.89463582867269e-07,8.518664622817092e-06,5.284518799912087e-06,2.662307384383563e-06,-2.915400182354413e-06,-3.0783110980164257e-06,-3.912471726895892e-07,1.1381736558324969e-05
3.1200187097367903e-07,2.8332034662047954e-07,-3.946636505704428e-07,-1.328798916124551e-07,4.165497036641378e-06,-8.629727715596636e-06,9.198470531104948e-06,1.0173376109059975e-05,-5.958455420379893e-06,1.2171503691860324e-06,2.2121883989748775e-07,7.424549186933602e-06,4.642821605362087e-06,7.560035259553512e-06,-5.449592559197599e-06,-1.4204540269126374e-06,4.919601270469695e-06,9.184712007785053e-06
2.262943311281017e-07,3.2185364011511867e-07,-5.473282087233458e-07,-3.487228435121413e-08,8.454511052009814e-07,-1.032159892920297e-05,8.607835428711965e-06,9.563247657762048e-06,-4.15715255241047e-06,1.4645036060680386e-06,-7.968518944771247e-07,4.50947856225121e-06,3.083055890444671e-06,1.0976130625888234e-05,-6.566128007592839e-06,1.2497959107571493e-06,1.0857430808659572e-05,7.105177684690911e-06
1.3118761039131748e-07,3.54361518305966e-07,-6.797147273079266e-07,6.383163979903114e-08,-2.672882014378148e-06,-1.1108935056110272e-05,8.599018453250303e-06,8.163203237637362e-06,-1.0832258359697315e-06,1.705113590021263e-06,-1.963782293920973e-06,7.17604780615453e-08,1.1346274590051608e-06,1.234071718559435e-05,-6.000627647330259e-06,4.389831250949607e-06,1.5951414826865417e-05,6.0078868816552036e-06
4.084423193961972e-08,3.7677420583587923e-07,-7.837714350714673e-07,1.5707288037209287e-07,-5.847497950073001e-06,-1.0755437476273345e-05,9.57962970638696e-06,5.922454856456174e-06,2.7432535757440705e-06,1.924801696169335e-06,-3.12015859014805e-06,-5.065520717025794e-06,-4.32874777499381e-07,1.1949436696631053e-05,-4.03107436086511e-06,7.4130003239969955e-06,1.8854294686889053e-05,6.1832371327919936e-06
-3.157545836927652e-08,3.89224814104223e-07,-8.543433775149224e-07,2.3292569842024938e-07,-8.26442462953977e-06,-9.175755731059449e-06,1.1362075793081447e-05,3.033701634068585e-06,6.599041211843749e-06,2.113308716602079e-06,-4.089220591623338e-06,-9.894947589093842e-06,-8.461916463293756e-07,1.0721822718330836e-05,-1.277078947252504e-06,9.877372487769855e-06,1.8939446512761528e-05,7.457477735214915e-06
-7.67846624093079e-08,3.928935376936618e-07,-8.9013679856972e-07,2.8138847340928095e-07,-1.0022235491710952e-05,-6.598048164193725e-06,1.3314460220807066e-05,-8.868359866090561e-08,9.807824710617803e-06,2.262276598175773e-06,-4.721145559404647e-06,-1.3280880976243778e-05,3.556330357636668e-07,9.615966230820242e-06,1.572693316317507e-06,1.1568767218844159e-05,1.6504755344700724e-05,9.408860264005907e-06
-9.03087578004967e-08,3.8848498350473086e-07,-8.954197291488278e-07,3.1075062305936974e-07,-1.1136317321690533e-05,-3.415376202050495e-06,1.461490271751696e-05,-3.0096930864990115e-06,1.1917856664808653e-05,2.3670046497111733e-06,-4.9176698355440115e-06,-1.4374144256325875e-05,3.0622658503780476e-06,9.126833226698455e-06,3.932107993381421e-06,1.2502933863170313e-05,1.2518715819297287e-05,1.1464214302137641e-05
-7.312998877580759e-08,3.757274454353748e-07,-8.803790303223747e-07,3.2857313604621394e-07,-1.1570956466057265e-05,-2.624696972965112e-07,1.4453755728266423e-05,-5.502549348002233e-06,1.2794599268231826e-05,2.419208564356958e-06,-4.653530899288023e-06,-1.290918229017169e-05,6.557199328365339e-06,9.139029520993717e-06,5.358732982960811e-06,1.2883491347354254e-05,8.168752056814336e-06,1.3035492830902742e-05
-2.883811830921945e-08,3.535936165737203e-07,-8.581274991224671e-07,3.4435375551635324e-07,-1.149520433075264e-05,2.249303613893146e-06,1.2449772241348673e-05,-7.552978803030013e-06,1.261858771067354e-05,2.415977166382277e-06,-4.0229554923373785e-06,-9.131315722449344e-06,9.785300808755612e-06,9.18032728719832e-06,5.5697206536007756e-06,1.295758475938657e-05,4.478039883517499e-06,1.3712683837394832e-05
3.7480235244356665e-08,3.1977633107867824e-07,-8.454442883670232e-07,3.681266166770695e-07,-1.0790581641243914e-05,3.5091276379280154e-06,8.723916720461946e-06,-9.157529006833338e-06,1.1770594484528659e-05,2.3525372686795275e-06,-3.261606010004878e-06,-3.728534578702778e-06,1.1790280524190503e-05,8.883986839255575e-06,4.49407900562034e-06,1.2787733921329529e-05,2.101269591356104e-06,1.325319412481376e-05
1.1851512863037414e-07,2.7423847980361863e-07,-8.386985077145199e-07,4.038698795843815e-07,-1.0264656771006414e-05,2.9474584339744966e-06,4.0978552471022955e-06,-1.017833962418461e-05,1.0670365259984576e-05,2.2330763115814877e-06,-2.668115328398104e-06,2.4318758700425425e-06,1.2052801094238453e-05,8.299078947047579e-06,2.3108861913943673e-06,1.2173597571599119e-05,1.299670518573562e-06,1.1659258200483034e-05
2.045387133495023e-07,2.1749755944685924e-07,-8.413925380218846e-07,4.5099419127578075e-07,-9.215997027553302e-06,7.853892461101591e-07,-1.1399239327275131e-07,-1.0323893707990346e-05,9.613796593648366e-06,2.073239340076775e-06,-2.456528663926906e-06,7.601039846210401e-06,1.0582327459066009e-05,7.79474957962578e-06,-5.622919159921078e-07,1.0881951144125073e-05,2.014350291720314e-06,9.301643718181865e-06
2.8405840259694387e-07,1.535783942008984e-07,-8.629382166831008e-07,5.045838042225919e-07,-7.3995657459513535e-06,-2.1963760595055685e-06,-2.706044346789974e-06,-9.365188373639567e-06,8.672167823303564e-06,1.8888040898502181e-06,-2.6508439401499064e-06,1.1970871869352467e-05,7.837278166181061e-06,7.716701407937298e-06,-3.5520626946080314e-06,8.978688991777706e-06,3.926367712183142e-06,6.711204135161153e-06
3.456766509195639e-07,8.9925662264914e-08,-8.949878527611792e-07,5.614497944386712e-07,-3.7841398342857493e-06,-5.435500821840228e-06,-3.1184785908444075e-06,-7.364634395170244e-06,7.840212409215098e-06,1.7001003508394124e-06,-3.0861544165675913e-06,1.4637316714733469e-05,4.5724479766135e-06,8.116264019384692e-06,-6.041545322175785e-06,6.911271994009882e-06,6.471403393261853e-06,4.450830478721917e-06
3.7921691623471353e-07,3.3718533954119815e-08,-9.248043282642882e-07,6.143917599832012e-07,1.6698727961960035e-06,-7.831886173504642e-06,-1.7037500657618478e-06,-4.7599918041954474e-06,6.871513597831156e-06,1.52365407823717e-06,-3.49114384218927e-06,1.4641995189959096e-05,1.6183687480166596e-06,8.749021163817208e-06,-7.505457782469195e-06,5.2530334552799e-06,8.91461522538667e-06,2.991761378335378e-06
3.762601790913007e-07,-1.1421336878682977e-08,-9.471366343998337e-07,6.584697593176806e-07,6.573658671846062e-06,-9.256143460668264e-06,4.828727510319823e-07,-2.121644796338389e-06,5.37370664101432e-06,1.368369915009126e-06,-3.5991975849752453e-06,1.3685209107882275e-05,-3.7104014615721786e-07,9.280897907123067e-06,-7.646926353699638e-06,4.345525129824444e-06,1.0561788837519725e-05,2.6068582293618893e-06
3.3005246358610154e-07,-4.724786754318248e-08,-9.708385750574982e-07,6.919239320976213e-07,1.0267024385576837e-05,-1.051895917303689e-05,2.1797339818841033e-06,1.376387498381459e-07,3.2172692721535468e-06,1.235065518037097e-06,-3.2580107974601757e-06,1.0070603072505027e-05,-1.096582507606999e-06,9.484038526020569e-06,-6.492440266941985e-06,4.125729400356984e-06,1.099139404948306e-05,3.352412979815253e-06
2.385377155749909e-07,-8.012304289304603e-08,-9.874163434307046e-07,7.155017503297514e-07,9.616727827317308e-06,-1.0727553890563636e-05,2.530452310368759e-06,1.8082380544801238e-06,4.024366343249162e-07,1.1216651581923153e-06,-2.5106534772723284e-06,4.9942468312962385e-06,-6.5936808609266e-07,9.280143104730329e-06,-4.388495011809846e-06,4.214449344011109e-06,1.0157968505263717e-05,5.008195839436297e-06
1.0791647428807119e-07,-1.1657479694433874e-07,-9.954145034306604e-07,7.274633781328672e-07,7.1699269607887115e-06,-9.826771450155608e-06,1.4918153783919394e-06,2.8067556058794927e-06,-2.7944061924820764e-06,1.025207423820893e-06,-1.5912122458758301e-06,5.137553678585595e-07,5.196916734377945e-07,8.671109639620896e-06,-1.871670890058194e-06,4.136502741010527e-06,8.341870704789934e-06,6.9924089223566205e-06
-4.716238564681612e-08,-1.5842612499783927e-07,-9.915025527463632e-07,7.23187091395698e-07,7.3617557043590494e-06,-7.250684571110805e-06,-2.533458996737617e-07,2.9539366607217223e-06,-5.789165836399392e-06,9.434190172427676e-07,-8.066740285838099e-07,-3.4870136160208265e-06,1.8871307134800286e-06,7.723265909021151e-06,5.217136129942577e-07,3.5450607289344213e-06,6.00312337942385e-06,8.444714888173599e-06
-2.072860609223868e-07,-2.0274091463677995e-07,-9.506933414501305e-07,7.015760920268858e-07,1.0341234837343214e-05,-2.448061164248704e-06,-1.7092144206568722e-06,2.0137562315316303e-06,-7.934683478011637e-06,8.797914491060796e-07,-3.717549033656753e-07,-4.470900180194689e-06,2.9902834323750908e-06,6.647055298387754e-06,2.424582024275464e-06,2.3970799393352773e-06,3.6099143421590005e-06,8.588497572381223e-06
-3.5384921373682466e-07,-2.4100113773582376e-07,-8.469876024184297e-07,6.60089573335989e-07,8.588731106609958e-06,1.365641460955172e-06,-2.141241652947534e-06,-4.818397972099977e-08,-9.040381674339996e-06,8.388138127951445e-07,-3.012422642789311e-07,-2.4029013386446614e-06,3.637619646270746e-06,5.872115621556296e-06,3.719143840940081e-06,9.999454188706586e-07,1.5266898096782035e-06,7.0974549184204e-06
-4.730628433924214e-07,-2.65297554428863e-07,-6.664102387638974e-07,5.837257745274482e-07,3.8595466421159364e-06,3.542991217796448e-06,-1.4487572096299406e-06,-2.899295815261188e-06,-8.816622232751833e-06,8.226017703053422e-07,-4.147539237045825e-07,1.510646292948327e-06,3.894822808222939e-06,5.962966058438615e-06,4.5040617477622035e-06,-1.3788319787812913e-07,1.4849004488015218e-08,4.2222476635260504e-06
-5.573263819353127e-07,-2.704583216579753e-07,-4.1326310601829255e-07,4.780034309742929e-07,-5.372612920639009e-07,5.201160101719603e-06,-7.758562405641944e-08,-5.877314988209306e-06,-6.95855845936419e-06,8.33884201074064e-07,-4.4560998849802344e-07,6.435065923789557e-06,3.943540481454707e-06,7.347861223024803e-06,4.9634971063355736e-06,-5.803261293159437e-07,-7.019667214896309e-07,6.493927362429714e-07
-6.056042455166311e-07,-2.5605356061637155e-07,-1.131191768065916e-07,3.446785048055501e-07,-3.6910055340142707e-06,6.562149384237508e-06,1.3295267235894225e-06,-8.21486980300922e-06,-3.855982435992841e-06,8.65709370014817e-07,-1.9533400609309373e-07,1.0501214852120978e-05,3.924136002542522e-06,9.857284385156194e-06,5.209974965800817e-06,-1.994881235173895e-07,-4.2170787515367e-07,-2.799574390113421e-06
-6.238402219935778e-07,-2.3133483046400607e-07,1.8415140108134287e-07,1.9222068424829993e-07,-5.572512333541202e-06,7.477590576591784e-06,2.375114194697192e-06,-9.364506584956948e-06,1.047463822451228e-08,9.035102519288312e-07,3.577001109715455e-07,1.2666775318805397e-05,3.868613652569889e-06,1.2890750668003503e-05,5.233536963669018e-06,7.5810165975922e-07,9.24033004323718e-07,-5.42285597902435e-06
-6.286939626450442e-07,-2.1428122599085425e-07,4.218431051718656e-07,3.8505936811326293e-08,-4.877552812233129e-06,7.214985140513301e-06,3.0400605439712783e-06,-9.281137273391125e-06,4.075837855413937e-06,9.257223212246871e-07,1.0548216769276043e-06,1.2650586568879073e-05,3.731350572410275e-06,1.5235223050200111e-05,4.993109077247611e-06,1.8084908941617688e-06,3.0654454103123672e-06,-6.814620053640774e-06
-6.391428692571288e-07,-2.2467736742796753e-07,5.660537461338787e-07,-1.1019209587477167e-07,-2.780775149505789e-06,6.314619709118356e-06,3.5278464396601736e-06,-8.447220670452862e-06,7.756387319378137e-06,9.087287628392887e-07,1.641662974080662e-06,1.0676220888408399e-05,3.4435009395584614e-06,1.5625402421236105e-05,4.500367773221849e-06,2.462302790449529e-06,5.2842180350251565e-06,-6.878709483623646e-06
-6.684368002173684e-07,-2.759627493145974e-07,6.080685611381231e-07,-2.4230020420835586e-07,-1.0699987972847694e-06,5.178733251602027e-06,4.066360989708019e-06,-7.584160017452004e-06,1.0508093532576016e-05,8.39397943391306e-07,1.8627936420242599e-06,7.551212381072524e-06,2.9373140616656217e-06,1.3340643598882692e-05,3.7888446692245207e-06,2.383682240492507e-06,6.633484921410863e-06,-5.667584201922845e-06
-7.208655437950765e-07,-3.726304698000918e-07,5.539388812623957e-07,-3.280161099084905e-07,3.8474952751377385e-07,4.548768546510156e-06,4.842437015472948e-06,-7.2665607078238555e-06,1.2891243229555714e-05,7.175756065853195e-07,1.5618566913890098e-06,4.366852771948513e-06,2.159789514472392e-06,8.224062623388764e-06,2.88115677672613e-06,1.4178194753390104e-06,6.4450886570788445e-06,-3.286846438067515e-06
-7.911013087500899e-07,-5.007148260303267e-07,4.2455084525875064e-07,-3.8314815667573527e-07,1.688905128101595e-06,5.149042314643651e-06,6.069244235934568e-06,-7.694732328942667e-06,1.4952158622488859e-05,5.540784299126452e-07,7.521628750414941e-07,2.196421024876372e-06,1.1012577789139294e-06,1.1667231147395571e-06,1.844940121234889e-06,-3.0585385209911535e-07,4.709223784154366e-06,6.196526202073281e-08
-8.683553713137972e-07,-6.406608688174391e-07,2.717210833849497e-07,-4.123677367592726e-07,2.496609734402165e-06,6.737447400641808e-06,7.955284960958866e-06,-8.767630259858359e-06,1.6399980223861624e-05,3.710115367948944e-07,-3.7219111403952856e-07,1.797951249526066e-06,-1.8088442458963792e-07,-6.269877570311071e-06,8.392425548624256e-07,-2.584572068364129e-06,2.0132833252465766e-06,4.001065383591015e-06
-9.398506909014954e-07,-7.585271585259442e-07,1.2146892733060147e-07,-4.1056861444498723e-07,2.701800451882464e-06,8.757235311978371e-06,1.0534945263120437e-05,-1.024253102799509e-05,1.7921333382980578e-05,1.911960750533505e-07,-1.5074942826658865e-06,3.26588508469692e-06,-1.5712555995034663e-06,-1.1443902637308082e-05,6.571831335318723e-08,-4.99435356677784e-06,-8.36572036994473e-07,7.973182833366895e-06
-9.949341832424797e-07,-8.397049689140729e-07,-1.240764146735335e-08,-3.8442728843068874e-07,1.9770672467941168e-06,1.0267647801386313e-05,1.3517364024039634e-05,-1.1927165276708304e-05,1.864045371299854e-05,3.657499002997598e-08,-2.4030781526055145e-06,5.950411671213001e-06,-2.9303414344904133e-06,-1.174785326231499e-05,-3.215785381424111e-07,-6.577032679407308e-06,-3.205239657963845e-06,1.1310545737827592e-05
-1.0286370944553627e-06,-8.772732070588255e-07,-1.1714005723199592e-07,-3.271478547864249e-07,4.08535874775182e-07,1.0698331447073936e-05,1.6324092085505506e-05,-1.3693713222301886e-05,1.834750988609089e-05,-7.324079508302973e-08,-2.931161487744909e-06,8.718953711759579e-06,-4.108197744145131e-06,-8.604290070484392e-06,-2.189461791081488e-07,-6.322944948492853e-06,-4.822216729112804e-06,1.3426317758391126e-05
-1.0355583905548603e-06,-8.635457671506638e-07,-2.0356943620143845e-07,-2.6371211013798056e-07,-1.2055060179862081e-06,9.932524444862845e-06,1.8126610122024665e-05,-1.5380782578247642e-05,1.7063734011099158e-05,-1.252273249555465e-07,-3.114197306962548e-06,1.0447569037789743e-05,-4.919974086183759e-06,-5.295360011135941e-06,3.8911071949877433e-07,-3.3907621368793664e-06,-5.731007154471e-06,1.4050758554192925e-05
-1.016518779675609e-06,-8.098844210406379e-07,-2.720056429239426e-07,-1.9014616760932693e-07,-2.918797307359094e-06,8.199733062951345e-06,1.834202152279141e-05,-1.6825646754558074e-05,1.4214812183192995e-05,-1.2781335077957075e-07,-3.039367835835441e-06,1.0553521419504345e-05,-5.147662591282125e-06,-1.8295943516578784e-06,1.4802041446340986e-06,2.251056039592153e-06,-6.08497818210451e-06,1.3345120010074092e-05
-9.754740892875753e-07,-7.25637752257688e-07,-3.282507040382697e-07,-9.560280889709752e-08,-4.639392695941528e-06,6.077517633511463e-06,1.6581274378163215e-05,-1.7628205053435265e-05,1.0769001880654515e-05,-4.407293639451174e-08,-2.802594494134721e-06,9.16005468703002e-06,-4.613140418670293e-06,5.0282881963625595e-06,3.055919085349876e-06,9.63663387849827e-06,-5.954867571593733e-06,1.1856937509297902e-05
-9.204919801995466e-07,-6.225788028927259e-07,-3.7386030387527803e-07,1.6303927798031838e-08,-6.3467988472038144e-06,4.155687429205463e-06,1.3192932373141569e-05,-1.7363501522773834e-05,7.594114651702883e-06,1.1313814520161175e-07,-2.478357040851579e-06,6.903781039653209e-06,-3.2497337893754296e-06,1.2628248999829898e-05,4.85177855948846e-06,1.602513137027028e-05,-5.284360693318971e-06,1.0310339605187885e-05
-8.587041401184419e-07,-5.126560064898049e-07,-4.066430921296896e-07,1.357645047365777e-07,-8.022169312548699e-06,3.014659792775642e-06,9.496967178048335e-06,-1.5730177522232672e-05,5.38225338285849e-06,3.144425015066441e-07,-2.10176188617699e-06,4.540654820609e-06,-1.1251284336596402e-06,1.6775587076606947e-05,6.440057809422173e-06,1.845584372566632e-05,-4.001120090355773e-06,9.303570226873978e-06
-7.947703690103892e-07,-4.04839091044895e-07,-4.1940768209278375e-07,2.604297868686045e-07,-9.363284662423492e-06,2.989521016642878e-06,7.089257094334286e-06,-1.2585996251024115e-05,4.521365426951898e-06,5.151881103445642e-07,-1.6694552605834092e-06,2.6127262153498978e-06,1.513253628149832e-06,1.9401729521293722e-05,7.286830818189212e-06,1.5692353421462836e-05,-2.1492968108778768e-06,9.057378163251444e-06
-7.314226764275835e-07,-2.9667046883850446e-07,-3.972204552086914e-07,3.895362322234324e-07,-9.753197767102805e-06,4.086105723142475e-06,7.0630879159316436e-06,-8.060098099475963e-06,4.498125540073385e-06,7.268632537568113e-07,-1.1356664747182131e-06,1.3515814419428322e-06,4.177739399040546e-06,1.9613001870747088e-05,6.586853606775893e-06,1.255338773035108e-05,9.287245971759248e-08,9.36593521040679e-06
-6.681659687117085e-07,-2.007255989487465e-07,-3.617798146755615e-07,4.881847265347087e-07,-9.526250088100663e-06,5.896273549014277e-06,9.487557774217839e-06,-2.464622862214924e-06,4.664276391026871e-06,9.251553413860029e-07,-4.6316402997575615e-07,7.603834954687817e-07,6.210147615402871e-06,1.8033181072138686e-05,4.582220214420148e-06,1.1655494867709708e-05,2.4681224321056887e-06,9.80861642367482e-06
-6.031249859618459e-07,-1.1821695731915141e-07,-3.067204741051799e-07,5.892260657752921e-07,-8.889743609323572e-06,7.68790514700969e-06,1.3560455329383763e-05,3.692012884866393e-06,4.4759504521033925e-06,1.0627059508237198e-06,3.296239927187045e-07,7.559285584812609e-07,7.01627396816322e-06,1.5857797366590548e-05,2.2236776774701357e-06,9.229757270695303e-06,4.660023744288158e-06,1.0065424022900667e-05
-5.329239277107073e-07,-4.03081796753727e-08,-1.8140951521282706e-07,7.088011151565554e-07,-6.2381351110053385e-06,8.616399182003106e-06,1.8022737330321556e-05,9.757509414515082e-06,3.65212465962427e-06,1.15476437923001e-06,1.1196344195104497e-06,1.289896011571891e-06,6.318942513203908e-06,1.3158643606319481e-05,-7.6661672495981e-07,3.89130172226794e-06,6.329418771750956e-06,1.0062942842474717e-05
-4.59552721495444e-07,5.8565272790882474e-08,6.753311592686447e-09,7.765261103025087e-07,-2.0960143046108676e-06,8.071572613385184e-06,2.1756895145363988e-05,1.4935141640865393e-05,2.1947387067038733e-06,1.18980695488248e-06,1.7722713606699053e-06,2.4027831728415044e-06,4.295265394739761e-06,1.087795772855917e-05,-3.7958760462408505e-06,-1.0285996208127591e-06,7.243542203080411e-06,9.891044517964307e-06
-3.839276948009619e-07,1.7049598596165968e-07,2.2894358102273379e-07,8.323124309108794e-07,2.503617531185232e-06,6.122466088702779e-06,2.411492438602983e-05,1.8575677917996852e-05,4.233812787989182e-07,1.209202293975817e-06,2.1818857598497806e-06,4.10643333270987e-06,1.5463159665857216e-06,9.335117689179174e-06,-4.515304642730707e-06,-4.010344324432353e-06,7.399441518026417e-06,9.68641592232386e-06
-3.120809687339449e-07,2.988563011902454e-07,4.171894687610336e-07,8.714317936186998e-07,6.832515326657988e-06,3.585557229355189e-06,2.500970195080785e-05,2.0207757173405085e-05,-1.3284166374870388e-06,1.238191588239897e-06,2.2927350756707996e-06,6.14887183143094e-06,-1.1109330967169096e-06,8.496192871420007e-06,-3.58624560745473e-06,-5.249976585299035e-06,7.016369613562115e-06,9.58186832040499e-06
-2.599167583816265e-07,4.159154730142885e-07,5.460515060547992e-07,8.675912400571912e-07,9.63203938327467e-06,1.6225969476768125e-06,2.4818424461151454e-05,1.970500071714719e-05,-2.681920424047467e-06,1.2896755590373703e-06,2.1236442449338727e-06,7.893838277843044e-06,-2.972196582719385e-06,8.222657121276342e-06,-1.8559482420077306e-06,-3.540714017996896e-06,6.422678084951421e-06,9.668032959458047e-06
-2.3254226005270838e-07,4.972814682049659e-07,6.121177408310247e-07,8.323327915513476e-07,1.0345376573387654e-05,1.1273671503062158e-06,2.4059099697176558e-05,1.7314470504891864e-05,-2.68883728966756e-06,1.3648300476177037e-06,1.7998148691107694e-06,8.507698841353786e-06,-3.7334422936609717e-06,8.165378670285453e-06,1.6147916511488225e-06,-1.6286460696482082e-07,5.939863294915713e-06,9.968019053310636e-06
-2.0076694180399254e-07,5.441042619516389e-07,6.859946700225169e-07,8.377363111212421e-07,9.899713724751849e-06,2.2984446967095208e-06,2.3104185050902252e-05,1.3332592462261607e-05,-2.5082957514480835e-06,1.4210521703991632e-06,1.2552167340033646e-06,7.404662778478735e-06,-3.5319706940880296e-06,7.946252683188404e-06,5.567615153739007e-06,3.7969191008961586e-06,5.7739769166468806e-06,1.0405787506502764e-05
-2.001847347810164e-07,5.726222574003452e-07,8.402096336802147e-07,8.401971199105111e-07,9.752847237828503e-06,4.619205212166532e-06,2.2254798698045927e-05,8.242289506511154e-06,-1.571468292464572e-06,1.4054896906136055e-06,4.6781942856839167e-07,4.628069502292713e-06,-2.702430681979716e-06,7.3000056832140935e-06,8.85796192650339e-06,7.327437905625659e-06,5.907943921523689e-06,1.0762186981372097e-05
-2.4829792395052894e-07,6.129395256638144e-07,1.028912651623124e-06,9.01490275966081e-07,9.640646110119895e-06,7.159325640460984e-06,2.1069137042449296e-05,2.9807348229588307e-06,3.4268318752791605e-07,1.4340540000699234e-06,-3.237251223215081e-07,8.715336326591509e-07,-1.492513981951143e-06,6.1768648652504406e-06,1.1621013095657113e-05,9.238354789133804e-06,6.081767599598086e-06,1.0726501681841062e-05
-3.3868905870038184e-07,6.669651922982472e-07,1.376390691854446e-06,9.980706574497393e-07,1.0227382879441728e-05,8.975006249604876e-06,1.9342482731473785e-05,-1.5962182540695427e-06,3.335365133772654e-06,1.3719921252416452e-06,-9.529637995091597e-07,-2.821612223827375e-06,8.54821861325122e-09,4.8046762385032844e-06,1.3961145316744522e-05,9.65935085718453e-06,5.910430991917068e-06,1.0077473867618327e-05
-4.614672178325347e-07,8.501001366917463e-07,1.5646744276532542e-06,1.1145531113260828e-06,1.1842795418789024e-05,9.446566251204802e-06,1.70988167700004e-05,-4.65653404710892e-06,6.1356487932142515e-06,1.3773481439941107e-06,-9.190125590473113e-07,-5.434850365782583e-06,1.7692324499010294e-06,3.6480162427224826e-06,1.5825912433098503e-05,9.241587220837093e-06,5.043849487596785e-06,8.841144339187933e-06
-4.511765289188724e-07,9.156638936186387e-07,1.5915033433925103e-06,1.2355116733752732e-06,1.3653259257096507e-05,8.465496485503367e-06,1.4460401580712486e-05,-5.628013669446076e-06,8.185217434136573e-06,1.681749451568129e-06,2.0228097228257156e-07,-6.271177557466531e-06,3.7442505261336417e-06,3.1996096565024118e-06,1.6977096507164124e-05,8.71933442927273e-06,3.2715553425335098e-06,7.287964864776505e-06
-2.1910978116614814e-07,9.365375432931314e-07,1.5899215402657007e-06,1.344663422066823e-06,1.5316919035739126e-05,6.402559904173632e-06,1.1762722959479671e-05,-4.625889891492038e-06,9.269347680093366e-06,2.0002734729339623e-06,9.728286456542824e-07,-5.13215506775217e-06,5.905514878874448e-06,3.714205743035032e-06,1.690773253205099e-05,8.670244744773013e-06,6.125373680147397e-07,5.802225554452062e-06
-8.678406330889646e-09,8.836861361133311e-07,1.5437188083778218e-06,1.4080666613635995e-06,1.6330733632760872e-05,3.888576928727729e-06,9.131567364277062e-06,-2.343859557090497e-06,9.221484645201602e-06,2.096186606856646e-06,1.367508742543552e-06,-2.37687783285252e-06,8.273485255613127e-06,5.051663227003708e-06,1.5314193891939897e-05,9.1852472646645e-06,-2.599607021155681e-06,4.716909122174628e-06
9.91604641403652e-08,8.078495808849479e-07,1.6965159723702505e-06,1.4049879924732822e-06,1.609317978405672e-05,1.5662981296402256e-06,6.453264166310847e-06,2.408700771312633e-07,8.252580538292733e-06,2.1798416166865122e-06,1.7345099758090259e-06,1.1588854441906641e-06,1.0829316099758198e-05,6.702059212962615e-06,1.280513631576306e-05,9.88407923174043e-06,-5.753757899217728e-06,4.173840184556677e-06
1.239296670462062e-07,1.0710938352482768e-06,1.9792151045983743e-06,1.4790224547088665e-06,1.4011162862437138e-05,-5.971127163982746e-08,3.4260529652349115e-06,2.255897832817548e-06,6.825275110330875e-06,2.2145356031265025e-06,2.75256744157854e-06,4.401323693197572e-06,1.3343304068916372e-05,7.980357699458588e-06,9.505355369923e-06,1.0244638104530832e-05,-8.194721285893649e-06,4.079561279664491e-06
1.3150236230842087e-07,1.2624445744347114e-06,2.1837228403945626e-06,1.5488265579789325e-06,1.0570633213290718e-05,-6.755593970941955e-07,-4.735569502651602e-08,3.14745851412567e-06,5.4461858334261256e-06,2.2007572931783468e-06,4.320707352877986e-06,6.412194912108367e-06,1.531088908877655e-05,8.344479262925775e-06,5.194725034155177e-06,1.002020202165554e-05,-9.537878686822949e-06,4.219209485181243e-06
3.823983683729946e-07,1.3043148455605155e-06,2.1888975410049477e-06,1.5766886228747884e-06,6.26277332169464e-06,-1.7203612754992098e-07,-3.812359001493245e-06,2.8628207405108534e-06,4.454179359177252e-06,2.441672148396259e-06,5.400218007136249e-06,6.763096932147691e-06,1.6136474281609537e-05,7.695734914001166e-06,8.154171822934856e-07,9.467466509434367e-06,-9.825089352445475e-06,4.466780717759499e-06
7.463111681220228e-07,1.2407681874666139e-06,2.1207119469177757e-06,1.5738071288410915e-06,3.3500052086148904e-06,1.3337854890764477e-06,-7.30226207781792e-06,1.5105996961651055e-06,3.915941771870764e-06,2.720968268093987e-06,5.510983754977673e-06,5.672811838694879e-06,1.5483492802993834e-05,6.42160743906299e-06,-2.918771647028512e-06,9.212537563900074e-06,-9.39620860088718e-06,4.916762527256283e-06
1.0365873423544617e-06,1.247855147001876e-06,2.1458775619133365e-06,1.5619125473306953e-06,4.793588785278255e-06,3.466940001668428e-06,-9.665139204760749e-06,-3.7176813765844817e-07,3.676948247021065e-06,2.904321259039059e-06,5.999703635109533e-06,3.7966024013443806e-06,1.353911692283265e-05,5.117050087357419e-06,-5.46746154535999e-06,9.790612061064892e-06,-8.597162446026377e-06,5.826247768000772e-06
1.3131190657573125e-06,1.3511440629855233e-06,2.2539380839223997e-06,1.6051461306835354e-06,5.7579696621459e-06,5.600898065944448e-06,-1.0189297670279468e-05,-2.279461442424285e-06,3.5366831621004167e-06,2.9994619405655786e-06,6.7212626214964835e-06,1.8337388058428426e-06,1.098266479408318e-05,4.230959332220452e-06,-6.394369645554362e-06,1.1197747265895653e-05,-7.568437549907415e-06,7.439179346304538e-06
1.4671605563843621e-06,1.4127658926649355e-06,2.3777497509464424e-06,1.6480392682940454e-06,7.548244766867245e-06,6.955640416972645e-06,-8.570439589164992e-06,-3.886729310816005e-06,3.432567555741286e-06,3.012262003120954e-06,7.788348745239688e-06,2.1733190175460854e-07,8.683894377624151e-06,3.924875543598159e-06,-5.897031370839666e-06,1.2846612275133648e-05,-6.242754814879486e-06,9.852419374035268e-06
1.5749370744292297e-06,1.572778729193406e-06,2.63697385536741e-06,1.555239939250222e-06,1.3590575107125124e-05,6.813166716710391e-06,-5.132607981619767e-06,-4.994760679163736e-06,3.5028190814993867e-06,3.1104446525128082e-06,8.313619664974252e-06,-9.744760687398036e-07,7.355012982249257e-06,4.172546542513996e-06,-4.919091259963849e-06,1.39443539320032e-05,-4.4962644734915805e-06,1.2989383562237277e-05
1.6331459022677856e-06,1.6673008348217117e-06,2.8867822800408136e-06,1.5333037378019861e-06,1.8058898161001968e-05,4.841388329475406e-06,-1.0222975665410832e-06,-5.706385220385569e-06,3.982216781198086e-06,3.1596468820806547e-06,8.385542228763919e-06,-1.8887815314904177e-06,7.325192647445839e-06,4.912518549230754e-06,-3.86043474330831e-06,1.3961823066399626e-05,-2.321877205466899e-06,1.6618084613488236e-05
1.674052964762706e-06,1.7615319221452663e-06,2.925497152734003e-06,1.6552734649942358e-06,1.6232626812133285e-05,1.3931294569260645e-06,2.8149307681902543e-06,-6.3387696457656975e-06,5.003121730149311e-06,3.1826377589957175e-06,8.148711276123377e-06,-2.6508666522865814e-06,8.453400037975593e-06,6.09244105974645e-06,-2.5896575598514204e-06,1.2891612004753339e-05,1.1571706928726825e-07,2.034843552069299e-05
1.6553712835427973e-06,1.8328716823953239e-06,2.8679064339485812e-06,1.7435146020947505e-06,1.3828627575836747e-05,-2.4897728134819103e-06,5.303713652369331e-06,-6.948179219232678e-06,6.451535281637907e-06,3.0427684749184235e-06,7.634098568932395e-06,-3.1899264610342073e-06,1.01747365972512e-05,7.598594662780107e-06,-1.4838286651548107e-06,1.1189817022454953e-05,2.5943611168371664e-06,2.3632966676317667e-05
1.5701981730236028e-06,1.8758863501960942e-06,2.7786452083209802e-06,1.8039304092729215e-06,1.2783546673375092e-05,-5.479834772819491e-06,6.119656402448558e-06,-7.565207974352026e-06,7.979802144431493e-06,2.92329176837149e-06,6.872059568836762e-06,-3.3027755110400356e-06,1.1692763490967083e-05,9.189783707436659e-06,-3.8978691730295143e-07,9.440112803183004e-06,4.98557916057597e-06,2.5840956064625495e-05
1.4438674595403423e-06,2.006220669815658e-06,2.695398723154285e-06,1.8514798299583781e-06,1.1620030730736477e-05,-6.537559707017484e-06,5.772767554077842e-06,-8.39668920901093e-06,9.123136346774458e-06,2.873131127664504e-06,6.325524776767735e-06,-2.9112347545373685e-06,1.2242118438839657e-05,1.0541025746018742e-05,1.1061543652198576e-06,7.951897218151848e-06,7.26502199626518e-06,2.6438489119601355e-05
1.2873072997767896e-06,2.1578015994428503e-06,2.740480962868891e-06,1.8614736553130167e-06,6.8726838567145224e-06,-5.32843010749244e-06,5.177029414836828e-06,-9.603038139291507e-06,9.408633500938064e-06,2.8432263688771103e-06,6.043435480955427e-06,-2.2465380516366953e-06,1.1340781170432922e-05,1.136306190727855e-05,3.2520024608686496e-06,6.627999186019475e-06,9.363473988069056e-06,2.5199474458805456e-05
1.1181005597655183e-06,2.190197833823444e-06,2.798207471554956e-06,1.8105535149923883e-06,1.3694308008943974e-06,-2.3166657699226107e-06,5.1826777201880405e-06,-1.1244373541296335e-05,8.460695383107417e-06,2.8517749999588587e-06,5.852941534362705e-06,-1.7472727807008343e-06,8.953363772796601e-06,1.1489692039935634e-05,6.220658540849175e-06,5.202368006077637e-06,1.1018645977251718e-05,2.2282812189020656e-05
9.318516451843627e-07,2.127743419804741e-06,2.7761878136078e-06,1.7177254938572794e-06,-8.650584681286845e-07,1.4825002132330071e-06,6.1746457219600384e-06,-1.3097577950928884e-05,6.1759889932936875e-06,2.8760085433519615e-06,5.765335569959125e-06,-1.771208559160215e-06,5.52648064283099e-06,1.0890748889681419e-05,9.868384921594128e-06,3.5567907838013547e-06,1.181282989195892e-05,1.815728100636425e-05
7.475768184390849e-07,2.037010610069613e-06,2.7378925232039238e-06,1.5634282567134613e-06,-2.6453362444624593e-06,4.960939311378915e-06,8.160605875348967e-06,-1.4572010987781354e-05,2.9154622950429276e-06,2.8553050273743925e-06,5.744456390300425e-06,-2.405637091698976e-06,1.832381997087876e-06,9.634051122707587e-06,1.3433404538380264e-05,1.8312534750696478e-06,1.1405258878639852e-05,1.3460549959885002e-05
5.902572336602288e-07,1.9120103433673476e-06,2.7002663868613406e-06,1.4990426029306354e-06,-5.834297845254195e-06,7.339546828893109e-06,1.0316585044072967e-05,-1.5014658740079197e-05,-4.82461815365801e-07,2.7786841702713162e-06,5.719188466431835e-06,-3.491927780003597e-06,-1.3528595582256829e-06,7.81610854979471e-06,1.59437887340664e-05,3.41789379099924e-07,9.772003282612525e-06,8.88740170761731e-06
4.965313715188698e-07,1.8022959259057986e-06,2.6870826222807494e-06,1.6035848588830038e-06,-5.287074510204676e-06,8.367076165733986e-06,1.2259319346322197e-05,-1.4174167207145465e-05,-2.985446093675106e-06,2.7111886100482893e-06,5.518643030878711e-06,-4.709450351546279e-06,-3.549572536763177e-06,5.528811876999078e-06,1.6968963867940826e-05,-5.758015975045761e-07,7.288437290410564e-06,5.105769048810569e-06
4.729455146875322e-07,1.7079592958545961e-06,2.7287475590887255e-06,1.7095169579401635e-06,-2.5202961730598164e-06,8.26942418116505e-06,1.3841983160262795e-05,-1.2203510807161565e-05,-3.814956788021352e-06,2.5912641238604784e-06,4.9759804788459445e-06,-5.604510660516267e-06,-4.694472587570519e-06,2.928703731873577e-06,1.6662667646705588e-05,-7.446794437955265e-07,4.586878932910873e-06,2.648264600431881e-06
4.640591301254996e-07,1.6058108595099094e-06,2.809747843304878e-06,1.7469890737422177e-06,-6.877272618959793e-07,7.538507889514511e-06,1.5273212553789112e-05,-9.872335188028618e-06,-2.795044543967176e-06,2.486053820651183e-06,4.054516520655314e-06,-5.679466279514222e-06,-5.056997633004142e-06,3.4911634044505584e-07,1.5725918587732517e-05,-2.920089809923278e-07,2.284364521048719e-06,1.7818739330176835e-06
4.543509235272396e-07,1.5026695701538758e-06,2.920131570486735e-06,1.7522699690316783e-06,-2.459479953512605e-07,6.689817526038931e-06,1.6481105004058962e-05,-7.99260513431263e-06,-4.465667403976118e-07,2.2963024859781854e-06,2.9194188246921712e-06,-4.620253667563007e-06,-5.001980816336446e-06,-1.7361581430398587e-06,1.5024985193388106e-05,3.219768708920953e-07,7.37269296888863e-07,2.43166289472612e-06
4.0578386203283354e-07,1.4864316739878055e-06,3.025350315967405e-06,1.7868819084113345e-06,-8.057631298970902e-07,6.101175307312642e-06,1.720750713659632e-05,-7.033689921977889e-06,2.1934884391641837e-06,1.976748721394202e-06,1.8015104309361135e-06,-2.4908852525663525e-06,-4.774392879169682e-06,-2.9571594791984093e-06,1.5029346732562266e-05,4.331112936147684e-07,-6.559555938716472e-08,4.197333230302875e-06
2.1266991074790606e-07,1.5530948771288021e-06,3.173465042324351e-06,1.924718826626814e-06,-1.8032048788887318e-06,5.985438019603596e-06,1.7331736846305973e-05,-6.986236723906703e-06,3.988500198470456e-06,1.9002575139105716e-06,1.053480151524012e-06,2.9348618842318614e-07,-4.428582610308784e-06,-3.280308538705809e-06,1.565535173568405e-05,-6.07842057699395e-07,-4.330320611546039e-07,6.461431367220169e-06
1.0046620561185499e-07,1.6928538808171362e-06,3.309366115226157e-06,2.051275144008249e-06,-2.68842468411559e-06,6.433352489764159e-06,1.6923712057730765e-05,-7.475783955013408e-06,4.1929041283175915e-06,1.8072057113365032e-06,8.840321479280453e-07,3.1659938582788994e-06,-3.893082215429677e-06,-3.0073024432636996e-06,1.6439476868727492e-05,-3.0245798317317484e-06,-7.536385650718833e-07,8.533245190659652e-06
3.419202996428419e-08,1.801150009280906e-06,3.265762589671836e-06,2.1846666849519154e-06,-3.4935587317049163e-06,7.383877892787852e-06,1.6623740156715465e-05,-8.116717415109092e-06,2.7362776433615017e-06,1.7127280015478202e-06,1.2926276710224875e-06,5.590172191575749e-06,-3.0921510896414756e-06,-2.57157486266813e-06,1.6849851614417722e-05,-6.46618652069567e-06,-1.2328570330331342e-06,9.774620884739355e-06
-3.109061730928856e-08,1.7639198042532203e-06,3.2436950806083686e-06,2.272838621499166e-06,-4.462624366925043e-06,8.51310297052645e-06,1.6866124936813246e-05,-8.83286893347368e-06,1.4397204038340525e-07,1.66962451445633e-06,2.0880102495881703e-06,7.128116937086415e-06,-2.0436568830385044e-06,-2.3144955432964912e-06,1.6507903421548602e-05,-1.0210935059843963e-05,-1.7754507815327137e-06,9.722593322870896e-06
-5.871371935898992e-08,1.5730976061213104e-06,3.2332238674747858e-06,2.332172925305451e-06,-5.793072735808367e-06,9.235994390940431e-06,1.7900178231185756e-05,-9.826162721174317e-06,-2.793083089440007e-06,1.5933566171309792e-06,2.8912649559685565e-06,7.467418253083891e-06,-8.953045016743626e-07,-2.3414615342234523e-06,1.5238755380660094e-05,-1.3317688538086828e-05,-2.1120921900065343e-06,8.216132106391155e-06
-1.3553329513874192e-07,1.3607247796852392e-06,3.013447788476416e-06,2.4229985420481593e-06,-7.415148762368804e-06,8.94883409887901e-06,1.958933818663069e-05,-1.1244552763476255e-05,-5.369443136687883e-06,1.4447433654787337e-06,3.3305186213098034e-06,6.49110071164855e-06,1.1786854077636073e-07,-2.467492726946516e-06,1.3095402835711741e-05,-1.4920473126030869e-05,-2.0418138387779228e-06,5.4756900422719645e-06
-1.7975856704289397e-07,1.2058533419117325e-06,2.7051056502552196e-06,2.365463895825225e-06,-9.005591109166046e-06,7.368990943136346e-06,2.183792489495019e-05,-1.3075097159011636e-05,-7.167009209727972e-06,1.3327265500039302e-06,3.2022360296528745e-06,4.342445249373555e-06,7.715557352876642e-07,-2.285204498386538e-06,1.0421439336756037e-05,-1.4512205104108877e-05,-1.5480939603228175e-06,2.08867023368647e-06
-3.1210571713473645e-07,1.0542382356782537e-06,2.4756015219522607e-06,2.1028004103939546e-06,-1.0190712511832882e-05,4.714311352600197e-06,2.4281707569751522e-05,-1.5078492793707506e-05,-8.05908666695566e-06,1.050550997694756e-06,2.5785013604292947e-06,1.3955790066968545e-06,9.896560115948922e-07,-1.403669427138993e-06,7.824458051699047e-06,-1.2112393301611197e-05,-7.333326362937566e-07,-1.0667479902251186e-06
-3.6678577785529067e-07,8.668215355141026e-07,2.309524892790107e-06,1.8535890543723578e-06,-1.0769314738538867e-05,1.6155552969554016e-06,2.61606023494761e-05,-1.685740520309862e-05,-8.103762019895438e-06,9.209839560089615e-07,1.7073330589299026e-06,-1.8606965378792404e-06,9.164712355080787e-07,2.9056181537806246e-07,5.966930578974613e-06,-8.28271895709357e-06,2.6293431048077654e-07,-2.9759604916870885e-06
-3.574683683478273e-07,7.389858430047649e-07,2.1847713567424177e-06,1.6235892871118126e-06,-1.072682852973983e-05,-1.1435403609420383e-06,2.6712810269331148e-05,-1.793814692149935e-05,-7.456225853977379e-06,8.733905821275875e-07,8.373890129847797e-07,-4.949584599740045e-06,8.168823265290087e-07,2.595094347508014e-06,5.264968888368661e-06,-3.897525954609196e-06,1.240509290869104e-06,-2.774788347568213e-06
-3.6455423140694773e-07,6.649458216270949e-07,2.0943909420626196e-06,1.3798463527109375e-06,-1.0423761616533114e-05,-2.911436608664439e-06,2.5295588088446543e-05,-1.791326233477818e-05,-6.3304078868667404e-06,9.097893511369361e-07,2.2620577758139258e-07,-7.482676732534469e-06,8.697698930824507e-07,5.169303559453682e-06,5.7425989708493896e-06,2.489078886671152e-07,1.9024909253637016e-06,-1.029471562305131e-08
-4.208377393583815e-07,6.874954610495137e-07,2.0705087388044827e-06,1.1208730477726758e-06,-1.0087286390035945e-05,-3.3797627160963183e-06,2.1810520185102393e-05,-1.660835343047975e-05,-4.956748806394823e-06,8.795792471247706e-07,-2.1527081137784925e-08,-9.172057607075971e-06,1.019277619835874e-06,7.70016621461173e-06,7.101113141230719e-06,3.701579798060218e-06,1.961018517849093e-06,4.918777852455237e-06
-4.902544286764472e-07,7.298747586598786e-07,2.089292296491429e-06,8.982317061760634e-07,-9.845159943393045e-06,-2.6553584503332264e-06,1.671579219183874e-05,-1.4263852137222178e-05,-3.5171824912370304e-06,6.938991391086287e-07,4.8124263696005136e-08,-9.820351894722214e-06,9.697517402338064e-07,9.922592339661474e-06,8.902793867481639e-06,6.250994310381536e-06,1.365295920766336e-06,1.0860322072671495e-05
-4.693960935243846e-07,7.924097085568518e-07,2.131125442767369e-06,7.098948011594716e-07,-9.654630241673588e-06,-1.175413129118061e-06,1.0900711150935243e-05,-1.1415584119427415e-05,-2.105951975317897e-06,5.512411832753478e-07,3.316722302310075e-07,-9.345199305263241e-06,3.200925216503866e-07,1.1576483254689153e-05,1.0720227658718036e-05,7.598816438501007e-06,4.435398810006914e-07,1.660988554126793e-05
-4.897250305542737e-07,8.12429609354068e-07,2.162749775508214e-06,5.230810724172911e-07,-9.236017274459835e-06,4.680560592678106e-07,5.213618915077958e-06,-8.694801596254982e-06,-7.565178012705313e-07,4.7474482341146727e-07,7.115410691004216e-07,-7.820998437028202e-06,-1.2061995023941817e-06,1.2444416033468084e-05,1.2192876568249838e-05,7.59329414166598e-06,-2.0143710048662021e-07,1.9925486428756517e-05
-4.734023793529863e-07,7.830961177386235e-07,2.152884205964957e-06,3.676564746498816e-07,-8.189401147012708e-06,1.6985855572661894e-06,1.69752228217377e-07,-6.733262399332177e-06,5.179025335571168e-07,5.43501933048424e-07,1.2152033913963544e-06,-5.484610238671338e-06,-3.531833757254082e-06,1.2499922119405801e-05,1.3040217077075405e-05,5.970117015609386e-06,1.4970724316694568e-08,1.9382245126128842e-05
-4.944513388712856e-07,6.655478685171462e-07,2.0741398396514886e-06,2.9132086085552375e-07,-6.521472621818209e-06,2.100718962495671e-06,-4.081288291592359e-06,-5.929022246471303e-06,1.7427858608547804e-06,5.418568153597081e-07,1.8659214103023217e-06,-2.696560287931289e-06,-6.146886208771317e-06,1.2021320888354536e-05,1.3136583819349504e-05,3.1521414828840845e-06,1.3630943746181518e-06,2.015696600542501e-05
-5.977704033152145e-07,5.244859945404248e-07,1.94168859586107e-06,2.4816385998388223e-07,-4.367868597271489e-06,1.556726234651436e-06,-7.551935857495136e-06,-6.187716841966022e-06,3.008379257251485e-06,4.5510919771236085e-07,2.7028969436527312e-06,1.503412194679209e-07,-8.262095630141579e-06,1.1502850392993515e-05,1.2596180584057012e-05,-4.61164852252043e-07,3.6423692825508334e-06,1.91765639202967e-05
-7.4425214040215e-07,4.707943926432468e-07,1.9140243646942355e-06,3.449008995401647e-07,-1.8327993003735473e-06,2.9701716686592526e-07,-1.0083763457369635e-05,-6.905310219879655e-06,4.413244332027651e-06,3.2021435595637506e-07,3.6859939525298704e-06,2.7632023981149217e-06,-9.140353144703784e-06,1.1393183560365481e-05,1.174411725918739e-05,-4.635230001780836e-06,6.2378542651969754e-06,1.5638504533949286e-05
-8.215826210887125e-07,5.970080098691916e-07,2.034793169174695e-06,5.430123042914293e-07,8.049803212846456e-07,-1.2256479690696858e-06,-1.1340416620833857e-05,-7.238416330650642e-06,5.9708103471340786e-06,2.521880553648985e-07,4.664183908286215e-06,4.999015479657592e-06,-8.4194289274786e-06,1.1891707369066127e-05,1.0997229004204254e-05,-8.370715366354874e-06,8.389765981586203e-06,1.1161038666596587e-05
-8.09407107952025e-07,6.776917546153704e-07,2.143676675851299e-06,5.450203962097785e-07,3.5081443535393734e-06,-2.560275174928909e-06,-1.1035575098225567e-05,-6.408286307185025e-06,7.58028540209689e-06,2.1421641378948366e-07,5.5012648945545e-06,6.727788223261358e-06,-6.195437192712127e-06,1.2961905167219883e-05,1.0705821124789403e-05,-1.0885005162062455e-05,9.525411944664108e-06,8.622596988145541e-06
-8.123658755417975e-07,7.289055723281558e-07,2.236478416333903e-06,5.529638234902733e-07,6.244273611382509e-06,-3.4211704577169616e-06,-9.145081700173267e-06,-4.101643980027357e-06,9.049998395413475e-06,2.1864349132431983e-07,6.120083166929228e-06,7.645675614946721e-06,-2.829638871818294e-06,1.4456547947196514e-05,1.1078148181677206e-05,-1.0869039081119196e-05,9.432693131272454e-06,8.16676493267731e-06
-8.534262917641626e-07,7.638990666387781e-07,2.3132769774300113e-06,5.509499174740001e-07,8.817217752699105e-06,-3.7446196314755453e-06,-5.957012528763435e-06,-7.121848734645491e-07,1.0099643362040559e-05,1.4773669364817989e-07,6.522697942901243e-06,7.3156976341458775e-06,1.2664823269490065e-06,1.615424149364379e-05,1.2088645895299591e-05,-9.409555713235805e-06,8.204138225536104e-06,9.499918202091144e-06
-8.397112656501097e-07,8.486432402738973e-07,2.3981382702967653e-06,6.043458007036364e-07,1.0836481205371605e-05,-3.6660036637846744e-06,-1.9904352182306184e-06,2.8293744215508906e-06,1.0363672800639081e-05,1.9138393470817464e-07,6.7269624961775165e-06,5.495139470248224e-06,5.638546789613149e-06,1.771701669229324e-05,1.3739776212753071e-05,-6.5482428208989766e-06,6.082974459852782e-06,1.231452203333594e-05
-6.756912071518052e-07,1.0053754943775302e-06,2.5395411517973107e-06,8.704313967189581e-07,1.1875359608544044e-05,-3.4168829858880686e-06,2.1165563297526926e-06,5.4380309230633935e-06,9.493464855233737e-06,3.180442236534572e-07,6.74478246519754e-06,2.457286938211992e-06,9.68539730889309e-06,1.8725715875715255e-05,1.566371514906096e-05,-3.0739111956266066e-06,3.376970506711513e-06,1.5792565666203562e-05
-5.801602837209901e-07,1.0575128972378351e-06,2.723397981742471e-06,1.0728590820042935e-06,1.1621938678413033e-05,-3.1781439842233846e-06,5.737839500190878e-06,6.180844617024114e-06,7.361818969641961e-06,3.252028391036244e-07,6.557065908380363e-06,-1.0143500178109206e-06,1.2704679220582195e-05,1.881318155234151e-05,1.7180207800679186e-05,-1.1771405082909144e-06,4.830077619399304e-07,1.8917484050867523e-05
-5.322339689862794e-07,1.1479856512102859e-06,2.8751907576766165e-06,1.1367468770042455e-06,1.0144674517420447e-05,-2.993879178627911e-06,8.417028435043876e-06,4.960021157080784e-06,4.2218852226411245e-06,4.238687923637067e-07,6.1007855187137424e-06,-3.93373517560242e-06,1.414776235825975e-05,1.777597455994831e-05,1.7526807854667525e-05,2.4473857954114356e-06,-2.074498026717455e-06,2.0739568423190582e-05
-5.23690433020652e-07,1.18376627656602e-06,2.9644406595102215e-06,1.189744880054473e-06,7.674608249608346e-06,-2.8003305225071932e-06,9.970157019854685e-06,2.4312009787342468e-06,6.645548355214417e-07,6.168206028948758e-07,5.354499623027741e-06,-5.465816501266027e-06,1.3869567108324845e-05,1.560869126138097e-05,1.6019553981620722e-05,6.806156435616887e-06,-3.7004543216383844e-06,2.0669960834282182e-05
-4.845952116820627e-07,1.196602490389556e-06,3.1493440955473316e-06,1.163392834409545e-06,4.62790765149566e-06,-2.5201861482586463e-06,1.0467945882904266e-05,-3.8429919026281536e-07,-2.6129870562427925e-06,7.699657274432312e-07,4.374790823604385e-06,-5.209389453790257e-06,1.2187463362735473e-05,1.2518225431503503e-05,1.2835135430895338e-05,9.665958619526254e-06,-3.874878864068111e-06,1.8665552767428237e-05
-4.801166875589913e-07,1.133501633079572e-06,3.0896540165059767e-06,9.735210643248033e-07,1.511141685065928e-06,-2.147752563601448e-06,1.0157173440042467e-05,-2.486922907910008e-06,-5.054143886208754e-06,8.224591283348991e-07,3.30003914744025e-06,-3.4068802923776425e-06,9.701948557446983e-06,8.9041749404723e-06,8.749937016482055e-06,1.2379008693261595e-05,-2.304774724999884e-06,1.518082993582751e-05
-4.037000324250495e-07,9.896867634737663e-07,3.0034620767051683e-06,1.0283265577677738e-06,-1.3231848204096769e-06,-1.7728182786467328e-06,9.402969626523234e-06,-3.3427840206893582e-06,-6.360560911929607e-06,8.653625062481004e-07,2.3211706048344083e-06,-9.577915200511973e-07,6.982741881810154e-06,5.247481481311102e-06,5.391960322667224e-06,1.2117765194216078e-05,1.0048683595986503e-06,1.0953963376586717e-05
-3.4083478066594396e-07,9.093700272435113e-07,2.923780363431795e-06,1.020304466438784e-06,-3.6742423701860437e-06,-1.513467343577863e-06,8.652792917326134e-06,-2.798989975073695e-06,-6.487994700924324e-06,9.492208941510169e-07,1.5792679296905335e-06,9.064155217434828e-07,4.3661562690182784e-06,1.9709862151767164e-06,3.988865941758484e-06,9.634133065706994e-06,5.8587721896153715e-06,6.806526424008702e-06
-3.28769633885985e-07,8.952609046218152e-07,2.8914179327830813e-06,1.2142159183006799e-06,-5.068546596735744e-06,-1.3948545400824847e-06,8.359443627216836e-06,-1.333020401559002e-06,-5.613478976415142e-06,1.1017606996064201e-06,1.146533259571252e-06,1.1949193256643153e-06,1.9995558877904436e-06,-6.177559659940775e-07,6.33930047221097e-06,1.017378048322489e-05,1.1433601472211345e-05,3.517773147660694e-06
-4.104915169713659e-07,8.699990305355978e-07,2.795440059440575e-06,1.3628963446367974e-06,-5.102664006611549e-06,-1.2832856637434822e-06,8.817178613377537e-06,7.505095890677989e-07,-4.119884317268286e-06,1.2365715170145339e-06,1.0089607779744522e-06,-3.405146302398348e-07,3.206831933892545e-08,-2.3054207875432633e-06,7.936283155044245e-06,1.011222121002258e-05,1.6794866158654866e-05,1.69533506534386e-06
-6.070170696066832e-07,6.949743101554914e-07,2.5100476200760844e-06,1.2547522080670796e-06,-3.8095632528051277e-06,-9.504029519901532e-07,1.0006393887189143e-05,2.7694184553902203e-06,-2.5431374010587645e-06,1.1487689199442799e-06,1.117498226495274e-06,-3.0839227432067746e-06,-1.3072064067314541e-06,-2.9456364393563433e-06,8.234294245102268e-06,6.41370675386638e-06,2.062980788434954e-05,1.5921234435207347e-06
-6.172558711852837e-07,4.425488976745924e-07,2.438505187976434e-06,1.144241867506203e-06,-1.6282905052729514e-06,-2.1836097661323173e-07,1.1634027685308928e-05,4.004284649790834e-06,-1.4190066407379298e-06,9.992019267632407e-07,1.4423412214846043e-06,-5.8782214810506e-06,-1.8138217173982997e-06,-2.4350573913803694e-06,1.352625595225736e-05,3.3935459735658227e-06,1.9941376851284967e-05,2.9677262848944224e-06
-4.954492685560656e-07,3.797174199712169e-07,2.499921351601978e-06,1.1363528524912352e-06,5.765281553356007e-07,9.396116771896538e-07,1.3341510906576265e-05,4.173497640296938e-06,-1.0792397119064747e-06,8.717183169257946e-07,1.956974571335509e-06,-7.566729182383604e-06,-1.457772359351146e-06,-7.026018537881062e-07,1.9165183310779713e-05,4.890963212352784e-07,1.8701744487150892e-05,5.142830341153966e-06
-4.2753767740505096e-07,4.7785828649448e-07,2.3049896798342913e-06,1.048107781691546e-06,2.0192795023332357e-06,2.4055363618928953e-06,1.4792724971520467e-05,2.980987594698513e-06,-1.5199169001160498e-06,1.0245665185584533e-06,2.5924904861435274e-06,-7.426022153457101e-06,-4.392481328975073e-07,2.248658166781589e-06,1.939164037368468e-05,-2.4303331190678277e-06,1.593870959601883e-05,7.267697273246735e-06
-4.802742325179608e-07,4.167795168629759e-07,2.0331616043444548e-06,6.329121263647051e-07,2.429217328622832e-06,3.971260500052117e-06,1.553998187568163e-05,5.619504363902586e-07,-2.4142848324227024e-06,1.142190511546743e-06,3.1896219466038355e-06,-5.3143200650782365e-06,8.932761176253763e-07,6.256392850454931e-06,1.832462496136147e-05,-3.104553354369097e-06,1.183231996552887e-05,8.67464634468654e-06
-5.195756401618288e-07,3.034409439680773e-07,1.6638923847861844e-06,3.705371193792892e-07,2.1497532014150577e-06,5.36599538869249e-06,1.4965887969702149e-05,-2.707243659563888e-06,-3.247635125820788e-06,1.2503665929205248e-06,3.5220937071092243e-06,-1.5998305862822256e-06,2.177174475964526e-06,1.0963022236130627e-05,1.677948045892145e-05,-2.3661146615319975e-06,6.219210700676278e-06,9.123325564428007e-06
-4.818176455318743e-07,2.0506740207581026e-07,1.326410847062313e-06,2.1239152979684677e-07,1.8263994677371172e-06,6.260411982800789e-06,1.2556494733611593e-05,-5.4692497080264355e-06,-3.498079320241716e-06,1.2599220364365691e-06,3.3683688623458284e-06,2.958427741293936e-06,3.1345737049229232e-06,1.5894216161988876e-05,1.6405374743703997e-05,-8.858087808082314e-07,2.300313126798725e-06,8.818183303890314e-06
-4.5436595360703653e-07,1.8554931009188296e-07,1.1746366860174654e-06,1.0245765725179479e-07,2.038909183178515e-06,6.3001064236318825e-06,8.316022273084559e-06,-7.431540188922865e-06,-2.8088575356004686e-06,1.0775070253630288e-06,2.609070156512254e-06,7.293335313787893e-06,3.6163805685010425e-06,2.055706513600093e-05,1.286750388454553e-05,7.180964624306274e-07,5.788891039650031e-07,8.205622397366361e-06
-4.6907362112011685e-07,3.1338948840242e-07,1.1264299884262503e-06,3.1679169128759734e-08,2.9799328848425097e-06,5.20227660420664e-06,2.931737854818795e-06,-7.5522322641954796e-06,-1.1321586863161154e-06,7.460795799052821e-07,1.2918260730612118e-06,1.017150704124842e-05,3.6093013797739496e-06,2.4439526512336043e-05,7.56152249821614e-06,1.4608016178342837e-06,4.2303309916752185e-07,7.677604573748055e-06
-4.307652781128357e-07,3.7591971669148426e-07,1.2704237888397318e-06,-6.265590095870493e-08,4.4486007286799745e-06,2.9001384108122586e-06,-2.4505301333387255e-06,-5.31631205911883e-06,1.1999945356428698e-06,4.1738160800239976e-07,-3.6483881300781744e-07,1.055294995200269e-05,3.215460140633682e-06,2.699019397505009e-05,4.56598772001801e-06,1.0797767974696919e-06,1.4668991405044447e-06,7.3660864243697785e-06
-3.974238187621728e-07,3.1577525154282616e-07,1.4104682784216236e-06,-9.810511528514881e-08,5.9712217878475065e-06,-3.32577273557551e-07,-6.656648863012567e-06,-4.460850497465831e-06,3.5493238225688142e-06,3.4526941357945006e-07,-2.011288035585151e-06,8.094837622090467e-06,2.589689690568378e-06,2.7702892864367863e-05,2.7803977422327826e-06,-1.235470211602027e-07,2.9484078775874763e-06,7.146561860541669e-06
-3.4653721773206775e-07,2.519512437734296e-07,1.2568491376112158e-06,-8.443260796845936e-10,7.012315150460366e-06,-3.879843050571684e-06,-8.858840635044619e-06,-2.8605095609366824e-06,5.220461899221346e-06,2.8655374194705383e-07,-3.2405651139745863e-06,3.419816515901976e-06,1.8427536179348725e-06,2.6268531490377052e-05,1.839702183348596e-06,-1.552107890815317e-06,4.038503017610733e-06,6.806860335317863e-06
-2.1796939373156503e-07,1.4808158807316218e-07,1.0682604072218215e-06,2.6423860990712387e-07,7.322250010277884e-06,-6.96174730437854e-06,-8.761877710168136e-06,1.7744707400771188e-07,5.7965205892559365e-06,2.1345488058634507e-07,-3.692511815587274e-06,-2.12300591968832e-06,9.970339216846615e-07,2.2740035000029312e-05,2.834607377944806e-06,-2.5156038658053962e-06,4.115390081816274e-06,6.2606372151931555e-06
-1.1261537135018275e-07,1.37905934807566e-07,1.0631079268877327e-06,5.761903617968841e-07,7.13575104544599e-06,-8.914764831794606e-06,-6.59789916172333e-06,4.444750459954867e-06,5.342878390649151e-06,5.6408386316590775e-08,-3.183195091893495e-06,-7.029779808088193e-06,3.238317782160604e-08,1.7686737020937397e-05,4.602815962971494e-06,-2.4539209322319147e-06,2.981080644029024e-06,5.532545838538929e-06
-4.4983990892122355e-08,2.8972464082861355e-07,1.3715516648897227e-06,9.004205410491541e-07,6.9435935579301355e-06,-9.410508803996983e-06,-2.9552246253306782e-06,8.584618349912023e-06,4.312172018669307e-06,-2.1507069622831055e-07,-1.8008490603724904e-06,-1.0167155314077784e-05,-9.591083185047153e-07,1.218315016252883e-05,6.6001345374838565e-06,-1.2274040546245225e-06,9.986948367219242e-07,4.713681884703503e-06
-2.617163513363311e-08,3.9719810730397784e-07,1.5696021528550774e-06,1.0976445536760763e-06,7.219550156022875e-06,-8.514073318414147e-06,1.4910239116733495e-06,1.199578804009334e-05,3.2389209588824648e-06,-1.9764925076921905e-07,9.612416420980252e-08,-1.1034993902502593e-05,-1.712633980042817e-06,7.476810256369672e-06,8.375554448819085e-06,8.391310563474099e-07,-1.2776771784112672e-06,3.979005794922964e-06
-6.901500774340351e-08,4.315264486326523e-07,1.5804957181390105e-06,1.0642362635738981e-06,8.08355954087343e-06,-6.60190086101252e-06,6.1801900738972845e-06,1.3900882299985634e-05,2.477733842034032e-06,-1.7277992711562994e-07,1.983860079003078e-06,-9.715046340689425e-06,-1.894859485187797e-06,4.495709364731241e-06,9.301703787679137e-06,3.1491748510474116e-06,-3.2481372491029477e-06,3.499157811894087e-06
-1.1486067158015387e-07,3.7458489309756975e-07,1.4676457056369085e-06,1.1258715788937884e-06,9.05795096713256e-06,-4.216076028497766e-06,1.0696939914971674e-05,1.3164258569015555e-05,2.132944267800459e-06,-2.840754385661151e-07,3.3388459385781983e-06,-6.806478447416014e-06,-1.2228641858269682e-06,3.5143386838169207e-06,9.360262397547726e-06,5.132352910681745e-06,-4.443204019683963e-06,3.4668672174970396e-06
-1.9289069895303835e-07,4.295947412266823e-07,1.3700345258279885e-06,1.2198449647655035e-06,9.26254261925958e-06,-1.922184530208787e-06,1.4748460475151946e-05,1.0353460044695627e-05,2.1360574581121067e-06,-4.504984189866721e-07,3.802056197331878e-06,-3.202945616520158e-06,4.001575906946061e-07,4.142746229493409e-06,8.580077403467246e-06,6.501140765768106e-06,-4.3686995256125455e-06,4.0689394599766665e-06
-2.2371521467919183e-07,5.024703322231856e-07,1.3225558255948664e-06,1.031295074695403e-06,7.951168723392265e-06,-1.967357998028929e-07,1.821196113285367e-05,6.268670133560278e-06,2.3608107149338297e-06,-5.818292550857102e-07,3.2688540664916338e-06,2.075162789075654e-07,2.888585345531006e-06,5.59412630538258e-06,7.171056586997086e-06,7.332337772365032e-06,-2.6427490323964463e-06,5.337494776728321e-06
-2.8111596283984067e-07,5.32487614370187e-07,1.1957893930971469e-06,7.027306419854861e-07,4.986311626928373e-06,6.57724535899326e-07,2.1140065413773347e-05,1.8135175260545184e-06,2.699459854249948e-06,-7.789814516694551e-07,1.866202801302296e-06,2.6709043181166647e-06,5.8774963480236965e-06,7.054148455299205e-06,5.315434068845772e-06,7.954852630498616e-06,9.953377940172533e-07,7.0389549574203315e-06
-3.4208310269270374e-07,5.651871738129319e-07,1.004885709566546e-06,3.9119836669665147e-07,9.357126211786549e-07,5.546369188678154e-07,2.3563488220994233e-05,-2.1467542929864454e-06,3.069799158138358e-06,-9.345743211797865e-07,-1.1700376320781601e-07,3.7622472286840265e-06,8.787631011707403e-06,7.984590371071987e-06,3.080324112621195e-06,8.715794218406611e-06,6.360157619543736e-06,8.68374383311026e-06
-3.72576375636241e-07,4.882213725616238e-07,7.293296383426819e-07,8.405557972206788e-08,-3.1601188691088863e-06,-3.90296274210426e-07,2.5203453632802243e-05,-5.469306441835142e-06,3.3715933291195086e-06,-1.001519509696527e-06,-2.2961269403763925e-06,3.4453609087290723e-06,1.105151554802322e-05,8.224488232332326e-06,7.465351231053709e-07,9.767153859362662e-06,1.1897863863627207e-05,9.807207533038094e-06
-4.132689149326913e-07,3.4654254802422235e-07,4.993000578751044e-07,-6.522888933113372e-08,-6.1979604312844116e-06,-1.8704655542263932e-06,2.5407343912208908e-05,-8.497743350706646e-06,3.459149751379808e-06,-1.160435130813363e-06,-4.261254258242965e-06,1.9328898359101295e-06,1.2390432255964222e-05,7.888708967596639e-06,-1.4142039168425091e-06,1.1006921896022918e-05,1.6725117238483187e-05,1.0040860743839026e-05
-5.665524136975759e-07,1.6497048610425206e-07,3.4400699413485153e-07,7.4021219667725335e-09,-7.369414767906787e-06,-3.3444647748019367e-06,2.3487151667333813e-05,-1.1386451871768396e-05,3.1934265176628432e-06,-1.294699146898431e-06,-5.6658203159043755e-06,-4.81908422177312e-07,1.29748576836203e-05,7.242882627351477e-06,-3.0088013807135755e-06,1.2156525013490356e-05,1.8822270963005153e-05,9.318525331854221e-06
-8.328053164104667e-07,-6.010894635454387e-08,2.482624242629497e-07,7.339450408475806e-08,-6.423787275348905e-06,-4.045657975264252e-06,1.928440790928881e-05,-1.428653477663872e-05,2.553084262250237e-06,-1.4333695585048592e-06,-6.317354532735424e-06,-3.4950554342094896e-06,1.3202826103984671e-05,6.677525426778016e-06,-3.689127637207392e-06,1.2820841117774896e-05,1.700288657811356e-05,7.94651973617997e-06
-1.1535018340136137e-06,-2.687427591627708e-07,2.4369230967735556e-07,1.925897158026548e-08,-3.774174889588499e-06,-3.2153100175220207e-06,1.3493118149605677e-05,-1.7247122180326047e-05,1.7012415762054558e-06,-1.5941253665984898e-06,-6.227733074712511e-06,-6.7852553083755e-06,1.330883030740684e-05,6.640498872159628e-06,-3.3421104966906145e-06,1.2502774679017205e-05,1.6752103531945825e-05,6.4607867153914455e-06
-1.5626502918593984e-06,-4.472964226915254e-07,2.3599491811267236e-07,-4.923362622534279e-08,-3.3753432691506214e-07,-5.168794012237457e-07,7.427625001550594e-06,-1.9743715281329677e-05,9.297294337041306e-07,-1.687768515563013e-06,-5.5827214386274e-06,-9.85763960536825e-06,1.325693735059889e-05,7.426176665580445e-06,-2.472965385401807e-06,1.0759350725050676e-05,1.7889771689988312e-05,5.479867207528771e-06
-1.893238276955392e-06,-5.897544608178247e-07,1.6254233670914337e-07,-7.814598286671644e-08,2.8174528941680303e-06,3.642282354953719e-06,2.445777176072804e-06,-2.1009453035137672e-05,5.087984034997883e-07,-2.0521425538911243e-06,-4.661562187984509e-06,-1.2278894092635462e-05,1.2817824022163295e-05,8.965331957158203e-06,-1.359189057928006e-06,7.555944831539134e-06,1.6289817934181176e-05,5.189443028383274e-06
-2.0458570765225638e-06,-6.758693853289425e-07,5.4998659223305316e-08,-2.429999883177457e-07,4.795960983882272e-06,8.139009207950567e-06,-5.347574296911357e-07,-2.0286411393313074e-05,5.471761177878382e-07,-2.375848135408963e-06,-3.749339472442974e-06,-1.358203657630632e-05,1.1863858933807724e-05,1.0813465233763667e-05,-5.9077850999408146e-08,3.518505007578453e-06,1.0987718515294803e-05,5.957599348830625e-06
-2.1738803154495885e-06,-6.977302701722533e-07,-9.143776260669281e-08,-4.1037953037234016e-07,5.066768459531806e-06,1.1567839645325837e-05,-1.231842709943125e-06,-1.7160292960913217e-05,9.601519604085578e-07,-2.5923691858190502e-06,-3.0576466653729274e-06,-1.3353730583024612e-05,1.056800899446096e-05,1.2374832641620532e-05,1.075435007021343e-06,-2.3198918454847269e-07,5.250795837243522e-06,8.181763825522455e-06
-2.3324979963079465e-06,-6.380031741859883e-07,-1.451164854842178e-07,-4.424643206941376e-07,3.542565775037696e-06,1.2894719400418094e-05,5.1382996669250674e-08,-1.1861491617522023e-05,1.573927567701054e-06,-2.8441791040565973e-06,-2.6769981079781227e-06,-1.1168388689486364e-05,9.37463024995565e-06,1.3190845025316824e-05,2.0769643012230777e-06,-2.5960434241014087e-06,3.760762701476367e-06,1.141422715678681e-05
-2.5216024834565736e-06,-5.142168329541845e-07,-6.558241745944869e-08,-3.8747622835706007e-07,6.086890936419325e-07,1.1938694242968057e-05,2.6283617540784175e-06,-5.35613616101324e-06,2.293591262872905e-06,-2.9502826761332825e-06,-2.572284387773366e-06,-7.104658816610387e-06,8.758782830597539e-06,1.3083880565977157e-05,3.098874356991885e-06,-3.014764659853757e-06,7.249723669916763e-07,1.487867721373385e-05
-2.697115810096463e-06,-3.585391656834818e-07,-1.4721521833916404e-08,-3.1133004515646083e-07,-2.9178610421079666e-06,9.33686770374738e-06,5.674019025595761e-06,6.29558420139587e-07,3.2006379567457985e-06,-3.102374764808132e-06,-2.6391616927031255e-06,-1.2468382901918528e-06,8.915654037965739e-06,1.2096531635063208e-05,4.198023340561492e-06,-1.689389517039766e-06,-1.39266961185405e-06,1.7743846287379397e-05
-2.7694821615798333e-06,-2.0136303000886656e-07,2.701187048089521e-08,-2.5437525904684297e-07,-5.972347433705219e-06,6.081318600517982e-06,8.411837406977365e-06,3.653011843428555e-06,4.5208035362473405e-06,-3.4081738317247814e-06,-2.7567567952520707e-06,6.218493340458114e-06,9.691587092454932e-06,1.0365822158943873e-05,5.3616678699562435e-06,5.948239859209436e-07,2.221628841709612e-06,1.9221208182841576e-05
-2.6678077690009125e-06,-7.796747077309617e-08,8.404449606863943e-08,-2.1231793916729533e-07,-7.583904540617241e-06,3.0649009325031457e-06,1.0230167883664258e-05,5.619711506611346e-06,6.512054537600752e-06,-3.6331890645325516e-06,-2.7970182974269697e-06,1.2918746285343455e-05,1.076811161278707e-05,8.090153489357294e-06,6.622642771230682e-06,2.90146465385015e-06,7.185962761729075e-06,1.906710378122029e-05
-2.5478288159377303e-06,-4.827979321947269e-09,9.19722198222989e-08,-1.9843258882785165e-07,-7.2357928304561805e-06,8.960605318952542e-07,1.0795033843981563e-05,3.3495430092899855e-06,9.313214239632874e-06,-3.871013227459185e-06,-2.6273389425397225e-06,1.6586101158848127e-05,1.1824734347042617e-05,5.60886163118388e-06,7.62446316289441e-06,4.550028256647077e-06,1.0164268668881348e-05,1.7956136511008744e-05
-2.4727856061763653e-06,1.2613207582612917e-08,6.912184862396233e-08,-2.316013814572733e-07,-5.075934434074592e-06,-9.609407849814572e-08,1.0150720055789672e-05,-4.1695880650012495e-07,1.2790557762602072e-05,-3.988243410436735e-06,-2.1583417147827297e-06,1.5256140792862001e-05,1.26597518755668e-05,3.4043913989921618e-06,7.853848702389446e-06,5.28544288418331e-06,1.0646909731150992e-05,1.6267716077385886e-05
-2.41286856275689e-06,-2.332895168337818e-08,1.5409914485190064e-08,-3.078138420401372e-07,-1.8350592495235385e-06,1.7783731046454065e-07,8.692574639297457e-06,-4.824290323397777e-06,1.6491306540196786e-05,-4.1498012376024325e-06,-1.4132311382123217e-06,1.3114590657594809e-05,1.3154323619178465e-05,1.9283940470265377e-06,7.281925462309869e-06,5.194190942827494e-06,9.344511984739554e-06,1.2982771756774537e-05
-2.4594028518392216e-06,-9.776650595919047e-08,-7.533970958773148e-08,-3.9507565377890584e-07,1.5334382674313323e-06,1.5685777673202486e-06,6.9623553456525836e-06,-8.719681122356225e-06,1.975632873003914e-05,-4.381339424226149e-06,-5.444171193252966e-07,1.2015699657774135e-05,1.3179228542311578e-05,1.359362783272783e-06,5.938671829564028e-06,4.497630568436371e-06,6.864719157060575e-06,8.652979667519274e-06
-2.5514861327449834e-06,-1.7062468578670935e-07,-1.658965429376818e-07,-4.86064705571195e-07,4.256334539453339e-06,3.676233635512871e-06,5.407208644472451e-06,-1.1310656007832e-05,2.188244529835166e-05,-4.61137417432533e-06,2.1218666791848156e-07,1.1386361453972433e-05,1.2727270292669095e-05,1.492404576233848e-06,4.016844446737201e-06,3.3926166605559037e-06,4.023351536582769e-06,4.77010491507828e-06
-2.6281855570448497e-06,-2.2107530794182143e-07,-2.3830445687911376e-07,-5.291373900492885e-07,5.993939455382181e-06,5.916691646322345e-06,4.238621091042011e-06,-1.2300739475994024e-05,2.224997047537799e-05,-4.838214115443955e-06,6.171595381602408e-07,6.763248133688844e-06,1.1863206316739326e-05,1.878107028975829e-06,1.97484719238107e-06,2.033432086393427e-06,1.596322389791256e-06,1.7346636816159204e-06
-2.665741993929688e-06,-2.3036550527367027e-07,-2.6387293247362534e-07,-4.977969352664104e-07,6.9085471818357555e-06,7.701766914400202e-06,3.427462937641754e-06,-1.1824822950076456e-05,2.0489614164049597e-05,-5.015113607157901e-06,5.049210927471484e-07,-2.4944110176456964e-07,1.0722116262455787e-05,2.1020552107430695e-06,1.7827956855613055e-07,5.97008758587625e-07,1.898103154729956e-07,1.4472877361100881e-06
-2.628528647211181e-06,-1.9902138385846417e-07,-2.2179654735335473e-07,-3.942262246243796e-07,7.537461760617345e-06,8.638358263896952e-06,2.7896807478110483e-06,-1.0364470766313777e-05,1.670880016725562e-05,-5.059153049463388e-06,-1.59302956101969e-07,-5.700524258190325e-06,9.438698712995043e-06,2.022669287029605e-06,-1.1816964542381553e-06,-6.957547029418909e-07,8.668159648814096e-08,4.760782113668006e-06
-2.5253270121180725e-06,-1.308694353211179e-07,-1.1425579571924412e-07,-2.254268556136696e-07,8.449758779610536e-06,8.615743180809226e-06,2.0830191350564563e-06,-8.52243692494253e-06,1.158739302254451e-05,-4.9312349651374e-06,-1.251074442492831e-06,-7.389333806717601e-06,7.997283104688472e-06,1.854894032567419e-06,-2.1636951898260396e-06,-1.6357096097457285e-06,1.1220815535544755e-06,6.072024472032799e-06
-2.3624397372897607e-06,-3.1754134007222455e-08,3.8990854363594856e-08,-2.260426092027615e-08,9.858500501396114e-06,7.759391907226228e-06,1.0771797800062616e-06,-6.795306833946252e-06,6.1642146165613294e-06,-4.7534361388573215e-06,-2.509757587188329e-06,-1.1372170001892392e-05,6.444861239521229e-06,2.0563975845238272e-06,-2.999816022953789e-06,-2.0925771599541385e-06,2.7854791815274597e-06,5.016178129402247e-06
-2.1625261669830875e-06,7.653183781384281e-08,2.1015409767931222e-07,1.8227482360275545e-07,1.150181728100005e-05,6.344141484532527e-06,-3.8351837262126474e-07,-5.619287161457639e-06,1.411910192186962e-06,-4.577407188037619e-06,-3.6200457654690813e-06,-1.1644035062528016e-05,4.842047606740395e-06,3.0345240078165515e-06,-3.997321595322033e-06,-2.050335028603549e-06,4.462511720417321e-06,6.88909605899728e-06
-1.9687872865519033e-06,1.7049212305586533e-07,3.564084547665565e-07,3.5627264884321693e-07,1.2733139941224727e-05,4.7367862179957605e-06,-2.2832079636598545e-06,-5.371293122571113e-06,-2.087711300909057e-06,-4.560258122928806e-06,-4.324654860038807e-06,-7.117655121643888e-06,3.4346076717561985e-06,4.849532066889201e-06,-5.139874188265613e-06,-1.6166165081216357e-06,5.787585389987338e-06,1.224871139504704e-05
-1.798089193870101e-06,2.3207177069167212e-07,4.486814572272388e-07,4.6316729558476176e-07,1.2907560587365745e-05,3.334026902542176e-06,-4.33861397901889e-06,-6.291084959525025e-06,-4.16045112148707e-06,-4.580249723804599e-06,-4.519385894785389e-06,-6.033514766714805e-07,2.470185659171621e-06,7.121351816886145e-06,-6.020668709604472e-06,-1.0040274724017907e-06,6.8040072030970475e-06,1.6978776357555214e-05
-1.6804256263330813e-06,2.525153729835975e-07,4.7485612849478735e-07,5.4635707279814e-07,1.1830333852178484e-05,2.435405812913016e-06,-5.981085335052217e-06,-8.363768658564497e-06,-4.846272388756081e-06,-4.494729557830147e-06,-4.2909506062787745e-06,4.933476185971355e-06,2.096020560697592e-06,9.172443936527904e-06,-6.160278422159747e-06,-4.78472280200834e-07,7.83323203250949e-06,1.9601472102755317e-05
-1.6188121177423052e-06,2.26275126738246e-07,4.6544116451193396e-07,5.983074035960801e-07,9.604996838078758e-06,2.093664699805858e-06,-6.432220017638079e-06,-1.1244845546887457e-05,-4.241023514849394e-06,-4.590524580247941e-06,-3.865591260773085e-06,9.589754838652625e-06,2.5341133619591866e-06,1.0304141366580656e-05,-5.228928323466027e-06,-2.9791288464467326e-07,9.140176380264649e-06,2.2180058072984777e-05
-1.5881330475303907e-06,1.9093354552623486e-07,4.1085512967601194e-07,6.301118341462693e-07,6.637819321373662e-06,2.0740056877247607e-06,-4.878043310462707e-06,-1.4313775729231102e-05,-2.496207147399071e-06,-4.670838180898122e-06,-3.516159306859826e-06,1.3083844590987466e-05,3.4072024305066886e-06,1.0099250182225044e-05,-3.2344017770523584e-06,-6.452047368089974e-07,1.0620239838426964e-05,2.4040922968393628e-05
-1.5676186043956632e-06,1.490149047281248e-07,3.107113072921715e-07,6.577201696794243e-07,3.441395453890656e-06,1.9697553028528436e-06,-7.8174020972617e-07,-1.695485344586546e-05,8.227849709891002e-08,-4.941271563753626e-06,-3.448542171268058e-06,1.4915065794064702e-05,5.128274906934513e-06,8.611561234388869e-06,-5.13975896936081e-07,-1.5304251004681125e-06,1.1784247672375631e-05,2.1046902159373046e-05
-1.5686660345246579e-06,8.682418629357529e-08,1.773228263737413e-07,6.859674112280868e-07,4.194506986160321e-07,1.3877905438073484e-06,5.724965867948261e-06,-1.858460677727208e-05,2.976257417057504e-06,-5.192681232002447e-06,-3.714895418408106e-06,1.4822029760039798e-05,7.975299726088928e-06,6.296559831600157e-06,2.429967337220394e-06,-2.722898530426599e-06,1.1989715984031181e-05,1.7394420232486426e-05
-1.6263537047980672e-06,2.2427230641404245e-08,1.817300150876747e-08,7.241535846562735e-07,-2.1834541155285664e-06,1.1815473169550044e-07,1.361289668496535e-05,-1.892151192905871e-05,5.550684057072156e-06,-5.2586940649406096e-06,-4.174669990031639e-06,1.2712032454193781e-05,1.1856164431581842e-05,3.7338340322472455e-06,4.9683811704475415e-06,-3.822824221425604e-06,1.0865385603281729e-05,1.4772381914174324e-05
-1.6648034714641085e-06,2.6038764113393627e-08,-6.596332156552813e-08,7.807257082607537e-07,-4.294559731276193e-06,-1.7591360470561246e-06,2.115124605690566e-05,-1.80514635398793e-05,7.29083764151432e-06,-5.311372979034691e-06,-4.525220468252938e-06,9.023878973058507e-06,1.5839995755294526e-05,1.3922965763954082e-06,6.4833637222377104e-06,-4.434269265893791e-06,8.39191143461089e-06,1.3203375123967025e-05
-1.6625060052416698e-06,4.306084488151101e-08,-1.5862058172014642e-08,9.537062833619366e-07,-5.863250345798805e-06,-3.879583343627234e-06,2.653550954787989e-05,-1.6251783800717033e-05,8.025836934754443e-06,-5.237646268795402e-06,-4.431833860579859e-06,4.6341663404191575e-06,1.796861255327909e-05,-4.1656027455638975e-07,6.505980781630701e-06,-4.287192485548737e-06,4.861820459141341e-06,1.2153608794160594e-05
-1.508932787647451e-06,1.8740666800313333e-07,2.668740891983358e-07,1.1343158758096227e-06,-6.747167515799545e-06,-5.710202717437696e-06,2.860590954492933e-05,-1.378261247553841e-05,7.973794688400271e-06,-4.9967087536129756e-06,-3.7131169736430684e-06,4.0687901356709943e-07,1.6163328753415134e-05,-1.477128887709934e-06,4.990018742123112e-06,-3.2453344373027647e-06,9.944892875300361e-07,1.1219503203807082e-05
-1.22840418366149e-06,5.291740760138617e-07,5.54070149166158e-07,1.2267248491273578e-06,-6.715089067294237e-06,-6.722431374529646e-06,2.7175595050854084e-05,-1.095979602559597e-05,7.5949663729826655e-06,-4.956791488806074e-06,-2.4601194583010017e-06,-2.85441028026131e-06,1.3444056827013102e-05,-1.6140167307436014e-06,2.358788085767832e-06,-1.2466717379935236e-06,-2.636790241493918e-06,1.0495417247352441e-05
-9.92481650172388e-07,6.652783046342224e-07,7.964646826205032e-07,1.3102766542837764e-06,-5.655704916563069e-06,-6.59248296548232e-06,2.2812075486874677e-05,-8.054389295767238e-06,7.377838558161892e-06,-4.8093611747463e-06,-9.78781794818096e-07,-4.343909037920175e-06,1.2309159212810559e-05,-7.015612085788802e-07,-6.355478417974065e-07,1.7486914800850433e-06,-5.696898981522345e-06,1.0084785638304828e-05
-8.703240551331481e-07,7.657669567482862e-07,1.0281339989099218e-06,1.4308796486556662e-06,-3.7236443402855667e-06,-5.373606963967298e-06,1.643455558731771e-05,-5.345242650913469e-06,7.65928163785747e-06,-4.498869795628788e-06,3.8226356528211046e-07,-3.7798954672670303e-06,1.2717235813079682e-05,1.2711253051274778e-06,-2.8767230827291467e-06,5.73896956540018e-06,-7.921513528562028e-06,1.026495439076818e-05
-7.813917803121205e-07,8.470858887093394e-07,1.2015515313146318e-06,1.4847410744794154e-06,-1.3368030169665707e-06,-3.5036761077532912e-06,9.128935416554038e-06,-3.25758972604735e-06,8.479762077283968e-06,-4.1057302438800326e-06,1.3741637752706532e-06,-1.375688986837652e-06,1.0737000827932238e-05,4.109024112127289e-06,-3.764695309338701e-06,1.0571945645952387e-05,-8.89815440938838e-06,1.1209763613019915e-05
-5.798242074032306e-07,8.390156869315815e-07,1.3179536895199344e-06,1.4523181181368148e-06,8.374741337636065e-07,-1.5783700282344986e-06,2.1346174000109202e-06,-2.1234535047508888e-06,9.502076313118749e-06,-3.7404660713404635e-06,1.8919637400724097e-06,2.260492592394019e-06,7.884894012958994e-06,7.5385731543383904e-06,-2.215821712261037e-06,1.5786428174633818e-05,-8.253528510550232e-06,1.3005304156444595e-05
-2.4621246216316694e-07,1.0065239635957693e-06,1.6067628662818496e-06,1.4078615567649518e-06,2.180177308327154e-06,-3.861900259724213e-08,-3.2856808908137916e-06,-1.9851068223719544e-06,1.0121502960573236e-05,-3.5500676375399013e-06,1.9543041483923786e-06,6.1370017163404545e-06,4.77551669243395e-06,1.1302369302389543e-05,7.448034068841066e-07,2.0506460821467008e-05,-4.563864418883403e-06,1.507605922661952e-05
6.650778649307852e-08,1.3057687862704681e-06,1.9493651537383697e-06,1.3890551904770865e-06,2.380419098795263e-06,9.784808517137438e-07,-6.159474259748279e-06,-2.538349906301109e-06,9.787508249046327e-06,-3.585032275492379e-06,1.6644482634079998e-06,9.198095808536823e-06,2.5644575750667205e-06,1.5090549545127723e-05,2.9498519073499356e-06,2.3547900405425817e-05,1.3893765160543462e-06,1.6182280163049764e-05
2.928627493175092e-07,1.48683985029272e-06,2.064709356336096e-06,1.4318346887322475e-06,1.3928489600370547e-06,1.5459724273503444e-06,-6.096270226250433e-06,-3.3195112304931396e-06,8.305574778256778e-06,-3.5869974885030896e-06,1.161741015195564e-06,1.0670886501094329e-05,-9.335947467163807e-07,1.8592419370286877e-05,4.802969075862144e-06,2.3832016539327526e-05,6.640817717820463e-06,1.4633754415015075e-05
4.10697597621587e-07,1.5536226623387472e-06,2.2735856871896744e-06,1.5770024853668603e-06,-5.397991773692282e-08,1.7736854760094956e-06,-3.363243270986275e-06,-3.979684184286259e-06,5.883822106925669e-06,-3.5734769957854357e-06,5.697588563816151e-07,1.0303809633232637e-05,-3.7613170470311577e-06,2.1393272614116936e-05,6.564701482725747e-06,2.0983290641479652e-05,9.779931386739273e-06,1.2597735225601761e-05
4.3758952826759367e-07,1.5906832983270348e-06,2.5525356888136865e-06,1.6374450975834892e-06,-9.83773752373135e-07,1.7398291889484303e-06,1.2583606758320365e-06,-4.479088099336276e-06,2.9532302091684195e-06,-3.6187560592545346e-06,-2.7615214962428542e-08,8.428938586682914e-06,-3.361755694833064e-06,2.2914040660801004e-05,7.920269390640568e-06,1.5759588057758917e-05,1.2796885305349782e-05,7.770818035326195e-06
5.059942137858009e-07,1.5985300315286811e-06,2.720666815592123e-06,1.5795973489702102e-06,-6.61388107168353e-07,1.5245878050374438e-06,6.727225362915314e-06,-4.9292851876183875e-06,-4.036520291564203e-08,-3.791663878356305e-06,-5.873035943882238e-07,5.837339051336719e-06,-1.8519463864686637e-06,2.2785781790387445e-05,8.004504979920597e-06,9.826048343855464e-06,1.5163968810928654e-05,2.966771692729068e-06
6.442947961231623e-07,1.7089289635568367e-06,2.936454696582287e-06,1.493352838110423e-06,1.0375705493830169e-06,1.2297729418832729e-06,1.2001159605970277e-05,-5.483950741827715e-06,-2.743357235394514e-06,-3.945480039003481e-06,-1.0993086743507067e-06,3.5240096243545767e-06,-1.850487171477245e-06,2.1333539454558715e-05,6.736899480395507e-06,5.44828748181776e-06,1.7793242951282946e-05,-9.168018805618593e-07
7.54378787630434e-07,1.9578698058662385e-06,3.168025304845699e-06,1.4222290860730386e-06,3.391080369128976e-06,9.464028856217346e-07,1.6199271571481996e-05,-6.058870028909799e-06,-4.9157073279667545e-06,-4.153567199979344e-06,-1.573936041830104e-06,2.367660766690849e-06,-2.3769483279019856e-06,1.8738704233088344e-05,4.4049578245462775e-06,5.185819064279495e-06,1.954000238862556e-05,-3.07640813385795e-06
8.927546440238567e-07,2.153386933099631e-06,3.3207086907482738e-06,1.4185746327399857e-06,5.326333636579142e-06,7.204491128357212e-07,1.8646742806168714e-05,-6.285459938792977e-06,-6.428373907434767e-06,-4.411769726808755e-06,-2.0191737961654326e-06,2.825303139262391e-06,-2.091048740997106e-06,1.576776409874765e-05,1.139362022497023e-06,6.111350731563731e-06,2.0218038044920847e-05,-3.3171300301908287e-06
9.314540739903589e-07,2.2754504369576773e-06,3.305866048427449e-06,1.4583502255616204e-06,6.093268527646159e-06,5.477772267511228e-07,1.8946389909020155e-05,-5.73543527235608e-06,-7.242812367317666e-06,-4.61422556180304e-06,-2.4184636255115485e-06,4.7660548832660775e-06,-1.0800871540710583e-06,1.4195083206517221e-05,-2.074452535532901e-06,1.1045358011277931e-05,1.9946557826362855e-05,-1.9507043782644524e-06
9.028533620457266e-07,2.3360984015169776e-06,3.308863886183048e-06,1.4696589705760204e-06,5.703748026556119e-06,3.919674095583481e-07,1.7161231013151253e-05,-4.191317176874096e-06,-7.3527525118892e-06,-4.781065132166909e-06,-2.735955349435187e-06,7.5717534515225176e-06,2.644873714104779e-07,1.1948428559318578e-05,-4.039249885339121e-06,1.6092392465183376e-05,1.8125354754165853e-05,4.321852803029225e-07
8.534901214826325e-07,2.395823064732773e-06,3.2137592024259255e-06,1.3694053613108082e-06,4.690183355242773e-06,2.2305803373037994e-07,1.3880940051384223e-05,-1.7107173184398434e-06,-6.7175548751466135e-06,-4.9139678804521625e-06,-2.945237463824264e-06,1.0433269632674832e-05,1.4828448429639648e-06,9.967522661923928e-06,-3.987211824361755e-06,1.993903107516162e-05,1.5267955867443728e-05,3.1893459255476006e-06
7.764520528689827e-07,2.327809725177483e-06,3.0759111030785566e-06,1.3300104451712398e-06,3.574901448419946e-06,6.590892406453062e-08,9.958763166588052e-06,1.2155132727297412e-06,-5.246656674013245e-06,-5.0001207086732395e-06,-3.055003301729265e-06,1.2584570643745602e-05,2.2290226677049583e-06,1.1406270800510143e-05,-1.7017613522342317e-06,2.1603632360044197e-05,1.2201732397223881e-05,5.8100737964050426e-06
7.390609595609184e-07,2.2374986129455986e-06,3.0208261038313754e-06,1.3916350203065066e-06,2.5474466655824433e-06,8.691114579816259e-09,6.100382033411012e-06,3.7743131982487162e-06,-2.8559853566546397e-06,-5.064462805678869e-06,-3.106187872582025e-06,1.3388575623101963e-05,2.242897924437451e-06,1.3635486896278894e-05,2.1094295331455143e-06,2.1071797299638107e-05,9.775364772142266e-06,8.00453824643104e-06
7.417361815787384e-07,2.1885954670382913e-06,2.9968370720045507e-06,1.4495187134554315e-06,1.4654481786537452e-06,1.3161117416418148e-07,2.637100547507014e-06,5.213377470554816e-06,4.372626017188851e-07,-5.109718591021594e-06,-3.1405034562891733e-06,1.244025089588386e-05,1.6122857091497414e-06,1.5068348748219792e-05,6.253977322290602e-06,1.899409558937144e-05,8.612741208009965e-06,9.64601455316704e-06
7.234809858872649e-07,2.157608849975812e-06,2.94177381592104e-06,1.5906491923461798e-06,2.0184120821380795e-07,4.0845956241302686e-07,-4.159110073119863e-07,5.066971422988489e-06,4.422504615998944e-06,-5.1335475420333874e-06,-3.169258300934622e-06,9.719199811424404e-06,4.1022372527591917e-07,1.5328146536694108e-05,9.576640454529596e-06,1.625781919922697e-05,9.183171024530323e-06,1.0628775313560778e-05
6.842248822055851e-07,2.1564264668150167e-06,2.8834138151975463e-06,1.7770068685784992e-06,-7.995449429589575e-07,6.965890106684737e-07,-3.145478439305607e-06,3.381817679328625e-06,8.619023242067965e-06,-5.146779204373937e-06,-3.169266285454216e-06,5.594204147660258e-06,-1.222834122711525e-06,1.598779344595344e-05,1.1329252824176067e-05,1.3681144036813967e-05,1.145032517225162e-05,1.0814721203418517e-05
6.147012855499478e-07,2.1647417874727976e-06,2.8156793234478e-06,1.929302480424088e-06,-1.052477305353679e-06,8.304685865359456e-07,-5.5299135568956635e-06,7.948332026044338e-07,1.2268942816415224e-05,-5.137746444300933e-06,-3.0996170280308094e-06,6.520797186907202e-07,-2.6644660052539742e-06,1.7651707729264303e-05,1.1385157888497019e-05,1.1830854840175131e-05,1.4823073108316896e-05,1.0155208541704384e-05
5.82284516680026e-07,2.140328189971696e-06,2.7158039211343844e-06,2.072854214786279e-06,-1.4094172855961493e-07,6.931200639997149e-07,-7.331290521937531e-06,-1.6903062690414846e-06,1.453142601628928e-05,-5.09959395780293e-06,-2.913301773903639e-06,-4.421430407771641e-06,-3.63552916819609e-06,1.8151223484248952e-05,1.0194383954330252e-05,1.0856763401551388e-05,1.8390301442933473e-05,8.847996217888946e-06
5.92231242772198e-07,2.0933508345967282e-06,2.669593059213087e-06,2.1845408409320796e-06,1.4275208254769225e-06,2.1260839607307274e-07,-8.143458684123486e-06,-3.2368440461424713e-06,1.4874354891275078e-05,-5.031159439077291e-06,-2.5709422612521665e-06,-8.834762375636081e-06,-4.043905214605257e-06,1.6964395293976814e-05,8.560554580480693e-06,1.0562806576475262e-05,2.120686098682303e-05,7.323004433926987e-06
6.159018683776024e-07,2.083072357648123e-06,2.647231209123229e-06,2.1907723096387506e-06,3.206912288222492e-06,-6.100019276077025e-07,-7.582654989282802e-06,-3.6018352745241705e-06,1.3361327996091097e-05,-4.924387039312871e-06,-2.0711882836595373e-06,-1.1752447263692278e-05,-3.889300913126143e-06,1.4266692066678662e-05,7.3421099475999155e-06,1.0477858421414628e-05,2.2616265889509884e-05,6.027028454331167e-06
6.513600430041344e-07,2.0784599402500234e-06,2.604514073691063e-06,2.0399202921782454e-06,3.872321912400666e-06,-1.6078452400519573e-06,-5.497262833988293e-06,-3.196841128514176e-06,1.055158405601597e-05,-4.774640466085765e-06,-1.4908206995963262e-06,-1.2553133198013276e-05,-3.437821640580078e-06,1.0860516254598549e-05,7.152475857395146e-06,9.939533029328403e-06,2.2428833967746128e-05,5.176925456907833e-06
6.720899019492051e-07,2.066731401095511e-06,2.5330706543888525e-06,1.7908954487450158e-06,2.363408599330334e-06,-2.420282678292971e-06,-2.0500449971699584e-06,-2.7076631873162168e-06,7.152163633006388e-06,-4.5881326402223275e-06,-9.921011540980116e-07,-1.1148292981536837e-05,-2.9542161681156867e-06,7.597273195677258e-06,8.126978498822966e-06,8.401199915448067e-06,2.1013482134496505e-05,4.668265736862853e-06
6.891243317893957e-07,2.027749877325339e-06,2.4535959757260174e-06,1.6561950027216179e-06,1.6412469563567173e-06,-2.6142173144209057e-06,2.3198955509084316e-06,-2.6840655391667332e-06,3.7869132103250938e-06,-4.378301120356313e-06,-7.702605509281238e-07,-8.096657400383554e-06,-2.4900782549148093e-06,5.3251983010152304e-06,9.852794289223207e-06,5.467879478576305e-06,1.8987441024540407e-05,4.2127085584167074e-06
6.953768088759868e-07,1.9360305244902554e-06,2.291439288550691e-06,1.7113039149924133e-06,5.540076118356512e-07,-1.8894495351205136e-06,6.961802179304963e-06,-3.3270835202600906e-06,9.769895289400256e-07,-4.16130503373396e-06,-9.706233732255914e-07,-4.35547469074588e-06,-2.0332672780564943e-06,5.265848437551581e-06,1.149852149109868e-05,1.1425265726649784e-06,1.7108671133269977e-05,3.579715144794725e-06
6.628058255272301e-07,1.795636187831898e-06,2.0243357280877965e-06,1.8270279055429462e-06,-3.031164163031808e-06,-2.390554640889247e-07,1.1099376794726423e-05,-4.472237685243338e-06,-8.572134200374897e-07,-3.972630347082218e-06,-1.6288247078861436e-06,-7.816128119379952e-07,-1.225243643377707e-06,7.402794311214069e-06,1.2143827696219928e-05,-4.074010762789345e-06,1.603235123745204e-05,2.7414164960495966e-06
6.010487691687458e-07,1.6271204017953593e-06,1.7585128885909384e-06,1.567668559399135e-06,-6.95667080056983e-06,2.0358586053769597e-06,1.3999879922527227e-05,-5.705672994549915e-06,-1.5455848664507266e-06,-3.832812831898909e-06,-2.65569722474569e-06,2.2600516485127943e-06,2.496676147887757e-07,1.0852118499415208e-05,1.1205160765279224e-05,-8.612315004510494e-06,1.5991761533401616e-05,1.8612191001925834e-06
5.057513100674778e-07,1.4542083803621495e-06,1.492925732805261e-06,1.2904225858176767e-06,-8.458405919065231e-06,4.473262829163474e-06,1.5216070724526883e-05,-6.565532148082673e-06,-1.2572238094817067e-06,-3.743320786607322e-06,-3.8463802461894955e-06,4.867552027790679e-06,2.620146069112072e-06,1.4284567700131873e-05,8.712462660190936e-06,-1.0224738930343731e-05,1.6714161975882034e-05,1.188163816061847e-06
3.950389894677301e-07,1.2975593074192518e-06,1.2321886430764685e-06,1.1744102196519236e-06,-8.292921248919363e-06,6.676958137698178e-06,1.4776117040685106e-05,-6.669473825918692e-06,-4.419710163673155e-07,-3.69386804754682e-06,-4.916588386706277e-06,7.214715345715196e-06,6.242500506371442e-06,1.598271930241766e-05,5.237636360820417e-06,-9.159773875652589e-06,1.751977228111674e-05,9.337521089352114e-07
2.9352575728248514e-07,1.1861051461188554e-06,1.0117696597581275e-06,1.0660358633057698e-06,-7.924420354007969e-06,8.462766037504344e-06,1.3152050527066552e-05,-5.844081376445573e-06,3.957946558049954e-07,-3.6571266523081144e-06,-5.586449336716537e-06,9.182648529708847e-06,1.0790693225721335e-05,1.5132890169862205e-05,1.5753731661760944e-06,-6.0375245579723695e-06,1.7595980588787287e-05,1.1976376378929585e-06
2.1266874141665339e-07,1.1346409700853302e-06,8.601498272183983e-07,9.869358849337289e-07,-8.306016473900204e-06,9.792273743585742e-06,1.0999243013815608e-05,-4.266453868085595e-06,8.671636812385086e-07,-3.6040254387119645e-06,-5.697404541092548e-06,1.0303611646013761e-05,1.5680463555206972e-05,1.159073042115984e-05,-1.5300144634283575e-06,-3.0399718348605455e-06,1.6310885985302347e-05,1.9581199801201635e-06
1.600686873335217e-07,1.143232691848525e-06,7.874908624030341e-07,8.011974933661899e-07,-7.970591904628936e-06,1.0564661408162703e-05,8.918891504363655e-06,-2.4768687568289675e-06,7.658632139881749e-07,-3.5158843591880034e-06,-5.278793273670596e-06,1.0022778430021875e-05,2.004701440814247e-05,6.124024110831597e-06,-3.492982983215027e-06,8.194082247574507e-07,1.3539637869973238e-05,3.0893791516349138e-06
1.355480742927865e-07,1.201227425830521e-06,7.854518033743888e-07,6.194798866561245e-07,-7.892134548638056e-06,1.0503549753648958e-05,7.418598952457304e-06,-1.2488635045569692e-06,7.595311074450188e-08,-3.3901079036335187e-06,-4.499302286291846e-06,8.074545763082535e-06,2.0904057791103458e-05,-4.639038227938126e-08,-3.930288556621984e-06,5.25341992931091e-06,9.741024804773008e-06,4.402763860055238e-06
1.379122347040946e-07,1.2879340661499133e-06,8.336591825510171e-07,5.552011479707703e-07,-9.37676112586164e-06,9.274608556462189e-06,6.9465774131233515e-06,-1.3023005791923246e-06,-1.0751141045249957e-06,-3.227678356587433e-06,-3.5479321357447937e-06,4.722804534306507e-06,2.0800291973394474e-05,-4.986425450160427e-06,-2.730729990755415e-06,8.603480506829942e-06,5.988972188340763e-06,5.7391725345942696e-06
1.5177234974228492e-07,1.37872177789023e-06,9.067327717880139e-07,5.627932109890273e-07,-1.124952837186019e-05,6.74193042158927e-06,7.835100236444814e-06,-2.982899033666176e-06,-2.470420499811224e-06,-3.042685101496099e-06,-2.5481100601294273e-06,7.230258224449587e-07,2.128713700885345e-05,-6.852234396297849e-06,-1.3158384163689157e-07,1.0736296534458554e-05,3.5499971719411263e-06,7.0371845700467815e-06
1.7585260622436935e-07,1.4533987940593065e-06,9.793342588365967e-07,6.862663183509362e-07,-1.2421558040475534e-05,3.1660963928757098e-06,1.0152452783579822e-05,-6.0721372502718595e-06,-3.883557591027573e-06,-2.856401502707633e-06,-1.5566607320332148e-06,-2.973861896255256e-06,1.8945317737307072e-05,-6.6324680564452714e-06,3.2768833121322104e-06,1.2478150622167787e-05,3.3228503309862233e-06,8.279312467807227e-06
2.10332782463542e-07,1.497954207412066e-06,1.0310597469301614e-06,8.011799055153659e-07,-1.3107550319581641e-05,-8.071856642023309e-07,1.3561478856203675e-05,-9.855162274680709e-06,-5.108178730647296e-06,-2.6878121389819976e-06,-6.080435230998874e-07,-5.606850915908957e-06,1.4828800962809177e-05,-5.231835311419947e-06,6.659027902498048e-06,1.3929045070583718e-05,5.447503363909354e-06,9.376505204846959e-06
2.4777893143614796e-07,1.5072841296757587e-06,1.0497668970599843e-06,9.545826701055165e-07,-1.2717833540454155e-05,-4.387068631107015e-06,1.72753637027797e-05,-1.3429248914273697e-05,-5.934456945605063e-06,-2.5559836113072965e-06,2.484239341768228e-07,-6.836524491695596e-06,1.1340590208370417e-05,-5.252354637236339e-06,9.161843093110595e-06,1.573197079708877e-05,9.160941006219053e-06,1.0127013376170605e-05
2.848379166800097e-07,1.481610620424271e-06,1.0323695246270492e-06,1.0134812694045985e-06,-1.1295506241475632e-05,-6.965524246057271e-06,2.0221993120125567e-05,-1.6112141534449685e-05,-6.0775868976661654e-06,-2.4748607612607964e-06,9.312641874222873e-07,-6.724047214888043e-06,8.82094162933756e-06,-4.930064882142079e-06,1.0190176617165753e-05,1.778154896271981e-05,1.3068713321244223e-05,1.0290964820713962e-05
3.137948399008421e-07,1.4233901586366654e-06,9.830435766590944e-07,9.410958452714059e-07,-9.122863628501187e-06,-8.330644725425736e-06,2.1407479855766898e-05,-1.769174229640154e-05,-5.257937258482181e-06,-2.4458329424853857e-06,1.3343238354635081e-06,-5.593942294013492e-06,6.749755026479537e-06,-3.4120637174252117e-06,9.59354244280024e-06,1.952602143231384e-05,1.5782040806870702e-05,9.696699226039787e-06
3.329577743370292e-07,1.3377955106579228e-06,9.081575689055229e-07,8.13324791371908e-07,-6.52276974813982e-06,-8.659308304659564e-06,2.040194291964045e-05,-1.8326512609348324e-05,-3.2402051167642967e-06,-2.4640805570136473e-06,1.3655615331524382e-06,-3.921049925776665e-06,5.250910714640747e-06,-1.5562432769825399e-06,7.674079574310635e-06,2.056428237521097e-05,1.6336989862988598e-05,8.300771930196581e-06
3.4661087076962667e-07,1.2318050793050603e-06,8.121939416627895e-07,6.549485977504979e-07,-4.0076805464157874e-06,-8.322882162618386e-06,1.7515726395761877e-05,-1.8185836461458667e-05,-1.0682001544796465e-07,-2.5213634503924955e-06,1.0002262180906435e-06,-2.209465197120122e-06,4.067019463232018e-06,4.4113633689188206e-07,5.031523870132518e-06,2.0422485348188565e-05,1.4387288401212762e-05,6.223293227520782e-06
3.511578905992336e-07,1.114793002009783e-06,6.968120188163627e-07,5.034860488240912e-07,-1.8542969177228974e-06,-7.622683749328374e-06,1.3593470934200216e-05,-1.7122748701829968e-05,3.886850654953103e-06,-2.603265947388696e-06,3.099783512474248e-07,-8.172205443568418e-07,3.0237714507299456e-06,2.8775720934322736e-06,2.327903940531042e-06,1.8929107239973796e-05,1.0188570809429666e-05,3.7742501351499927e-06
3.4853332327477335e-07,9.992514406905262e-07,5.645700539924261e-07,3.642872836899197e-07,-2.5711564675372427e-07,-6.601145675630318e-06,9.645254901491758e-06,-1.4693067571365915e-05,8.085400675458926e-06,-2.68879405302506e-06,-5.556066602041612e-07,1.6049630724410456e-07,2.3632254730646363e-06,5.193283425128098e-06,6.684577617589483e-08,1.619517921265485e-05,4.9126491330926294e-06,1.3996819103326605e-06
3.389398154723897e-07,9.004812564264124e-07,4.247429292902096e-07,2.3599619451458719e-07,9.023712794203263e-07,-5.047012377154048e-06,6.499207627441907e-06,-1.0576975296889172e-05,1.1636128854393672e-05,-2.7513401721467403e-06,-1.4251002522890017e-06,8.139521386357334e-07,1.8129090016844032e-06,7.402349954355046e-06,-1.5069945733197709e-06,1.2554883835795596e-05,1.3573371827062951e-07,-4.712845303466419e-07
3.255938874525704e-07,8.330368619842598e-07,2.9411840330673034e-07,1.3088222473921977e-07,1.5602445984942205e-06,-2.708958604841322e-06,4.593328571850901e-06,-5.0634572955095704e-06,1.3607211227942821e-05,-2.7658378874672278e-06,-2.1618831676334333e-06,1.1971502892612789e-06,8.700545410380001e-07,9.407795599853881e-06,-2.363450472164833e-06,8.645084402656565e-06,-2.7652257972799864e-06,-1.5745678009697928e-06
3.150452877271562e-07,8.042447730440506e-07,1.9015154783059616e-07,5.101117347634311e-08,1.5333213831853799e-06,4.1168977595136293e-07,3.897416699571826e-06,8.399008991396353e-07,1.3190764774312328e-05,-2.717783350003213e-06,-2.680777973870782e-06,1.16083957344618e-06,-2.8286413555944355e-07,1.0588589062080875e-05,-2.589954937814458e-06,5.3085973989269306e-06,-4.556212143673833e-06,-1.8674043851441136e-06
3.082179541699941e-07,8.08659231996514e-07,1.2226793860750562e-07,4.550804935457922e-09,6.948540753612499e-07,3.890741635336253e-06,3.997385141801224e-06,5.770783078773596e-06,1.051954202588452e-05,-2.6116297186794235e-06,-2.9277224451344834e-06,3.948877868664916e-07,-1.4353182775242157e-06,1.0865065852728705e-05,-2.3288510267920968e-06,3.2679292915738798e-06,-5.790871134885403e-06,-1.4953650094923986e-06
3.001439126541491e-07,8.302426678193633e-07,8.788129888454059e-08,-8.739278665831463e-09,-5.965905159738267e-07,6.96636465608579e-06,4.3267094898550955e-06,8.548792732179062e-06,6.175079739693716e-06,-2.4626085648860232e-06,-2.861389731216852e-06,-1.3606819984061312e-06,-2.136832993562746e-06,1.0184086551737925e-05,-1.729742184541688e-06,2.7638727387690186e-06,-4.475294592235269e-06,-6.985873306257684e-07
2.826128706088773e-07,8.515928930879565e-07,7.43898648853839e-08,-1.1894103457282903e-08,-1.8792695575891793e-06,8.86362866509152e-06,4.478441614793012e-06,8.539508555729445e-06,1.4888387139685684e-06,-2.2915695588693723e-06,-2.461309984434601e-06,-4.1166710639556646e-06,-1.6874711447598664e-06,9.135489844549552e-06,-8.96994983041282e-07,3.4484922152160674e-06,-4.187484620203014e-07,3.079666870965366e-07
2.483980615096276e-07,8.615289879266946e-07,6.537882125047016e-08,-2.255344073033408e-08,-2.682283520601036e-06,9.181661909292627e-06,4.39098372541769e-06,5.778773538471627e-06,-2.34367122539524e-06,-2.1172548834674237e-06,-1.7454225044701265e-06,-7.550590142856211e-06,2.628625199380794e-07,8.69589271356861e-06,1.2600838824935854e-07,4.619592783158587e-06,3.4545873400557976e-06,1.4182275774924453e-06
1.9640114633744042e-07,8.572938617691325e-07,4.668074694052839e-08,-5.2391416395837034e-08,-2.6379663261167406e-06,8.0778599092668e-06,4.287903835620437e-06,9.646326234467196e-07,-5.130122947870663e-06,-1.9505722475891523e-06,-7.783567654990964e-07,-1.1034885649400732e-05,2.95724727257717e-06,9.334099927939325e-06,1.322183260888992e-06,5.585011513847594e-06,6.983719135963899e-06,2.6395812809285903e-06
1.3265044958305645e-07,8.413056884671634e-07,9.43018751074254e-09,-1.0752360026854574e-07,-1.6491971856979046e-06,6.127205764067185e-06,4.47287764967696e-06,-4.6896267530127825e-06,-7.041251421052505e-06,-1.7967547962686278e-06,3.362275843815699e-07,-1.3797035431962848e-05,6.299297800305344e-06,1.11224304360792e-05,2.649566865968275e-06,5.912541922143266e-06,1.00972081227111e-05,4.0231548509961745e-06
6.091383301706963e-08,8.172442877236657e-07,-4.773277758855553e-08,-1.8663358298505257e-07,2.0697542210953034e-07,4.021047037105496e-06,5.132270929437134e-06,-9.806643378583606e-06,-8.191578202538294e-06,-1.656898688030221e-06,1.4560195071721498e-06,-1.5176814095730514e-05,1.0265378635522676e-05,1.3585016625849507e-05,3.991298114923846e-06,5.508865232480968e-06,1.0198601363859503e-05,5.5511298137604075e-06
-1.2295236263489875e-08,7.898155253169635e-07,-1.1841249287348483e-07,-2.773838175256488e-07,3.52524769409567e-06,2.3439682161989996e-06,6.216108612598089e-06,-1.3272989396589287e-05,-8.422642591404243e-06,-1.5257145292905274e-06,2.3915111960070353e-06,-1.4821235486230971e-05,1.3922151154228189e-05,1.6051323277729597e-05,5.139520509268146e-06,4.584801512733841e-06,8.049820570322957e-06,7.0479714146733226e-06
-7.94966615295786e-08,7.662219093309403e-07,-1.9061263480995843e-07,-3.617717146780755e-07,8.490919122586471e-06,1.4786432729413598e-06,7.420053173859391e-06,-1.4505749694814611e-05,-6.408672701130958e-06,-1.3956616247838508e-06,2.9182931357823525e-06,-1.273572110738581e-05,1.7003312236517386e-05,1.785399477015857e-05,5.864041348220906e-06,3.5646045803637594e-06,5.146227806958814e-06,8.21897113514123e-06
-1.293719608439747e-07,7.554765187175658e-07,-2.509925006247391e-07,-4.2801839456204875e-07,1.4439137345531683e-05,1.5417276323956282e-06,8.255230676870193e-06,-1.3485666414438004e-05,-2.583986630115864e-06,-1.264898023390295e-06,2.8406545913435247e-06,-9.283761982489009e-06,1.8949345981891578e-05,1.8586900254099686e-05,6.051330009684882e-06,2.9527339260058676e-06,2.2011250791004424e-06,8.832031444891524e-06
-1.5002187023170244e-07,7.651399110831578e-07,-2.91121275975935e-07,-4.743377831485455e-07,1.9159594160206753e-05,2.3152305000405546e-06,8.23126178158139e-06,-1.0669659810822534e-05,1.4377743340281697e-06,-1.1381089209116759e-06,2.0874209314283326e-06,-5.186639353058097e-06,1.951797722607753e-05,1.817583963077791e-05,5.806246797096999e-06,3.1424488632098364e-06,-4.2198624932207743e-07,8.890056502949588e-06
-1.4368537415609476e-07,7.979498563818031e-07,-3.0981776935392664e-07,-4.896936699594844e-07,2.05018854932243e-05,3.2543778516395403e-06,7.06522083355417e-06,-6.8869148757395105e-06,4.44598514294661e-06,-1.027232754817048e-06,7.686920140645039e-07,-1.4002241068325982e-06,1.913804909983298e-05,1.6876449302756105e-05,5.409330992414962e-06,4.219832076968267e-06,-2.599177073793744e-06,8.623585733896219e-06
-1.1431324337461523e-07,8.499264142723929e-07,-3.12214887876145e-07,-4.7334932538539546e-07,1.6518017026588537e-05,3.642683313089431e-06,4.808674451510795e-06,-3.186498613005945e-06,7.141254405392466e-06,-9.451532853033277e-07,-8.485580324598125e-07,1.2345655943442547e-06,1.8774155597382472e-05,1.5221485825509881e-05,5.137050198324241e-06,5.893322413858923e-06,-4.392445991768848e-06,8.295560720880556e-06
-7.437491054969237e-08,9.109819150696369e-07,-3.0720466498841977e-07,-4.3445796137912004e-07,1.234190286692367e-05,2.8817969196202793e-06,1.8526144380040284e-06,-5.497543142774214e-07,8.780070764395705e-06,-8.980209390470307e-07,-2.427707320452007e-06,2.3833657664428966e-06,1.8382527552586503e-05,1.3686702043198495e-05,5.077443424195658e-06,7.62585842595309e-06,-5.779764193818571e-06,8.00246396413761e-06
-3.7259639889179366e-08,9.674665825833227e-07,-3.044526531422598e-07,-3.8481561104763707e-07,1.1234364346781077e-05,8.255231592071769e-07,-1.1805689253196177e-06,4.515660842662202e-07,9.161134732650622e-06,-8.83281896186223e-07,-3.6570036691867377e-06,2.2884197458541738e-06,1.7728031367548845e-05,1.2483146420156951e-05,5.091708473276138e-06,8.898147817468645e-06,-6.635647248840039e-06,7.662957279601646e-06
-1.2213258704942417e-08,1.0054876839979965e-06,-3.128691781768212e-07,-3.395258940439885e-07,9.416908298266e-06,-2.0457019068329693e-06,-3.5909424926846688e-06,-2.0890359921310402e-07,7.161840411461413e-06,-8.941849587292048e-07,-4.314313669930684e-06,1.453148729535878e-06,1.6412396569366438e-05,1.167101480263974e-05,4.943876879897271e-06,9.404324806578084e-06,-6.669064668837145e-06,7.1883265436700265e-06
-8.0602114657389e-09,1.0134900474104052e-06,-3.391860090047717e-07,-3.2632215676762944e-07,7.696186030510687e-06,-4.811052659390237e-06,-4.761334267571248e-06,-2.1968058917708315e-06,4.340421563211977e-06,-9.23524241257559e-07,-4.28909569088699e-06,3.0777808402658006e-07,1.3527875985785778e-05,1.0820129280390758e-05,4.482475387191272e-06,9.047805379034446e-06,-5.5107187288463365e-06,6.62861858508309e-06
-3.085934976363794e-08,9.858910074397721e-07,-3.8634806478912446e-07,-3.343195958441235e-07,5.89402592182637e-06,-6.5678744369967615e-06,-4.303290465368225e-06,-5.095340198056163e-06,8.167838786351609e-07,-9.621535674405585e-07,-3.590597485397453e-06,-8.575325815679265e-07,9.896956407820494e-06,9.548086318697803e-06,3.747463204510498e-06,7.836445233961557e-06,-2.895101877772309e-06,6.131486692355457e-06
-8.192949461166267e-08,9.254638314512198e-07,-4.518664290417573e-07,-3.652858986238607e-07,4.063492675378521e-06,-6.812388900456223e-06,-2.1795231393778616e-06,-8.479334215082189e-06,-2.0591066142878345e-06,-1.008277043196853e-06,-2.3432207791267203e-06,-1.8150003635167936e-06,6.515091515865938e-06,7.819041059761583e-06,2.983213968597169e-06,5.84776063124176e-06,9.822941661884404e-07,5.796547549180043e-06
-1.5288642985089934e-07,8.43226375033733e-07,-5.273791124335182e-07,-4.192352313547282e-07,2.5534903407465853e-06,-5.523235777453181e-06,1.2241241895115743e-06,-1.1797944267621413e-05,-3.426859187682913e-06,-1.0593136569166635e-06,-7.903804486381415e-07,-2.3946436327820983e-06,4.097612847167395e-06,5.637961998362234e-06,2.529327591327294e-06,3.2813097787046636e-06,5.456026418360694e-06,5.605063035298574e-06
-2.3308651134958487e-07,7.548768103708475e-07,-6.0162036780802e-07,-4.816269879375928e-07,1.717842685214908e-06,-3.023329317621704e-06,5.122749729784468e-06,-1.4308388549129492e-05,-3.063281587620479e-06,-1.1111491261006762e-06,7.349713552479495e-07,-2.5627768665333622e-06,3.203957802027942e-06,3.5234658017481344e-06,2.6277343279019338e-06,4.976893962738301e-07,9.667024880974985e-06,5.461419757343919e-06
-3.1165446390193313e-07,6.746903064650317e-07,-6.643094397417045e-07,-5.477356143129811e-07,2.172416911097779e-06,2.053493479231013e-07,8.499431200908112e-06,-1.5443705985325966e-05,-1.5649673445311807e-06,-1.1621005408038924e-06,1.8781844628253667e-06,-2.4698053473834104e-06,3.992282660784949e-06,2.00803731492884e-06,3.259435358361983e-06,-2.037828805121819e-06,1.2978651327511097e-05,5.261847417652266e-06
-3.797747336031853e-07,6.108449192224898e-07,-7.096853096553304e-07,-6.104240822343853e-07,2.5778170183247073e-06,3.6381580134501965e-06,1.0419512249903541e-05,-1.4946888727274442e-05,3.6342570773568704e-07,-1.2161418436820442e-06,2.34823093277795e-06,-2.3570109871707887e-06,5.750078823302012e-06,1.4243253492767447e-06,4.151407352959331e-06,-3.888618488918147e-06,1.5203498547765276e-05,4.934763528421526e-06
-4.332618128396673e-07,5.656118592006973e-07,-7.368221522979333e-07,-6.662575772406188e-07,2.9696457420396264e-06,6.735067205750722e-06,1.036318028420536e-05,-1.300861527469768e-05,1.958865314438746e-06,-1.2707213500060217e-06,2.0123877120303974e-06,-2.3235364821063673e-06,7.912943923777935e-06,1.9072892916697724e-06,4.942073885632632e-06,-4.841662994978865e-06,1.650768860016804e-05,4.462266906458798e-06
-4.678380697018639e-07,5.380009353851962e-07,-7.472769206080384e-07,-7.121039992022288e-07,3.6451577309985545e-06,8.969496305851002e-06,8.48690078045834e-06,-1.0172280611111774e-05,2.8213637033609817e-06,-1.3194191034783476e-06,9.589472038071869e-07,-2.1753887097326792e-06,1.0302776307412658e-05,3.2615665234760724e-06,5.3627719218744605e-06,-4.990001149407893e-06,1.7185444342598122e-05,3.906155284338427e-06
-4.803832470251569e-07,5.262180703057817e-07,-7.442400867371578e-07,-7.527641906494986e-07,4.554237701872878e-06,9.954063418973745e-06,5.4506861730379664e-06,-7.046156526745698e-06,3.0762605893513554e-06,-1.359276180789528e-06,-5.154497704518454e-07,-1.5620166301697928e-06,1.1928839298377046e-05,4.92144798566128e-06,5.303141745464343e-06,-4.63219666021409e-06,1.7363373020364657e-05,3.4377729784569187e-06
-4.7092512025593744e-07,5.271087997749987e-07,-7.316403918761695e-07,-7.859585406973585e-07,6.2761988841176104e-06,9.590308679223075e-06,2.103606461842781e-06,-4.178633181189464e-06,3.1441189484439213e-06,-1.3828175134474312e-06,-2.004892719112862e-06,-2.624042273669751e-07,1.2324134813789946e-05,6.083092990575797e-06,4.774240079526474e-06,-4.078872740333063e-06,1.6915683400069434e-05,3.354765341153644e-06
-4.4162344980731676e-07,5.352321047250625e-07,-7.142424578090549e-07,-8.083740739515003e-07,9.415842277017701e-06,8.066043439913559e-06,-8.20758499940266e-07,-1.9675087946121902e-06,3.470551997619459e-06,-1.39343239685287e-06,-3.1386102626003758e-06,1.653996591306699e-06,1.1463217461571931e-05,6.088385244301829e-06,3.867500005600127e-06,-3.5319708588113815e-06,1.5587581440515437e-05,4.039817089001756e-06
-3.995307763161403e-07,5.435532792397289e-07,-6.966192237922961e-07,-8.203149813542135e-07,1.2850484059073436e-05,5.703835215015768e-06,-2.8374709378996526e-06,-1.0163168842978563e-06,4.2919244912067365e-06,-1.3987051252949018e-06,-3.715470209346488e-06,3.846347366229157e-06,9.391048336782089e-06,4.602171154452442e-06,2.7282282828876417e-06,-3.123431082663548e-06,1.3229626723923851e-05,5.794082254508552e-06
-3.510586735765014e-07,5.45819811517616e-07,-6.812055292382842e-07,-8.203249039572819e-07,1.5134151770487431e-05,2.866831198030063e-06,-3.587367930379521e-06,-8.77459647851008e-07,5.5764097600829604e-06,-1.4040287477178882e-06,-3.7504530601455032e-06,5.8100027865688885e-06,6.550050310083173e-06,1.854641909090411e-06,1.5364473872184145e-06,-2.9967745788322647e-06,9.90259575156473e-06,8.597177457058414e-06
-3.0129787028520074e-07,5.39039102217676e-07,-6.68150215464845e-07,-8.094957309549653e-07,1.575367572094993e-05,-6.85726483409862e-09,-2.7610126698041024e-06,-1.5080639756058101e-06,7.110859426700821e-06,-1.4106653082480886e-06,-3.3984271307596152e-06,7.027226984777423e-06,3.6271801300273984e-06,-1.4391182790507138e-06,4.925802700746761e-07,-3.3021486076299637e-06,5.891688624472717e-06,1.2024212476057436e-05
-2.5575318012333503e-07,5.237780740127339e-07,-6.569568110374573e-07,-7.865375297047503e-07,1.4187524419631269e-05,-2.407966492021009e-06,-2.2334843709461558e-07,-2.958114534726083e-06,8.59516204178551e-06,-1.4214752855947983e-06,-2.8252139226307985e-06,7.141814490773751e-06,1.1178110951041031e-06,-4.5519539983609495e-06,-1.857271324316763e-07,-4.089653575105692e-06,1.7092938359708586e-06,1.5423848124253443e-05
-2.2026672183116518e-07,5.036483110406991e-07,-6.488560413499765e-07,-7.534484448981775e-07,1.066581435336925e-05,-3.892095947996983e-06,3.7272570964724166e-06,-4.222055625354967e-06,9.693144771312987e-06,-1.442139973495729e-06,-2.137604839057066e-06,6.079861004998012e-06,-7.760190175166237e-07,-6.669026346992034e-06,-2.7950995969585774e-07,-5.242254288947028e-06,-1.9419286267645026e-06,1.8154174395948972e-05
-1.9988271728083303e-07,4.838427467770149e-07,-6.472570891594693e-07,-7.222233041206299e-07,6.323572825632195e-06,-4.228346052911599e-06,8.29297159611326e-06,-5.986231639210385e-06,1.0090823514543436e-05,-1.471012664407315e-06,-1.4016158775450072e-06,4.022609014014212e-06,-1.8077074834494685e-06,-7.320181604391445e-06,3.597388684087765e-07,-6.534516057405964e-06,-4.307120099887663e-06,1.972424440840562e-05
-1.9560039374727872e-07,4.6933956083885816e-07,-6.562820026544418e-07,-7.005586461288581e-07,2.1628189837058023e-06,-3.4471466614982745e-06,1.2401929458406025e-05,-7.757058010086122e-06,9.60656712652715e-06,-1.5104233604638302e-06,-6.892991608728754e-07,1.2660098399638422e-06,-2.017553772153366e-06,-6.538435768600462e-06,1.6887395965931235e-06,-7.728218148067942e-06,-4.782068063026366e-06,1.9936068472173776e-05
-2.0397116457597783e-07,4.6263305942477483e-07,-6.788547420494653e-07,-6.927419755565145e-07,-1.1816804204211663e-06,-1.8179192558362096e-06,1.5129377781861072e-05,-8.73928495948853e-06,8.319937497411864e-06,-1.5606851311751885e-06,-8.87329324440027e-08,-1.8741323951954997e-06,-1.7328372957797388e-06,-4.5003026571461315e-06,3.407925303386325e-06,-8.575448117239957e-06,-3.1279362459479157e-06,1.9009812762347296e-05
-2.1897236804603385e-07,4.6134993553639464e-07,-7.161061004884845e-07,-7.024121565623645e-07,-3.4469205020407017e-06,1.887215332506549e-07,1.603306178485648e-05,-9.248010687387417e-06,6.658082300567852e-06,-1.621052846678932e-06,3.13269070148742e-07,-5.0380531881599614e-06,-1.310948305900699e-06,-1.7215368587260055e-06,5.052168565783577e-06,-8.744400151283512e-06,4.6377385630901005e-07,1.7480402835112343e-05
-2.3673607202130873e-07,4.584046813687784e-07,-7.680445712119452e-07,-7.292036174852652e-07,-4.824110408780616e-06,1.9810217030533565e-06,1.518840265632468e-05,-8.514280135496138e-06,5.202409657306945e-06,-1.6953906945274502e-06,4.318232232846212e-07,-7.778938056870136e-06,-1.075948072077761e-06,1.4034651946541084e-06,6.218888476176156e-06,-7.807901371449766e-06,5.404974084986953e-06,1.5872269641008245e-05
-2.568562786465376e-07,4.454306678075005e-07,-8.335987680725552e-07,-7.704856228472864e-07,-5.611996515669558e-06,3.0039973200345013e-06,1.303812895772647e-05,-6.967926061121509e-06,4.4605725188917645e-06,-1.7924465772527223e-06,2.0379420969405832e-07,-9.61279894308387e-06,-1.0634218097443781e-06,4.6740753926018495e-06,6.7727191112318185e-06,-5.392542182104856e-06,1.0815461681691706e-05,1.4435102615177235e-05
-2.790636036956715e-07,4.172032676194519e-07,-9.090541247173393e-07,-8.218644348617365e-07,-5.738685245042349e-06,2.914449309235096e-06,1.0248860371421959e-05,-5.479832184502743e-06,4.6425872952465565e-06,-1.9110165536788675e-06,-3.783351999642906e-07,-1.0141778893026136e-05,-1.0492346572829843e-06,7.895342444939154e-06,6.874582322688068e-06,-1.4620620120753298e-06,1.5725629976989187e-05,1.3133925235645626e-05
-3.01216670518277e-07,3.7448049672221094e-07,-9.86688886989306e-07,-8.75188060535519e-07,-4.952249247212019e-06,1.6672105922300984e-06,7.5433690261596375e-06,-4.38762612007821e-06,5.5404914243882985e-06,-2.042658307896343e-06,-1.232764626114597e-06,-9.155683151301102e-06,-8.204325766314853e-07,1.0843424523436899e-05,6.859800631960767e-06,3.4647171611423904e-06,1.9300420420495948e-05,1.1820138450412476e-05
-3.1949376479323006e-07,3.2320034688840767e-07,-1.0559026671637433e-06,-9.198013813932489e-07,-3.119974816308486e-06,-4.888249772492866e-07,5.440397419725609e-06,-4.065428549330406e-06,6.732657989436272e-06,-2.1904659866225833e-06,-2.178975985598369e-06,-6.662896056175528e-06,-4.1135131181346427e-07,1.3296873373548818e-05,7.10163176046096e-06,8.379518171963564e-06,2.097658566991946e-05,1.0380533009322674e-05
-3.308996334776077e-07,2.718643758034854e-07,-1.1069196811481656e-06,-9.487809292290298e-07,-4.1619340454043024e-07,-3.031924572651198e-06,3.964309587521145e-06,-4.283764617572939e-06,7.72727091463119e-06,-2.3281421568909633e-06,-2.982267218687688e-06,-2.8874810477020953e-06,-1.1654616453702633e-07,1.5086786879871101e-05,7.89815405773961e-06,1.2196870929940625e-05,2.0476961487169035e-05,8.74645641575165e-06
-3.3494779910435565e-07,2.2965605060901163e-07,-1.1346674519397967e-06,-9.603414901069647e-07,1.5358445946644403e-06,-5.2372354791181646e-06,2.6931974325565204e-06,-4.5538453921373115e-06,8.117393540837495e-06,-2.446875104625625e-06,-3.431329439558914e-06,1.6829242593305517e-06,-3.0773708227276926e-07,1.603821406669676e-05,9.346685600166559e-06,1.4291026857949901e-05,1.785056556462567e-05,6.8279821480606464e-06
-3.3200429336261795e-07,2.0477257344080226e-07,-1.1401291862969084e-06,-9.572644594536872e-07,2.8083230092845774e-06,-6.377544084796451e-06,1.1818800312616126e-06,-4.544965679781735e-06,7.652396444974035e-06,-2.549616689945989e-06,-3.4081786826432006e-06,6.208640974556893e-06,-1.180878680975348e-06,1.6056845576831793e-05,1.1275946922181592e-05,1.4723381121692908e-05,1.3564725428559377e-05,4.530659848174683e-06
-3.211096523833831e-07,2.0309838217804375e-07,-1.1294277251850274e-06,-9.45721071090666e-07,4.22876544871355e-06,-5.98839429202724e-06,-7.017447042638914e-07,-4.2745845388397935e-06,6.24197890568632e-06,-2.635891735466032e-06,-2.9328301561059e-06,9.587096142144184e-06,-2.5151385986990304e-06,1.5107092278900742e-05,1.3330718624430382e-05,1.4024886101618482e-05,8.453629342722488e-06,1.908912527469269e-06
-3.0025406730506637e-07,2.2614508000289155e-07,-1.11158624679507e-06,-9.32264512264454e-07,4.496732045913366e-06,-4.0391657591512e-06,-2.8116102556750886e-06,-4.180628848045914e-06,4.017254477583198e-06,-2.715751759628284e-06,-2.154044482243156e-06,1.0896068416553302e-05,-3.6608447083657113e-06,1.3310600915857384e-05,1.515423128725799e-05,1.2773981262530176e-05,3.50547876453453e-06,-6.797532594869692e-07
-2.6870277389208056e-07,2.6919047751863904e-07,-1.096705635764788e-06,-9.226254342276479e-07,3.3232985085360254e-06,-9.47546144438107e-07,-4.941570362785023e-06,-4.8737140233837315e-06,1.3790177022906493e-06,-2.7968629460984336e-06,-1.2908512738239968e-06,9.94840317442766e-06,-3.840280730359392e-06,1.1040400688760003e-05,1.6532336580795414e-05,1.1342653070578763e-05,-3.752087023641867e-07,-2.6120105698627253e-06
-2.287748572161333e-07,3.224000147780963e-07,-1.094111783629652e-06,-9.193673095538678e-07,2.8475129852390363e-06,2.53247324680463e-06,-6.923496500109062e-06,-6.738948789938555e-06,-1.0772926460295772e-06,-2.8840220861205558e-06,-5.599832475452417e-07,7.450700202978739e-06,-2.4028238315215333e-06,8.600098509263171e-06,1.7437531150481626e-05,9.948044314360363e-06,-2.485514835139481e-06,-3.2640261264316113e-06
-1.8312778352442322e-07,3.744545645909389e-07,-1.1073381347546196e-06,-9.248020919737091e-07,3.025294308287697e-06,5.520406790450969e-06,-8.617377484874819e-06,-9.662681430075439e-06,-2.7038259532095245e-06,-2.97448279792031e-06,-1.1130636436719437e-07,4.568376504963789e-06,7.141933460916465e-07,6.326452833051242e-06,1.7972621694766956e-05,8.840230966287935e-06,-2.41645281249149e-06,-2.334385970088442e-06
-1.3393925652287677e-07,4.1615373439288223e-07,-1.1328461133369483e-06,-9.31592203235594e-07,2.5924388900707317e-06,7.281622189153326e-06,-9.892694269149284e-06,-1.3031043716491427e-05,-3.1959877276683916e-06,-3.0699636545674984e-06,-1.1023152020178311e-08,2.2537919520390532e-06,4.916136611554942e-06,4.38887451088365e-06,1.8237677402229e-05,8.406289168186482e-06,-1.3673219980541008e-07,3.250076378218201e-09
-8.295351771712465e-08,4.449685699287996e-07,-1.1607434478819353e-06,-9.340275754424467e-07,2.4013021888539457e-06,7.46304109104231e-06,-1.0597012791896445e-05,-1.5998736618206812e-05,-2.5573611891460403e-06,-3.1633848188316418e-06,-2.248989271015698e-07,8.919526637676531e-07,9.231507429776366e-06,2.978436584202483e-06,1.8216755695586426e-05,9.052584576941975e-06,3.930830172234128e-06,3.198674080390337e-06
