0,1,2,3,4,5,6,7,8,9,10,11,12,13,14,15,16,17
4.6353833648607984e-07,-1.843390905321621e-07,2.486768279796739e-07,9.576430251409743e-08,1.6248272844297563e-07,-3.707922709402585e-07,3.0835125477791493e-07,-1.449540577865353e-07,-1.5803229013024353e-07,1.5629492760295771e-07,-2.276057802774384e-07,2.0090187799899562e-07,1.240313751975773e-07,-2.010947544630401e-07,-3.732892150267237e-07,2.6027579005038557e-07,-5.189073128600478e-08,-3.7449246684125445e-07
4.011126550074421e-07,-2.0615303685316761e-07,2.1309731022442586e-07,6.152561823299212e-08,1.7847829556842417e-07,-3.102826082107357e-07,2.4799192891948787e-07,-9.89910461324219e-08,-1.6416795165633105e-07,1.6283721130965205e-07,-2.8322710166854113e-07,2.461877411673802e-07,1.579549623449798e-07,-1.4411092392592416e-07,-3.5616390252303067e-07,2.664331603384442e-07,-3.2686479171641164e-09,-3.954406543812194e-07
3.1290458262269384e-07,-2.1493281284836095e-07,1.5267905701613043e-07,2.9709238745920035e-08,1.853380341447032e-07,-2.5293464865667357e-07,1.804110262321122e-07,-4.815227564830611e-08,-1.1949939944082384e-07,1.565174345964008e-07,-3.1738496197188295e-07,2.809963482337618e-07,1.7497564864774334e-07,-7.614166288288212e-08,-3.101836363129009e-07,2.0824303566333354e-07,3.8690122454247785e-08,-3.4719590633725295e-07
2.1742363894723272e-07,-1.67865739419801e-07,9.945372629533045e-08,4.958973901468222e-08,1.9271713024861006e-07,-2.166601992581711e-07,1.167485653091996e-07,1.9932763034652288e-09,-6.767161143528149e-08,1.4839134554271024e-07,-3.1530474526777245e-07,3.0347882375095774e-07,1.9469920602054372e-07,-3.901794750824561e-09,-2.5603818928110006e-07,1.9138802290117714e-07,7.432217135190993e-08,-2.875251402882554e-07
1.2960734461941546e-07,-1.1499925899957259e-07,7.336835728583754e-08,8.77864980829425e-08,2.0707112217173123e-07,-1.3526479041405868e-07,5.632801246715049e-08,4.67941218520535e-08,-2.326722962144131e-08,1.3687335111139035e-07,-2.8928672957524904e-07,3.105104100761928e-07,2.55823074249345e-07,6.454223432152624e-08,-1.938926936084133e-07,1.9304533468547032e-07,1.0348620141593317e-07,-2.4613821475711276e-07
6.624724392397245e-08,-6.042782267436677e-08,7.208901173436517e-08,1.298411388887967e-07,2.264169950255942e-07,-7.827502421309209e-08,1.5879556974953224e-08,8.193384280450052e-08,2.7188153513080782e-08,1.2830255513113548e-07,-2.547743906376633e-07,2.973951392852667e-07,3.040424935241969e-07,1.208824371132476e-07,-1.0520683395838567e-07,2.0781588544755333e-07,1.246048184306389e-07,-2.1107989791786396e-07
2.2157196837290825e-08,3.2361983971098445e-09,7.803794754081957e-08,1.7028916872822675e-07,2.320119867952412e-07,-4.2477673952472055e-08,1.7116981016056242e-09,1.0442372646998872e-07,5.593103773261863e-08,9.48785672840048e-08,-2.1576714248921461e-07,2.597833183978021e-07,3.3555462373165515e-07,1.5884582214940145e-07,-1.1928241863318215e-08,2.9821833897629037e-07,1.356852772363746e-07,-1.8859375132581363e-07
-5.833495905784865e-09,3.9166040962271814e-08,7.543689461434659e-08,1.8217295448648815e-07,2.1749247717237995e-07,-4.523059752598749e-09,-1.6090037562412416e-08,1.1377467302337695e-07,7.24929270652386e-08,6.362810073467687e-08,-1.4622643222935697e-07,1.9566400991696857e-07,3.4253408708664267e-07,1.753618053154563e-07,5.997659168212406e-08,3.323663556433768e-07,1.3511041782417457e-07,-1.3910586708298326e-07
-5.412642624690722e-08,5.7906739946352957e-08,7.07382334456845e-08,1.6855048638515067e-07,1.7683299366441607e-07,2.247722276704038e-08,-2.195360262102973e-09,1.1072645996233378e-07,8.659067250942267e-08,3.586564219556692e-08,-8.453967919469798e-08,1.0570649378722175e-07,2.710500625582191e-07,1.6929389579973889e-07,1.1968327323241916e-07,2.998994143427275e-07,1.2093759698407778e-07,-5.789920382165825e-08
-1.1989898160925043e-07,8.748835666829493e-08,5.1795895879669615e-08,1.2895269475766526e-07,1.0152059563668355e-07,5.9025539063216806e-08,3.986461677860222e-08,9.504649277622197e-08,9.372512705874884e-08,-1.4035303543693078e-08,1.1810023868488373e-09,-6.480146629953771e-09,1.4922269875647883e-07,1.4031856620593723e-07,1.5355420589441714e-07,2.3587372573274387e-07,9.078941749348106e-08,6.0229053563183e-08
-1.6405560403033637e-07,1.1880929541275881e-07,8.001357462913304e-09,6.163310706845135e-08,6.183510001250214e-09,1.0443103005843545e-07,3.3439698987285275e-08,6.607057042387293e-08,9.19901145611451e-08,-6.401629865271541e-08,1.063977049408773e-07,-1.324998522416092e-07,9.813950472943587e-09,9.038467852962143e-08,1.8639183056326387e-07,6.900886095643032e-08,4.38128596558833e-08,1.7995014768167144e-07
-1.9761501597313573e-07,1.3541901842552687e-07,-4.0539006146726473e-08,-2.816608264985787e-08,-1.126917393297495e-07,1.5214790921786347e-07,3.546493947777179e-09,2.5512441874456203e-08,8.044752922400016e-08,-1.1490996274229389e-07,2.1073830752846247e-07,-2.5833351227898353e-07,-1.6504227211841556e-07,2.5740283318832213e-08,2.2106778947654368e-07,-1.2943148371742732e-07,-1.7491072672221286e-08,2.830966309335049e-07
-2.2875793176206104e-07,1.4174377489282908e-07,-1.1795707880025584e-07,-1.3151984589967414e-07,-2.510459323971058e-07,2.01493549915873e-07,-6.662995888876961e-08,-2.1648094920477804e-08,5.8677979564096376e-08,-1.625240648953231e-07,3.225407281987256e-07,-3.676253220309437e-07,-3.396365634521457e-07,-4.406240092801955e-08,2.468819787896658e-07,-3.361600359603338e-07,-8.807889121985612e-08,3.7038392827494903e-07
-2.5365295489163497e-07,1.368559700378789e-07,-2.2503055350161918e-07,-2.3806920455329625e-07,-3.932303861129646e-07,2.49766044408314e-07,-1.8743480404849522e-07,-6.947091625423354e-08,2.782277492696102e-08,-2.1353236810083392e-07,4.231268728783665e-07,-4.4732177595045577e-07,-4.918014657096822e-07,-1.0960898798926806e-07,2.396825760309783e-07,-5.657184213669583e-07,-1.6269091348218882e-07,4.315735889496383e-07
-2.797450380788522e-07,1.2249762367234823e-07,-3.312033103183722e-07,-3.3910663452021046e-07,-5.173459717937428e-07,2.931235495333203e-07,-3.097640355175567e-07,-1.132968250013749e-07,-9.804421953371301e-09,-2.431824366519758e-07,5.065334821902615e-07,-4.908890377526506e-07,-6.17922952519686e-07,-1.63929285132637e-07,2.1115933257906746e-07,-7.212840870618717e-07,-2.3695492212504618e-07,4.642785595906996e-07
-3.093055499461641e-07,1.0559474291206086e-07,-4.2864467071222326e-07,-4.2895317928237445e-07,-6.12231839238447e-07,3.287454304340004e-07,-4.221586562167499e-07,-1.4976238974691892e-07,-5.2423411917819776e-08,-2.713887009216603e-07,5.635988651882764e-07,-4.974745157299504e-07,-7.052989287903955e-07,-2.025199126811659e-07,1.6830513432539303e-07,-8.09973896631341e-07,-3.0706370414423853e-07,4.579591937597662e-07
-3.3078519751017854e-07,8.54822154122289e-08,-5.05490045449311e-07,-5.049294229606875e-07,-6.718684882651329e-07,3.568185525848903e-07,-5.073745126971842e-07,-1.762778220628486e-07,-9.574362583390495e-08,-2.9838133795881073e-07,5.986440378613157e-07,-4.698659006335195e-07,-7.251164287457707e-07,-2.229933723062766e-07,1.1252226797735158e-07,-8.554749519082429e-07,-3.696814557217662e-07,4.3017235577428003e-07
-3.4775216710517423e-07,5.742229194123968e-08,-5.559274854093962e-07,-5.669011417284076e-07,-6.934777460427372e-07,3.8028175431188703e-07,-5.62827631302025e-07,-1.9139635523867323e-07,-1.3422976293922038e-07,-3.0285404682446386e-07,5.98886244499612e-07,-4.1310998271039585e-07,-6.964138374903816e-07,-2.2511958108763991e-07,5.6879396477278975e-08,-8.821399616296808e-07,-4.2223765486789586e-07,3.9004000487247774e-07
-3.70523365742326e-07,2.426249386881114e-08,-5.824883628964233e-07,-6.161250513385244e-07,-6.930836579761052e-07,4.03409452552955e-07,-5.922335473072944e-07,-1.9482120252603463e-07,-1.6293974853446616e-07,-2.9955824078409436e-07,5.771446632400421e-07,-3.331463411556073e-07,-6.377821593076965e-07,-2.1012056285382806e-07,-1.8312050183374568e-09,-8.691407850247708e-07,-4.626853051660217e-07,3.4796775696746083e-07
-3.94433692704417e-07,-6.031877968635156e-09,-6.258524851590096e-07,-6.534947296515802e-07,-6.697509966198888e-07,4.3059735603663396e-07,-6.28695299365429e-07,-1.8655735141599876e-07,-1.7790819233759267e-07,-2.8631776202663005e-07,5.457422958174636e-07,-2.358354595354646e-07,-5.496871854927238e-07,-1.7962707575795156e-07,-5.6685682810261943e-08,-8.368604405955347e-07,-4.892838439773929e-07,3.168747582441293e-07
-4.159753922085564e-07,-3.2088659854056145e-08,-6.49781153849724e-07,-6.787844092838727e-07,-6.223598604664744e-07,4.647164006954395e-07,-6.923798315130784e-07,-1.669676025951705e-07,-1.7748979873483493e-07,-2.6267722180235106e-07,5.229337325226875e-07,-1.2765180232525735e-07,-4.5156234843487343e-07,-1.3592726319899345e-07,-1.000344800305991e-07,-7.961551499827272e-07,-5.014231076676294e-07,3.1572457677097797e-07
-4.354405323617446e-07,-5.127899929744874e-08,-6.371384348383775e-07,-6.915130206162887e-07,-5.546216999203809e-07,5.054762636571829e-07,-7.723018943746216e-07,-1.3791390890660608e-07,-1.6390888924829295e-07,-2.304876544553293e-07,5.165636729703607e-07,-1.6976922438806942e-08,-3.521105362112036e-07,-8.28548274188531e-08,-1.2404242222265525e-07,-7.559885880108137e-07,-5.005026574007191e-07,3.4273159461211043e-07
-4.513686523702331e-07,-6.228212215150663e-08,-6.108281983447562e-07,-6.918053350927398e-07,-4.6982238323855843e-07,5.49890041984655e-07,-8.203559148092392e-07,-1.0263725425738072e-07,-1.4236029466722765e-07,-1.979541497210795e-07,5.241853463461886e-07,8.678959771533485e-08,-2.5708076565628297e-07,-2.5234102719452605e-08,-1.3334169222339213e-07,-7.265034335778644e-07,-4.894695432240863e-07,3.9169794629128707e-07
-4.6478142915336517e-07,-6.615327058213662e-08,-5.696697440052204e-07,-6.802973494868167e-07,-3.7269187823331223e-07,5.948670869249454e-07,-8.207077944686949e-07,-6.410807383898995e-08,-1.1806442412647263e-07,-1.62308251316994e-07,5.458379670424297e-07,1.7571360697728373e-07,-1.7499844742085583e-07,3.250498845620011e-08,-1.317738559632071e-07,-7.028534440087358e-07,-4.7192965363334425e-07,4.646618638147355e-07
-4.76442193477498e-07,-6.26486356099052e-08,-5.277283559427954e-07,-6.583828622007228e-07,-2.6885978276891e-07,6.389281368813736e-07,-7.873074198175197e-07,-2.461854503220121e-08,-9.49601695209322e-08,-1.264060842012379e-07,5.763715600976144e-07,2.4443529520523716e-07,-1.1708145926241503e-07,8.621735554461249e-08,-1.219284115593832e-07,-6.936200734493191e-07,-4.5227161041282457e-07,5.470196104801669e-07
-4.852302233407335e-07,-5.3076568246012554e-08,-4.972865704465967e-07,-6.293837274711512e-07,-1.6615515306617095e-07,6.816297710868692e-07,-7.386098253266481e-07,1.282711634510082e-08,-7.677166207380083e-08,-9.882900205566687e-08,6.177527373066992e-07,2.897640222334893e-07,-8.12675036810646e-08,1.3102309777437584e-07,-1.1073473613486232e-07,-7.131115064982571e-07,-4.358508483824012e-07,6.124287233410665e-07
-4.910008965448958e-07,-4.092932253366269e-08,-4.6715670192314426e-07,-5.988943021567207e-07,-7.059933538163438e-08,7.229541314557235e-07,-7.214391352204132e-07,4.425982147069429e-08,-6.7221585998254e-08,-7.896401879270042e-08,6.632392973202977e-07,3.110319904707252e-07,-6.450272929117184e-08,1.6197233254068906e-07,-1.0211298987520658e-07,-7.658235976258239e-07,-4.2774957492937264e-07,6.678147726590952e-07
-4.950727221563513e-07,-3.0050204178089345e-08,-4.256411373486765e-07,-5.733570945504405e-07,7.101588202494496e-09,7.637833162847426e-07,-7.48795633740463e-07,6.64830598721249e-08,-6.851500008065106e-08,-6.841236261031064e-08,6.959567624648666e-07,3.1086495253736097e-07,-6.427078045722918e-08,1.7603613938423286e-07,-9.934197624604238e-08,-8.544736308789124e-07,-4.3119462765433707e-07,7.094769551337154e-07
-4.999042486197698e-07,-2.3427066352142397e-08,-3.9229682951855375e-07,-5.585433768702796e-07,5.9019001464191324e-08,8.055167764844006e-07,-8.13543107877603e-07,7.792903780289132e-08,-8.102985620670795e-08,-6.689751085074157e-08,7.133000966758225e-07,2.954949843323319e-07,-7.326912378637037e-08,1.7273540597230965e-07,-1.0474238928563016e-07,-9.599166779623355e-07,-4.474479760574123e-07,7.27914142575692e-07
-5.090951035098372e-07,-2.3100114528405654e-08,-3.918254152543055e-07,-5.590528768730216e-07,8.270124382619819e-08,8.481349639927992e-07,-8.94854024117899e-07,7.76551095273317e-08,-1.0479244834685675e-07,-7.236584730502829e-08,7.158203584024036e-07,2.72240266204241e-07,-8.701353374454422e-08,1.5346032973634485e-07,-1.1952452525319202e-07,-1.0798482058590168e-06,-4.7633651227155653e-07,7.284463632644717e-07
-5.264770072226529e-07,-3.065294427504172e-08,-4.1599143256929843e-07,-5.773705069007986e-07,7.904236640454543e-08,8.892697482509166e-07,-9.992754535309398e-07,6.534036362086829e-08,-1.3953939453822092e-07,-8.409637775337043e-08,7.038573873271348e-07,2.4812179065322647e-07,-1.0139433309665417e-07,1.2197891446201763e-07,-1.4336139760467323e-07,-1.208189042461311e-06,-5.155689870697439e-07,7.098259232932018e-07
-5.539300875955341e-07,-4.6225231252039864e-08,-4.5691339127558217e-07,-6.116647895401031e-07,5.4562686940068144e-08,9.257540888445668e-07,-1.1085939153555236e-06,4.334451195012604e-08,-1.8254839024792386e-07,-9.984369215556152e-08,6.827721984213577e-07,2.3017382591744365e-07,-1.1171175906746079e-07,8.587086872268805e-08,-1.7258419776758529e-07,-1.330861661155032e-06,-5.597243827499626e-07,6.759482317673357e-07
-5.896414327077966e-07,-6.751673865971864e-08,-5.005216022736208e-07,-6.546156423100211e-07,2.0157922946601587e-08,9.554051739208656e-07,-1.213121647554694e-06,1.7598173824665972e-08,-2.2781493394047503e-07,-1.1548067715980515e-07,6.593958742553938e-07,2.231571754494877e-07,-1.1490279912970567e-07,5.552040600360546e-08,-2.0079135268695645e-07,-1.434160662412721e-06,-6.013397078189953e-07,6.38182186819748e-07
-6.287312041430187e-07,-9.05174174374545e-08,-5.287751966565224e-07,-6.955064874430895e-07,-1.3000009738734759e-08,9.77103503078958e-07,-1.3099563986942955e-06,-4.775525787709711e-09,-2.684697066468556e-07,-1.270579580592341e-07,6.403695573884428e-07,2.2784595937415417e-07,-1.1182900964792083e-07,4.0246648156857396e-08,-2.2182971104193102e-07,-1.5055618321511222e-06,-6.338349311204855e-07,6.106148621538545e-07
-6.656550817690513e-07,-1.1126715825954442e-07,-5.412479299189548e-07,-7.242691957860839e-07,-3.6822430083922604e-08,9.905258557526533e-07,-1.3859418281925535e-06,-1.8574931113132507e-08,-2.9963613778336833e-07,-1.3244995048078186e-07,6.31618077612973e-07,2.4127167511331133e-07,-1.070546421014268e-07,4.5038833721207355e-08,-2.318248741147671e-07,-1.5330649488298734e-06,-6.535349459698747e-07,5.97255398185911e-07
-6.962061931672248e-07,-1.266521565894467e-07,-5.417615125569745e-07,-7.345774817673771e-07,-4.709420853101115e-08,9.97117090554244e-07,-1.4387049274448512e-06,-2.1491597375615105e-08,-3.1910726345606443e-07,-1.3137062033382367e-07,6.393405817167668e-07,2.599514169437912e-07,-1.0517263648337694e-07,6.997900417333757e-08,-2.2907839070511524e-07,-1.5220644260236184e-06,-6.597978962575821e-07,6.032538666170814e-07
-7.183162684774313e-07,-1.3434804003196133e-07,-5.315471912921394e-07,-7.252365632835906e-07,-4.3125441561970066e-08,1.0010319021348277e-06,-1.464646029283854e-06,-1.3784081294105657e-08,-3.270319244765673e-07,-1.2468728591037702e-07,6.59232080116931e-07,2.8315322854480116e-07,-1.0733857761772713e-07,1.1099177664949526e-07,-2.1400744619540457e-07,-1.4890821089041858e-06,-6.547831972642459e-07,6.227468998456612e-07
-7.324025505067342e-07,-1.3288772872491905e-07,-5.034219197373865e-07,-7.006459803900895e-07,-2.6500366578499134e-08,1.008182589197607e-06,-1.4758471336426927e-06,1.6321509701008647e-09,-3.2612092378771547e-07,-1.141231154702848e-07,6.879728910800657e-07,3.132624619660516e-07,-1.1058674933157046e-07,1.6062067379406887e-07,-1.8978274381881102e-07,-1.4448922984376163e-06,-6.432718383708087e-07,6.495957738702498e-07
-7.412690004543874e-07,-1.2241808094864781e-07,-4.6689752772688636e-07,-6.697448196825471e-07,-2.3763592907910425e-10,1.0241987519238204e-06,-1.4755283927923396e-06,1.9800646422956604e-08,-3.2090369129013707e-07,-1.0154875109601667e-07,7.206129928956263e-07,3.5428578444273876e-07,-1.0896571071191452e-07,2.1019124601444683e-07,-1.6132175826007563e-07,-1.4033372793348584e-06,-6.310010727170372e-07,6.780950320968833e-07
-7.486972427349517e-07,-1.0456990831764776e-07,-4.308289349853291e-07,-6.424373971588616e-07,3.2408148093961645e-08,1.0535576677940725e-06,-1.4734347769225e-06,3.641422001614085e-08,-3.1496966968652903e-07,-8.742190065948993e-08,7.505979445344963e-07,4.1031010034072273e-07,-9.49858739625307e-08,2.5348328898559264e-07,-1.3223870434233512e-07,-1.3726394194459118e-06,-6.21719149108639e-07,7.014173758315943e-07
-7.572766488143927e-07,-8.090851656171193e-08,-3.96801393932942e-07,-6.253037724736055e-07,6.936533936121648e-08,1.0994622086735008e-06,-1.4739709194221185e-06,5.0406116913454444e-08,-3.0882669252476874e-07,-7.011428331405815e-08,7.755551573907853e-07,4.842483358134698e-07,-6.197040584976739e-08,2.887985880245402e-07,-1.0309483495641224e-07,-1.352106125312129e-06,-6.15742856755653e-07,7.194120808941522e-07
-7.673782573218815e-07,-5.237156719111425e-08,-3.6610451733234053e-07,-6.198916348851629e-07,1.1008804544333371e-07,1.1626272708146248e-06,-1.4725960888108565e-06,6.354763686141282e-08,-3.009531331590959e-07,-4.7409534407043274e-08,7.94109379256976e-07,5.756131594519237e-07,-7.2235863864674835e-09,3.1768148119759267e-07,-7.276840968548252e-08,-1.3370514998240333e-06,-6.111643253499546e-07,7.384336278844478e-07
-7.778022235331644e-07,-2.018619799048374e-08,-3.3899710648198095e-07,-6.239193635774271e-07,1.53866847504526e-07,1.2397039230758794e-06,-1.4684669480512865e-06,7.815746044117161e-08,-2.9026199755527885e-07,-1.8585634298483347e-08,8.057277883439974e-07,6.797198205329444e-07,6.632456917400585e-08,3.427377627968004e-07,-4.050276137623894e-08,-1.3235600640414622e-06,-6.055921848036055e-07,7.578857588332005e-07
-7.867048698672679e-07,1.3553839128485384e-08,-3.102122939352572e-07,-6.329549783078849e-07,1.9876012692453455e-07,1.3235614518520253e-06,-1.4598573346279055e-06,9.594304907994296e-08,-2.7694854863032224e-07,1.497428156503768e-08,8.134592827574245e-07,7.895841839605478e-07,1.5153070572525846e-07,3.670045356860736e-07,-6.520719679606028e-09,-1.3041020917038103e-06,-5.968421209980219e-07,7.788606173615544e-07
-7.920449926868162e-07,4.6537478710836086e-08,-2.780139216530749e-07,-6.415831735732507e-07,2.4259867162549504e-07,1.405275802168551e-06,-1.446462825959281e-06,1.1799256945804452e-07,-2.621420563364722e-07,5.0309381352435755e-08,8.18434755288596e-07,8.980596293167468e-07,2.397731605436837e-07,3.93651511103159e-07,2.7631757980064723e-08,-1.2751778529345774e-06,-5.834975932207146e-07,8.042295369111394e-07
-7.922308094940954e-07,7.670960703880529e-08,-2.44550381127743e-07,-6.449781957232923e-07,2.839028846174861e-07,1.4759885355510423e-06,-1.4291252089990226e-06,1.4421789155523664e-07,-2.4796258876813773e-07,8.349780228149837e-08,8.211218142736015e-07,9.993050203808138e-07,3.231215289273615e-07,4.247354904846025e-07,5.836561236465343e-08,-1.2307498399253729e-06,-5.657657735884529e-07,8.302826104037893e-07
-7.869617371683974e-07,1.0214128138240814e-07,-2.1029148518701945e-07,-6.405043248166034e-07,3.2223631373691927e-07,1.5288254500566213e-06,-1.4090719453092322e-06,1.7301631857610203e-07,-2.369832270171157e-07,1.1086643114664296e-07,8.228471179905262e-07,1.0899717514693054e-06,3.9653740261274954e-07,4.605448500152968e-07,8.097100832121302e-08,-1.1678949303536116e-06,-5.451523571945535e-07,8.541058923038038e-07
-7.771236558000392e-07,1.2201764016484933e-07,-1.773560048745041e-07,-6.277231476876172e-07,3.588015626336545e-07,1.5616778560489847e-06,-1.3899452797634078e-06,2.0274341842941911e-07,-2.3001333278482052e-07,1.3097030071246164e-07,8.248683893443748e-07,1.170525240548981e-06,4.5990290661144523e-07,5.007028167874389e-07,9.263293839303051e-08,-1.0882720399309596e-06,-5.227438593597945e-07,8.747765125460917e-07
-7.637495346243707e-07,1.378155060789205e-07,-1.4573576761422063e-07,-6.070780353772218e-07,3.963901093329886e-07,1.5787722185607268e-06,-1.3686727717146308e-06,2.3341266070380326e-07,-2.245509763562851e-07,1.4541409642965065e-07,8.297544889690626e-07,1.2449233785292955e-06,5.171407861437162e-07,5.452313037528749e-07,9.444882334374897e-08,-9.933456813973075e-07,-4.983451324287918e-07,8.937433081602228e-07
-7.475524173272212e-07,1.5304919330785115e-07,-1.1336432129534671e-07,-5.792220512240005e-07,4.380002562859279e-07,1.5859792200854366e-06,-1.3414981376517407e-06,2.6610418422718765e-07,-2.1634867782185489e-07,1.5727852999372084e-07,8.403614414799922e-07,1.3170283965173615e-06,5.718670833853706e-07,5.938442502395069e-07,9.065872800244796e-08,-8.881670480613886e-07,-4.7149670184332146e-07,9.138729271925357e-07
-7.294396977676484e-07,1.7132148664668665e-07,-7.911907155926184e-08,-5.453550511818111e-07,4.844679819674865e-07,1.592080827486256e-06,-1.3076445173409164e-06,3.011490292779031e-07,-2.022561546814982e-07,1.6896847508513685e-07,8.578749855310203e-07,1.387542891894019e-06,6.236067436401178e-07,6.450819545690157e-07,8.713376949668284e-08,-7.803273131934562e-07,-4.424879241544018e-07,9.398257545810522e-07
-7.10728845734585e-07,1.9484461506085627e-07,-4.557555241143254e-08,-5.072065163990549e-07,5.336284614189121e-07,1.6030907345497553e-06,-1.2676169470861745e-06,3.3772058217448585e-07,-1.8133491785291108e-07,1.8154260520659493e-07,8.812152954351993e-07,1.454260700939168e-06,6.678384523697288e-07,6.967650219906358e-07,9.057060832990634e-08,-6.777940189206139e-07,-4.1209891845615544e-07,9.742645052184786e-07
-6.926255121533794e-07,2.2420230951979635e-07,-1.516303615485025e-08,-4.6655545470476973e-07,5.819131979055468e-07,1.6210649901380192e-06,-1.2247456877868387e-06,3.744628517893232e-07,-1.5465088411883322e-07,1.9493892797028598e-07,9.095600592588657e-07,1.513994067340842e-06,6.984405111000547e-07,7.466277536448802e-07,1.0695656583863904e-07,-5.862966097780417e-07,-3.813249356061884e-07,1.017507146856548e-06
-6.76048858339718e-07,2.5860806300812397e-07,1.0123405281626918e-08,-4.2542661871107164e-07,6.25853130721742e-07,1.6465792686469775e-06,-1.1826246997417635e-06,4.094226053655896e-07,-1.2527424842806574e-07,2.0804617214945054e-07,9.412668374260971e-07,1.5639004426262177e-06,7.101578480819365e-07,7.921102611366148e-07,1.391646258268188e-07,-5.115439398165024e-07,-3.5174014493512955e-07,1.0676957204231627e-06
-6.620038665389624e-07,2.959556475280637e-07,2.8050579431550276e-08,-3.865121312946674e-07,6.628651375948082e-07,1.676030175539517e-06,-1.1444698757953926e-06,4.401885717923596e-07,-9.742853953496924e-08,2.193147091421919e-07,9.730372805054817e-07,1.6030269498489207e-06,7.011420288290467e-07,8.307966880915482e-07,1.8640037225305522e-07,-4.563160135947387e-07,-3.250408198898872e-07,1.120509860819561e-06
-6.513003170816627e-07,3.338525359653667e-07,3.91004220310592e-08,-3.5227090028643584e-07,6.922437717416567e-07,1.7057997104081287e-06,-1.1105854606849955e-06,4.657131405247739e-07,-7.384459184927076e-08,2.284004360755062e-07,1.0041960703390251e-06,1.634193069884144e-06,6.75168483711399e-07,8.622181092474151e-07,2.462117108841444e-07,-4.1663123142544555e-07,-3.01475316126173e-07,1.1728225979297607e-06
-6.435424762358669e-07,3.7157966612114107e-07,4.753136389871958e-08,-3.2332344987088294e-07,7.15800460475168e-07,1.7349911281309186e-06,-1.0786137324736921e-06,4.879328678778751e-07,-5.385527775657194e-08,2.3711797481357833e-07,1.035404329947882e-06,1.6635314009725374e-06,6.409419919739944e-07,8.884907752386446e-07,3.159966670063483e-07,-3.840525268447756e-07,-2.793523835962701e-07,1.2236448509744484e-06
-6.369172664524062e-07,4.1026233767513675e-07,5.926340809898328e-08,-2.9833669462588607e-07,7.36716747185892e-07,1.7648649029431117e-06,-1.0443037947998648e-06,5.105831262467615e-07,-3.4673366101999515e-08,2.4821804329299434e-07,1.0675736750707322e-06,1.6969593587062387e-06,6.079144184518576e-07,9.123226887070661e-07,3.924032599197479e-07,-3.4845427722557184e-07,-2.565692550310869e-07,1.2725701828160465e-06
-6.292338797607671e-07,4.5112615670638654e-07,7.777442263108355e-08,-2.754416388477894e-07,7.569856252767341e-07,1.795803532449228e-06,-1.00471343681876e-06,5.365127312440596e-07,-1.4006592357755704e-08,2.635565309615665e-07,1.1010908859518158e-06,1.7366340932100774e-06,5.821679253872544e-07,9.347801654995596e-07,4.709490483846142e-07,-3.0393434921041997e-07,-2.32109217459481e-07,1.3201913972441211e-06
-6.188979072412935e-07,4.942541631602795e-07,1.0240594958895801e-07,-2.5320559067391267e-07,7.755440440041432e-07,1.827066000565119e-06,-9.603844169177875e-07,5.665330480434075e-07,8.962895314817257e-09,2.8357246899457e-07,1.1347300820298352e-06,1.7804710023488084e-06,5.648931658945442e-07,9.550924903310497e-07,5.473241244069984e-07,-2.5035440984174526e-07,-2.0603423331601095e-07,1.3671449241550052e-06
-6.051527903567396e-07,5.389363124460975e-07,1.2978259427184233e-07,-2.3069637068310468e-07,7.906842474960357e-07,1.8575363657014842e-06,-9.139632074903894e-07,5.997888615991474e-07,3.3810282669890744e-08,3.0750762139391387e-07,1.1667157412042093e-06,1.8234961454398243e-06,5.540216428385444e-07,9.71356691482603e-07,6.184072847302135e-07,-1.9176895298226908e-07,-1.7910947908496136e-07,1.4139983922054155e-06
-5.882852507493322e-07,5.839861014516946e-07,1.5533144471351745e-07,-2.0779201879881533e-07,8.002587127385396e-07,1.8845702697477867e-06,-8.69549932692067e-07,6.339600775265957e-07,5.871070038597244e-08,3.333721687497455e-07,1.1950636457003823e-06,1.8593449140195207e-06,5.448863109284881e-07,9.808399924430656e-07,6.8208778063076e-07,-1.3484690207022322e-07,-1.5284684940407649e-07,1.460810600631633e-06
-5.698338656648888e-07,6.277808747693257e-07,1.7472979249331955e-07,-1.8551281797266964e-07,8.021670725906444e-07,1.9067504358787048e-06,-8.31565576349484e-07,6.658113371068941e-07,8.083469813500576e-08,3.5847248128811715e-07,1.2182123872109838e-06,1.883254475299505e-06,5.322878685761581e-07,9.810748126544659e-07,7.370504353618131e-07,-8.585794676586327e-08,-1.2883295455297026e-07,1.5067239562298996e-06
-5.519017217296358e-07,6.69015246676108e-07,1.8667296455880068e-07,-1.6513916945004609e-07,7.960193772645804e-07,1.92364067156278e-06,-8.021490182988737e-07,6.931460999092897e-07,9.830071953430951e-08,3.8097417548574434e-07,1.2359678550503702e-06,1.894292870425696e-06,5.147907002612198e-07,9.720456467397153e-07,7.843294045769327e-07,-4.6330590207883843e-08,-1.0723876154519271e-07,1.5514524159937197e-06
-5.358725693421943e-07,7.084182698691283e-07,1.9478154324770334e-07,-1.468498834737871e-07,7.835519461591591e-07,1.93653182789892e-06,-7.792885218999527e-07,7.163749382466547e-07,1.1164280262338855e-07,4.007885220191635e-07,1.250132241995178e-06,1.8963979674131919e-06,4.924634084677166e-07,9.569296064564162e-07,8.272639720945925e-07,-1.1356122635366936e-08,-8.652169872042156e-08,1.595784664076334e-06
-5.220007491643074e-07,7.482197442775659e-07,2.0559305414803432e-07,-1.2978396747565467e-07,7.683294193311353e-07,1.9488527152106065e-06,-7.580517656306885e-07,7.37608996009949e-07,1.2274007156063326e-07,4.1869005462424373e-07,1.2635758033892231e-06,1.8959558789931525e-06,4.685299783650653e-07,9.401336392913131e-07,8.690294790108893e-07,2.667574738734838e-08,-6.492327621337189e-08,1.6402220184417224e-06
-5.100066659936801e-07,7.904317790848361e-07,2.246151079394655e-07,-1.1319077425533085e-07,7.536530595832368e-07,1.9620099258936692e-06,-7.334407485851461e-07,7.587744305077959e-07,1.3309088202552913e-07,4.352308946634625e-07,1.2782416180180861e-06,1.8986811261313878e-06,4.4642813977832363e-07,9.251279225282744e-07,9.110933498923194e-07,7.453878764855446e-08,-4.1666081984840284e-08,1.6837735530045329e-06
-4.993278879677744e-07,8.358267402501213e-07,2.54547438686854e-07,-9.676742346483451e-08,7.410742961268207e-07,1.9761034094819554e-06,-7.018111673173997e-07,7.812150480065596e-07,1.437436293146932e-07,4.5086155486699495e-07,1.294880578560144e-06,1.9089402987486923e-06,4.295292951337279e-07,9.141031023822908e-07,9.537053744115651e-07,1.3712929819983445e-07,-1.6690066290868944e-08,1.7251149592702998e-06
-4.887727150848144e-07,8.838968143873763e-07,2.9542917699810045e-07,-8.018446789554726e-08,7.300801231818631e-07,1.9931994477006767e-06,-6.611843136766582e-07,8.060669597808669e-07,1.5576957141976928e-07,4.662005953466725e-07,1.313463597183575e-06,1.929421957562854e-06,4.188548666116628e-07,9.079766225289163e-07,9.965566183286332e-07,2.1674861780393225e-07,9.711869937671457e-09,1.7633710091531017e-06
-4.767158368079005e-07,9.340888654527709e-07,3.44247836293367e-07,-6.322389686653374e-08,7.184774454176309e-07,2.011596794135692e-06,-6.121579661088135e-07,8.337252533408598e-07,1.6970581875843574e-07,4.814793721196258e-07,1.3330358598204115e-06,1.960288323218335e-06,4.146442193136647e-07,9.057964732474449e-07,1.0384453181597512e-06,3.1157339418898275e-07,3.6612934549523964e-08,1.7977267830040605e-06
-4.61978572284484e-07,9.855409961900458e-07,3.9518632298305477e-07,-4.6309238339196605e-08,7.027838493199481e-07,2.0291443534792945e-06,-5.582660338571846e-07,8.633940731677782e-07,1.8517495803652366e-07,4.963495175836279e-07,1.352405450208465e-06,1.999396322264467e-06,4.160970871280779e-07,9.051565499461484e-07,1.0777915406777126e-06,4.1630587688046986e-07,6.262486799323119e-08,1.8275489396677915e-06
-4.443296570079156e-07,1.0366864231130168e-06,4.422281322836011e-07,-3.026811521112035e-08,6.794640507092322e-07,2.0447294902092706e-06,-5.042546171320241e-07,8.940113265110503e-07,2.0180369050447664e-07,5.106625473445332e-07,1.3720314788157867e-06,2.0435428561874446e-06,4.2072544152870993e-07,9.040019878028846e-07,1.1139427966122418e-06,5.252946967277735e-07,8.668247179337182e-08,1.8527134483846929e-06
-4.2442870812853653e-07,1.0866571018117115e-06,4.816196368310959e-07,-1.583288727148483e-08,6.465802630952236e-07,2.057286825842019e-06,-4.540849012235789e-07,9.250639552660376e-07,2.197250536041929e-07,5.250177440890837e-07,1.3917948960362001e-06,2.089527929362314e-06,4.273220117594592e-07,9.015590323276129e-07,1.1471244059921296e-06,6.351040079898291e-07,1.0812586120664869e-07,1.8738508497118036e-06
-4.038401450369348e-07,1.1350899684755702e-06,5.117998434471498e-07,-3.791219995514052e-09,6.037836356734962e-07,2.0662984458690585e-06,-4.1062797891944907e-07,9.559663256981652e-07,2.3865250736971095e-07,5.390567557732469e-07,1.4126490040964738e-06,2.133238816232458e-06,4.3278879384780895e-07,8.976253197482015e-07,1.1777121821394111e-06,7.436587309582903e-07,1.2615859956638405e-07,1.8900055484566006e-06
-3.847725448757053e-07,1.1808773454167526e-06,5.327723663497979e-07,5.166694238376599e-09,5.516675278268149e-07,2.0705415153126245e-06,-3.7557269477073476e-07,9.856826877210933e-07,2.5749480940734957e-07,5.516301037143562e-07,1.4362747666812274e-06,2.169173387642039e-06,4.318903761595941e-07,8.922385703643805e-07,1.2057412208496528e-06,8.497959960222989e-07,1.401458158621059e-07,1.8997874292119683e-06
-3.689493674218462e-07,1.223136758740109e-06,5.469675180744485e-07,1.17047356657369e-08,4.920017498945144e-07,2.068589099276733e-06,-3.481983580156507e-07,1.013854091647474e-06,2.755994561844906e-07,5.620770411232173e-07,1.4630733100544938e-06,2.1920034602735885e-06,4.195472088307394e-07,8.861904329515156e-07,1.2317943582046862e-06,9.535204516841853e-07,1.5050794007221155e-07,1.9038245561254088e-06
-3.565777937304295e-07,1.2619606813821763e-06,5.593000964999175e-07,1.85418525673154e-08,4.286829117679734e-07,2.0596456356979587e-06,-3.250977971144043e-07,1.0414864817885585e-06,2.933013383396387e-07,5.699124043953349e-07,1.493819323136553e-06,2.1979839140542337e-06,3.9268502039445694e-07,8.804863666053943e-07,1.2570556821379458e-06,1.0545488037576874e-06,1.585457443775506e-07,1.9049441343002304e-06
-3.4665753918396113e-07,1.2977649346333589e-06,5.746115647980274e-07,2.90949473341257e-08,3.6502938552863223e-07,2.0451685341646657e-06,-3.022964260917774e-07,1.0697823859860707e-06,3.113119162647391e-07,5.768736932351938e-07,1.5285959916896663e-06,2.185351703136237e-06,3.5048617346952825e-07,8.746999261224366e-07,1.281967218387742e-06,1.151024778878061e-06,1.6530852197181585e-07,1.9071172834891385e-06
-3.379533294703251e-07,1.3280661198540985e-06,5.952787785411179e-07,4.544290419717904e-08,3.0459772283181527e-07,2.0268514610023353e-06,-2.773961024144593e-07,1.098943653508504e-06,3.291693869225583e-07,5.8334619325539e-07,1.5652809690908248e-06,2.154988473869721e-06,2.9516391167538246e-07,8.665523229109165e-07,1.3060173899043088e-06,1.2367142628374748e-06,1.7102024578543152e-07,1.914347821597322e-06
-3.293285776463336e-07,1.3546098936409222e-06,6.211973397413516e-07,6.744819385793211e-08,2.5107556752325853e-07,2.006855711673376e-06,-2.498496527848055e-07,1.1283513330900862e-06,3.457237241637932e-07,5.87970533392892e-07,1.6004884810457506e-06,2.1111641236102315e-06,2.322313391106397e-07,8.530923368179347e-07,1.3279431039819153e-06,1.3069783622468822e-06,1.7510503078799396e-07,1.9289646527501482e-06
-3.1971724816577735e-07,1.3787221247461768e-06,6.502193145211623e-07,9.272574711704705e-08,2.0703942145914514e-07,1.987796893818938e-06,-2.208773626131714e-07,1.1568290056919592e-06,3.595203137277072e-07,5.916678751693127e-07,1.6312041743521114e-06,2.060134675792739e-06,1.6934764193240946e-07,8.315828783274602e-07,1.3454489988896408e-06,1.35909884212839e-06,1.7603158588482036e-07,1.950049603228731e-06
-3.0843286479721796e-07,1.3997716054849193e-06,6.779773264330582e-07,1.1696827272296467e-07,1.7342944358030376e-07,1.9714791000380704e-06,-1.938510881317838e-07,1.1824335771806184e-06,3.6836524151616955e-07,5.934751307443982e-07,1.6543444244310358e-06,2.0079868590206815e-06,1.1318596673441277e-07,7.999297421789068e-07,1.3553572538260244e-06,1.3916690181729118e-06,1.716320744451325e-07,1.97410959245583e-06
-2.9525385618729223e-07,1.4175890156645156e-06,6.992589342507071e-07,1.354983459769374e-07,1.4881671866895325e-07,1.9575418427818744e-06,-1.7333855701612835e-07,1.2032103598426794e-06,3.704257710661961e-07,5.92443511131787e-07,1.6671671922622119e-06,1.9592533063225347e-06,6.831486219393398e-08,7.577800279428189e-07,1.3555141313609365e-06,1.4067396021935168e-06,1.6051442281664204e-07,1.9973279120805655e-06
-2.7990641440053645e-07,1.4343839938131227e-06,7.108102170225033e-07,1.457918048177513e-07,1.3041522598157605e-07,1.9453107767676723e-06,-1.6274182881236977e-07,1.218715364828002e-06,3.658208233350548e-07,5.892241554782671e-07,1.6711158975927079e-06,1.916092804177298e-06,3.626804871746762e-08,7.074783258967132e-07,1.346419749150779e-06,1.4082460563584335e-06,1.4310645245513373e-07,2.0180635829409516e-06
-2.61979840977709e-07,1.4493443181724056e-06,7.121599604668737e-07,1.4868578993020953e-07,1.1507284544896082e-07,1.9337700471243143e-06,-1.6328447908211308e-07,1.2301555609028997e-06,3.567295366789883e-07,5.844298347747452e-07,1.6698513930733891e-06,1.877385054379616e-06,1.4994935637836785e-08,6.533618647851668e-07,1.3306794063680878e-06,1.4013607325453034e-06,1.2102796913628623e-07,2.037411742448335e-06
-2.4179849390170347e-07,1.4628003563368337e-06,7.041194870487761e-07,1.472862835563262e-07,1.0020139177648982e-07,1.9219180636790135e-06,-1.750813110791801e-07,1.2390575599777996e-06,3.459807162344217e-07,5.778568939431426e-07,1.6678705352267165e-06,1.838931130247537e-06,-1.988703671768953e-09,6.002827598192303e-07,1.3118427071862167e-06,1.389025160404357e-06,9.589929441418385e-08,2.0583629326594273e-06
-2.211062210489987e-07,1.4769191179977536e-06,6.880354798869612e-07,1.4513426146617472e-07,8.342211051328354e-08,1.9094836170113463e-06,-1.9816214522446137e-07,1.2463867736310775e-06,3.3635065551679996e-07,5.689114053523937e-07,1.66384270755687e-06,1.7957384447390893e-06,-2.35859793323349e-08,5.527008186570579e-07,1.2939119665185294e-06,1.3719881769440585e-06,6.883592252274019e-08,2.0849934601301233e-06
-2.0278278421099951e-07,1.491954755258451e-06,6.661793914552263e-07,1.4475337228266085e-07,6.416524202386375e-08,1.8973738856628864e-06,-2.3281224547586011e-07,1.252321095158999e-06,3.3006107862188537e-07,5.56832393158782e-07,1.663890150010434e-06,1.7446945627902362e-06,-5.8252415761240376e-08,5.135734306543359e-07,1.2805630771367777e-06,1.3481542181185374e-06,4.004598277700087e-08,2.1211095502250105e-06
-1.902232972131467e-07,1.5093566980083299e-06,6.412197538072356e-07,1.4632265037398287e-07,4.120639598005167e-08,1.8883473100063926e-06,-2.802093470072311e-07,1.2557475829623723e-06,3.278525379595036e-07,5.396483283510851e-07,1.6754326484464604e-06,1.6853924088855494e-06,-1.1343254801654632e-07,4.827538773770395e-07,1.273817542275245e-06,1.3092448879050797e-06,8.267819103897733e-09,2.1681124729917608e-06
-1.8668151563480706e-07,1.5302246549016997e-06,6.155146263622528e-07,1.470705356456247e-07,1.540775577360611e-08,1.8865400760785555e-06,-3.4253991919191286e-07,1.2544104516461486e-06,3.289347544647297e-07,5.16124489312996e-07,1.697918720628808e-06,1.6204573361185154e-06,-1.9370410253542805e-07,4.5688512491182054e-07,1.2740011211242967e-06,1.2572925128299023e-06,-2.87726733089195e-08,2.2245055752982844e-06
-1.9410029825538397e-07,1.5547215560484054e-06,5.920047996116882e-07,1.424625440094826e-07,-1.3115913219399214e-08,1.898048805907251e-06,-4.214471019666942e-07,1.2466829367804763e-06,3.324861842961905e-07,4.865330416174685e-07,1.7310706809379134e-06,1.5561842891816338e-06,-2.9918439296735425e-07,4.315777052784507e-07,1.2815701517773782e-06,1.18864477681897e-06,-7.28439999859902e-08,2.2858887518280856e-06
-2.1184401721025204e-07,1.5826183634276681e-06,5.746324696382337e-07,1.2826729529303484e-07,-4.6366456496565885e-08,1.929849423891448e-06,-5.165285801508536e-07,1.233119711279303e-06,3.3885677714096567e-07,4.5247013555415255e-07,1.772271924994528e-06,1.501561869819794e-06,-4.2576172341213285e-07,4.0363948284092214e-07,1.297810975948814e-06,1.1056850633474872e-06,-1.2433564810936736e-07,2.3456348612193343e-06
-2.364873432729505e-07,1.6143098245905111e-06,5.659545249313366e-07,1.017121995086815e-07,-8.836493361139725e-08,1.98647514254425e-06,-6.256757407861502e-07,1.2159498169804643e-06,3.4879586361865225e-07,4.159696069707693e-07,1.8170105095109561e-06,1.4649822452815434e-06,-5.675043863701057e-07,3.7187377135401237e-07,1.3235053018295804e-06,1.012280737497991e-06,-1.8248856730697885e-07,2.3952364213708486e-06
-2.6274743794751823e-07,1.6482705224845731e-06,5.645147191257109e-07,6.185691802278528e-08,-1.4473689381307398e-07,2.066473187047319e-06,-7.457147693537042e-07,1.1978431237841984e-06,3.619761631959791e-07,3.774494133847039e-07,1.8614139350099157e-06,1.4516600084734186e-06,-7.176507533413641e-07,3.3742187785220884e-07,1.3577347683393452e-06,9.214800573145527e-07,-2.454493918541212e-07,2.425856229687121e-06
-2.848783304182125e-07,1.6813999001786703e-06,5.651712809721782e-07,1.0071592301527144e-08,-2.1968482154949847e-07,2.1610918577610383e-06,-8.718109378864251e-07,1.181540826178665e-06,3.7681019328621885e-07,3.3705728184449435e-07,1.9034129396092804e-06,1.4619841221527314e-06,-8.685258926183687e-07,3.037386606806397e-07,1.3978066036064895e-06,8.491078205974781e-07,-3.1003034483118174e-07,2.4314770329617827e-06
-2.984893043534046e-07,1.7087740451763728e-06,5.610302247061291e-07,-5.0104616268004845e-08,-3.115459576325462e-07,2.2565861231199135e-06,-9.97384569284251e-07,1.1693144484437812e-06,3.9018853487395754e-07,2.954327747169735e-07,1.94472648572651e-06,1.4904247028072495e-06,-1.0127450556638203e-06,2.74759126612191e-07,1.4390086770796026e-06,8.057112108906885e-07,-3.724043081455756e-07,2.4110268094521128e-06
-3.0249792384849185e-07,1.7251853279703354e-06,5.449841579771261e-07,-1.1441301116766498e-07,-4.178691237941547e-07,2.3374675414117338e-06,-1.1158811337178694e-06,1.1616224013167635e-06,3.971429172565055e-07,2.5243672552481784e-07,1.976095886878595e-06,1.5261949861615232e-06,-1.1437785547144993e-06,2.521453442074923e-07,1.4749154555793247e-06,7.911877611830538e-07,-4.2954344186949775e-07,2.368521008223061e-06
-2.99565844096003e-07,1.727004482267421e-06,5.120763762237325e-07,-1.7921478252486996e-07,-5.30971872024354e-07,2.3907019214487224e-06,-1.2222905303458165e-06,1.1569808083550694e-06,3.9246266227342094e-07,2.0855854464715315e-07,1.9927522322693935e-06,1.555782378409444e-06,-1.2570239087367907e-06,2.346328852273808e-07,1.4997160482251524e-06,7.920240689945962e-07,-4.79935694699958e-07,2.3118756264257943e-06
-2.9405046335528374e-07,1.7132857543135536e-06,4.626671364918133e-07,-2.414977004220046e-07,-6.391342254041945e-07,2.4106715418190686e-06,-1.3129200851725445e-06,1.153916752113266e-06,3.73860929300412e-07,1.654708753383855e-07,1.9936546798144634e-06,1.5679771070297121e-06,-1.3483911677076072e-06,2.1987794219467137e-07,1.5108960937446617e-06,7.96148144642135e-07,-5.23485339366274e-07,2.2507342238608113e-06
-2.891662562675907e-07,1.686138524771505e-06,4.0272595311339007e-07,-2.986950422388293e-07,-7.349971138583986e-07,2.4001476895132297e-06,-1.3853971417397166e-06,1.1524445948675036e-06,3.4348348948442376e-07,1.2549544998149372e-07,1.9778529142804647e-06,1.55901806775186e-06,-1.4146578608159341e-06,2.0621109185957317e-07,1.5095825122771475e-06,7.954901149354548e-07,-5.615105323023169e-07,2.192638425265011e-06
-2.8566387208946176e-07,1.6509580315792745e-06,3.4013254504105975e-07,-3.49338486134182e-07,-8.134825308989072e-07,2.366827776360723e-06,-1.4400430760722004e-06,1.1533638466984009e-06,3.0623446219939626e-07,9.028771702768302e-08,1.94951593683404e-06,1.531032691346088e-06,-1.454975941878476e-06,1.9314036918323259e-07,1.4988088821061154e-06,7.895516142301168e-07,-5.96494166077655e-07,2.1402711939927862e-06
-2.8226764388931786e-07,1.6125380831987074e-06,2.812266563169145e-07,-3.933783584374284e-07,-8.738734057304787e-07,2.320934988221673e-06,-1.480282631566446e-06,1.1572077676857198e-06,2.670922849226604e-07,5.993165706324648e-08,1.914725816413061e-06,1.4898574658147429e-06,-1.4725531741593246e-06,1.8169240617704463e-07,1.4821200213520534e-06,7.81693697177615e-07,-6.30886250788466e-07,2.0920922375502347e-06
-2.7692641199679963e-07,1.5737678060435508e-06,2.3026127623772786e-07,-4.3136486195413415e-07,-9.206153073632656e-07,2.2717158132192908e-06,-1.5108334928902962e-06,1.1642817156894982e-06,2.305524671005456e-07,3.2703785710386774e-08,1.8794775734435825e-06,1.4429697308074916e-06,-1.4737777414479047e-06,1.7441049979873555e-07,1.4620784484663506e-06,7.77541933567258e-07,-6.659796864684976e-07,2.04482416325726e-06
-2.6848373815939036e-07,1.5380577245612638e-06,1.9011939211342986e-07,-4.638132700162561e-07,-9.59821076032959e-07,2.2255247175543724e-06,-1.5360391446752302e-06,1.1744892088889776e-06,1.9923240075109685e-07,6.9858659380399344e-09,1.8342028273194986e-06,1.3963996512505005e-06,-1.4666056337191704e-06,1.7388574294030352e-07,1.4407267832305737e-06,7.804422562400996e-07,-7.020667929829623e-07,1.995349496222629e-06
-2.573889857544589e-07,1.5044730429932831e-06,1.600765087392468e-07,-4.906671019215747e-07,-9.935689740639629e-07,2.184977739991116e-06,-1.5596911554811751e-06,1.1865067078018572e-06,1.7289251432575839e-07,-2.219535372105938e-08,1.7882376263687634e-06,1.352042407732465e-06,-1.4598744850176334e-06,1.809969037028717e-07,1.4184575510494433e-06,7.922579792694336e-07,-7.389483533630819e-07,1.9418704196253004e-06
-2.490489714107112e-07,1.4711006703670148e-06,1.3748396008180033e-07,-5.15396459508595e-07,-1.0246588088428632e-06,2.1492472042987297e-06,-1.584372063609943e-06,1.1982052079388248e-06,1.499751932725241e-07,-5.57958174927498e-08,1.7439982885279653e-06,1.3089817425920823e-06,-1.4597196550098616e-06,1.9498056093190132e-07,1.395173450996665e-06,8.084902224539851e-07,-7.75531832203612e-07,1.8859307925240783e-06
-2.463641670230208e-07,1.4371372887053118e-06,1.206721180248333e-07,-5.378042864724892e-07,-1.0539416169185822e-06,2.1193936465166706e-06,-1.6097626634481999e-06,1.208507681486668e-06,1.2925079500958843e-07,-9.15520025599963e-08,1.6986152036902665e-06,1.265699469799054e-06,-1.4681966455306649e-06,2.1463105302645897e-07,1.3731525409241443e-06,8.273567018665299e-07,-8.094661220695335e-07,1.8326691700685415e-06
-2.495978714872881e-07,1.4029389721027744e-06,1.091776729895544e-07,-5.559770272232953e-07,-1.0781876080262894e-06,2.0936550310796444e-06,-1.63266067305405e-06,1.2180705420625766e-06,1.1137755140818811e-07,-1.2903750626420157e-07,1.6556453019721092e-06,1.220135016159361e-06,-1.4840861758569105e-06,2.383545887440833e-07,1.35440244372215e-06,8.4480598015248e-07,-8.38133983866773e-07,1.7884097946454004e-06
-2.553580912522513e-07,1.370057548800649e-06,1.0210309545119089e-07,-5.686294899489463e-07,-1.100306817158422e-06,2.0676705987805624e-06,-1.6495668059108565e-06,1.2279369787679586e-06,9.916640904988998e-08,-1.589781999777216e-07,1.6106578066657168e-06,1.1697359807624007e-06,-1.5055530693354093e-06,2.637710328356433e-07,1.3403102010332987e-06,8.569659983231969e-07,-8.600595147863322e-07,1.7581427360793506e-06
-2.613510207514674e-07,1.3413665383061337e-06,9.692915839398385e-08,-5.727284240372148e-07,-1.120400205100258e-06,2.0404377244324006e-06,-1.6588025719858758e-06,1.2383918351156746e-06,9.138950434678834e-08,-1.8958919841218322e-07,1.5618311346130213e-06,1.112052166603542e-06,-1.5307405370545072e-06,2.883923049696975e-07,1.331568373646591e-06,8.560596318413041e-07,-8.752537186651931e-07,1.7430123514286072e-06
-2.64673313277828e-07,1.3242433548519058e-06,9.099533465135925e-08,-5.683882743414071e-07,-1.1383707318568867e-06,2.0101606545043476e-06,-1.6604548973043264e-06,1.2490359701012285e-06,8.76620791941772e-08,-2.2186734322080038e-07,1.5083706758221554e-06,1.0471424207817191e-06,-1.557890919762209e-06,3.1055743644212104e-07,1.3277812232535724e-06,8.49181477283132e-07,-8.849842360693328e-07,1.7405605224424973e-06
-2.6307328218259635e-07,1.3163481210216726e-06,8.28252519925763e-08,-5.567766975980913e-07,-1.156475882101395e-06,1.9752950685886962e-06,-1.6559215599947693e-06,1.2587121507325617e-06,8.679438014987311e-08,-2.443793897380878e-07,1.4497509014160803e-06,9.759004531664677e-07,-1.5901574554871672e-06,3.2906461736156684e-07,1.3270396092516846e-06,8.304026207587806e-07,-8.917988035893451e-07,1.7438436666735538e-06
-2.578593664216877e-07,1.3153239491792568e-06,7.033077007780673e-08,-5.405043201975743e-07,-1.1747570295225995e-06,1.935903022068561e-06,-1.6477868012719653e-06,1.2652512882897224e-06,8.525180143154586e-08,-2.698557795235889e-07,1.3860612921360322e-06,9.015188264888245e-07,-1.624849661943736e-06,3.424605972128274e-07,1.3261625700408383e-06,7.980979381989582e-07,-8.989508199868244e-07,1.7464077807449483e-06
-2.5104571003828797e-07,1.319855072925327e-06,5.479417842134237e-08,-5.233734546942566e-07,-1.1924469532507234e-06,1.8987425525493419e-06,-1.6384613242988478e-06,1.2666061314404959e-06,8.062128963159608e-08,-2.9757998868497496e-07,1.315463442743014e-06,8.303934769175753e-07,-1.6599343748377642e-06,3.497242225022555e-07,1.3232767104059008e-06,7.55617262618408e-07,-9.086991796861809e-07,1.7441814065803114e-06
-2.4608214381965884e-07,1.3254136132714916e-06,4.084151095833481e-08,-5.092859727871339e-07,-1.207226522256634e-06,1.8668225055587123e-06,-1.6281909460511023e-06,1.2626635920179739e-06,7.201349807903607e-08,-3.242777703920437e-07,1.2503739230787398e-06,7.707441458200277e-07,-1.690554959987217e-06,3.511102205055239e-07,1.3180739230087876e-06,7.001326044743974e-07,-9.211317550183457e-07,1.737046684022398e-06
-2.4542873182570307e-07,1.327601555194164e-06,3.418888896676442e-08,-5.00895555138162e-07,-1.2147159319815999e-06,1.846210320928858e-06,-1.6153761693567958e-06,1.2551909506203473e-06,6.155729875556334e-08,-3.50883388462983e-07,1.1896035246720005e-06,7.296175955505085e-07,-1.7084845142509667e-06,3.474767633194885e-07,1.3120866195471443e-06,6.345220044981819e-07,-9.348272691909397e-07,1.7286779346509013e-06
-2.5007285344186907e-07,1.3318175400448838e-06,3.8318457955018534e-08,-4.996508299623797e-07,-1.2117477669074391e-06,1.8439203169485008e-06,-1.5991375107984552e-06,1.246021536981062e-06,5.192065390895894e-08,-3.742596182643292e-07,1.1307105634559584e-06,7.093240074496967e-07,-1.7135743905105998e-06,3.392843183763367e-07,1.3046792723707804e-06,5.655759662302735e-07,-9.481565229459465e-07,1.7229095079988398e-06
-2.5969653718637977e-07,1.3398235020872958e-06,5.170585345934064e-08,-5.056444427005247e-07,-1.1992573240796688e-06,1.858181487776222e-06,-1.580763243620941e-06,1.235989439210245e-06,4.9009606179591995e-08,-3.9136813764804745e-07,1.0582799117766993e-06,7.076138462968997e-07,-1.7040866715435554e-06,3.270179367723985e-07,1.2992009582929447e-06,4.942205481265075e-07,-9.598545390767216e-07,1.7227200400310447e-06
-2.714829512312332e-07,1.349701264112733e-06,6.998411068716133e-08,-5.225965051904942e-07,-1.1830972878301225e-06,1.887215538646705e-06,-1.562935843227828e-06,1.2251291025665128e-06,5.3706911005098523e-08,-3.982361223969826e-07,9.917624293918723e-07,7.187980329405359e-07,-1.684251016971396e-06,3.118156809558421e-07,1.3036273915317656e-06,4.202093194438144e-07,-9.693961867527331e-07,1.7288882312138414e-06
-2.8313908538086063e-07,1.350924609962918e-06,8.795051598080667e-08,-5.494132060401595e-07,-1.1717593172837432e-06,1.92657588554455e-06,-1.5487043132884945e-06,1.2126769580957582e-06,6.451706374689368e-08,-4.0013800056225865e-07,9.524089645515534e-07,7.351233781585367e-07,-1.6617735497741985e-06,2.947077426751666e-07,1.3165261162111288e-06,3.6552715945644296e-07,-9.775549345731152e-07,1.7366627546647828e-06
-2.9987446513306723e-07,1.3474131257235284e-06,1.0190560205512126e-07,-5.921726845886484e-07,-1.1739976799258558e-06,1.96911521884317e-06,-1.5406884564990335e-06,1.1970473196481294e-06,7.854744688968905e-08,-3.941058535402608e-07,9.184715153374003e-07,7.510161274578146e-07,-1.6432572366208877e-06,2.757755393136317e-07,1.3366298690815234e-06,3.3518997314211564e-07,-9.859924172304485e-07,1.7398049344631982e-06
-3.027697074337237e-07,1.3359918853186221e-06,1.109914942201457e-07,-6.264051031497529e-07,-1.1968937307571664e-06,2.007931440510222e-06,-1.5393703222436513e-06,1.176980900670633e-06,8.753248408789439e-08,-3.823964099150487e-07,8.945745035327031e-07,7.633546892419336e-07,-1.6381052107298545e-06,2.5456998899948463e-07,1.3602646697119343e-06,3.123382655701784e-07,-9.956491118209293e-07,1.7363089258926153e-06
-2.938148471003511e-07,1.315169650205001e-06,1.1925219921478775e-07,-6.524953175053271e-07,-1.239446465316961e-06,2.0151863531443392e-06,-1.5415368307600693e-06,1.1528725842207394e-06,9.284159115319446e-08,-3.828056530501546e-07,8.562203945209975e-07,7.72008876492444e-07,-1.6390768224309827e-06,2.30491903797548e-07,1.3749306183157282e-06,2.8814584519080615e-07,-1.0057102705131007e-06,1.717425849528227e-06
-2.7841240912823927e-07,1.291345472067749e-06,1.342196639420705e-07,-6.739118802165248e-07,-1.2991783702975812e-06,1.996230983524615e-06,-1.5410042985108315e-06,1.1265137017519437e-06,9.0297193302093e-08,-3.7144058985468855e-07,7.955876570204969e-07,7.793009053935729e-07,-1.6271741414847277e-06,2.0232520337424973e-07,1.380477320511722e-06,3.2412331364302037e-07,-1.014012589797076e-06,1.6730837835188518e-06
-2.7012078537666383e-07,1.2462037174752474e-06,1.6297222712035866e-07,-6.85738580763131e-07,-1.3615387097161053e-06,1.980285062419049e-06,-1.5313179514285458e-06,1.1000394867264825e-06,7.127428175005476e-08,-3.5843672518353537e-07,6.918198109225345e-07,7.877099646887952e-07,-1.557117289439012e-06,1.6859893608444065e-07,1.3823131922210403e-06,3.9523544862373155e-07,-1.017646061150712e-06,1.5970612025116248e-06
-2.629135807848244e-07,1.1865788978294206e-06,2.1047946209159377e-07,-7.114673271137632e-07,-1.418820890702666e-06,1.9586639313931987e-06,-1.5061393348144063e-06,1.0756905762304582e-06,2.85769393901548e-08,-3.334009471060474e-07,5.514938785840315e-07,8.01710716210828e-07,-1.4058048130435715e-06,1.294993916322393e-07,1.3682875338465833e-06,5.22636043490792e-07,-1.013156383500084e-06,1.4861931441511399e-06
-2.3328864616535534e-07,1.1054056924078855e-06,2.7859073008438524e-07,-7.019507402869997e-07,-1.4506538139592388e-06,1.9264893887426304e-06,-1.461329649382458e-06,1.055698813177279e-06,-4.402839854528282e-08,-2.713327885868793e-07,4.830104930776027e-07,8.218924819313632e-07,-1.157831273386721e-06,8.809277780044802e-08,1.3275045379703396e-06,7.111930677353719e-07,-9.976623019961422e-07,1.3450685244392863e-06
-1.7705516577523559e-07,1.0097918886751376e-06,3.6457375924025906e-07,-6.483907652005691e-07,-1.437562492427955e-06,1.8770685131034945e-06,-1.3971912921466114e-06,1.0413484087669821e-06,-1.3803198053143708e-07,-2.2606830302841726e-07,4.1260649281789165e-07,8.47440033992942e-07,-9.752660794530496e-07,4.95237106975186e-08,1.2332730978441334e-06,8.211702864342585e-07,-9.693005492660018e-07,1.185930833865778e-06
-9.131831033545301e-08,9.081853382488548e-07,4.6188770103286026e-07,-5.205760719481262e-07,-1.3278877552507872e-06,1.795343443652141e-06,-1.3186629578469654e-06,1.0325781604852144e-06,-2.4169525170145766e-07,-1.9403986948943635e-07,3.260369041273535e-07,8.728898634922086e-07,-8.315840168874553e-07,1.9593446723055367e-08,1.0549028541596588e-06,9.635672937845128e-07,-9.280033222443921e-07,1.0237007599101874e-06
1.2882839744592857e-09,8.300627618677351e-07,5.647218300738808e-07,-3.4206239048479467e-07,-1.2166016982324495e-06,1.6758725847471648e-06,-1.2330277313124779e-06,1.0290378567090635e-06,-3.3118232944752595e-07,-1.9959339650588004e-07,2.7257877156822455e-07,8.894849658904753e-07,-4.974290506128288e-07,3.536480541780822e-09,8.430965086214016e-07,1.136398471695812e-06,-8.750292297459653e-07,8.729323688038468e-07
1.1394593582444418e-07,7.831620345847955e-07,6.667125197997703e-07,-2.7053833864872183e-07,-1.1339186259211536e-06,1.569188086948294e-06,-1.1462554931251052e-06,1.0303624354373872e-06,-3.943608277550079e-07,-1.4397133443887726e-07,2.1985063773560977e-07,8.897213544214348e-07,-1.043681603662415e-07,4.305703555177098e-09,6.497372974949964e-07,1.3395469092455208e-06,-8.122343434919368e-07,7.464195864140042e-07
1.4556734573307361e-07,7.12122384626007e-07,7.655068216912278e-07,-2.133025514722595e-07,-9.69851380745009e-07,1.4632565133981092e-06,-1.0592823121655958e-06,1.0371379063106314e-06,-4.3051730649539594e-07,-3.6195687321748e-08,9.804263500126285e-08,8.680137831265316e-07,2.2807715820393465e-07,2.1025849505604343e-08,4.5875131868294865e-07,1.6266411934268657e-06,-7.434128763828655e-07,6.495374477713243e-07
2.719483175265067e-07,6.263435129967701e-07,8.624169229745476e-07,-1.2449729583322236e-07,-7.301696458833433e-07,1.2963480287929752e-06,-9.73095731931429e-07,1.04721293034818e-06,-4.40432851283715e-07,6.618524003227919e-08,-3.315791702429976e-08,8.246334314170982e-07,4.649863902501634e-07,4.945362048378931e-08,2.875428332623865e-07,1.885363776957218e-06,-6.733130602226593e-07,5.799467399187253e-07
4.470569038440262e-07,5.078628441541663e-07,9.588538187372361e-07,2.312237857809372e-08,-5.418440010624116e-07,1.1004072547873537e-06,-8.873903884848599e-07,1.0577176057943825e-06,-4.314999993460354e-07,1.275624190530998e-07,-1.0980798609160317e-07,7.656190469649209e-07,6.278315465053868e-07,8.387948337926351e-08,1.4846964842004216e-07,2.110166016996415e-06,-6.065801834773262e-07,5.31932745284301e-07
6.25820969549957e-07,4.0764784161294356e-07,1.0560555048187515e-06,2.066755016000574e-07,-3.491640027661776e-07,8.943389647762656e-07,-8.016488298705529e-07,1.0669437587845575e-06,-4.103252560028499e-07,1.8677276733738498e-07,-1.7412479018447053e-07,6.986656206045812e-07,7.434395827705661e-07,1.1820015288112352e-07,3.1935409158278564e-08,2.3114013960284984e-06,-5.476011877893258e-07,4.984396780891037e-07
7.358594947984275e-07,3.3019624121734633e-07,1.1466705792551054e-06,3.6052282947503126e-07,-1.2795117059273061e-07,6.960012893806998e-07,-7.192486753367173e-07,1.0723483661458233e-06,-3.836281387483888e-07,2.3341806956017133e-07,-2.5745187085718525e-07,6.332518117174066e-07,8.72246403613959e-07,1.460479115472974e-07,-5.653328195150518e-08,2.4829471598306937e-06,-5.002512052519472e-07,4.761643472606379e-07
8.131715808739228e-07,2.7876667729516564e-07,1.2251649857935194e-06,4.17983278716668e-07,3.993345228094912e-08,5.375946297238236e-07,-6.466616132262263e-07,1.0708492974943733e-06,-3.580279596435663e-07,2.9247705444332364e-07,-2.901821625765172e-07,5.74767606511797e-07,9.61816481309218e-07,1.6167953344346355e-07,-1.1958845369085852e-07,2.630066357086682e-06,-4.6679923835999955e-07,4.5555673709439463e-07
9.134791233939885e-07,2.402088286456351e-07,1.2842261142369564e-06,5.031915262103152e-07,1.455062179626215e-07,4.210050828841007e-07,-5.925974854093379e-07,1.0612181165678633e-06,-3.422102209898362e-07,3.4828716434663716e-07,-3.8366411501933753e-07,5.245739585305327e-07,9.58877154972718e-07,1.6172673081400759e-07,-1.6122687387721295e-07,2.74276460695874e-06,-4.467587306157522e-07,4.3420472821918355e-07
9.958278541866758e-07,1.5450524582493109e-07,1.3218953898297894e-06,5.906807074302709e-07,1.9730001992401963e-07,3.018281827367487e-07,-5.608874048238894e-07,1.0431088143137954e-06,-3.371242198676125e-07,3.248850549179001e-07,-4.880226354478846e-07,4.833560981717799e-07,9.121066277213928e-07,1.464348884544537e-07,-1.940479444313956e-07,2.7880430397481005e-06,-4.3711184733024486e-07,4.125108846829298e-07
1.0232840683502926e-06,1.2019019238200368e-07,1.3419960390852733e-06,6.660462067572447e-07,2.0578590382870456e-07,1.8258686797224375e-07,-5.507908600428924e-07,1.0167676186033829e-06,-3.404840777469612e-07,2.810161025427518e-07,-5.748848247148024e-07,4.555012892936496e-07,8.967913867360289e-07,1.2016435161231357e-07,-2.1930937883821088e-07,2.7856624106838504e-06,-4.3290047587757393e-07,3.851226315484794e-07
9.826715412780986e-07,5.1594046975656555e-08,1.3500206787349942e-06,7.280107557644182e-07,2.1154012269263045e-07,1.0150389940052309e-07,-5.55408571550023e-07,9.84814051272353e-07,-3.461976985866547e-07,2.415787791459401e-07,-6.751497402550907e-07,4.446268955547358e-07,8.545868823505598e-07,9.126383919413277e-08,-2.3995492843232954e-07,2.768412678020554e-06,-4.281594541306346e-07,3.498263934491469e-07
9.373279568968437e-07,-1.2619952204421291e-08,1.3557282537776225e-06,7.311007592553066e-07,1.8599385000471776e-07,3.58538065472361e-08,-5.628599483517759e-07,9.517119529884092e-07,-3.5068429527142067e-07,1.7740898618918023e-07,-7.521395827636142e-07,4.579676597188166e-07,8.402615778200266e-07,7.042648105259725e-08,-2.563535126801065e-07,2.748194707435999e-06,-4.171720364817046e-07,3.1225422943151294e-07
9.349248512978525e-07,-4.541056155899887e-08,1.3717215636891101e-06,7.274444741523652e-07,1.6564557966014893e-07,-1.816926729211805e-08,-5.6110541072147e-07,9.229427961512063e-07,-3.4834395766673686e-07,1.0016552947586736e-07,-8.162481003187312e-07,4.93577376744406e-07,8.558087336230269e-07,6.749314404316848e-08,-2.671680830883697e-07,2.763303484513075e-06,-3.959876888868486e-07,2.7573422579927153e-07
8.999497838276415e-07,-6.853492096202603e-08,1.4023704634878268e-06,6.998113579005456e-07,1.8556755825027176e-07,-5.978659002714074e-08,-5.411035763364888e-07,9.048814818175808e-07,-3.3279076182438976e-07,3.6245314481856734e-08,-8.571813514865063e-07,5.521452690219222e-07,8.926714801685157e-07,8.878848062343304e-08,-2.719498004786109e-07,2.8034263547024747e-06,-3.635510571743213e-07,2.5926147229580106e-07
8.88239432120809e-07,-6.284430161951284e-08,1.461042528692784e-06,6.522999059097498e-07,2.2492871642088325e-07,-9.980508605651394e-08,-4.990868471771909e-07,9.014692365866919e-07,-3.0101226029562933e-07,-2.1050133105494512e-08,-8.6591394750382e-07,6.28948210193993e-07,9.359884537254234e-07,1.3622245611037075e-07,-2.6899744038321636e-07,2.8558842296184458e-06,-3.2126696464554214e-07,2.679435629713083e-07
8.460375681121208e-07,-6.19412096806945e-08,1.5266633044299228e-06,6.240890653611857e-07,2.807738588352525e-07,-1.333834170501373e-07,-4.3598506334093e-07,9.144039209002782e-07,-2.4955473808550124e-07,-6.250345270771992e-08,-8.549855854483061e-07,7.098402886538482e-07,9.59431537783998e-07,2.0706000896520262e-07,-2.6181842547225465e-07,2.9107511418821656e-06,-2.725823457670837e-07,2.992580515486778e-07
7.797530411907931e-07,-7.182959858400709e-08,1.5937700112116806e-06,6.088508286942007e-07,3.5640605029083873e-07,-1.4665316509398048e-07,-3.5525088112921374e-07,9.451036553624582e-07,-1.826313276613512e-07,-7.72842582665267e-08,-8.265707759627387e-07,7.840066584111945e-07,9.675751715958954e-07,2.940014741570627e-07,-2.4715341818430044e-07,2.955639426986801e-06,-2.2260040949829524e-07,3.509392376419667e-07
7.269843685413646e-07,-8.53302880011018e-08,1.6595940297415212e-06,6.094909589512993e-07,4.4153059315286927e-07,-1.442904766598969e-07,-2.8389401297463553e-07,9.760923195923293e-07,-1.1585110542254684e-07,-8.34031267234405e-08,-7.385483221222999e-07,8.407232900794606e-07,9.622836266658282e-07,3.8665821378598726e-07,-2.2663843590258916e-07,2.9570351601431247e-06,-1.7633196658333097e-07,4.157213888362646e-07
6.811403566181843e-07,-6.845260521673697e-08,1.7119082496848668e-06,6.236264156589274e-07,5.358428884669364e-07,-1.3940700793925895e-07,-2.2723575410234383e-07,1.0029548835121444e-06,-5.55563165299448e-08,-8.809413071935633e-08,-6.214625112229937e-07,8.757944862013667e-07,9.494402758696953e-07,4.7411730682205673e-07,-1.9400865062074418e-07,2.9111023431393247e-06,-1.3741476162789565e-07,4.865930746353953e-07
6.664653241141632e-07,-3.952710818067062e-08,1.7498057848183613e-06,6.442901407072833e-07,6.304357828322023e-07,-1.2857125260775104e-07,-1.8687274672824916e-07,1.023195021118498e-06,-8.592988406952988e-09,-8.877473956109872e-08,-4.881391627404334e-07,8.919462965399521e-07,9.5563050106375e-07,5.470164436943328e-07,-1.674080243859429e-07,2.825464315083087e-06,-1.0799946910645398e-07,5.558254216562466e-07
6.460208687053836e-07,-9.655120475788281e-09,1.7426254312302865e-06,6.648740103035094e-07,7.246743936275769e-07,-1.1304788338838977e-07,-1.6866364290667381e-07,1.0280251288822077e-06,2.236723431939551e-08,-8.939399256054699e-08,-3.6864905686707123e-07,8.971425863406597e-07,9.813506824313393e-07,5.990649654755238e-07,-1.4092953434285658e-07,2.695259428046321e-06,-8.90072760703789e-08,6.176284594819732e-07
6.210616427829742e-07,2.129720783893345e-08,1.698014903621071e-06,6.769089655987209e-07,8.044407287651702e-07,-9.421269217090856e-08,-1.7022757864401965e-07,1.0106807938185769e-06,4.73251867235263e-08,-9.190978552259587e-08,-2.7592326270035974e-07,9.062499510092201e-07,1.0201601906835533e-06,6.283523738176736e-07,-1.176164389481752e-07,2.566568063050899e-06,-8.000955810071457e-08,6.680112575286567e-07
5.990348927560712e-07,3.98128151536066e-08,1.6156197723199849e-06,6.731240116289709e-07,8.620710571588027e-07,-6.967320827076589e-08,-1.934060065155863e-07,9.797600821105257e-07,6.192048117621291e-08,-8.752802278810954e-08,-2.0196033590195026e-07,9.192341579876469e-07,1.0732196216162483e-06,6.36934195894931e-07,-1.197709174461448e-07,2.426052031475048e-06,-7.971533973622829e-08,7.086923324043274e-07
5.998153467707211e-07,5.698670104533096e-08,1.5432131657595816e-06,6.476158873448959e-07,8.975914649207795e-07,-4.247478336711268e-08,-2.271771060603713e-07,9.268775048228975e-07,5.0993368478404305e-08,-8.502365163140352e-08,-1.5753182981275111e-07,9.313597373533699e-07,1.132021583555923e-06,6.280960214806496e-07,-1.341348865809125e-07,2.2778379602393157e-06,-8.746810410723387e-08,7.242794331220237e-07
6.0901225410806e-07,7.203686154855177e-08,1.5356009758649183e-06,5.990487825866844e-07,9.047567254126086e-07,-1.7068356947847443e-08,-2.9959825767447686e-07,8.445111422178612e-07,1.8314852356199246e-08,-8.677857837590832e-08,-1.2339150891958456e-07,9.373747183815535e-07,1.1899588658635478e-06,6.040099033127001e-07,-1.6561114734034985e-07,2.1363035365650983e-06,-1.0386353151660839e-07,6.95875349566522e-07
6.150066993332538e-07,7.899289858927508e-08,1.5625212858212705e-06,5.292749344167284e-07,8.89431006112571e-07,2.0735869081087373e-09,-3.589751118489865e-07,7.865721292825164e-07,-9.972004697331004e-09,-9.109139929714974e-08,-1.4053022050872365e-07,9.04408496178508e-07,1.2332554574639934e-06,5.658990258408452e-07,-2.285443826941115e-07,2.0712537501031323e-06,-1.3148691920261384e-07,6.627141054527584e-07
6.149371342100949e-07,5.6390640142567116e-08,1.613036550543356e-06,4.4340854344246273e-07,8.617336792796304e-07,1.0704724515063947e-08,-4.1076435294552786e-07,7.414344728895274e-07,-4.1325407815513576e-08,-1.0674124811767976e-07,-2.0495922887754314e-07,8.395882041119246e-07,1.25302956861809e-06,5.150515248187782e-07,-3.0174541048422934e-07,2.0458736316334044e-06,-1.69173077774167e-07,6.364020804558851e-07
5.940590480462565e-07,1.1654360639027664e-08,1.6788495536193456e-06,3.4919402947782137e-07,8.172811355191391e-07,4.599640377490284e-09,-4.7338573291844503e-07,7.069000804299735e-07,-4.986154970038203e-08,-1.337442676314053e-07,-2.6388616294840767e-07,7.360967883568821e-07,1.2439555762157885e-06,4.528728614659296e-07,-3.797448442744218e-07,2.0375985276823977e-06,-2.1819802235623094e-07,6.168146700832536e-07
5.624477841938871e-07,-4.453159424408991e-08,1.6717835800930743e-06,2.542650620168301e-07,7.551247039643461e-07,-2.024137696188298e-08,-4.999081295334372e-07,6.865529863852856e-07,-3.912450675796198e-08,-1.7734720242478564e-07,-3.081864273086661e-07,5.976734257772172e-07,1.2108771878800753e-06,3.8042825886335443e-07,-4.694914247239379e-07,2.0425754229480524e-06,-2.8029919448392287e-07,6.14719607261005e-07
5.179964984468541e-07,-1.1428483480434646e-07,1.6354596472848338e-06,1.6458113736816015e-07,6.854709383787382e-07,-6.626364990475492e-08,-5.530067259119876e-07,6.276090116261649e-07,-6.69883391719604e-08,-2.4609671507322865e-07,-3.451552024904272e-07,4.2472448241028017e-07,1.115795845850363e-06,3.032214200024532e-07,-5.542361906807534e-07,2.032165222698343e-06,-3.5385314869381024e-07,6.019365790685875e-07
4.583199955442253e-07,-1.8734105238529743e-07,1.5692845266743078e-06,8.479124278913413e-08,6.108660546046972e-07,-1.3134090130064476e-07,-6.293019113423244e-07,5.236098867485656e-07,-1.105512076742898e-07,-3.318985354935609e-07,-3.64794170159669e-07,2.1820470276964504e-07,9.874367823120527e-07,2.291040534598048e-07,-6.035457826616553e-07,2.0270445737097624e-06,-4.3420093592376917e-07,5.866172430055887e-07
3.8396462354981596e-07,-2.464852243867351e-07,1.4229101032367062e-06,1.876090027643325e-08,5.323389308517301e-07,-2.0716608308490277e-07,-7.321273546639318e-07,4.107448855360209e-07,-1.7019135660426853e-07,-4.237006484827867e-07,-3.648680228603599e-07,1.1546643224936322e-08,8.789928623363454e-07,1.6705940885297908e-07,-6.01017706736273e-07,2.0415413025945603e-06,-5.132164875911339e-07,6.13843816944889e-07
3.0777956041671465e-07,-2.938351172814096e-07,1.316926144579574e-06,-3.0700046498723416e-08,4.689766054303757e-07,-2.8337896947581055e-07,-8.760136936054965e-07,3.3097922177759276e-07,-2.0693574358790001e-07,-5.116023223022371e-07,-3.53975395884783e-07,-1.773453406302513e-07,7.707916127136296e-07,1.2483766912455994e-07,-5.268915759354451e-07,2.0858366088436146e-06,-5.824816077360268e-07,7.091143443762864e-07
2.4299525463853625e-07,-3.2771942645053556e-07,1.2386774696994974e-06,-6.173052430696678e-08,4.276730310846876e-07,-3.5036733604830666e-07,-1.02394248676061e-06,2.9524591299982164e-07,-1.982224517489531e-07,-5.8422045780211e-07,-3.195318283823457e-07,-2.8699442014867927e-07,7.144282407611334e-07,1.0545151212764865e-07,-3.704787843987392e-07,2.0623542839353347e-06,-6.208432923684856e-07,8.045934215241008e-07
1.993655110196161e-07,-3.4462854832436413e-07,1.1716357031140044e-06,-7.252878541850448e-08,4.0942144942664307e-07,-4.00411739333426e-07,-1.1636473373629283e-06,2.935907395763448e-07,-1.8613335781633524e-07,-6.349346065465154e-07,-2.472901695414497e-07,-3.2973258883806715e-07,7.062585218205083e-07,1.1060899123135294e-07,-2.390630051532844e-07,2.0112634856218638e-06,-6.413306422765034e-07,9.357644890047821e-07
1.8494766442224624e-07,-3.5267579083427566e-07,1.1406369265968866e-06,-6.132001642170159e-08,4.139877065308317e-07,-4.327463007277757e-07,-1.2861222502263932e-06,2.5773019814786373e-07,-1.82270522027244e-07,-6.635468604885559e-07,-1.8391694532972812e-07,-3.6998695688903325e-07,6.327255133238782e-07,1.3896345564703807e-07,-1.6525996812339796e-07,1.95663732250448e-06,-6.422468697808977e-07,1.0637999935636345e-06
1.9778465550306154e-07,-3.4291198534126427e-07,1.1102983540093916e-06,-2.797326925974282e-08,4.397012137807684e-07,-4.5262126180344914e-07,-1.383164327289748e-06,1.9359403277795306e-07,-2.0794142278813098e-07,-6.773920733373127e-07,-1.3151576958814543e-07,-3.8911894378574626e-07,4.998711622928633e-07,1.9153390144303112e-07,-8.66412226355289e-08,1.87277021976433e-06,-6.204863241105782e-07,1.1492580224413081e-06
2.299686613701909e-07,-2.9907698634568407e-07,1.0385540759484908e-06,2.430180401902513e-08,4.903206739094494e-07,-4.6901178108433604e-07,-1.46522051663161e-06,1.6149322547294984e-07,-2.1987556317111056e-07,-6.845846054223028e-07,-7.896968900034692e-08,-5.272437943749993e-07,2.8997956005873395e-07,2.631573407473918e-07,-1.2215895157400875e-08,1.7436254911145684e-06,-6.098631922446451e-07,1.1340530294273781e-06
2.694199969441715e-07,-2.4381028679145355e-07,9.80855645272465e-07,8.854740993807084e-08,5.631714804685143e-07,-4.908775853014636e-07,-1.5385718299312816e-06,1.3698886624175376e-07,-2.027130283046975e-07,-6.957576955669417e-07,1.2351576933808059e-08,-7.039602254828189e-07,-3.375137990020292e-08,3.290858737296859e-07,7.668254656442077e-08,1.5600682134519945e-06,-5.776644746017587e-07,1.1344423711572525e-06
3.0215972659434006e-07,-1.9400415501133436e-07,9.728284293561762e-07,1.5470203224385082e-07,6.583289922691606e-07,-5.218420523289214e-07,-1.5872630714989194e-06,1.402002712799035e-07,-1.4185845240381253e-07,-7.202478314866748e-07,4.829901647347411e-08,-8.521800742252292e-07,-3.4221222859372883e-07,3.6256502886897006e-07,1.6533095688450832e-07,1.305836551674281e-06,-5.285448832862926e-07,1.159568665555772e-06
3.1629973271417104e-07,-1.1603429740815557e-07,9.353427461054301e-07,2.1152686727705183e-07,7.702850042057634e-07,-5.592456204962569e-07,-1.6257409275577404e-06,1.5624347606821165e-07,-7.843389932573298e-08,-7.598177821873449e-07,7.319821179828765e-08,-1.0559203015484619e-06,-5.375901896478734e-07,3.4522724829399153e-07,2.6115850840529037e-07,9.75007241497605e-07,-4.779038048768777e-07,1.2224338458473067e-06
3.055639043377114e-07,-7.639176824907959e-08,9.630394979749321e-07,2.506383024474458e-07,8.890552812191888e-07,-5.948164457085461e-07,-1.6588299387718612e-06,1.8648682160444507e-07,-2.3357975217183005e-08,-8.165549589894678e-07,7.344355491867163e-08,-1.321637535865922e-06,-8.29195840156666e-07,3.4677875564450157e-07,4.2480501086483494e-07,6.766325002020852e-07,-4.0735553005921846e-07,1.3504624333811106e-06
2.700372638219425e-07,-4.9188979698180494e-08,9.422783055198179e-07,2.7224155618673804e-07,9.937379376056112e-07,-6.175334721753423e-07,-1.6877161575604936e-06,2.2468066584409417e-07,2.5916120941435296e-08,-8.859749749200277e-07,3.262897902640106e-08,-1.4696820520708124e-06,-1.0864326075264324e-06,3.582638578933812e-07,5.551276672189909e-07,4.4691029922630835e-07,-3.497833056415939e-07,1.4210379813783527e-06
2.236197288197877e-07,1.1509139738109621e-08,8.199963138321083e-07,2.8220654834431186e-07,1.0889720571804566e-06,-6.181477957626673e-07,-1.7179784373034768e-06,2.4645900753325165e-07,4.435904917560533e-08,-9.674311143335506e-07,1.331945858256782e-07,-1.592190105344373e-06,-1.2426311475066369e-06,3.678112661364025e-07,6.39385174309667e-07,3.802976577693708e-07,-3.091316266446668e-07,1.452427956907823e-06
1.787928236091049e-07,4.26592343280788e-08,7.855897344097228e-07,2.9476513025263674e-07,1.178386137776378e-06,-5.980676423905004e-07,-1.7443561255978525e-06,2.634634268962588e-07,5.585816063906796e-08,-1.033588173770699e-06,2.465814760403173e-07,-1.6827316049069388e-06,-1.3426977143614212e-06,3.8396937192537927e-07,7.344028531525178e-07,2.982196395405628e-07,-2.804814232460263e-07,1.5088965448849015e-06
1.5239583245563372e-07,5.51489211050249e-08,8.291403067817015e-07,3.248396557279831e-07,1.2574726683256202e-06,-5.661517020059819e-07,-1.7639070750722355e-06,2.7914469452903235e-07,6.325889859694348e-08,-1.0763505221645267e-06,2.793411013210758e-07,-1.7700399442575436e-06,-1.3383077322835177e-06,4.2377921316641186e-07,8.234213851905437e-07,2.2427860755444016e-07,-2.712013139084131e-07,1.5468721659030456e-06
1.9313935044983981e-07,1.3919906862960333e-07,9.08803194898553e-07,3.6326586180833944e-07,1.3379921820145668e-06,-5.34632033067849e-07,-1.7755835416913e-06,2.8985451764004175e-07,5.505406444150977e-08,-1.071665116406522e-06,3.2407701264348335e-07,-1.8840831197254138e-06,-1.3886604547291694e-06,4.7142369157892036e-07,8.787310981933893e-07,1.8671876935134127e-07,-2.7084917471288176e-07,1.6332013862348721e-06
2.4432782406287426e-07,2.1800957431244157e-07,9.559776450708456e-07,4.496411321456437e-07,1.447696164016069e-06,-5.221804601238355e-07,-1.7844532667204398e-06,3.0198246076126444e-07,4.55525275386008e-08,-1.0572221267403108e-06,3.7351731903883587e-07,-1.979404654894755e-06,-1.458458114346676e-06,5.174379695551354e-07,9.752888250670992e-07,2.3470756553892775e-07,-2.7558663590466673e-07,1.7769944206709026e-06
2.8977777034759506e-07,2.824589108258816e-07,1.0105205706282085e-06,5.95598738354366e-07,1.5666611998453475e-06,-5.352683761675662e-07,-1.7910562241117953e-06,3.1286624664108785e-07,3.2141339670540466e-08,-1.060748700754661e-06,4.3269002242307487e-07,-2.0510213338286944e-06,-1.556564193441513e-06,5.407418891216245e-07,1.0700296055600445e-06,2.6683055888580337e-07,-2.8542616081218106e-07,1.853377052723916e-06
4.2126461036792586e-07,3.590002174631241e-07,1.0441135958569398e-06,7.442560959211564e-07,1.6890843808831019e-06,-5.712404478514121e-07,-1.7980565398415041e-06,3.1946846293594575e-07,1.368807030242756e-08,-1.054076322313071e-06,5.181782643343406e-07,-2.0710143509365803e-06,-1.6452828908941916e-06,5.570419508446606e-07,1.1143945835182137e-06,2.618504828960117e-07,-2.987925363176233e-07,1.8933181092321689e-06
5.565700763090003e-07,4.0031098498110496e-07,1.0504001928033648e-06,8.816422859133514e-07,1.8229368085961008e-06,-6.220919730655078e-07,-1.8086837001031477e-06,3.2248415913376176e-07,-6.350636036647196e-09,-1.0140007484498392e-06,6.082181342801634e-07,-2.0607626954806435e-06,-1.6413839174214212e-06,5.659291107324131e-07,1.113835623439766e-06,2.2896051650274441e-07,-3.1576560471101043e-07,1.912264951196467e-06
6.495358785124331e-07,4.4060479479314385e-07,1.0428118713199893e-06,1.0105625315549686e-06,1.9540381582544893e-06,-6.732275196458734e-07,-1.8220163992349783e-06,3.217208789774958e-07,-2.5389478248293782e-08,-9.810589155847335e-07,6.120359457918259e-07,-2.0591490597426028e-06,-1.5871829601744812e-06,5.634711400981202e-07,1.0938159013632124e-06,1.6706731335795694e-07,-3.377081317644093e-07,1.926863431508892e-06
6.469456441706726e-07,4.847822448089214e-07,1.0641976622432883e-06,1.1199166407027348e-06,2.059193483018255e-06,-7.146950458057952e-07,-1.8379083180099364e-06,3.169428683318961e-07,-4.952610763033505e-08,-9.511870806608203e-07,5.82425812602903e-07,-2.070643408317159e-06,-1.5461224519633445e-06,5.519007036467919e-07,1.0526110237297597e-06,8.457656388483021e-08,-3.660953525214059e-07,1.940426996120028e-06
6.361533057969302e-07,5.238737111450616e-07,1.0937195560611653e-06,1.1991794000067872e-06,2.1381605217700118e-06,-7.417901925904089e-07,-1.855906109719382e-06,3.084086195195602e-07,-7.948385512671528e-08,-9.26884503495261e-07,6.07333869774524e-07,-2.1048326549415947e-06,-1.5026560011535478e-06,5.319793277756369e-07,1.009437188058003e-06,-1.3406916148244367e-08,-4.0150430765440717e-07,1.9582981945867596e-06
6.506266678393161e-07,5.128716743783583e-07,1.1228328740855909e-06,1.2514291620116625e-06,2.188608871804786e-06,-7.530289464759849e-07,-1.8749943285049274e-06,2.97141560743528e-07,-1.1062172426376982e-07,-9.258034393598184e-07,6.789514055215144e-07,-2.1557847231144434e-06,-1.5304586101454686e-06,5.042404080089662e-07,9.86941917740686e-07,-1.2842260727654547e-07,-4.4219233667798446e-07,1.983274915535265e-06
5.948863371661319e-07,5.114726031427806e-07,1.1531439409685722e-06,1.2823445327800586e-06,2.1725781416007653e-06,-7.479838061145826e-07,-1.8957735287845505e-06,2.842795072388372e-07,-1.4353364849260735e-07,-9.341275427139157e-07,7.192386333682805e-07,-2.1798122131254172e-06,-1.5932513506969624e-06,4.6848380673268145e-07,9.552301198626864e-07,-2.580867627116865e-07,-4.864872829366914e-07,2.010025497132949e-06
4.917511210511575e-07,5.042537767559827e-07,1.1724147705800011e-06,1.2984110329752074e-06,2.12157708840803e-06,-7.296906142137628e-07,-1.9205626649954526e-06,2.700569257127298e-07,-1.7588943336231702e-07,-9.501292012831244e-07,7.593709685606056e-07,-2.1814746232577743e-06,-1.6384214093003224e-06,4.2414147928991355e-07,9.11262559226044e-07,-3.786121952249573e-07,-5.324033529992392e-07,2.00391258903049e-06
4.016991547007e-07,4.7277593038292357e-07,1.187127853237667e-06,1.3052121437359405e-06,2.0691199225487303e-06,-7.021406280787394e-07,-1.951533123220516e-06,2.5431162675902387e-07,-2.0649140475686113e-07,-9.664269999967748e-07,7.737206670418584e-07,-2.1717686648145246e-06,-1.6553753756787394e-06,3.719151728662934e-07,8.628705507599913e-07,-4.988125586744281e-07,-5.774577102354028e-07,1.9840406269058325e-06
3.3477721985811786e-07,4.720973482713454e-07,1.1969794827605014e-06,1.306906580553806e-06,2.0083284943303396e-06,-6.68386115804493e-07,-1.9841899857093384e-06,2.374382793326061e-07,-2.3492309137401661e-07,-9.709135473565196e-07,7.475917945668395e-07,-2.1969340354743215e-06,-1.6325436404903026e-06,3.1436914320509674e-07,7.961502884644226e-07,-6.174678002150382e-07,-6.192523520714887e-07,1.964070106590931e-06
2.80370423203592e-07,4.792308218252352e-07,1.1980318034377463e-06,1.3056415205657372e-06,1.9871091694580374e-06,-6.33159023372426e-07,-2.0179772730308685e-06,2.1991574079551797e-07,-2.6054476002959293e-07,-9.660980563313441e-07,7.169242757642083e-07,-2.235286896249359e-06,-1.615655242555262e-06,2.5445405442687045e-07,7.233037885514762e-07,-7.323285782471846e-07,-6.563902716402935e-07,1.9413383860957622e-06
2.405103448609769e-07,4.5925641118303424e-07,1.1950419322149306e-06,1.3013963381533053e-06,2.028032181866718e-06,-5.992313497405637e-07,-2.051985207297395e-06,2.013914787847837e-07,-2.834450182841853e-07,-9.52752308677157e-07,6.673116885659772e-07,-2.2759395799601828e-06,-1.6001149526939129e-06,1.9424354323758457e-07,6.643875944681668e-07,-8.446263663744984e-07,-6.863508382248003e-07,1.902117611358223e-06
2.1115813391255422e-07,4.228651625846316e-07,1.194924211685733e-06,1.293479893687531e-06,2.0570630473031104e-06,-5.707171820114067e-07,-2.083806535281252e-06,1.8120338594085996e-07,-3.046566975523441e-07,-9.333982648683153e-07,5.935313235149305e-07,-2.3303504447925645e-06,-1.6024234632183382e-06,1.3542892304689203e-07,6.106262783769962e-07,-9.45840775418541e-07,-7.11666991603376e-07,1.8584913788316126e-06
1.8849923994726635e-07,3.9162054010022614e-07,1.1896249809151833e-06,1.2811861070901142e-06,2.087742681124613e-06,-5.517782303103118e-07,-2.1117960267850513e-06,1.5944810604069795e-07,-3.238213992566504e-07,-9.127945376734616e-07,5.128392298459203e-07,-2.3681988618165894e-06,-1.5977691043190213e-06,7.98652702856844e-08,5.614451925013534e-07,-1.0307274090897702e-06,-7.350951123566632e-07,1.8162099481684147e-06
1.705901521854647e-07,3.582112107681123e-07,1.17776629483388e-06,1.2673028026291048e-06,2.085743581957051e-06,-5.432025367494662e-07,-2.1332905605017044e-06,1.3670679737340551e-07,-3.3988773722950633e-07,-8.935873592767874e-07,4.6041668554085365e-07,-2.3924656492979436e-06,-1.5884366803335975e-06,2.882733557579281e-08,5.243738974431017e-07,-1.0962887112201712e-06,-7.580846139592189e-07,1.7691286024374302e-06
1.5705945520897453e-07,3.2480926149841544e-07,1.1580005995867034e-06,1.2555991128870142e-06,2.0453223902465525e-06,-5.475402981170412e-07,-2.1475359650038105e-06,1.1324044985109433e-07,-3.523130652132716e-07,-8.778016983375181e-07,4.303534861283508e-07,-2.4129801993291963e-06,-1.583833600986859e-06,-1.7530536151222067e-08,4.904610960058417e-07,-1.1484142331620164e-06,-7.857595792735946e-07,1.7304853494682808e-06
1.483291797062753e-07,2.9389042598349324e-07,1.1259608902388236e-06,1.2484712527528557e-06,2.0315868025749545e-06,-5.627029292792952e-07,-2.1599384556028182e-06,8.954965180363337e-08,-3.6028897286430494e-07,-8.652280823345288e-07,4.1877148497051915e-07,-2.4158277486459597e-06,-1.5864357674273142e-06,-5.937791320189151e-08,4.5740292252019715e-07,-1.1878720310241595e-06,-8.169957202701216e-07,1.6927846848146895e-06
1.452374420395436e-07,2.6138801398733414e-07,1.0839045783920494e-06,1.248674941392563e-06,2.031339158503354e-06,-5.808801224090524e-07,-2.1713744921944664e-06,6.74611308876122e-08,-3.6228451698789046e-07,-8.525123274999481e-07,4.211785229381126e-07,-2.387342357898193e-06,-1.5787620006151613e-06,-9.659286715167065e-08,4.210318017715615e-07,-1.212408807788394e-06,-8.488971100838156e-07,1.6511063609892404e-06
1.4854821497490472e-07,2.3023312942215957e-07,1.0372468434958814e-06,1.2593628495421815e-06,2.0592681263550645e-06,-5.966759872595101e-07,-2.1806537863128635e-06,4.962191006943265e-08,-3.5970977509856924e-07,-8.363515719927877e-07,4.2448045812326497e-07,-2.3370637715967097e-06,-1.55264906401205e-06,-1.2951789062957826e-07,3.8661761381090855e-07,-1.2258688931240282e-06,-8.796189077224169e-07,1.6117696211983076e-06
1.583579482658886e-07,2.0343517857428792e-07,9.919801798050353e-07,1.2795323172756368e-06,2.080340110357836e-06,-6.025016246295463e-07,-2.1885079231861308e-06,3.802370416141082e-08,-3.50436609085435e-07,-8.160252403751687e-07,4.2600366022152724e-07,-2.2693385387659586e-06,-1.5178827424304678e-06,-1.5954349008660623e-07,3.47331403414332e-07,-1.2344706450630717e-06,-9.081018635005407e-07,1.5871608057099206e-06
1.7442817755415657e-07,1.8139530497033504e-07,9.499394968177168e-07,1.3069535738452237e-06,2.0741603656772355e-06,-5.905512430967339e-07,-2.194713421811038e-06,3.439666486205509e-08,-3.340013338426792e-07,-7.924349535249616e-07,4.139877514940775e-07,-2.185197544452643e-06,-1.4687633242603887e-06,-1.882190098856143e-07,3.1036463085879606e-07,-1.2418679911675782e-06,-9.34014820672526e-07,1.5476809051087524e-06
1.973713024400527e-07,1.601253196352058e-07,9.127370958324521e-07,1.3389512994355184e-06,2.051374275445236e-06,-5.55748199831315e-07,-2.1989322480071916e-06,3.94355100921529e-08,-3.1122236989290017e-07,-7.680127177261617e-07,3.956279570484225e-07,-2.0893700694462377e-06,-1.4212998896984182e-06,-2.1646172407685514e-07,2.942624010520061e-07,-1.2500827618648259e-06,-9.574094989942044e-07,1.4887929354578047e-06
2.290047655447976e-07,1.3913434677262305e-07,8.779204056685865e-07,1.3708795471992225e-06,2.0142995490537344e-06,-4.966216775182152e-07,-2.200075308430812e-06,5.2893667920250747e-08,-2.8210318095317646e-07,-7.467222747531534e-07,3.9241766224917883e-07,-1.9814187034668854e-06,-1.3804108811756868e-06,-2.4539726668425116e-07,2.994998251839597e-07,-1.2604678406579196e-06,-9.785197948915785e-07,1.4161583412667875e-06
2.710144226351883e-07,1.2108854743334672e-07,8.393255913269671e-07,1.3970805474647225e-06,1.9911736449310804e-06,-4.174118789274288e-07,-2.1972814793843115e-06,7.24526359430999e-08,-2.494875724905161e-07,-7.393914446971769e-07,3.94049182011595e-07,-1.8629786667969406e-06,-1.3556509849700387e-06,-2.7731761626729155e-07,3.2911302228214685e-07,-1.278774180177568e-06,-9.971083467852154e-07,1.3358136266614227e-06
3.231012615725235e-07,1.0429523514323827e-07,7.902681053893785e-07,1.4105617493565366e-06,1.95348629472525e-06,-3.2816530084388665e-07,-2.1897156315685802e-06,9.371571109172549e-08,-2.1759217165235118e-07,-7.485110667562896e-07,4.0633386479384515e-07,-1.7460313930970009e-06,-1.3601294811956536e-06,-3.1484456343067243e-07,3.8127788793016584e-07,-1.3006793942015685e-06,-1.0133375837809857e-06,1.2484861116184026e-06
3.820767392890903e-07,8.418469434686712e-08,7.257012385652069e-07,1.4042967530371265e-06,1.8977658215286585e-06,-2.3996674087319534e-07,-2.1791994547782536e-06,1.1270628223710069e-07,-1.894536758195823e-07,-7.734390354815285e-07,4.3064338335629084e-07,-1.6429476138696737e-06,-1.4101994864183522e-06,-3.593732291968122e-07,4.4745385907623045e-07,-1.3368389468778384e-06,-1.0272534996366743e-06,1.145887226377713e-06
4.423663787121276e-07,5.885397966443203e-08,6.441619545765355e-07,1.37341934719739e-06,1.8306465316110244e-06,-1.6352234905446366e-07,-2.1652568251319955e-06,1.268607539330342e-07,-1.6578696621191034e-07,-8.101060538701731e-07,4.496307240735419e-07,-1.5633806299765691e-06,-1.4869560326849605e-06,-4.1076775399385284e-07,5.17517422963785e-07,-1.3818023906912632e-06,-1.0381610198474622e-06,1.031884382026298e-06
4.978860855664551e-07,2.851558621860292e-08,5.468396964976421e-07,1.3176695089412273e-06,1.7586768725477205e-06,-1.0262013939875175e-07,-2.147063631743319e-06,1.346482970946165e-07,-1.4899153112542663e-07,-8.505114718378039e-07,4.549430068530255e-07,-1.5116312188343027e-06,-1.5414509245410925e-06,-4.67654004318431e-07,5.79138015335395e-07,-1.403538978489875e-06,-1.0464744374952324e-06,9.204556069632419e-07
5.446471319453809e-07,-1.0595039395395568e-08,4.3740267903921383e-07,1.2417343446170948e-06,1.6974877050791716e-06,-6.525608421225584e-08,-2.1250493348428033e-06,1.3554992358861495e-07,-1.3891251488261964e-07,-8.879034138437032e-07,4.3869848102904013e-07,-1.4854653433991346e-06,-1.5793852686170495e-06,-5.267438181545658e-07,6.182805442465138e-07,-1.3981857094862326e-06,-1.052589665566144e-06,8.138069717921451e-07
5.823284914601996e-07,-6.390135687495473e-08,3.215342832693434e-07,1.1558384982775538e-06,1.6458839173152544e-06,-5.8414917510212996e-08,-2.0980500868371242e-06,1.3125055145568954e-07,-1.3294951313860198e-07,-9.15781312987092e-07,3.906444356225496e-07,-1.4853757376542556e-06,-1.5702813452747932e-06,-5.82289706633129e-07,6.267173800023526e-07,-1.3719048039366818e-06,-1.0558845601707038e-06,7.163700085561562e-07
6.134061761183931e-07,-1.2129455392881096e-07,2.0643100173730865e-07,1.0728457108160728e-06,1.6137211017289808e-06,-7.771199586275251e-08,-2.065140955831403e-06,1.2457534545226802e-07,-1.2767380140921154e-07,-9.303700309306959e-07,3.131245196151036e-07,-1.5082849714697078e-06,-1.5113189832423952e-06,-6.277987924517518e-07,6.077402723649516e-07,-1.3315575880763312e-06,-1.0556617238264014e-06,6.472965050474852e-07
6.40676749629875e-07,-1.8003277100841405e-07,9.926786028682495e-08,1.0041862644097596e-06,1.5777677037881822e-06,-1.1774462485106105e-07,-2.0265982061879336e-06,1.1936544533223648e-07,-1.1342616279606282e-07,-9.30452687306351e-07,2.2374696985972837e-07,-1.5425638847377379e-06,-1.4247542019564485e-06,-6.590532205579031e-07,5.709650384223316e-07,-1.2854106683134066e-06,-1.0448827455125485e-06,6.025741170772016e-07
6.65437038284978e-07,-2.2416717049179223e-07,6.405233232796373e-09,9.575126566779805e-07,1.5466767020623464e-06,-1.6126252408298938e-07,-1.982669478225431e-06,1.1909156261333623e-07,-8.776336961845659e-08,-9.205215661763417e-07,1.3562197350781965e-07,-1.5801105821395603e-06,-1.3163398745749749e-06,-6.755442095158584e-07,5.307380029428062e-07,-1.2569952412680478e-06,-1.0271302965867534e-06,5.800176033639444e-07
6.874150895796551e-07,-2.252648362802614e-07,-6.518589339547372e-08,9.359080790825245e-07,1.5214947318955328e-06,-1.915396320225196e-07,-1.934753492742731e-06,1.2708041590632676e-07,-4.84768011722905e-08,-9.050425022013693e-07,6.911771749099292e-08,-1.6076292741158347e-06,-1.2091407914328862e-06,-6.805427191225995e-07,5.01456312798518e-07,-1.2250589492457475e-06,-1.0037426100455928e-06,5.850789409590772e-07
7.055432581098308e-07,-1.7888168617785897e-07,-1.0906917629969755e-07,9.385984274435048e-07,1.4941445345194648e-06,-1.8811463847006506e-07,-1.8836583691698626e-06,1.4663789983841957e-07,7.233586256108363e-10,-8.863684636967438e-07,5.398165662426877e-08,-1.6119311344545192e-06,-1.1179127733482762e-06,-6.789721666828456e-07,4.937436409985275e-07,-1.1861121458818077e-06,-9.74844762478321e-07,6.095510247231092e-07
7.184644776345009e-07,-1.422718146155139e-07,-1.21501267356559e-07,9.625032307330837e-07,1.4713370962218404e-06,-9.86340736715411e-08,-1.8295808153761017e-06,1.7904703928187955e-07,5.841000684895156e-08,-8.654691611253837e-07,8.761236884192279e-08,-1.5839049717288313e-06,-1.0476603063480475e-06,-6.773842848422251e-07,5.215389800392419e-07,-1.15063938167707e-06,-9.428549544280949e-07,6.406822320566971e-07
7.249143131666075e-07,-9.825190075302466e-08,-1.0183144587725631e-07,1.0022257072161595e-06,1.448417439363747e-06,-3.034332377868001e-10,-1.7727960830404105e-06,2.231217449575513e-07,1.2266097115346505e-07,-8.405762008800299e-07,1.6256679649815657e-07,-1.5245450283450692e-06,-9.847940695760286e-07,-6.818165508430135e-07,5.793149053743283e-07,-1.101508720157108e-06,-9.061183916878799e-07,6.830884366122906e-07
7.243415418069408e-07,-4.554445882642468e-08,-5.2645630653204375e-08,1.0515409301707818e-06,1.4243417585611705e-06,1.2250785832053158e-07,-1.7117313401453943e-06,2.7682291555408305e-07,1.8940250806232054e-07,-8.117595702659311e-07,2.538081944179666e-07,-1.4318523590884481e-06,-9.169285905650362e-07,-6.990635618705891e-07,6.57374475364457e-07,-1.0354776784001725e-06,-8.683209852654995e-07,7.304772699233625e-07
7.171866306093647e-07,1.1223968406341727e-08,2.0469255257401502e-08,1.1045868003821041e-06,1.3999779092288814e-06,2.8246324533362057e-07,-1.6429159878909936e-06,3.3769488589597556e-07,2.5692927177734677e-07,-7.755720741443271e-07,3.02369647911258e-07,-1.3098674909295742e-06,-8.304951802140217e-07,-7.304949533459938e-07,7.442933023084174e-07,-9.490942076653614e-07,-8.254253441476494e-07,7.701116855754998e-07
7.042876275804595e-07,9.816044173660048e-08,1.0790960503412695e-07,1.1578510155414318e-06,1.377315555905077e-06,4.932088080949295e-07,-1.5636402316444147e-06,4.0156243983118905e-07,3.1427872206982093e-07,-7.294384148500616e-07,2.7332134778505113e-07,-1.1732697950226175e-06,-7.128119747911413e-07,-7.734910455634972e-07,8.211835823983315e-07,-8.418549856285329e-07,-7.76926603949465e-07,8.046455486218225e-07
6.859655032454795e-07,2.196608433745291e-07,1.9616713505162422e-07,1.1985078098446247e-06,1.378638754754864e-06,6.928847602812833e-07,-1.474365042092531e-06,4.6141666971449357e-07,3.59982878589963e-07,-6.770147102837501e-07,1.784182312329433e-07,-1.0427063250114616e-06,-5.657708369787021e-07,-8.289829206225957e-07,8.807125424712186e-07,-7.220040974820089e-07,-7.232775331368825e-07,8.402359951238642e-07
6.614827914759413e-07,3.2086108314853955e-07,2.710948310721741e-07,1.2201727638397563e-06,1.3895093034604907e-06,8.624422312129137e-07,-1.387555519222391e-06,5.12441687553351e-07,3.941116518326336e-07,-6.23121397301991e-07,1.125579160954909e-07,-9.323436114996457e-07,-3.89310812622885e-07,-8.955419727165145e-07,9.167811594177654e-07,-5.999952978690494e-07,-6.657962708193384e-07,8.773347313251779e-07
6.297223786782715e-07,4.017027953725389e-07,3.212831500497497e-07,1.2129726311758794e-06,1.3955747780108556e-06,1.0048095697914807e-06,-1.3060465103021636e-06,5.517893857202534e-07,4.1634144388240253e-07,-5.649848174246947e-07,1.4372277831415524e-07,-8.572241938691255e-07,-1.9561372696750984e-07,-9.699417054874222e-07,9.257993435924472e-07,-4.825174221483189e-07,-6.093209414467065e-07,9.009054346064912e-07
5.850359132563939e-07,4.5301763010357894e-07,3.388944971514465e-07,1.1118744417171479e-06,1.3822607693013874e-06,1.1106471900549374e-06,-1.2351517841281976e-06,5.789643642757988e-07,4.373884688741061e-07,-5.125114153412355e-07,9.461078633557727e-08,-8.176216135906521e-07,-8.575564395612446e-09,-1.0520066595225833e-06,8.971150707600472e-07,-3.8239170832694855e-07,-5.648733666085006e-07,9.277865058159239e-07
5.242030413989817e-07,4.739395890107537e-07,3.2000757909976044e-07,9.985325602329726e-07,1.3100467960138529e-06,1.178326891744981e-06,-1.1839818231832054e-06,5.941342317444578e-07,4.5477513904000854e-07,-4.7494867359497845e-07,-2.744046362596886e-08,-7.893240502351963e-07,1.681754965389212e-07,-1.1354392866939827e-06,8.519125010897706e-07,-2.9873604122450436e-07,-5.250945900994016e-07,9.601188861896566e-07
4.4672067315402106e-07,4.903361782839348e-07,2.6678769461555035e-07,9.214842152367226e-07,1.2436710605265772e-06,1.2145436721199204e-06,-1.1551756148885753e-06,5.977796319922535e-07,4.667872593626273e-07,-4.54035415898553e-07,-1.0328331039665764e-07,-7.820867337152443e-07,3.121297602220031e-07,-1.1883774865906886e-06,8.053832714723707e-07,-2.2137049535896226e-07,-4.882548969134125e-07,9.994676128215374e-07
3.555264095570802e-07,4.931159387155127e-07,1.8865236460376568e-07,7.824224292633436e-07,1.1134214359227079e-06,1.2229794455799436e-06,-1.1477891807162034e-06,5.921763666788278e-07,4.814593670247791e-07,-4.51560586233258e-07,-1.317698957257265e-07,-7.924204678517544e-07,4.2041425197403755e-07,-1.200556589310585e-06,7.640205476995743e-07,-1.3172007404941063e-07,-4.55216871574718e-07,1.0306752618756452e-06
2.589887613674843e-07,4.960862366814022e-07,1.0025434579839137e-07,6.010560971011999e-07,9.823816579922476e-07,1.2163254971554938e-06,-1.1544212709859974e-06,5.827437690098031e-07,5.055905071282741e-07,-4.6323873894037475e-07,-1.0558901028854605e-07,-7.948540190823144e-07,4.96242929357701e-07,-1.1525722398093855e-06,7.458306145356257e-07,-5.4802790646322505e-08,-4.249003204260717e-07,1.0599770471599347e-06
1.6931813177281264e-07,5.086801666213373e-07,1.7638648912951153e-08,4.477431847100913e-07,8.764656766539247e-07,1.1861120853136841e-06,-1.154508093002051e-06,5.912308851910374e-07,5.399662038310493e-07,-4.812455672800675e-07,-3.6351340898091956e-08,-7.869726129204258e-07,5.420020859136398e-07,-1.118261830656469e-06,7.778847001025755e-07,2.1083154669119692e-08,-3.9400520159282653e-07,1.1050500976811722e-06
9.521976524751036e-08,5.491285948591653e-07,-4.489821838506947e-08,3.711148104256581e-07,8.144158838305242e-07,1.143361459288898e-06,-1.1366253943093405e-06,6.214352986060461e-07,5.840374684419836e-07,-5.042810499288501e-07,7.262798667307529e-08,-7.801369596369778e-07,5.654164917085266e-07,-1.1067677512209684e-06,8.616752906152768e-07,1.024871249508064e-07,-3.666787336399454e-07,1.1628000363963513e-06
4.5424573343041194e-08,6.166856964113502e-07,-7.832555650388213e-08,3.4106804574121225e-07,7.885546591808705e-07,1.1055009056504038e-06,-1.0956247932585443e-06,6.909901487528813e-07,6.680907196737447e-07,-5.233720457760648e-07,1.962473538461017e-07,-7.632805393771823e-07,5.675732425650255e-07,-1.0940252736087697e-06,1.023628142429832e-06,1.9572411392513118e-07,-3.3582468033075576e-07,1.264899583587518e-06
2.732683216355926e-08,7.101121484723614e-07,-8.075610961328755e-08,2.484418913706136e-07,8.05978290086762e-07,1.0803548298990086e-06,-1.0284957457775395e-06,7.994081550026685e-07,7.515564963516674e-07,-5.315650432790853e-07,3.115137353723607e-07,-7.331723522237422e-07,5.656229408864981e-07,-1.0002228549767557e-06,1.253257849558134e-06,3.538231493589873e-07,-2.9078644632090663e-07,1.3737639817740553e-06
4.213892170117268e-08,8.18673187460158e-07,-5.663877309376385e-08,2.5039893130922844e-07,8.657639473547281e-07,1.0830357784944955e-06,-9.395283940848038e-07,8.402266453907935e-07,7.94856436385692e-07,-5.278246267780339e-07,3.058425770830021e-07,-6.925471563893324e-07,5.639967242607077e-07,-8.851679682658569e-07,1.3989333882825357e-06,4.924214689954263e-07,-2.5087359391197087e-07,1.5024378581722608e-06
8.667504884173183e-08,8.895068276130685e-07,-1.5449412701940287e-08,3.1813607879188885e-07,9.565451827789885e-07,1.121078968241195e-06,-8.321736191095823e-07,8.740844602750922e-07,8.176380791453845e-07,-5.094640746492161e-07,2.8546928680265904e-07,-6.356615479545367e-07,5.651684420931544e-07,-7.343892463543422e-07,1.442131686282771e-06,6.104785701861219e-07,-1.981214433228669e-07,1.6892503910844778e-06
1.549173588459888e-07,9.378534466586836e-07,3.140916778279959e-08,3.9783581619565544e-07,1.0568190350758432e-06,1.1943757201026208e-06,-7.124575460137561e-07,9.355881227521092e-07,8.139203327714658e-07,-4.770155702578616e-07,3.2916674582629634e-07,-5.640613730845515e-07,5.618447125086356e-07,-5.686953238174927e-07,1.4927152132553547e-06,6.328937079111961e-07,-1.326731091757626e-07,1.7742624333944002e-06
2.332206893859534e-07,9.559781920404068e-07,7.418879648863505e-08,4.765005617615133e-07,1.1700197422042201e-06,1.306152929906946e-06,-5.872053322319747e-07,1.0392931106347944e-06,8.703044011143279e-07,-4.2781106663766024e-07,3.9060900166363375e-07,-4.855675266699387e-07,5.597610104775869e-07,-4.307669660648264e-07,1.5254983483131747e-06,4.510265714859454e-07,-6.061693528531153e-08,1.8420662536917314e-06
3.027108998766683e-07,9.49624019864024e-07,1.0810433533130238e-07,5.589816522381587e-07,1.2327709484546652e-06,1.454355248126956e-06,-4.633306911512548e-07,1.1627889748595755e-06,9.48137087461003e-07,-3.650074676371584e-07,4.662389629220232e-07,-3.948604971607237e-07,5.442324440305828e-07,-3.6155464939423643e-07,1.5246844597026651e-06,4.220601464169546e-07,6.0868941620225064e-09,1.8852179577834892e-06
3.5176788930594237e-07,9.750081903366234e-07,1.3883163624531235e-07,6.27033701719454e-07,1.2625621451476486e-06,1.6384249814441662e-06,-3.3975205327063364e-07,1.299667545060013e-06,1.0334753507038728e-06,-2.8758900222728703e-07,5.74766182840783e-07,-2.8345539283121634e-07,5.494631750610493e-07,-3.998049603794166e-07,1.5629483018682648e-06,4.734821262636526e-07,8.647928597841884e-08,1.8937605302872506e-06
3.642392530154583e-07,1.0100594075734867e-06,1.7393609902876767e-07,6.827942443806126e-07,1.2926594925035195e-06,1.837947524706199e-06,-2.1542090461010862e-07,1.4359496703374588e-06,1.123123877635475e-06,-2.087918490615345e-07,7.348944692173537e-07,-1.512885716373335e-07,5.887323762749996e-07,-3.848232333116897e-07,1.6222030645373408e-06,5.382118824541897e-07,1.796804906401529e-07,1.9033993849168392e-06
3.611748599563541e-07,1.0731460852878628e-06,2.2373145439768391e-07,7.28016851306905e-07,1.319251205953267e-06,2.0335691452593527e-06,-8.935576773292469e-08,1.533048723558812e-06,1.203474881580809e-06,-1.287627872792053e-07,8.775775669907767e-07,-2.1478904976184242e-08,6.417026758719022e-07,-3.4593239549698317e-07,1.689304274645809e-06,5.904908520845014e-07,2.6010804759722517e-07,1.941655579344283e-06
3.468107607459187e-07,1.1773483517705693e-06,2.9989500603784424e-07,7.714641491097137e-07,1.3545598599475437e-06,2.207523170772814e-06,4.00960545460935e-08,1.6040720440674283e-06,1.2335755547290918e-06,-3.793803174796724e-08,9.853655474007033e-07,1.0763856535472244e-07,7.429662800825216e-07,-3.8199613951374875e-07,1.7789491423877516e-06,5.295129398145802e-07,3.48007994235507e-07,2.097164484201232e-06
3.3128308601988744e-07,1.2870397797787772e-06,4.079425765859431e-07,7.950934269482866e-07,1.3974338605134857e-06,2.3371432937031808e-06,1.8133715632852487e-07,1.6692636845540678e-06,1.3061074487266547e-06,5.352864235765482e-08,1.0699890474443976e-06,2.4474890944298714e-07,8.721690413219604e-07,-4.422299202978988e-07,1.8765058345178793e-06,5.517956697978447e-07,3.900831998989077e-07,2.225365735416702e-06
3.20255122304486e-07,1.3651741059725919e-06,5.553815327890978e-07,7.945349259820708e-07,1.4722828076952305e-06,2.4086638911542374e-06,3.348309056753986e-07,1.7243294575395513e-06,1.3672385820640878e-06,1.202870181121196e-07,1.2159763670311043e-06,4.0544736155841767e-07,9.895364789695707e-07,-5.096067163711137e-07,1.9776682647036106e-06,6.682060193842643e-07,3.885711509599464e-07,2.3100309859569765e-06
3.007100310413701e-07,1.416306798174599e-06,7.367137237139848e-07,8.237794747353837e-07,1.547917300511609e-06,2.375419866657794e-06,4.96470442893784e-07,1.778194880138904e-06,1.4001362769923065e-06,1.3940611999557728e-07,1.3343381661978434e-06,5.84047626610873e-07,1.0968574794158166e-06,-5.114247366307915e-07,2.0733209136262145e-06,7.869326705192876e-07,4.0705145892563377e-07,2.4176190489673514e-06
3.06995532754837e-07,1.452619090552022e-06,9.378849701670835e-07,8.905776673435319e-07,1.636489729952427e-06,2.2806938360903828e-06,6.590177245915711e-07,1.8337836478730832e-06,1.4229722966921916e-06,9.858328021942633e-08,1.4499731109799167e-06,7.207147604356738e-07,1.197619122186428e-06,-4.496887544575428e-07,2.12187578003882e-06,9.324940859267821e-07,4.997119946316108e-07,2.4770591135526337e-06
3.653962224507985e-07,1.4923015873430187e-06,1.1112612642708368e-06,1.0453886278490916e-06,1.6768400203728494e-06,2.129895042323546e-06,8.134942547450727e-07,1.8778120603649452e-06,1.4399698148014608e-06,7.678646978297914e-08,1.5355118023729069e-06,8.213228425725688e-07,1.2633232489230075e-06,-3.773910689524986e-07,2.1460022191743435e-06,1.031420628816222e-06,6.162331469767731e-07,2.5401226138311217e-06
5.142147259343379e-07,1.5585759513198099e-06,1.200833586655635e-06,1.2535286452616673e-06,1.7036340649894819e-06,1.9721004940385756e-06,9.534949609328541e-07,1.8933044627463432e-06,1.4480995061013994e-06,7.753861921726481e-08,1.58452517144913e-06,7.943103884148816e-07,1.2860444319811763e-06,-3.035737896063503e-07,2.1081594684611492e-06,1.0859346564665978e-06,7.025855440855704e-07,2.6159161842181365e-06
6.695528432705428e-07,1.6140306860969525e-06,1.179243587916153e-06,1.4452913577777696e-06,1.7711231098054698e-06,1.871246403401394e-06,1.0751514298556703e-06,1.878162753682492e-06,1.4582848707432581e-06,8.083684754932e-08,1.6237375682654132e-06,7.327249785859486e-07,1.2589467037578142e-06,-1.7829989404939985e-07,2.041274258466057e-06,1.3366093097956793e-06,7.767111767067859e-07,2.7293601322492783e-06
7.84611252315678e-07,1.7034961549247411e-06,1.1625358964428177e-06,1.6266086356765361e-06,1.869168250151414e-06,1.766254870557148e-06,1.1794139078144216e-06,1.8597641207112983e-06,1.4716101183891063e-06,6.924471091025346e-08,1.6581506255794074e-06,6.853358473541961e-07,1.1520159891487407e-06,-5.935269718095786e-08,2.0892599084337384e-06,1.5738852216112693e-06,8.260594714522369e-07,2.8000324675641803e-06
8.850646490394533e-07,1.758921849282321e-06,1.154532720341833e-06,1.771983918679183e-06,1.8658689674760172e-06,1.7603879889575146e-06,1.2520115894886915e-06,1.818987503485598e-06,1.5019455315020888e-06,1.0024291388707551e-07,1.720801495580092e-06,6.938238241014189e-07,9.983354318244114e-07,1.9820783948866434e-08,2.12808828468174e-06,1.7658030751587347e-06,8.489484359264134e-07,2.799798692935251e-06
9.506763356913588e-07,1.799478035398606e-06,1.1518534653816557e-06,1.8768312834772155e-06,1.788456757754677e-06,1.7860550581034881e-06,1.301397211808762e-06,1.8377246881797734e-06,1.5538891088425858e-06,1.6227953657777748e-07,1.8155955772230557e-06,7.055465731192058e-07,9.932299169651714e-07,1.6648148982981962e-07,2.1874848402849e-06,1.940388872195314e-06,8.351973783934302e-07,2.810748702628808e-06
1.020610205111855e-06,1.841344699656644e-06,1.1872533053971769e-06,1.973862462403596e-06,1.7098380937813198e-06,1.741604696031241e-06,1.3381350310017547e-06,1.916646161737293e-06,1.614448839712273e-06,2.1897843744384327e-07,1.9265677163524365e-06,7.132240109589657e-07,1.0794639091779517e-06,3.338511079956939e-07,2.2764331054064954e-06,1.9905033412842363e-06,8.063282544530455e-07,2.817941916318159e-06
1.165425585778327e-06,1.8891221378831648e-06,1.1533900800720254e-06,2.063252672693739e-06,1.7132026066005462e-06,1.670802852560187e-06,1.3655749767501129e-06,1.9878146668159857e-06,1.6646324264622236e-06,2.6744713266033476e-07,2.0448950535131362e-06,7.554987479736646e-07,1.1247575834020643e-06,4.805206259500355e-07,2.3769919064158537e-06,1.9401993329557337e-06,7.882224201825461e-07,2.8913724050866156e-06
1.3096828870807597e-06,1.923088729730735e-06,1.0154751454963766e-06,2.1408808293902695e-06,1.7159734130219921e-06,1.6756240219582834e-06,1.3946776123723799e-06,2.0484881300996567e-06,1.7001614848291492e-06,2.8140354777025716e-07,2.1435165764117905e-06,7.882518792591865e-07,1.0414526607633236e-06,5.916178926223942e-07,2.4178393517581628e-06,1.942151797182985e-06,7.81428951803532e-07,2.977647865749449e-06
1.3704453845444301e-06,1.919621637655704e-06,9.085199262418618e-07,2.180809507586482e-06,1.7654308977396559e-06,1.5521769306952598e-06,1.4177602973286959e-06,2.0657176113576783e-06,1.7283423669861528e-06,2.911730499451214e-07,2.2324247740362186e-06,7.402086581445826e-07,8.548519777883847e-07,5.722724836417093e-07,2.4347755556751157e-06,2.0368791516238103e-06,7.842148958170452e-07,2.9795498449324926e-06
1.4091153389677958e-06,1.9248949623079745e-06,8.227364269173681e-07,2.186365938181329e-06,1.8251644622916798e-06,1.4384624850777528e-06,1.4379079137583321e-06,2.081269841693813e-06,1.7609853106903886e-06,3.0879176896609095e-07,2.315863192833747e-06,6.978789715771926e-07,6.374818466983356e-07,5.236191421145218e-07,2.4217962353454025e-06,2.042523118572841e-06,7.97646298426566e-07,3.0008198396001442e-06
1.408008115894187e-06,1.931309099212046e-06,6.973265550435246e-07,2.1017666735232504e-06,1.952257105043548e-06,1.3559420769682493e-06,1.445458347662584e-06,2.073693911558133e-06,1.7863860825629172e-06,3.0795342915581986e-07,2.390172284019771e-06,7.452014799416637e-07,4.0177431975527485e-07,4.921222606324662e-07,2.4332697536452235e-06,2.122708232034577e-06,8.112289801531188e-07,3.0054308588282157e-06
1.4082244299174099e-06,1.9127729038701063e-06,6.838366758550418e-07,2.003685545995198e-06,2.02573257955691e-06,1.243237452827656e-06,1.4596995363320223e-06,2.0498498002808648e-06,1.8039995830404834e-06,3.268024547012464e-07,2.4576595808981502e-06,8.231488434425983e-07,2.530363443716399e-07,4.949498274757731e-07,2.4367118733018445e-06,2.152058162758161e-06,8.095017913406918e-07,3.0010685616221425e-06
1.423892797476138e-06,1.8926445219874434e-06,7.251005651501946e-07,1.9636131522159273e-06,1.9714898483774524e-06,1.170502248724613e-06,1.4770568550573027e-06,2.0386426318585933e-06,1.831400964619479e-06,3.6561341021597846e-07,2.5123912533173216e-06,8.834774206399642e-07,1.1567209032687943e-07,5.014625334765218e-07,2.4466977807968405e-06,2.0659125085940543e-06,8.06528696615169e-07,3.0184854896442937e-06
1.4759114235742974e-06,1.861957700692384e-06,7.57264708379748e-07,1.952747302101351e-06,1.9121563791019293e-06,1.1546606445356364e-06,1.491273498958751e-06,2.0288444860402474e-06,1.8515525217105861e-06,4.0514346658997334e-07,2.550162710552481e-06,8.523707198513268e-07,-1.973629604012697e-08,5.208426475991339e-07,2.468065420742541e-06,1.9562481996217836e-06,7.995165151168793e-07,3.037555840294664e-06
1.522300615498753e-06,1.8422199994449273e-06,7.109130128995093e-07,1.941468176334037e-06,1.902393598843903e-06,1.0536285531433693e-06,1.4968403128822364e-06,2.018277241831442e-06,1.8544279610090568e-06,4.340406130845554e-07,2.5688339154972653e-06,7.930609036298802e-07,-1.2549858968695883e-07,5.244323345672868e-07,2.469354519845148e-06,1.8707483015780567e-06,7.712207833990349e-07,2.990073451899524e-06
1.5340471393644277e-06,1.8496289970466113e-06,6.490816199201686e-07,1.983229075086683e-06,1.887169508563453e-06,9.570461233400063e-07,1.484282577527093e-06,1.997577180721112e-06,1.8490635919802532e-06,4.217201220723909e-07,2.5728429417126757e-06,7.423915499151838e-07,-2.3180634036655856e-07,4.891760648348248e-07,2.431001476870094e-06,1.7694848987749719e-06,7.30978144297789e-07,2.9969209392383223e-06
1.521743629752969e-06,1.869764476315873e-06,6.124577748017474e-07,1.9779957518598196e-06,1.865519208829642e-06,8.860683636133827e-07,1.4541636098379943e-06,1.9566223407519105e-06,1.825059464696194e-06,3.8898303231221864e-07,2.5580070661041155e-06,7.249615088637836e-07,-3.0659802804975863e-07,4.423626106307235e-07,2.3529159551153175e-06,1.6930719737827142e-06,6.822431206749738e-07,2.9408455894065326e-06
1.474060340949125e-06,1.880247558658936e-06,5.017599330767042e-07,1.9458734573698883e-06,1.833361510814393e-06,8.775623234358027e-07,1.3844622760511942e-06,1.8953701538914456e-06,1.7763664496937088e-06,3.439886548947439e-07,2.528490174798917e-06,7.148081788796888e-07,-3.6928980331171333e-07,3.625644119130326e-07,2.2561816098012527e-06,1.6247873684293962e-06,6.273491986693795e-07,2.808153657686294e-06
1.3697907699662832e-06,1.8850562037249118e-06,3.416943291401053e-07,1.8492821067925377e-06,1.7161105860193965e-06,8.781967061550059e-07,1.29879166560771e-06,1.8280635610185383e-06,1.7102962295244855e-06,3.0559616880945566e-07,2.4921624633738917e-06,6.529937815281639e-07,-4.368911528698368e-07,2.6143744171017225e-07,2.140003276203239e-06,1.5011569476925345e-06,5.759362351455839e-07,2.6509683700233857e-06
1.2566801602032256e-06,1.8811609605576659e-06,1.972361076322158e-07,1.7210813176175059e-06,1.5957500687534525e-06,8.760259370937606e-07,1.2199277548678997e-06,1.7592395621548615e-06,1.6515034863137754e-06,2.794068130051745e-07,2.4538544116014402e-06,5.903394258475717e-07,-5.039578208353393e-07,1.9000679736863593e-07,2.0474896717434876e-06,1.3776265822393573e-06,5.373522186370004e-07,2.5193033042425545e-06
1.1352783666898118e-06,1.8586104987218456e-06,8.72782812869311e-08,1.6507917535626111e-06,1.5397045136563608e-06,8.583625156755724e-07,1.1913388770428254e-06,1.6984464456986179e-06,1.6390567706143125e-06,2.6407723202649406e-07,2.4200253105381787e-06,5.490148940716444e-07,-5.466108960580653e-07,1.4226324684161988e-07,1.9601370101616985e-06,1.256024319505097e-06,5.079429999336127e-07,2.419102475636474e-06
1.041232773395698e-06,1.8280194828253157e-06,1.0049124534656976e-08,1.5643246440541729e-06,1.4935753858672975e-06,7.621221211103705e-07,1.1733544293547745e-06,1.6803584548799858e-06,1.6870216253297913e-06,2.6059356611440223e-07,2.392266969834367e-06,5.234282227468099e-07,-5.33208833948419e-07,1.164282688215244e-07,1.87373672286836e-06,1.1379183173283726e-06,4.883436384040768e-07,2.332883055170276e-06
1.0318091129299736e-06,1.7902764215956718e-06,-2.8296618190854095e-08,1.4833470872384314e-06,1.3778609043214408e-06,6.785525779450244e-07,1.155058356214372e-06,1.6798863608845653e-06,1.722436816049428e-06,2.7431012129541115e-07,2.3684149821891276e-06,4.904538521936489e-07,-4.972125968956511e-07,1.1497399144696301e-07,1.7967451441910283e-06,1.0533389484259343e-06,4.7346600770328694e-07,2.254634372968918e-06
1.0466329702386912e-06,1.7555298190112952e-06,-3.252630706740017e-08,1.3362002178839128e-06,1.2645973217260811e-06,6.160432930375439e-07,1.0553326836606882e-06,1.6605200510318108e-06,1.6982691502491886e-06,3.1155497369957197e-07,2.35024284009905e-06,4.473695672527504e-07,-4.0845748034977443e-07,1.2281234843745032e-07,1.7300487306529374e-06,1.0312517941926323e-06,4.61655596512915e-07,2.176416477382461e-06
1.0622814898034017e-06,1.7374517281887299e-06,-1.192554969744349e-08,1.2462627073142488e-06,1.18994650992481e-06,6.003625778138706e-07,1.0018628078923898e-06,1.6515002593126187e-06,1.6751817651173413e-06,3.643365744320456e-07,2.334564487061736e-06,4.494996986461393e-07,-2.8333549577017446e-07,1.3188221775648847e-07,1.6674275591192093e-06,1.0437832845634073e-06,4.5349297129787004e-07,2.1010027238934077e-06
1.0826449359566332e-06,1.7289473974224267e-06,2.380415426429847e-08,1.2262146725818247e-06,1.130850730725192e-06,6.371565884246194e-07,1.0245696997115007e-06,1.6777217259006958e-06,1.661662016633768e-06,4.183579829408549e-07,2.319443969554482e-06,4.796664438747322e-07,-1.4769708630732631e-07,1.645696934763324e-07,1.6107367286312207e-06,1.072463415323236e-06,4.44480662753681e-07,2.0279959840184316e-06
1.1330678791199065e-06,1.7339067898388807e-06,6.575885825419352e-08,1.1912457935020622e-06,1.144355846444071e-06,6.969898690756523e-07,1.0575321980771835e-06,1.7211717170059558e-06,1.6706584760809203e-06,4.5993425943829837e-07,2.3074956837675678e-06,5.27240073687878e-07,-1.4555356066790647e-08,2.1168040338384199e-07,1.5594109308350062e-06,1.1223540070518615e-06,4.32742720723678e-07,1.9774843090927186e-06
1.167125822791388e-06,1.7602874443670667e-06,1.0624283013773531e-07,1.2178324903305046e-06,1.1855990155454833e-06,7.625990087053384e-07,1.1120697015644204e-06,1.7488817206700197e-06,1.6922904081652038e-06,4.831239907080243e-07,2.3007092524144214e-06,5.750255092413439e-07,9.135749017081282e-08,2.6747355565891506e-07,1.4985397931207983e-06,1.164782252469304e-06,4.2327780937712385e-07,1.9433822614251384e-06
1.1992892702907554e-06,1.7964610398837631e-06,1.3893779292527323e-07,1.2978801755289188e-06,1.2346110751192674e-06,8.26221049311078e-07,1.1841886410195938e-06,1.772307883727937e-06,1.70656421144639e-06,4.852816395520862e-07,2.301043585714727e-06,6.257796735601029e-07,1.5917950221876782e-07,3.29262653921227e-07,1.4364063292315325e-06,1.188169475995353e-06,4.097227879542646e-07,1.916897294428031e-06
1.2303217690588758e-06,1.834796485943606e-06,1.5932431989807544e-07,1.3524101445536912e-06,1.3001810739262963e-06,8.915911128981692e-07,1.2178724946268334e-06,1.7909910740911085e-06,1.6982820484453312e-06,4.692533367446001e-07,2.3081241216895963e-06,6.532664046018542e-07,1.819444573372805e-07,3.838936495380392e-07,1.3714754066527923e-06,1.1872343458985658e-06,3.8061117478975297e-07,1.8940731167504383e-06
1.2445232377884481e-06,1.8709060758234046e-06,1.6508922329488e-07,1.3979338988854054e-06,1.3372801874709803e-06,9.477959121058182e-07,1.2249740551497115e-06,1.7995648950972732e-06,1.6628320497640357e-06,4.456475323440137e-07,2.3179228566802612e-06,6.542509548470027e-07,1.7552173653255462e-07,4.266287517831082e-07,1.2992596515177034e-06,1.1493420871497466e-06,3.4889410974681315e-07,1.8640589337330357e-06
1.2535412110735322e-06,1.89352425029563e-06,1.558036634788664e-07,1.4203849028409623e-06,1.3472704373072635e-06,9.972071118054716e-07,1.2085910323951098e-06,1.7974743156204383e-06,1.6150057920131278e-06,4.1565267320378633e-07,2.3227941204195903e-06,6.522749308306907e-07,1.413084162969282e-07,4.518860040298427e-07,1.2350338743229435e-06,1.0690829276990005e-06,3.1107756192233163e-07,1.825323633072447e-06
1.2531683046994628e-06,1.9022585734689305e-06,1.332950517305147e-07,1.4233708300686104e-06,1.3450468511413542e-06,1.0316243178679028e-06,1.1701952081801603e-06,1.7820745728350855e-06,1.5640856998453072e-06,3.7743267122319785e-07,2.3169275255926728e-06,6.283883685749e-07,9.244903461599142e-08,4.568709512269268e-07,1.1698995631126971e-06,9.548885895840144e-07,2.652255252798637e-07,1.778705286787923e-06
1.2425661177626784e-06,1.8987813195656082e-06,1.0170390771287947e-07,1.4209792525698428e-06,1.326243776555138e-06,1.0506532489807074e-06,1.1190462524842164e-06,1.7545362231944636e-06,1.5385829435318374e-06,3.347080741420269e-07,2.296324604478057e-06,5.904251177001463e-07,3.908663019025998e-08,4.3480583782970197e-07,1.0949489768281997e-06,8.134723220663879e-07,2.163133013195268e-07,1.7217334589270962e-06
1.21544807727639e-06,1.8811192823495086e-06,6.470220977804411e-08,1.4096815987410869e-06,1.2969345181391649e-06,1.0604410991252812e-06,1.0539602271707202e-06,1.7180314797171992e-06,1.4970317213886632e-06,2.869993019292939e-07,2.2590716962846835e-06,5.384463531300061e-07,-1.6067290156582273e-08,3.888153861001198e-07,1.0104271530932975e-06,6.503267225762612e-07,1.613062153659744e-07,1.6472529296797815e-06
1.1760328131490369e-06,1.8504106130327331e-06,2.500120286897742e-08,1.3787322175609852e-06,1.2514075663953894e-06,1.0567647710287898e-06,9.789421196350952e-07,1.6721915474819886e-06,1.436808970746627e-06,2.3006013893146748e-07,2.2068642462634778e-06,4.718405021251109e-07,-6.87463764995964e-08,3.2530229827729016e-07,9.13767890676526e-07,4.784372785809242e-07,9.89760149689275e-08,1.562057730781051e-06
1.1256866070795287e-06,1.8123287858831893e-06,-1.433607703723826e-08,1.331828385930482e-06,1.1920814636181043e-06,1.0461990010346465e-06,8.971410712329034e-07,1.6162195324978868e-06,1.3704893749162009e-06,1.6831019678183902e-07,2.144409577895864e-06,3.956531268780899e-07,-1.1761926034890074e-07,2.513315623023502e-07,8.154707938024471e-07,3.035444735642509e-07,3.355889018348315e-08,1.4723728379492843e-06
1.0652725537896774e-06,1.7737697586060509e-06,-4.966744775338649e-08,1.277072738000723e-06,1.127158351669095e-06,1.0354253178822997e-06,8.140028455052344e-07,1.55546193032811e-06,1.2813903255838908e-06,1.0766946173573262e-07,2.0788355661737137e-06,3.224466479065827e-07,-1.6400604072156146e-07,1.7813616450118067e-07,7.2350524497308e-07,1.332946067834234e-07,-2.8961155061510815e-08,1.3859101691693425e-06
1.0015586400642186e-06,1.7407363073623745e-06,-7.80465795981546e-08,1.220286542152292e-06,1.0625710005841442e-06,1.0321856257551145e-06,7.347478114783848e-07,1.4952335966352764e-06,1.2042107099298917e-06,4.862792833202234e-08,2.01750486236346e-06,2.636029496008923e-07,-1.9605421100453251e-07,1.1397756816651864e-07,6.437886693438346e-07,-2.296813273022954e-08,-8.53895058264996e-08,1.3112220899856158e-06
9.386418217260953e-07,1.718096283303502e-06,-9.851851985723065e-08,1.1702440904116145e-06,1.0042488062677148e-06,1.0416295199630578e-06,6.606852285419457e-07,1.4400000644791312e-06,1.1397665537338532e-06,-4.815379297925289e-09,1.966118079228694e-06,2.157497698919311e-07,-2.191114100371906e-07,6.437422461905539e-08,5.762953112698372e-07,-1.6005156220045179e-07,-1.3273345845837187e-07,1.2530970968766657e-06
8.815939695761488e-07,1.7073694794868727e-06,-1.117426640567254e-07,1.1304316425525353e-06,9.530879470366363e-07,1.0601343351191104e-06,5.952137169277537e-07,1.3936570335696885e-06,1.082644947533835e-06,-4.8357728388019316e-08,1.9281708808076644e-06,1.7938227102283128e-07,-2.3403143338940762e-07,3.23356342043345e-08,5.269630750943536e-07,-2.833643639161087e-07,-1.6953608725880024e-07,1.2121367993153823e-06
8.346953343528575e-07,1.7070007713816172e-06,-1.1934538217244783e-07,1.1041155703182941e-06,9.097780118522506e-07,1.086042364439682e-06,5.397632300978551e-07,1.3573685656523053e-06,1.0410846918995292e-06,-8.187388896445697e-08,1.9049121840599692e-06,1.5335719166587247e-07,-2.39367172711389e-07,1.785571105063282e-08,4.976789686365069e-07,-3.892375047995917e-07,-1.97964847714675e-07,1.2106687473687432e-06
7.990870288365525e-07,1.7167257491927573e-06,-1.230427863300605e-07,1.0916929974197863e-06,8.744598825465065e-07,1.1118374691166036e-06,4.911301186190716e-07,1.3302483775754742e-06,1.0113448359202215e-06,-1.0645566749723229e-07,1.895920332133284e-06,1.3791220612201632e-07,-2.385214374429822e-07,1.910228544220624e-08,4.853855367433156e-07,-4.777435454585324e-07,-2.18999705728556e-07,1.2349386535702537e-06
7.734722800938751e-07,1.7299619423506644e-06,-1.2350075786982727e-07,1.0908403525689174e-06,8.468848863587126e-07,1.1372459971577423e-06,4.520584316524381e-07,1.312151373302907e-06,9.928011035449278e-07,-1.219806157639217e-07,1.9002654000604617e-06,1.2806396479706754e-07,-2.3276886142550492e-07,3.4041359104137035e-08,4.884325679576122e-07,-5.518494166748e-07,-2.3627904084952e-07,1.2739793884817182e-06
7.554942461200539e-07,1.7439946835103526e-06,-1.1988345486540292e-07,1.0991955160602054e-06,8.272733846482183e-07,1.163000243821683e-06,4.224345543938472e-07,1.3011725942822153e-06,9.858709106570643e-07,-1.3033391954485284e-07,1.9168595664503465e-06,1.1696323155075644e-07,-2.239682017532368e-07,6.073890492138669e-08,5.013804022235015e-07,-6.090269061395096e-07,-2.5047831893583947e-07,1.3089652327836158e-06
7.428917709932881e-07,1.7573035558144418e-06,-1.1154450855508263e-07,1.1136385063040272e-06,8.151860183926838e-07,1.1874915250891192e-06,4.007480672561237e-07,1.297898057844469e-06,9.88768289219705e-07,-1.3412984404580708e-07,1.9435080696529045e-06,1.1456566144658058e-07,-2.1431793474551652e-07,9.602849582968869e-08,5.209562494032406e-07,-6.548240978169581e-07,-2.584822715287188e-07,1.3352951050844757e-06
7.336727863218628e-07,1.7652643171378526e-06,-1.0014726204324691e-07,1.130905065359075e-06,8.091476207801453e-07,1.2102607848886264e-06,3.867441782612711e-07,1.3015530072105113e-06,9.973186419099236e-07,-1.3787474237485154e-07,1.9765468836582026e-06,1.1277294007430098e-07,-2.1177101088479453e-07,1.347779383824158e-07,5.448672716288459e-07,-7.005411253412912e-07,-2.666041924688437e-07,1.3593346455064883e-06
