0,1,2,3,4,5,6,7,8,9,10,11,12,13,14,15,16,17
-4.479267015182291e-07,-1.4507873155165713e-07,-4.839708037128007e-07,-8.129667413439073e-07,-5.738640354039955e-07,-7.082197903634043e-07,-3.030855743243673e-07,-5.892136928988361e-07,-6.094478299112543e-07,-2.982009836731576e-07,-4.0784422562789415e-07,-6.935839705890948e-07,-2.0288005135141253e-07,-1.9671659012173494e-07,-4.0042567543943797e-07,-3.717017681660245e-07,-3.4993768700789567e-07,-3.781426086870712e-07
-4.098518627420514e-07,-1.6683181746324485e-07,-3.8996723061424193e-07,-6.679186750324145e-07,-4.7652442732081463e-07,-7.122331297092238e-07,-3.638542321331712e-07,-5.331091863803804e-07,-5.972088151719443e-07,-2.6677493020829466e-07,-3.75372451712449e-07,-6.103602332308995e-07,-1.5197097908550857e-07,-1.8452398641051554e-07,-3.8111624986627914e-07,-3.416627034634359e-07,-2.6260667600818007e-07,-2.976373237181587e-07
-3.269954700337827e-07,-1.9651613288792266e-07,-3.0052731913308944e-07,-5.054709907685191e-07,-3.520944867362369e-07,-6.870649776990066e-07,-4.229402375272287e-07,-4.6167131039416055e-07,-5.804217063112957e-07,-2.2412945476521757e-07,-3.318452547579635e-07,-4.937809384652122e-07,-1.0220817829326776e-07,-1.8124645157254928e-07,-3.6526393750354665e-07,-3.1767625836492673e-07,-1.7059736109731367e-07,-2.1394955119348148e-07
-2.2965308216840895e-07,-2.1429346392755043e-07,-2.0202352428665483e-07,-3.2084694005429606e-07,-2.1811305510762454e-07,-6.314196257361802e-07,-4.514415790442432e-07,-3.8352722891955924e-07,-5.473324604110549e-07,-1.7043722466871517e-07,-2.7237337743422e-07,-3.471883423559774e-07,-5.392586253078518e-08,-1.7867796891194108e-07,-3.413331846169446e-07,-2.910465292992881e-07,-7.94396736873098e-08,-1.320904824460067e-07
-1.2754419897205742e-07,-2.0650691182638915e-07,-8.55679236740978e-08,-1.3698908811187393e-07,-9.386740124607459e-08,-5.472829707726116e-07,-4.433847179174406e-07,-3.0588282907923234e-07,-5.05389977820885e-07,-1.0692851469422548e-07,-1.9705955474693977e-07,-1.829016124929492e-07,-8.833266108789096e-09,-1.690737419347084e-07,-3.0065309777751186e-07,-2.540597760663186e-07,-6.300538589791678e-09,-5.7430787408982025e-08
2.637114945338426e-08,-1.7074941007155016e-07,-1.043560404847667e-09,-1.1197974301026037e-08,6.704118101464789e-09,-4.3553467775573773e-07,-3.5899812017476204e-07,-2.3076284460879723e-07,-4.4535881605516133e-07,-3.7839221374315354e-08,-1.1046086370611208e-07,-1.914793486996719e-08,3.081722880721108e-08,-1.4584240564715544e-07,-2.3915956770978486e-07,-2.016798017935477e-07,3.160144441425077e-08,6.584442557647744e-09
1.581112476842429e-07,-1.1297091940691877e-07,5.268696172976258e-08,9.312611635670578e-08,7.924575436626189e-08,-2.960338448073021e-07,-2.4893996312763487e-07,-1.5376621590274324e-07,-3.4291958899833415e-07,3.282355637146803e-08,-1.2868865243485438e-08,1.2525835470510094e-07,6.328255601009073e-08,-1.0493532598622626e-07,-1.57437540173796e-07,-1.3264278587446447e-07,5.605007255062184e-08,5.825371316605303e-08
1.8928517929698071e-07,-4.283738797666798e-08,6.681611491021424e-08,1.7065862662058966e-07,1.2796576919838094e-07,-1.303996180000748e-07,-1.6081511578813223e-07,-6.766003714493468e-08,-1.6975536159464848e-07,9.991895186994605e-08,7.914704711932095e-08,2.354141063641953e-07,8.70605493006641e-08,-4.679411517819038e-08,-6.032840331828649e-08,-5.0196445190578245e-08,6.869370260512489e-08,9.677675263049868e-08
1.8094584950232666e-07,3.062228567217673e-08,8.567306497842046e-08,2.6514573485539687e-07,1.6030294955910334e-07,5.383550710197691e-08,-1.1130706265939921e-07,3.097862978223324e-08,2.3212210681981673e-08,1.5611412947951677e-07,1.658974555075571e-07,3.027588847699555e-07,1.002260811181402e-07,2.0526880584958674e-08,4.3613765782083735e-08,3.823539754761385e-08,1.0195738416412516e-07,1.2175856039865443e-07
1.8880000123497488e-07,9.971690921880042e-08,1.2813276667022472e-07,3.0894748715569325e-07,1.8173831476911138e-07,2.420096145728849e-07,4.438673541459733e-09,1.3837237728365205e-07,2.1765333343733218e-07,1.834332665671759e-07,2.3006596917220708e-07,3.2651519510493375e-07,1.0087351750083579e-07,8.776873014196346e-08,1.4403203459916873e-07,1.2332305024745847e-07,1.332340978968213e-07,1.3378817773334317e-07
1.9745893580421694e-07,1.590748572197916e-07,1.780887758943504e-07,3.1702094138541263e-07,1.948100541228082e-07,4.1497975357161243e-07,1.6494949404883602e-07,2.4552822666329083e-07,4.281377225631715e-07,1.6877387787833704e-07,2.4808196512140085e-07,3.1429162199220306e-07,8.878024211814745e-08,1.44585626585538e-07,2.3194205974436504e-07,1.9732340701842487e-07,1.320725470905075e-07,1.3498361857738e-07
2.003336037192066e-07,2.0309258480372612e-07,2.1701097128561536e-07,2.9809897843409004e-07,2.0107337921125676e-07,5.571119374470301e-07,3.4083952523170967e-07,3.4284389247301814e-07,5.841980177878844e-07,1.219492263740364e-07,2.1980926468529773e-07,2.8011444791003406e-07,6.661498002338113e-08,1.8364894857054776e-07,3.0199184115850096e-07,2.563600567017235e-07,1.1287866351460429e-07,1.287157483191512e-07
1.493873921312538e-07,2.2508459330395442e-07,2.0695847081213784e-07,2.8489346049272035e-07,2.0199542896690216e-07,6.608208963869302e-07,4.841243150868566e-07,4.2375552656756194e-07,6.373762237229581e-07,1.0633645623106926e-07,1.8816761878967017e-07,2.393295413537522e-07,3.901419478924952e-08,2.0437537639099882e-07,3.5234069386226553e-07,3.004207482841136e-07,9.050845171559945e-08,1.1855559595357244e-07
1.1789703247646514e-07,2.2027446644721434e-07,1.9379713528713828e-07,2.7055028655496527e-07,1.984943019774854e-07,7.238046777652797e-07,5.919479765764843e-07,4.841566646567244e-07,6.304786799018872e-07,1.0512774763911656e-07,1.7959642061014836e-07,2.0273816234259765e-07,9.978225096056402e-09,2.0678688171373942e-07,3.8290502880754136e-07,3.313007653849812e-07,6.522854878560817e-08,1.0695548191406292e-07
1.0462355334623183e-07,1.865943075552591e-07,1.794972872298419e-07,2.431330315101041e-07,1.8925818902053344e-07,7.496905541868626e-07,6.359574014722671e-07,5.220390136753643e-07,6.139189434869309e-07,9.055462009961346e-08,1.907454349496767e-07,1.7334163200889504e-07,-1.8824452297613293e-08,1.9296588543280653e-07,3.9554148175737084e-07,3.510337528951855e-07,4.7024438077350584e-08,9.409435620039475e-08
2.8757370785244424e-08,1.3132477089097784e-07,1.544388130280272e-07,2.0381574624635848e-07,1.7287514652143445e-07,7.459356938109642e-07,6.425092167387664e-07,5.37919014226799e-07,6.628594246924319e-07,3.927849687364674e-08,2.063134172737842e-07,1.4720108545243234e-07,-4.800478509639997e-08,1.6715225634246939e-07,3.933507506942909e-07,3.6266889013908313e-07,2.9632585575876354e-08,7.878430600294166e-08
-5.356637758155917e-08,6.175824980508152e-08,1.2423727334905774e-07,1.5423689311374344e-07,1.5002009062885618e-07,7.211574407913998e-07,6.279239923686886e-07,5.341536189176494e-07,6.909999813482613e-07,-1.1792637113428258e-08,2.2798334001839385e-07,1.1702251461213084e-07,-7.923736276019759e-08,1.3490781716896555e-07,3.806813677547862e-07,3.700826248728498e-07,1.0759292817417179e-08,5.9223143873178594e-08
-1.3708542880390225e-07,-1.1639476164665927e-08,9.014909662975936e-08,9.853490813858792e-08,1.2333703151088508e-07,6.843631665588952e-07,5.864633968214206e-07,5.133737141224537e-07,7.051270011813381e-07,-7.836440927872644e-08,2.074763058035215e-07,7.592842882659794e-08,-1.141606644617124e-07,1.0137060551310777e-07,3.6228828800288693e-07,3.7717888699853514e-07,-1.0631891899771773e-08,3.240169726927028e-08
-2.2618981813709638e-07,-7.866249159412318e-08,5.4120020394046534e-08,4.125925237491237e-08,9.604962698517643e-08,6.407379826693628e-07,5.458626762120709e-07,4.7632641276672733e-07,7.152926800595746e-07,-1.593016770586746e-07,1.9008665576675743e-07,1.946332485224689e-08,-1.53991125341745e-07,6.970461010815154e-08,3.4097602434153946e-07,3.8620912256368376e-07,-3.8913244019907747e-08,-3.0772372074009615e-09
-2.9620917348269114e-07,-1.3740575504747478e-07,1.5395413670828153e-08,-1.4787844822327329e-08,6.98168340136633e-08,5.922876954336808e-07,4.985684061392372e-07,4.22529892374285e-07,6.962493806327212e-07,-2.2670738514763767e-07,1.508717262732668e-07,-5.321839202156089e-08,-1.9901682568267003e-07,3.711353221517855e-08,3.162644132413904e-07,3.960571493416729e-07,-7.2867880959871e-08,-4.80526409004451e-08
-3.5897807502260695e-07,-1.8794947540344848e-07,-2.7469339385512228e-08,-6.922502761495964e-08,4.6133247731861536e-08,5.344188317295979e-07,4.372682775447424e-07,3.491816924957679e-07,6.700377661311403e-07,-2.875759077854568e-07,8.910691272726421e-08,-1.3900091657663737e-07,-2.477565399692774e-07,1.4564480840869662e-09,2.812995949952339e-07,4.023009497941637e-07,-1.0923262850435829e-07,-1.0146722090466101e-07
-4.437698441812669e-07,-2.382619658375519e-07,-1.012514102840594e-07,-1.2307902526110677e-07,2.736320065861816e-08,4.658963432749909e-07,3.6480739503e-07,2.5979785887999444e-07,6.185927761984549e-07,-3.4308470570705206e-07,4.194707268769167e-08,-2.3159650629553627e-07,-2.968813298633655e-07,-4.123097090576455e-08,2.2844771916831227e-07,3.9848489355036005e-07,-1.427855737559802e-07,-1.5895687372046648e-07
-5.431186340834057e-07,-2.9643550211865625e-07,-1.7631958448361463e-07,-1.7722189138026197e-07,1.7338972188346615e-08,3.910027569561977e-07,2.7725658441774403e-07,1.6194276995611175e-07,5.679132511311942e-07,-3.93452493545218e-07,-5.082710287186918e-09,-3.2356545492377297e-07,-3.423097490245951e-07,-9.702324615819974e-08,1.547405001099494e-07,3.7764706214461624e-07,-1.6842358536891414e-07,-2.1508817144543598e-07
-6.250206656885453e-07,-3.6862855023917475e-07,-2.3948653820310264e-07,-2.311933677890567e-07,1.957197364196952e-08,3.136879062062773e-07,1.7637772421751962e-07,6.388122188824904e-08,5.075084616293707e-07,-4.473581989254495e-07,-7.720989962085132e-08,-4.093635579961782e-07,-3.8121741447608393e-07,-1.7249044297987936e-07,5.075720117511424e-08,3.3359409518069324e-07,-1.8961278738498252e-07,-2.6384229894283103e-07
-6.945782075529122e-07,-4.5621293765751265e-07,-2.55119831211582e-07,-2.828119469362666e-07,3.4252901032611795e-08,2.390468365580805e-07,6.671845380984634e-08,-2.6392760950118465e-08,4.400772111175026e-07,-5.035246302994257e-07,-1.6688171547089023e-07,-4.860172921412528e-07,-4.1326856926403276e-07,-2.5872671372359926e-07,-8.874516585207862e-08,2.6277383817592357e-07,-1.913668475650309e-07,-2.9152221179168584e-07
-7.452803601123135e-07,-5.561383765320457e-07,-2.4756011043050206e-07,-3.284028484807046e-07,5.754078622523582e-08,1.6860921696003396e-07,-4.492217759235096e-08,-1.0383930275719459e-07,3.8235198996820746e-07,-5.594227537120656e-07,-2.703063959573782e-07,-5.534521351509542e-07,-4.4003571239510294e-07,-3.6946161153362456e-07,-2.620199704485198e-07,1.668634248320172e-07,-1.816370803254791e-07,-3.2237963533856707e-07
-7.70204884477205e-07,-6.551212290114219e-07,-2.453367474026404e-07,-3.638139333350111e-07,8.299349457658973e-08,1.0567852680291156e-07,-1.5231636040878213e-07,-1.631861449697649e-07,2.97190883964842e-07,-6.132145286752895e-07,-3.736195922830996e-07,-6.118114005255099e-07,-4.6349366521531597e-07,-5.051231367461322e-07,-4.559220964441209e-07,5.468795558672358e-08,-1.6800140800593965e-07,-3.2049190264987443e-07
-7.725721665107076e-07,-7.362493500248171e-07,-2.601963644826281e-07,-3.8648791796186407e-07,1.0399349214486496e-07,6.98199640479247e-08,-2.431913658266776e-07,-2.013923685410389e-07,2.2235841411926118e-07,-6.60301721463452e-07,-4.25970759922577e-07,-6.598938472353983e-07,-4.84995925194748e-07,-6.294460743413612e-07,-6.406311829009488e-07,-5.8819973032599666e-08,-1.6147756911845275e-07,-3.100977184529115e-07
-7.517421313961383e-07,-7.880941793542106e-07,-2.0124708542410267e-07,-3.974746264444586e-07,1.1461527665610036e-07,6.319147691863172e-08,-3.051870944474776e-07,-2.163928654309032e-07,1.7268556430471936e-07,-6.956108121722292e-07,-4.6570413495375413e-07,-6.95702075184042e-07,-5.054868357697232e-07,-7.492729287240739e-07,-7.707974879091632e-07,-1.57619599586241e-07,-1.5838623655786403e-07,-2.976309323398916e-07
-7.078428934412003e-07,-8.055200182972132e-07,-1.393190415843582e-07,-4.0170862063243846e-07,1.0941470282038458e-07,8.325184776139065e-08,-3.333515118774283e-07,-2.1337799146702645e-07,1.467079112500686e-07,-7.17021832223038e-07,-4.5683124277984307e-07,-7.182359011262164e-07,-5.261894280446425e-07,-8.019059528760193e-07,-7.962375352417792e-07,-2.3021691834438692e-07,-1.631206499089471e-07,-2.9030493691912404e-07
-6.572225712719868e-07,-7.937387033732816e-07,-1.0470037125100498e-07,-4.061967220192469e-07,8.404878839167154e-08,1.2505503729327966e-07,-3.269726955105215e-07,-1.981145803409989e-07,1.524852099978454e-07,-7.269639079371342e-07,-4.273555616839793e-07,-7.272190342170945e-07,-5.485351721023978e-07,-8.061190172731656e-07,-7.251744753259723e-07,-2.716827192387506e-07,-1.8056512773791598e-07,-2.9431808859750514e-07
-6.219962542458865e-07,-7.654117150746939e-07,-1.0478870722993201e-07,-4.1756093449208674e-07,3.6746869563535976e-08,1.7645762459756233e-07,-2.924937711103669e-07,-1.7467595772730815e-07,1.9346983458730022e-07,-7.304305588680331e-07,-3.8139264980167325e-07,-7.205339434824385e-07,-5.735034661381904e-07,-8.046609008317703e-07,-7.306510338225235e-07,-2.813291592767121e-07,-2.1228550029163354e-07,-3.0960367316329964e-07
-6.025242717684636e-07,-7.324432812062275e-07,-1.2675678797042389e-07,-4.40129004430418e-07,-2.9925879698622065e-08,2.1588885103124665e-07,-2.3953204960337767e-07,-1.520304144951376e-07,2.396371023916867e-07,-7.332021853077718e-07,-3.3036032922460543e-07,-6.946198621558743e-07,-6.007874740576473e-07,-8.186962503271147e-07,-7.547075941473654e-07,-2.600120355557031e-07,-2.5575129349047684e-07,-3.4316392475175916e-07
-6.169870698308719e-07,-7.03520386225603e-07,-1.2357916205322234e-07,-4.750181280873001e-07,-1.0941918814771365e-07,2.4877312001011104e-07,-1.7484755181618387e-07,-1.3442621873712726e-07,2.789551530973701e-07,-7.3918572423189e-07,-2.8187212818728366e-07,-6.481152329509272e-07,-6.287939240265494e-07,-8.313431495090821e-07,-7.577498783425424e-07,-2.1066753201142315e-07,-3.0589423539692864e-07,-3.7630941498215027e-07
-6.443328012246201e-07,-6.840865907246134e-07,-1.2692913771182789e-07,-5.203123685621447e-07,-1.9400704508212916e-07,2.7711194917450017e-07,-1.05074053139675e-07,-1.250700909115739e-07,3.3700542315981986e-07,-7.512598469116134e-07,-2.42360446635979e-07,-5.858942496958109e-07,-6.555956865118137e-07,-8.626810443074581e-07,-6.459054778830615e-07,-1.3985279384080582e-07,-3.649512141749197e-07,-4.0689381264184305e-07
-6.859138186581289e-07,-6.742367476028154e-07,-1.7865667104616576e-07,-5.719952474235807e-07,-2.775381366510102e-07,2.792797918912032e-07,-4.158719514129969e-08,-1.3782280678594052e-07,3.9585229056629927e-07,-7.669497022498414e-07,-2.2653484447608201e-07,-5.187658851027366e-07,-6.797157898465214e-07,-8.433553113181941e-07,-5.311602590881756e-07,-5.729560809879862e-08,-4.206585432342347e-07,-4.3574246862577324e-07
-7.3650705673441e-07,-6.716883792164387e-07,-2.514926959206153e-07,-6.250600495681834e-07,-3.567202095624168e-07,2.8378904856273387e-07,1.013624044903607e-08,-1.5892156343324603e-07,4.4961865643629536e-07,-7.868258983305099e-07,-2.2885328997581362e-07,-4.5888757513884405e-07,-7.000465707775749e-07,-7.893048661489462e-07,-4.0277119033574997e-07,2.6784359916766393e-08,-4.7206814471226043e-07,-4.5825879924756397e-07
-7.914658880980085e-07,-6.713030001257415e-07,-3.347143047642031e-07,-6.717134101859785e-07,-4.3019562955686535e-07,2.888951432532989e-07,5.197325886959896e-08,-1.9077494876911495e-07,5.067894169989572e-07,-8.112288025756466e-07,-2.423481609994885e-07,-4.14704145716649e-07,-7.152181071028209e-07,-7.095255340803275e-07,-2.3703195856946185e-07,1.0445955495511028e-07,-5.221820062000538e-07,-4.71500054443521e-07
-8.444555490149685e-07,-6.665562590196013e-07,-4.301147088804882e-07,-7.081797613564875e-07,-4.978516707175896e-07,2.786238779915064e-07,7.27172255985994e-08,-2.3927411240300185e-07,5.552256496384188e-07,-8.429888364438735e-07,-2.678108603487538e-07,-3.890378958763259e-07,-7.237168905446731e-07,-6.838195635686234e-07,-1.229430125460774e-07,1.7084167610149446e-07,-5.714584713461899e-07,-4.732477604849602e-07
-8.91540169632191e-07,-6.513203174814551e-07,-5.130057646677757e-07,-7.346558923255904e-07,-5.600130184524076e-07,2.6359823901877917e-07,6.793595268628971e-08,-2.990835243524862e-07,6.095162419541367e-07,-8.723238983224794e-07,-2.935260204267104e-07,-3.8051273632919473e-07,-7.248281775806055e-07,-7.361288793247343e-07,-4.83811546569651e-08,2.22817923271025e-07,-6.110993989438222e-07,-4.5505180244980347e-07
-9.358753652961962e-07,-6.224522453154836e-07,-5.67661768504737e-07,-7.488421260325501e-07,-6.206168401494987e-07,2.7091548474545863e-07,2.601764122295065e-08,-3.5015474202756414e-07,6.615314975933301e-07,-9.041509719191134e-07,-3.008772174455798e-07,-3.8617562518769286e-07,-7.195780950740993e-07,-7.228363128673222e-07,-5.035420840000622e-09,2.575883442034395e-07,-6.381127082378837e-07,-3.8914966982903686e-07
-9.788044007770425e-07,-5.806892138811861e-07,-5.940651513601538e-07,-7.514009632347988e-07,-6.811492041224924e-07,2.877182177314483e-07,-7.52441475504291e-08,-3.844317852437209e-07,7.307465478661749e-07,-9.439034529498424e-07,-2.9851356739218934e-07,-4.0236311432962327e-07,-7.106272441428864e-07,-6.930983716183636e-07,1.10672699840914e-09,2.7257654739212045e-07,-6.483079667087395e-07,-3.1395579705410056e-07
-9.981999834355046e-07,-5.315725810831768e-07,-5.639503170943371e-07,-7.448722391253827e-07,-7.425207216991974e-07,4.100874396554639e-07,-2.013907806212966e-07,-3.5381356060096115e-07,8.610257300819028e-07,-9.735018396874253e-07,-2.7221188767706487e-07,-4.2461365566002444e-07,-7.01068614106306e-07,-6.758518198003906e-07,-5.118383634101933e-09,2.664570939507723e-07,-6.061023685014239e-07,-2.621244454431513e-07
-1.0107129186055663e-06,-4.818867775944701e-07,-5.59939907144333e-07,-7.30764618344733e-07,-8.02884980533922e-07,6.376506421418561e-07,-2.8350789722754187e-07,-2.2178376227995848e-07,9.592341155245648e-07,-1.0018205435859371e-06,-1.6286185935248253e-07,-4.4769711942154574e-07,-6.936866046255213e-07,-6.701638275703306e-07,-2.035471496532427e-08,2.4006332503175086e-07,-5.786455430534067e-07,-2.2716468297604387e-07
-9.604576370004385e-07,-4.361751769275327e-07,-5.743476999173128e-07,-7.159011433702989e-07,-8.606877008387905e-07,7.953207158741379e-07,-3.3561973471509515e-07,-1.0603864179481692e-07,1.059336376787531e-06,-9.932832433318262e-07,-4.6279080714366874e-08,-4.660434464756928e-07,-6.909728397044865e-07,-7.231387818292628e-07,-3.824867624865555e-08,1.9638247440507852e-07,-5.513846881605132e-07,-2.048836116045082e-07
-8.512155330692698e-07,-3.975336895647626e-07,-5.768708670812117e-07,-7.350160181022891e-07,-9.25165008120422e-07,8.546206083487798e-07,-2.9533991560184974e-07,-1.6009400637605947e-08,1.1509899945034372e-06,-9.443858334735526e-07,6.023109897845177e-08,-4.7438986025204945e-07,-6.950719481243317e-07,-8.551318231975931e-07,-4.296387229798786e-08,1.40027105537164e-07,-5.106295011961018e-07,-1.8659857256339687e-07
-7.654210494139264e-07,-3.6824023250343744e-07,-4.941900729479208e-07,-7.887897074766235e-07,-1.003833475022856e-06,8.842212612702142e-07,-1.8536666509313307e-07,8.636998531062286e-08,1.2340893022132364e-06,-8.812328772660619e-07,1.0865275357521803e-07,-4.678051221646207e-07,-7.069109363669371e-07,-9.71930888458579e-07,-2.1133767098222772e-08,7.658546157031807e-08,-4.775569730526433e-07,-1.6355286085045888e-07
-7.079570851406263e-07,-3.5194736817789424e-07,-3.956565367979812e-07,-8.910086301069635e-07,-1.1051453354832935e-06,8.994397677428672e-07,-1.0073902580614852e-07,1.641520233147085e-07,1.3149575590184607e-06,-8.237422655593371e-07,1.6328656262199164e-07,-4.428958865618206e-07,-7.253090963922366e-07,-1.032207411967651e-06,3.4156424454630516e-08,1.1957769056439581e-08,-4.4323387734167585e-07,-1.1530943152222955e-07
-5.896454153891103e-07,-3.510011235502037e-07,-3.396537103957642e-07,-1.0191546726515752e-06,-1.2339748698089315e-06,1.053138347010093e-06,-1.6129236746472515e-08,2.9054592887348596e-07,1.4344553293511414e-06,-7.612249421066369e-07,2.908739402286888e-07,-3.9851013696298906e-07,-7.474112729780546e-07,-1.0631430545590211e-06,1.2108289411132156e-07,-4.725642091214078e-08,-3.890809651144653e-07,-2.869642328529067e-08
-4.715880512233687e-07,-3.6797051120350896e-07,-3.078477044178243e-07,-1.1168353134734827e-06,-1.386336655601782e-06,1.3274655879860476e-06,3.4510108342389674e-08,4.524764458484658e-07,1.5983224985612054e-06,-7.10378442017625e-07,4.531393678544377e-07,-3.362259839003115e-07,-7.701390768497156e-07,-1.0626541410410777e-06,2.3107121270589377e-07,-9.340796741610659e-08,-3.093602394533724e-07,7.472612765695194e-08
-3.9092183396017224e-07,-4.037714292193251e-07,-2.8509386144108785e-07,-1.1496340444566204e-06,-1.5522127036826592e-06,1.513696993025841e-06,6.24798422832958e-08,6.461137825393751e-07,1.7644716675730178e-06,-6.461812160343481e-07,6.158633141919183e-07,-2.601793515025306e-07,-7.917162043684491e-07,-1.04523141239587e-06,3.530596844458186e-07,-1.1848457343936894e-07,-2.072662681436687e-07,1.5374408826238498e-07
-3.432295556305268e-07,-4.567213441219227e-07,-3.5128766304237426e-07,-1.2890777210081045e-06,-1.7141630594904467e-06,1.5738762805290445e-06,1.9101031281357153e-07,7.578943760591844e-07,1.89246013453306e-06,-5.524437131092529e-07,7.578440051127704e-07,-1.764451855776801e-07,-8.118656940944421e-07,-1.0647512605259136e-06,4.769240420568723e-07,-1.1550022288449782e-07,-1.3092594951673657e-07,2.467526564551576e-07
-3.2090539711938385e-07,-5.178019412864579e-07,-4.254715980923941e-07,-1.4451859387500809e-06,-1.8589838085704132e-06,1.6756669318499416e-06,3.2702106521174434e-07,8.801506490098681e-07,2.0183135794553522e-06,-4.5408716374400414e-07,8.819143070456106e-07,-9.277002412834792e-08,-8.303252336767115e-07,-1.0028469713198333e-06,5.942083255966e-07,-8.030658096051991e-08,-5.556913119190504e-08,3.539768594378083e-07
-2.9093280279565693e-07,-5.716541535384059e-07,-4.888810446932231e-07,-1.5483250387235718e-06,-1.97417747061523e-06,1.7665703347731604e-06,4.4504243963740894e-07,1.006462654606854e-06,2.091792518549446e-06,-3.703685309061538e-07,9.567514199339541e-07,-1.791056256414613e-08,-8.457881016926633e-07,-9.236297489484542e-07,6.964744049344024e-07,-1.3272017947374135e-08,1.8617718994467315e-08,4.4238607075905636e-07
-3.200682435518426e-07,-6.180748415881049e-07,-5.365623949620492e-07,-1.640793836306156e-06,-2.0525682641828216e-06,1.893996038272803e-06,5.81880717841817e-07,1.1112345657849746e-06,2.168877708057164e-06,-2.8856426283074634e-07,1.0173168606853786e-06,3.997096360977749e-08,-8.561202125568589e-07,-8.795721295255281e-07,7.751547717030966e-07,8.02655032475237e-08,1.1619799072376018e-07,5.238692703201266e-07
-3.7144274010793803e-07,-6.224871577708608e-07,-5.797488572032316e-07,-1.6969120577059666e-06,-2.1034852328196874e-06,1.9832270191489814e-06,6.914921616157852e-07,1.2073268690894977e-06,2.207060891960335e-06,-1.8340570483977933e-07,1.0736252433618202e-06,7.614827467420095e-08,-8.593373815328492e-07,-8.503779286779846e-07,8.237032881945564e-07,1.9158218676277108e-07,1.8676342697846731e-07,5.678720661381805e-07
-3.9034148194005856e-07,-5.751038915088553e-07,-6.107229110514735e-07,-1.7621757496779201e-06,-2.119451194002788e-06,2.013731233516436e-06,7.657467683973584e-07,1.271404825966542e-06,2.2539981608478677e-06,-1.3618196226470755e-07,1.1313541112721212e-06,9.10631816570564e-08,-8.542291980695461e-07,-8.2439164383057e-07,8.420380710478159e-07,3.1113285531673176e-07,2.4494654554934485e-07,6.088403633830647e-07
-3.9057130106989524e-07,-5.167214495222629e-07,-6.301340729155547e-07,-1.848143884624841e-06,-2.116935942863463e-06,1.8920116813617512e-06,8.233323008157616e-07,1.2904350932310923e-06,2.280192639000136e-06,-1.1315365641119321e-07,1.1845028304961082e-06,9.04709552137655e-08,-8.406096007989056e-07,-8.68598972803965e-07,8.379496758806243e-07,4.305619618129965e-07,3.0083866906532046e-07,6.539028591169845e-07
-3.86087526030145e-07,-4.6011023326469526e-07,-6.457088597548686e-07,-1.837481284998413e-06,-2.097329258603467e-06,1.7924949387533497e-06,8.696234727526933e-07,1.2864337235566888e-06,2.2960659164461347e-06,-7.426674953191197e-08,1.2181529492387667e-06,8.289771849677928e-08,-8.197566188844496e-07,-9.07906310518344e-07,8.248513797946673e-07,5.413500977634777e-07,3.2245562217095025e-07,6.698895066449925e-07
-3.7955282375349743e-07,-4.061763761897936e-07,-6.591131632322979e-07,-1.8154613804293529e-06,-2.0673824853453326e-06,1.7402234881328765e-06,9.361919196276356e-07,1.3024620411293196e-06,2.315668397836796e-06,-5.386165507831831e-08,1.232135541008154e-06,7.597823986253486e-08,-7.945442163940171e-07,-9.125083010193237e-07,8.179642080530251e-07,6.401830235010975e-07,3.1754363371814113e-07,6.86375224597309e-07
-3.771358526878617e-07,-3.6404395997878176e-07,-6.77527132290294e-07,-1.7974953307086883e-06,-2.03925306895796e-06,1.7099201722477828e-06,1.0138898251501895e-06,1.3085363463313387e-06,2.330298292580135e-06,-4.626279064092241e-08,1.227333135334039e-06,7.071316795970318e-08,-7.688405816714736e-07,-8.695074691385697e-07,8.298623827702013e-07,7.26508256866324e-07,2.8936962459518873e-07,7.008639983154243e-07
-3.8150838052611724e-07,-3.403519541982495e-07,-6.987961420468936e-07,-1.7639207598280928e-06,-2.0015870791766155e-06,1.7747995914342774e-06,1.1028157026940857e-06,1.2968649886216958e-06,2.348683587457225e-06,-4.376542478369203e-08,1.2119077951919442e-06,6.518261367087842e-08,-7.464061134819781e-07,-8.143216594514161e-07,8.66533066378313e-07,8.018250510185729e-07,2.3803430388238399e-07,6.980080638616654e-07
-3.931604092713462e-07,-3.2837414200980087e-07,-7.061203829383258e-07,-1.755694959919954e-06,-1.9548408678925724e-06,1.8638364817753934e-06,1.1665045415447282e-06,1.270728029099522e-06,2.414537177237868e-06,-4.9043851733636426e-08,1.186348981795024e-06,5.2042865993659484e-08,-7.299646436078865e-07,-7.57827129860023e-07,9.241942826989146e-07,8.700187408213639e-07,1.9095037030681812e-07,6.886532681607367e-07
-4.0994610936755286e-07,-3.168373994554936e-07,-6.919584357291495e-07,-1.7605400364720954e-06,-1.8745693907128012e-06,1.9167059795657574e-06,1.2263631408342482e-06,1.213004481654827e-06,2.5120059311684586e-06,-5.955146034454577e-08,1.147058299423387e-06,2.067809578790393e-08,-7.211962858874523e-07,-6.280696060770618e-07,9.884214773122763e-07,9.331643631356267e-07,1.4212185763100828e-07,6.825502700591869e-07
-4.3144455775439684e-07,-2.950345613360682e-07,-6.328995111334924e-07,-1.7650002341790867e-06,-1.7738988681355327e-06,1.927202717834892e-06,1.2647703009655231e-06,1.1931148072101011e-06,2.562431411493299e-06,-7.436695281913365e-08,1.0960599864697288e-06,-4.230970333644979e-08,-7.206285349471792e-07,-5.393985730230278e-07,1.0371882256736971e-06,9.902035389382387e-07,8.955283301747054e-08,6.653723555270383e-07
-4.551817446746943e-07,-2.575256406454999e-07,-5.514432798222692e-07,-1.7667620037351764e-06,-1.6315551697664309e-06,1.9794417035393197e-06,1.2610814236576806e-06,1.198279333278994e-06,2.5537976909907824e-06,-9.15242998241775e-08,1.033651773025321e-06,-1.5010800096357903e-07,-7.271184835780818e-07,-5.17282728359346e-07,1.0478235531433397e-06,1.0362024889565116e-06,4.4808686811061616e-08,6.481950211918488e-07
-4.784463084480902e-07,-2.0645640827177007e-07,-4.7303914413147293e-07,-1.7478604477073236e-06,-1.4633764949278504e-06,1.899309218643257e-06,1.1695429714647612e-06,1.1379159730915998e-06,2.5295471281546555e-06,-1.0975633885560397e-07,9.728136762564967e-07,-3.031681096429207e-07,-7.376660170781668e-07,-4.90985897094615e-07,1.0006288794268811e-06,1.0649714955684646e-06,6.650886362289552e-09,6.434833146833365e-07
-4.996346991592765e-07,-1.5161457968046263e-07,-4.0021878314874475e-07,-1.7096303091800731e-06,-1.288544860655808e-06,1.7559422418951643e-06,1.0713833413897047e-06,9.960597762220728e-07,2.467914011792664e-06,-1.1461897122617683e-07,9.089489823591616e-07,-4.895944938739612e-07,-7.482066709196276e-07,-4.87040462231921e-07,8.958817466212517e-07,1.0712899598953425e-06,-2.2922238365377417e-08,6.475813115832512e-07
-5.157676152663362e-07,-1.0615604050348231e-07,-3.5177646019407633e-07,-1.6589402855985967e-06,-1.1045210747687527e-06,1.612559449481793e-06,9.74572817632068e-07,8.692728838061718e-07,2.3976641130202836e-06,-1.0529541839069847e-07,8.579388980748674e-07,-6.670381254839009e-07,-7.55216299715691e-07,-4.708329515095736e-07,7.517370493989447e-07,1.0553458179259459e-06,-4.467147791320226e-08,6.645698096348155e-07
-5.242154819866955e-07,-8.168504971522512e-08,-2.5511470829115687e-07,-1.6026028600866287e-06,-9.383191163918304e-07,1.4981447261720522e-06,9.036557010246129e-07,7.84290528395498e-07,2.333008261328688e-06,-8.396223239829952e-08,8.358439464182067e-07,-7.847725046891558e-07,-7.568578814127228e-07,-5.381139896059518e-07,5.938887347360271e-07,1.0261112730896783e-06,-4.9304485300599885e-08,6.914665917208838e-07
-5.224245383011138e-07,-8.410487441554424e-08,-1.5086065630331086e-07,-1.5503217852994674e-06,-7.904256745011077e-07,1.4290199170344155e-06,8.813421565197786e-07,7.338852191768473e-07,2.2473421515462712e-06,-5.004832786653384e-08,8.305465685605912e-07,-8.00967694773006e-07,-7.532467286660262e-07,-6.095450848470949e-07,4.988024237079031e-07,1.0001561085382932e-06,-3.376285717900945e-08,7.20472314629026e-07
-5.092329382669811e-07,-1.125801790998533e-07,-8.908602722565535e-08,-1.5109666778634518e-06,-6.732016173610749e-07,1.3732562860136606e-06,8.766935246819793e-07,6.705603164865698e-07,2.1837827837794648e-06,-9.3636682921992e-09,8.295989505828624e-07,-8.082953117451429e-07,-7.460679043272297e-07,-5.7992776463437e-07,5.03709090721515e-07,9.954696028381028e-07,-1.8641626427310475e-08,7.411492555136535e-07
-4.861733960414411e-07,-1.6072645103798744e-07,-4.1000410913713196e-08,-1.4903453231673264e-06,-6.349404978243086e-07,1.319110284374389e-06,8.865881875888757e-07,5.98133531109103e-07,2.136586028026251e-06,3.450810031555842e-08,8.333318390053399e-07,-8.229480055183783e-07,-7.381374696324526e-07,-5.870686851882239e-07,4.650701841249341e-07,1.0216299935484409e-06,-7.906174221498706e-09,7.539620091038553e-07
-4.5692649756756936e-07,-2.1885482627240345e-07,-9.535084966328193e-09,-1.4901993970243977e-06,-6.643532506785538e-07,1.3326343340207898e-06,9.081367747055111e-07,5.51382754223912e-07,2.102342428038218e-06,7.733907936744863e-08,8.508755119922935e-07,-8.451153555154152e-07,-7.327702693558219e-07,-5.693075694471693e-07,4.4335408256937745e-07,1.0746241195977173e-06,-3.925079970346438e-09,7.443765524753622e-07
-4.2496769045521283e-07,-2.758337412826351e-07,1.5334838359159803e-09,-1.5081345839447282e-06,-6.789688608806135e-07,1.3828706833729564e-06,9.26158455096266e-07,5.485436789868696e-07,2.0754301904693135e-06,1.1575621197687091e-07,8.742312205880133e-07,-8.282599217778879e-07,-7.327449915104554e-07,-5.162524176530154e-07,5.513477376695473e-07,1.141400604908816e-06,-8.215529329305324e-09,7.233539892992608e-07
-3.9345891343178643e-07,-3.2175450663467535e-07,2.4506478675514633e-09,-1.5388773474728755e-06,-6.898247982492201e-07,1.4636178550240637e-06,9.703270383125552e-07,5.990371822233379e-07,2.0737054662528036e-06,1.4733392203678185e-07,8.983978225926357e-07,-7.564979181190885e-07,-7.394437111070406e-07,-4.168814855545199e-07,6.791820920816826e-07,1.2046631276469297e-06,-2.2272479790495185e-08,6.915840523057086e-07
-3.6392731518505415e-07,-3.5056528059919415e-07,2.3402652226729805e-08,-1.5765544913169865e-06,-7.21267317313897e-07,1.494401652698828e-06,1.0115807418954173e-06,6.50388203358149e-07,2.0788272427059095e-06,1.6898692258505845e-07,9.207861060679218e-07,-6.4357395985787e-07,-7.528812728384624e-07,-3.095998481788011e-07,7.621790422122744e-07,1.2523358578513293e-06,-4.346471340579463e-08,6.369095373171633e-07
-3.378062557049853e-07,-3.6159905073632273e-07,3.360205951253555e-08,-1.6162409528931698e-06,-7.658680600907745e-07,1.486652409655333e-06,1.0372755100446373e-06,6.958724115073739e-07,2.083961636162816e-06,1.775695815176036e-07,9.375954543831313e-07,-5.491482432825583e-07,-7.724202838036819e-07,-2.3647690340669075e-07,8.11882971962385e-07,1.280615996633249e-06,-6.939817375898786e-08,5.795875226584421e-07
-3.1881727985572935e-07,-3.600095832426714e-07,3.3725080841534133e-09,-1.6554185745585281e-06,-8.182299453304309e-07,1.4687160232862307e-06,1.048968153475772e-06,7.306291645228821e-07,2.0787359846009087e-06,1.6953542072546422e-07,9.430306444908007e-07,-4.7328098634236997e-07,-7.973147703531058e-07,-1.9208358581916958e-07,8.384722078282938e-07,1.288370727053679e-06,-9.91449539704566e-08,5.228033192873624e-07
-3.093707436565843e-07,-3.545565443122879e-07,-4.843211563682527e-08,-1.6939317459342327e-06,-8.745955618232465e-07,1.4286116676102902e-06,1.0481858668926187e-06,7.318834598554009e-07,2.059802108288762e-06,1.438916374160782e-07,9.327271737598584e-07,-4.3915841233350576e-07,-8.264386629603109e-07,-1.6449744229021467e-07,8.441826933929736e-07,1.2812865006087152e-06,-1.3052828179156643e-07,4.6954007664433396e-07
-3.1001301285390596e-07,-3.53881527732322e-07,-1.0679415796988815e-07,-1.732558344746767e-06,-9.370690226000891e-07,1.3854045064343874e-06,1.0432342572360042e-06,7.173286887463023e-07,2.038072982166565e-06,1.0378214302748292e-07,9.057052226485456e-07,-4.410857288556696e-07,-8.578895627757595e-07,-1.518881105552494e-07,8.359625264972254e-07,1.266077453693251e-06,-1.6072058223433221e-07,4.27036006046694e-07
-3.1821666030003925e-07,-3.635676293174082e-07,-1.6798530790897422e-07,-1.7719225729686017e-06,-9.967225018647198e-07,1.3397600969857875e-06,1.0369938068744503e-06,7.009457057001793e-07,2.0118535907392973e-06,5.6077197334554886e-08,8.621777389542968e-07,-4.589240187797265e-07,-8.893848702661635e-07,-1.500030648477786e-07,8.198157372371686e-07,1.2468701522753992e-06,-1.8621969590432931e-07,3.917858497572007e-07
-3.2925832067940785e-07,-3.857202907703772e-07,-2.1405605342122867e-07,-1.8120471106110832e-06,-1.0543574884590196e-06,1.2868712361336995e-06,1.0291461674527479e-06,6.791126440690351e-07,1.9788916448045085e-06,8.555534641210047e-09,8.015060410451438e-07,-4.83803753362142e-07,-9.192063896080507e-07,-1.5882663317198857e-07,7.993913849949133e-07,1.2250837380285573e-06,-2.056222996506682e-07,3.5917428809679103e-07
-3.394635765988366e-07,-4.203270681535404e-07,-2.3503031678832238e-07,-1.8527150404025698e-06,-1.1058080065681932e-06,1.229858745313671e-06,1.0058473309043264e-06,6.62791283873194e-07,1.9280021620613316e-06,-3.323047648358569e-08,7.265098600388416e-07,-5.006488811354934e-07,-9.467396081030532e-07,-1.7944620263323465e-07,7.756745224460041e-07,1.1949658618255259e-06,-2.1894512478114012e-07,3.286127574612445e-07
-3.4728354347944104e-07,-4.667531885496241e-07,-2.647910201367736e-07,-1.893948715447484e-06,-1.153255041395416e-06,1.178822654084275e-06,9.658068144985815e-07,6.529966736564992e-07,1.8567067520289227e-06,-6.347624448683305e-08,6.431306277681168e-07,-5.095182056153723e-07,-9.721156976848054e-07,-2.13334953740055e-07,7.477971333907945e-07,1.1520247892637019e-06,-2.2935444467711782e-07,2.990326253367767e-07
-3.523930949690805e-07,-5.24006693073211e-07,-3.0226625356774165e-07,-1.9360620462635286e-06,-1.2019020441343086e-06,1.157045802618656e-06,9.061964451712087e-07,6.456329083743323e-07,1.7701056061162879e-06,-7.85390183745486e-08,6.151910749281695e-07,-5.130015315222394e-07,-9.955033056888073e-07,-2.6466609921986364e-07,7.1416688253535e-07,1.0910031679410263e-06,-2.3496994604643806e-07,2.7173540127853277e-07
-3.5411350218206326e-07,-5.897357530172852e-07,-3.4444324532945743e-07,-1.9799674213028295e-06,-1.2547682341988573e-06,1.1543825841553901e-06,8.257282879075496e-07,6.47523587033006e-07,1.697666215613551e-06,-7.65595100240747e-08,6.285331798103011e-07,-5.127499978988799e-07,-1.0169112699854323e-06,-3.3532512648746717e-07,6.732227609666132e-07,1.0095391586456295e-06,-2.3337907228229306e-07,2.4961140445666726e-07
-3.5183918563444897e-07,-6.590049047161892e-07,-3.7172622416744806e-07,-2.0264998225124558e-06,-1.3161788510650198e-06,1.1717586569094655e-06,7.319163762244917e-07,6.591790440181747e-07,1.6438689336918513e-06,-5.6905459113872293e-08,6.487965065029918e-07,-5.133430788025206e-07,-1.0362998993252648e-06,-4.2542302772721027e-07,6.241751681333662e-07,9.045216444202538e-07,-2.253328636797032e-07,2.3475949794444268e-07
-3.4538139167294666e-07,-7.23762555764819e-07,-3.8887235179219484e-07,-2.0755435788764192e-06,-1.3856517900352539e-06,1.2083500236692914e-06,6.326648266681745e-07,6.748013246775498e-07,1.6043457355843875e-06,-2.235153502937139e-08,6.58013066774508e-07,-5.196935878541281e-07,-1.0530522331426662e-06,-5.281658674904706e-07,5.680894233116552e-07,7.766529405403996e-07,-2.1256690575208834e-07,2.2629026014428284e-07
-3.373972678147239e-07,-7.741336394259601e-07,-3.9843765754142863e-07,-2.124812693448421e-06,-1.4593661565194912e-06,1.2543036985760397e-06,5.389193311536821e-07,6.886419425429883e-07,1.5894167607925651e-06,2.2549545698640124e-08,7.187156973842692e-07,-5.341249852077983e-07,-1.0651219393847141e-06,-6.307186525082994e-07,5.092121926296708e-07,6.353676350652336e-07,-1.9695256683050698e-07,2.2467729637053886e-07
-3.254646851409721e-07,-8.021661335994829e-07,-3.968965082081055e-07,-2.1692664344639082e-06,-1.5297950628472204e-06,1.3048134002500148e-06,4.624140180033362e-07,6.954867739347868e-07,1.5972204187683545e-06,7.282566544049572e-08,7.859321133076532e-07,-5.535762891681392e-07,-1.0692665895487214e-06,-7.017449461054271e-07,4.5472804221449287e-07,4.936672197700929e-07,-1.7851862294443662e-07,2.3058543620862481e-07
-3.098637556332609e-07,-8.064818587180197e-07,-3.9232074466088275e-07,-2.2030883938714888e-06,-1.5895225640937923e-06,1.3536059977427216e-06,4.1260116860613755e-07,6.930850312801137e-07,1.6223047984251224e-06,1.2508969055067428e-07,8.390136195119046e-07,-5.701013973913425e-07,-1.062911516877853e-06,-6.972082519541975e-07,4.126935332922742e-07,4.0060555846394617e-07,-1.5596511647429997e-07,2.425574848734703e-07
-2.9187910461779007e-07,-7.942971812413041e-07,-3.77351595048904e-07,-2.2226881060296294e-06,-1.631323892293911e-06,1.4000384226901446e-06,3.94906718203251e-07,6.847621112324322e-07,1.6578994674050924e-06,1.7728550093371767e-07,8.786303454166647e-07,-5.744929000850804e-07,-1.0459494358100789e-06,-6.84499084612922e-07,3.8995643426207206e-07,4.0568363588427436e-07,-1.2736134660250238e-07,2.6040746290354904e-07
-2.7429522693620255e-07,-7.78310906392562e-07,-3.560298026974485e-07,-2.2285381698701406e-06,-1.6500091954624845e-06,1.434018129863448e-06,4.091336410683235e-07,6.766413311405733e-07,1.6909725400798724e-06,2.2864033298661043e-07,9.128044621276559e-07,-5.600200340165237e-07,-1.0206488345715526e-06,-6.782562940829857e-07,3.909074972119092e-07,4.523541276432601e-07,-9.200588334217906e-08,2.830803666268226e-07
-2.5875999779031637e-07,-7.700647389516881e-07,-3.3489537055926505e-07,-2.2243940479682014e-06,-1.6473557594039433e-06,1.4574849509978667e-06,4.5017323181543373e-07,6.731929775641396e-07,1.7131999675226862e-06,2.7940327387496443e-07,9.392948566869166e-07,-5.241755365009365e-07,-9.902484899306142e-07,-6.682945837214791e-07,4.172205520823145e-07,5.215214554041115e-07,-5.1045672906488196e-08,3.10275037796021e-07
-2.432420240050584e-07,-7.744954139551629e-07,-3.1974292628345857e-07,-2.2155326309135324e-06,-1.6276208610679844e-06,1.4734440936332606e-06,5.104706006494577e-07,6.779459686130586e-07,1.7246130456039118e-06,3.296276237815781e-07,9.58735673018989e-07,-4.683207929540692e-07,-9.57760417777888e-07,-6.455414745729092e-07,4.686029107936922e-07,5.163470444601571e-07,-7.0136290405087055e-09,3.4129187614213735e-07
-2.2666630025271792e-07,-7.886464804290457e-07,-3.0701347295194766e-07,-2.2067658651122335e-06,-1.5971894138078883e-06,1.482561643368271e-06,5.819771745020097e-07,6.913448002684452e-07,1.7320145594946182e-06,3.7880393991742125e-07,9.772699154996327e-07,-3.9719973285676596e-07,-9.258362349272184e-07,-5.71626162172775e-07,5.40496159533954e-07,5.210424732133409e-07,3.571978428395839e-08,3.734304906270753e-07
-2.071819852094366e-07,-8.038147577139392e-07,-2.9547512027558845e-07,-2.20113232171417e-06,-1.5648095507569404e-06,1.4888329765659269e-06,6.570658167802176e-07,7.095125627192092e-07,1.7426055967544023e-06,4.2557686668097313e-07,9.984244106866768e-07,-3.190002309147449e-07,-8.97167309049917e-07,-4.971759945954061e-07,6.242824728754531e-07,5.481954304073651e-07,7.169246277237998e-08,4.0436047743773984e-07
-1.866975231976712e-07,-8.09477792960335e-07,-2.834086161994931e-07,-2.1999681273890103e-06,-1.5385646599106608e-06,1.4926359272329164e-06,7.296090288686618e-07,7.262742068780827e-07,1.761875757432288e-06,4.682915429064981e-07,1.0260719790741102e-06,-2.440063574757461e-07,-8.742969196147474e-07,-4.093952135240481e-07,7.089100875179415e-07,6.197163056903376e-07,9.644889970807134e-08,4.3175312871868316e-07
-1.664592608517569e-07,-7.975315503467385e-07,-2.688837125867882e-07,-2.2030778993737843e-06,-1.525231151028141e-06,1.4939282926594157e-06,7.963374084856231e-07,7.363872971082382e-07,1.7924021175355818e-06,5.055831069517163e-07,1.0604847443002367e-06,-1.8126831260703453e-07,-8.585995288434522e-07,-3.1492379672992553e-07,7.845056741506665e-07,7.310134565486194e-07,1.0852941530445411e-07,4.5345379145405335e-07
-1.472176406190376e-07,-7.650210759584708e-07,-2.5451217000655186e-07,-2.208916232901972e-06,-1.5248102424499607e-06,1.4928406781446166e-06,8.572628245134172e-07,7.371181416445369e-07,1.8325392827908389e-06,5.365397614648126e-07,1.0985890386434145e-06,-1.353064721616252e-07,-8.496273444998477e-07,-2.4928701865058124e-07,8.463487960770436e-07,8.621981739102523e-07,1.0989009444641226e-07,4.6951373227429993e-07
-1.3002551412899892e-07,-7.14608955672435e-07,-2.41691250792095e-07,-2.2153637929913516e-06,-1.5341000845732032e-06,1.486697543273199e-06,9.143779895353676e-07,7.289058599804242e-07,1.8788344415175736e-06,5.605669951311065e-07,1.1360512865544213e-06,-1.0602105327422708e-07,-8.457832776730685e-07,-2.0481331277992617e-07,8.949721684972913e-07,1.005078245509807e-06,1.0259369187314334e-07,4.814154397450101e-07
-1.1688106251681473e-07,-6.534766669152606e-07,-2.3251982730107927e-07,-2.2206537597804827e-06,-1.5487766157998067e-06,1.4801403992649599e-06,9.69398034674123e-07,7.098120510234051e-07,1.920725104359419e-06,5.747555890096949e-07,1.168086818507056e-06,-9.082999692961052e-08,-8.453801623588097e-07,-1.7895590440366988e-07,9.334144614174236e-07,1.1182606325545028e-06,8.707047553280355e-08,4.910831452020876e-07
-1.1084074619662119e-07,-5.912131114586857e-07,-2.297560283654807e-07,-2.224129006391614e-06,-1.5644259942481756e-06,1.4726697552447019e-06,1.022319707554306e-06,6.782099414180245e-07,1.954818541900361e-06,5.779817308937117e-07,1.1904524914426586e-06,-8.665956950714185e-08,-8.469001526562877e-07,-1.6767381165475464e-07,9.67516990258231e-07,1.2069139717375215e-06,6.413052815945728e-08,5.003351469758108e-07
-1.156776735446889e-07,-5.370032239027214e-07,-2.3301723669165077e-07,-2.2262652236791124e-06,-1.5776089902217788e-06,1.4617211712715947e-06,1.0715690435926496e-06,6.335152087438757e-07,1.9796311242132476e-06,5.702119537254385e-07,1.2008129622642914e-06,-9.080374066973842e-08,-8.487171475634578e-07,-1.5814079378924484e-07,1.0018172507812767e-06,1.269678562952187e-06,3.4734456857143356e-08,5.101731429439927e-07
-1.3295480367429602e-07,-4.971413946701528e-07,-2.4343062877609384e-07,-2.2283520230205438e-06,-1.585059432525667e-06,1.4469752759703411e-06,1.1146695181857898e-06,5.756327676918242e-07,1.9905702410092945e-06,5.529149129288742e-07,1.198962094890115e-06,-1.0133455271516799e-07,-8.494302831810625e-07,-1.479199122941429e-07,1.0373421696398588e-06,1.3159938028077526e-06,2.0218063294185785e-11,5.196893950378794e-07
-1.6322443799302204e-07,-4.741175790648871e-07,-2.6197139367265425e-07,-2.2323270729397553e-06,-1.585552105378303e-06,1.4258394055752682e-06,1.1483604453883035e-06,5.056113488238485e-07,1.9862836199131095e-06,5.287908691550502e-07,1.1862257039815879e-06,-1.1712163108488426e-07,-8.488867472905523e-07,-1.3618115251527184e-07,1.0732855438550954e-06,1.3626480522123958e-06,-3.994477483617052e-08,5.269953982557529e-07
-2.0715745414228527e-07,-4.673734516221629e-07,-2.885398586121051e-07,-2.240579394634383e-06,-1.581135418455506e-06,1.396507791098174e-06,1.1687520265931873e-06,4.2444335823607916e-07,1.965285803779693e-06,4.997534394439349e-07,1.1644555966428594e-06,-1.3821311832642527e-07,-8.488982099664722e-07,-1.2247305892795063e-07,1.1031935684730624e-06,1.4139595050085306e-06,-8.598311775174043e-08,5.287678145672559e-07
-2.633648843690628e-07,-4.745522215130655e-07,-3.2395696447567903e-07,-2.255634409106515e-06,-1.5773087683828781e-06,1.3584627085276408e-06,1.1727436887997485e-06,3.3455182083459784e-07,1.9275491160419887e-06,4.6717468753160945e-07,1.136716269621395e-06,-1.6439596899448852e-07,-8.524432562561211e-07,-1.0782696553259741e-07,1.1183247853980777e-06,1.4323715641589525e-06,-1.3867430496707446e-07,5.22651610314147e-07
-3.279302877116368e-07,-4.922618536404127e-07,-3.682986590520645e-07,-2.2785365211898392e-06,-1.5795108362102867e-06,1.31455843629991e-06,1.1604182623186342e-06,2.4114784140953356e-07,1.8765095970000416e-06,4.321909788411621e-07,1.1063702045990598e-06,-1.9461468183042253e-07,-8.620817254087129e-07,-9.256405945437212e-08,1.111265422247575e-06,1.3983916498464738e-06,-1.9714661469164035e-07,5.065752747706418e-07
-3.9604517485373284e-07,-5.165872472437056e-07,-4.206050469439052e-07,-2.3086765757891517e-06,-1.5903013087944982e-06,1.2679105914928952e-06,1.1363334326341881e-06,1.5218079363903611e-07,1.8177489411273437e-06,3.9629885134753453e-07,1.0762732568718922e-06,-2.2587993542389053e-07,-8.789163623687986e-07,-7.636245702047225e-08,1.0766659083340662e-06,1.3045768650805554e-06,-2.593500056609337e-07,4.79428732024588e-07
-4.6592090370595577e-07,-5.440089272018769e-07,-4.792387093617101e-07,-2.344417913562225e-06,-1.6095033438011165e-06,1.2230629069129945e-06,1.1080654537799991e-06,7.427164034143687e-08,1.7560254340182942e-06,3.5966689721842736e-07,1.047256711137363e-06,-2.556490458804309e-07,-9.026629341652378e-07,-5.990611448784068e-08,1.0124315648462157e-06,1.2079656552388774e-06,-3.2484322058432877e-07,4.417868728248288e-07
-5.362435412717006e-07,-5.725408740182887e-07,-5.427932913955262e-07,-2.3841476825349874e-06,-1.6357368124891264e-06,1.1833119753678347e-06,1.0828728988248322e-06,1.022543849605148e-08,1.6943574444124432e-06,3.210764036709503e-07,1.0168775359490114e-06,-2.833134094333527e-07,-9.321765301530749e-07,-4.606585176817966e-08,9.21675133912903e-07,1.2312873079884453e-06,-3.931989313318473e-07,3.943177160176781e-07
-6.06510827348891e-07,-6.020975132493544e-07,-6.08181766081157e-07,-2.4272952703507907e-06,-1.6679588247826784e-06,1.1494549233013157e-06,1.0650769850783178e-06,-4.107445876939958e-08,1.6345075921076627e-06,2.78793642482463e-07,9.808710661258488e-07,-3.0982150607819434e-07,-9.655000841514927e-07,-3.8992621153948965e-08,8.110921391585084e-07,1.2609918327068995e-06,-4.6353130875643806e-07,3.3895442235249753e-07
-6.752363723198107e-07,-6.33536140563499e-07,-6.728942531272314e-07,-2.4739188342356468e-06,-1.7050702062656534e-06,1.1219053592998245e-06,1.0556744656451851e-06,-8.129662052411946e-08,1.5776300786842874e-06,2.3215335469876032e-07,9.354857271282491e-07,-3.363521325797626e-07,-9.999145195936424e-07,-4.215965472285449e-08,6.896757823913955e-07,1.2241660344006757e-06,-5.338784640403385e-07,2.7889989676894957e-07
-7.393364900618989e-07,-6.67138481230079e-07,-7.342069824443609e-07,-2.523734053156501e-06,-1.7447859997810117e-06,1.1010834376238346e-06,1.0533148885580382e-06,-1.1233591414862211e-07,1.5242699960465427e-06,1.825865901836719e-07,8.792741538749769e-07,-3.6320568498945724e-07,-1.0327145226623089e-06,-5.725628600523265e-08,5.681924673384881e-07,1.1575960028713378e-06,-6.006468457824864e-07,2.1759978961025846e-07
-7.956501834177115e-07,-7.019276609405305e-07,-7.890087553575618e-07,-2.575538117820687e-06,-1.7838455652605217e-06,1.0868582912151723e-06,1.0550794517966537e-06,-1.361619960941121e-07,1.4744327586401958e-06,1.3384148239779157e-07,8.131059213632336e-07,-3.9048201827538783e-07,-1.0622637494783e-06,-8.423036986556383e-08,4.5539901388856846e-07,1.047812656710681e-06,-6.610727452852588e-07,1.58346875025969e-07
-8.420004902111404e-07,-7.362592844114964e-07,-8.357241185994733e-07,-2.627452731856208e-06,-1.8194618339762316e-06,1.077491724084192e-06,1.0568913581872152e-06,-1.5684240749607624e-07,1.426946447137833e-06,8.750084819613372e-08,7.395020438608754e-07,-4.192654799036032e-07,-1.088964926520662e-06,-1.2200502330102266e-07,3.561428620663438e-07,9.113896215259378e-07,-7.144764578409844e-07,1.0309209359923695e-07
-8.782745931460151e-07,-7.687395415416555e-07,-8.740182003442894e-07,-2.6780664375395265e-06,-1.8501847997188935e-06,1.0694967931853691e-06,1.054470925377032e-06,-1.7853644705980236e-07,1.3801500921357482e-06,4.447924728488874e-08,6.619136338831676e-07,-4.488016786944478e-07,-1.1141269630456963e-06,-1.6805820772414238e-07,2.718040562710514e-07,8.066507736880298e-07,-7.613714650354807e-07,5.326566770908432e-08
-9.056818235131415e-07,-7.985220413968252e-07,-9.043474244524171e-07,-2.7264127212659346e-06,-1.8753996335846625e-06,1.061019062885006e-06,1.0449182485867777e-06,-2.03561944985794e-07,1.3325161636677146e-06,4.874902641091614e-09,5.842773796772879e-07,-4.796501726868709e-07,-1.138498836825114e-06,-2.1830654835971544e-07,2.0018081568152433e-07,7.299289285003819e-07,-8.019803803837528e-07,8.824378959100867e-09
-9.243790160368492e-07,-8.251673716977479e-07,-9.280437848308986e-07,-2.771937069228772e-06,-1.8948362632428344e-06,1.0517201137905507e-06,1.027646840351481e-06,-2.325302951971818e-07,1.2835072322654e-06,-3.1979068047100915e-08,5.110690677022573e-07,-5.118778414716719e-07,-1.161906958000318e-06,-2.684872963176753e-07,1.3972091215424106e-07,6.461205273661761e-07,-8.379262135038305e-07,-2.8422116736094553e-08
-9.331376286746671e-07,-8.486808163049212e-07,-9.458764592610799e-07,-2.814658120248779e-06,-1.9092114028285506e-06,1.041512515179251e-06,1.0037467402527559e-06,-2.651728125227495e-07,1.2334625539307826e-06,-6.67502567207017e-08,4.454654115577239e-07,-5.448765101870839e-07,-1.183806946152601e-06,-3.156274543781125e-07,8.691453547412316e-08,5.546197601361052e-07,-8.715254816451372e-07,-6.015175045031791e-08
-9.349886648475734e-07,-8.696451786720462e-07,-9.587686490989562e-07,-2.855054294380018e-06,-1.920883936187234e-06,1.0298539406478852e-06,9.74770108440812e-07,-3.021973359175898e-07,1.1825422002005387e-06,-1.0051709551644822e-07,3.880762451920708e-07,-5.789949851776626e-07,-1.204134729706578e-06,-3.590371911379102e-07,3.769634034133584e-08,4.5167757375026194e-07,-9.046001885484063e-07,-8.935052327005612e-08
-9.311865214066137e-07,-8.888983134103212e-07,-9.683264366604624e-07,-2.8938165313448187e-06,-1.9327755001568553e-06,1.0151331152327246e-06,9.417958047268312e-07,-3.439376952732194e-07,1.130869044281174e-06,-1.3357336259566392e-07,3.3750314665095247e-07,-6.131948902948123e-07,-1.2231376469346134e-06,-3.993490136750055e-07,-9.942645003900383e-09,3.6529064462504924e-07,-9.37783911953842e-07,-1.1678289996144202e-07
-9.219151871926254e-07,-9.067719096900428e-07,-9.753867643830417e-07,-2.93102993906364e-06,-1.945996989745818e-06,9.960302049854269e-07,9.062202575816734e-07,-3.889804926784573e-07,1.0783146975797089e-06,-1.6473953123700643e-07,2.914621559160776e-07,-6.447043850790799e-07,-1.2407397244332026e-06,-4.369944599201639e-07,-5.7131894079560347e-08,2.9352480247518453e-07,-9.697572503428558e-07,-1.4358815491967616e-07
-9.054772702269032e-07,-9.226583222243363e-07,-9.799429546452169e-07,-2.9658273470847827e-06,-1.958668363660558e-06,9.720629840336428e-07,8.703297785435717e-07,-4.3398524844375135e-07,1.0243272419023075e-06,-1.9098882028306713e-07,2.482498755412489e-07,-6.69818667373428e-07,-1.256613237470144e-06,-4.719049428433235e-07,-1.041189434839819e-07,2.4608225786393467e-07,-9.983889500660836e-07,-1.689627549824674e-07
-8.808647846415512e-07,-9.354739407676813e-07,-9.819801660560657e-07,-2.996308992259292e-06,-1.9673349897124e-06,9.428915964894933e-07,8.36515151440624e-07,-4.7591958764589065e-07,9.679055588992933e-07,-2.0987717750483945e-07,2.0684753873844302e-07,-6.870787611403529e-07,-1.270513663436327e-06,-5.041989244201279e-07,-1.516756911624083e-07,1.9255073314081428e-07,-1.0223148985823002e-06,-1.9263712996066459e-07
-8.486468601108302e-07,-9.445625160229512e-07,-9.82495907589864e-07,-3.0202594847939e-06,-1.9693882527548888e-06,9.07196909400865e-07,8.068551787426182e-07,-5.136767302726795e-07,9.074886810493054e-07,-2.2101960594231478e-07,1.6695187429203464e-07,-6.949249714737203e-07,-1.283025828940611e-06,-5.343552373208579e-07,-2.0200638504777018e-07,1.2265080249316593e-07,-1.0420583672987464e-06,-2.1609441246215053e-07
-8.107495042418583e-07,-9.499308465256846e-07,-9.83598727102777e-07,-3.035771341630067e-06,-1.9639780293675598e-06,8.63714285420931e-07,7.826368635413935e-07,-5.475951692724957e-07,8.423423042259328e-07,-2.2600723107005612e-07,1.2947467629816987e-07,-7.022387753816487e-07,-1.2949689371133355e-06,-5.625789519970631e-07,-2.5817930420350206e-07,5.673442204730157e-08,-1.059317759940426e-06,-2.40379813304004e-07
-7.712477361671247e-07,-9.513667935003784e-07,-9.857556755511743e-07,-3.0413797523114913e-06,-1.9513720062579257e-06,8.128356194409235e-07,7.646595818286058e-07,-5.782677851621403e-07,7.743297084100457e-07,-2.2935889383364042e-07,9.709566494327824e-08,-7.115604964843163e-07,-1.306395702891308e-06,-5.871399818363065e-07,-3.216676223230286e-07,-1.6319008346293504e-08,-1.0754317977031542e-06,-2.6595742636341796e-07
-7.322468252469414e-07,-9.473318236124903e-07,-9.904267209883585e-07,-3.036366269921735e-06,-1.9329870926645813e-06,7.566677927458072e-07,7.528832108180351e-07,-6.070700953786626e-07,7.073312880107463e-07,-2.341091074706392e-07,7.397461061232951e-08,-7.257826305457087e-07,-1.3167242681346854e-06,-6.051084381205127e-07,-3.921781107096137e-07,-9.626969559211632e-08,-1.091171218707878e-06,-2.9144524678299016e-07
-6.950066838855938e-07,-9.348733216974669e-07,-9.972700715936188e-07,-3.021193018586075e-06,-1.913006583842408e-06,6.967929892509589e-07,7.415813417615885e-07,-6.361476560490568e-07,6.467004444215266e-07,-2.4416491211602966e-07,6.327876469474991e-08,-7.478693561542752e-07,-1.3254476979239094e-06,-6.151976058726752e-07,-4.683882865226881e-07,-1.91040057678598e-07,-1.1081078530013765e-06,-3.17813059867002e-07
-6.614565460116351e-07,-9.107433602375834e-07,-1.004597561570622e-06,-2.9978378816473322e-06,-1.8994916927036063e-06,6.317744478991087e-07,7.270012383559953e-07,-6.720585062956573e-07,5.972982936720539e-07,-2.6397144518193357e-07,6.7214973077853e-08,-7.789502074586042e-07,-1.3324808610289133e-06,-6.181387218170431e-07,-5.476622529352783e-07,-3.05294172411701e-07,-1.1276563400188433e-06,-3.45368476996616e-07
-6.344579442524005e-07,-8.728946902970883e-07,-1.0114010068650964e-06,-2.9693698094505825e-06,-1.9023898434068667e-06,5.575707542000454e-07,6.977751713449315e-07,-7.207908232762772e-07,5.617947038281196e-07,-2.985874183931127e-07,8.231061507016099e-08,-8.20011047835279e-07,-1.337160333097195e-06,-6.161813436256377e-07,-6.2661188145296e-07,-4.270003528132706e-07,-1.1471632299855217e-06,-3.758222006988616e-07
-6.159710432415446e-07,-8.217465199101233e-07,-1.0153983005786862e-06,-2.93850338483492e-06,-1.9286674708231845e-06,4.7150515976239935e-07,6.417791420142618e-07,-7.841751989373187e-07,5.404341435402239e-07,-3.5062404583734057e-07,1.052447616043813e-07,-8.666672961456012e-07,-1.337459578613882e-06,-6.12251183011529e-07,-6.984464013454292e-07,-5.486721452387714e-07,-1.1679663698161494e-06,-4.0635663875012716e-07
-6.060415277713788e-07,-7.613066458698818e-07,-1.013165366139649e-06,-2.9061714949990194e-06,-1.9777103268688763e-06,3.7617283724554483e-07,5.544282815502961e-07,-8.529669103706397e-07,5.31184522709133e-07,-4.171153423718043e-07,1.3105351485191169e-07,-9.087862004129923e-07,-1.3303682804532907e-06,-6.094150488402236e-07,-7.556702118822467e-07,-6.631680347662941e-07,-1.1792632731195794e-06,-4.303525372541276e-07
-6.026894424543404e-07,-6.998416736509726e-07,-1.0025684828367624e-06,-2.87070915735513e-06,-2.040111734379165e-06,2.811796526938145e-07,4.3532515178569337e-07,-9.148108883924391e-07,5.31520786294564e-07,-4.894857215246931e-07,1.4811440473567867e-07,-9.303620484464562e-07,-1.3138361130900303e-06,-6.111842517814159e-07,-7.929198009498766e-07,-7.443992513995815e-07,-1.1617880820902495e-06,-4.44416411057611e-07
-6.03223684555656e-07,-6.486652197534853e-07,-9.802385662429734e-07,-2.8282429363606698e-06,-2.100620964515694e-06,2.0069388175872542e-07,2.989970770796966e-07,-9.541538406689053e-07,5.35270719963511e-07,-5.426844447251362e-07,1.5088151844238057e-07,-9.191775331909885e-07,-1.2886519693377148e-06,-6.213283248635178e-07,-8.077353850263606e-07,-7.785056860917521e-07,-1.1408332613049873e-06,-4.4571905845374006e-07
-6.036674491702531e-07,-6.181393729391007e-07,-9.446983191754669e-07,-2.7742181498461933e-06,-2.143627222755418e-06,1.4916440566652e-07,1.6376738386434304e-07,-9.321265844618651e-07,5.367650581788788e-07,-5.537127783891857e-07,1.3817687539887144e-07,-8.694632504571345e-07,-1.2581426717827238e-06,-6.419666752415964e-07,-8.02837629855711e-07,-7.388334251682707e-07,-1.115637820567071e-06,-4.3315744777208763e-07
-5.992378747713546e-07,-6.12622232016094e-07,-8.980040104710842e-07,-2.7053134397715482e-06,-2.1585556374685243e-06,1.3543663825662677e-07,7.392300172640615e-08,-9.03496106514956e-07,5.346796694153256e-07,-5.059208416221417e-07,1.139881249207437e-07,-7.843254973056623e-07,-1.226159344759818e-06,-6.717869407524137e-07,-7.836461434214228e-07,-6.896744155037313e-07,-1.0550471982776879e-06,-4.1032426171696244e-07
-5.86331991864737e-07,-6.278668955752021e-07,-8.440764392253922e-07,-2.62133034155848e-06,-2.1432149538284774e-06,1.6136202669502238e-07,6.00660076956639e-08,-8.533878570193122e-07,5.306669016484612e-07,-4.6590171311058463e-07,9.224233410286993e-08,-6.740909346834578e-07,-1.1955024452376123e-06,-7.065529470506788e-07,-7.547934443048166e-07,-6.415303047779817e-07,-9.917540857343028e-07,-3.7548660637421837e-07
-5.619587046821776e-07,-6.530396700740043e-07,-7.894248813588571e-07,-2.5266893743173164e-06,-2.1040480343103538e-06,2.2161205774351375e-07,6.469990474465411e-08,-7.757118039671344e-07,5.319251035516173e-07,-4.5229870996865817e-07,8.431066455084164e-08,-5.541723645500674e-07,-1.167737213547889e-06,-7.406993628215007e-07,-7.184003701008694e-07,-6.380861735216928e-07,-9.383553022147523e-07,-3.3438174378721477e-07
-5.2686677568567e-07,-6.760286041757275e-07,-7.409067293222339e-07,-2.4297910831827067e-06,-2.0528498890139643e-06,3.032543220971906e-07,5.393359524017434e-08,-6.657185580049188e-07,5.432047131678508e-07,-4.3988433604018224e-07,9.638622859301751e-08,-4.4194104505007826e-07,-1.1435064077718946e-06,-7.68682734088967e-07,-6.814409932029888e-07,-6.574213948266648e-07,-8.91350049661352e-07,-2.926193123472972e-07
-4.859017522770236e-07,-6.881474529065986e-07,-7.041537505508441e-07,-2.3401839523114873e-06,-2.0013800827281794e-06,3.92089177157592e-07,1.8051976566215162e-08,-5.71127602778528e-07,5.665364931304568e-07,-4.036157638306158e-07,1.3013910420493158e-07,-3.5257567230968374e-07,-1.1221727014899105e-06,-7.854861946684385e-07,-6.471452480207995e-07,-6.681093835459145e-07,-8.514910120978669e-07,-2.5298498635170175e-07
-4.43813350901041e-07,-6.856503647125425e-07,-6.808996890562568e-07,-2.2653279971572203e-06,-1.957072842391783e-06,4.756633268242119e-07,6.72165898477029e-08,-5.021768751337957e-07,6.01462676258275e-07,-3.521373670298515e-07,1.8194785854605773e-07,-2.859361210879083e-07,-1.1014681680026318e-06,-7.868748577888074e-07,-6.160284974032885e-07,-6.875473106817252e-07,-8.335736138686607e-07,-2.2054216187483733e-07
-4.0659928295359964e-07,-6.688734027162546e-07,-6.706501162779036e-07,-2.2084627139826296e-06,-1.922385897914595e-06,5.463624774936606e-07,1.5903054807586947e-07,-4.504537595440766e-07,6.424662483607791e-07,-2.785179531242266e-07,2.4754505270540577e-07,-2.440827072693099e-07,-1.0778779031527824e-06,-7.706948630048287e-07,-5.880022456078416e-07,-6.585358506668192e-07,-8.323849728083568e-07,-1.90780495594322e-07
-3.7788647933695716e-07,-6.408579688751084e-07,-6.694555585704995e-07,-2.168399294328523e-06,-1.895769642269483e-06,6.049094018365097e-07,2.279785418911748e-07,-4.095721231942748e-07,6.905065756658062e-07,-2.115720931350877e-07,3.2255681645010784e-07,-2.2175193795896499e-07,-1.0479212443269453e-06,-7.383244101541038e-07,-5.598142165410491e-07,-6.315473954715817e-07,-8.148478047622405e-07,-1.6329479946761785e-07
-3.5824484263613757e-07,-6.062032406137797e-07,-6.722725120780742e-07,-2.1412225146731477e-06,-1.8752659749850507e-06,6.527515182372783e-07,3.242670516506666e-07,-3.697699394927099e-07,7.447758665938098e-07,-1.5321075087585007e-07,4.025795623432009e-07,-2.1127633123202371e-07,-1.009800033914699e-06,-6.950342381226141e-07,-5.285272493755805e-07,-5.959685790075331e-07,-7.885687395292727e-07,-1.357593723528059e-07
-3.469693362812192e-07,-5.699848976325005e-07,-6.763013638296527e-07,-2.1228069913841937e-06,-1.8598743892589642e-06,6.924978700140581e-07,3.9837502874546424e-07,-3.2426683417513156e-07,8.023818074226541e-07,-1.1933606388909032e-07,4.817247675200738e-07,-2.0455558761396723e-07,-9.641151792548954e-07,-6.490992855768388e-07,-4.920331769583325e-07,-5.373215844979486e-07,-7.583467438666715e-07,-1.0653527506095139e-07
-3.421342629334925e-07,-5.364504254514801e-07,-6.79247198027954e-07,-2.110540773977199e-06,-1.8500521513273787e-06,7.27451617875004e-07,4.4864497941138287e-07,-2.711224684198216e-07,8.655768338553353e-07,-1.0378690739757393e-07,5.554894141673701e-07,-1.8806907290819046e-07,-9.13199211870809e-07,-6.088369769005802e-07,-4.4859595313365245e-07,-4.842370530176495e-07,-7.201746685434064e-07,-7.163330615488309e-08
-3.410035641076918e-07,-5.081649690729748e-07,-6.80638621449085e-07,-2.1035469903368047e-06,-1.8465655553915206e-06,7.596972797127017e-07,4.933909638303095e-07,-2.1295918047684952e-07,9.297348087643223e-07,-9.309886278352242e-08,6.190584744571544e-07,-1.747606270523316e-07,-8.602430500573542e-07,-5.79535603509642e-07,-3.9602657502525974e-07,-4.321671296558688e-07,-6.733188340455766e-07,-3.792674859099637e-08
-3.41846471385273e-07,-4.864782458374128e-07,-6.813805600862403e-07,-2.102081982455351e-06,-1.8478375674020882e-06,7.89475741623224e-07,5.245903038082231e-07,-1.558246576877864e-07,9.889728164280759e-07,-8.31880277290144e-08,6.7192655564731e-07,-1.59847932614833e-07,-8.08590894432221e-07,-5.622830769443476e-07,-3.2781553133557775e-07,-3.825720022584995e-07,-6.280342368028184e-07,-6.404862769114081e-09
-3.4514514656168243e-07,-4.724082885370368e-07,-6.826272674858113e-07,-2.106472996643109e-06,-1.8525732668784372e-06,8.148042780041138e-07,5.596411459494506e-07,-1.0721302518507689e-07,1.0416265764837407e-06,-6.860525554421313e-08,7.147982035712626e-07,-1.475174231469984e-07,-7.611708730525905e-07,-5.537719109886327e-07,-2.6028770620391757e-07,-3.2918612809510336e-07,-5.868460585636346e-07,2.3461034954694612e-08
-3.503795977318387e-07,-4.666007243599267e-07,-6.866135251248393e-07,-2.1164463939289273e-06,-1.8601717295277253e-06,8.32516978952899e-07,5.989361990922675e-07,-7.254701261951642e-08,1.0870048380745075e-06,-5.519575006812004e-08,7.450452558229778e-07,-1.4423037517818397e-07,-7.199963269963703e-07,-5.500103519402085e-07,-1.9558097436104244e-07,-2.405864531822127e-07,-5.509477154275174e-07,4.8830659889145364e-08
-3.631269190787337e-07,-4.686398878745235e-07,-6.953171619440064e-07,-2.130961980790145e-06,-1.8701801368081804e-06,8.39492491494556e-07,6.37269992880063e-07,-5.2191642563811355e-08,1.1254411926585573e-06,-4.849784532848955e-08,7.611776879653602e-07,-1.4669447097090947e-07,-6.856915718311089e-07,-5.468397355904204e-07,-1.3448205437981496e-07,-1.3819315244774442e-07,-5.222268989443114e-07,7.196361445515802e-08
-3.820785813506351e-07,-4.7656602944558203e-07,-7.093069285479742e-07,-2.1480540958417075e-06,-1.8823838219916003e-06,8.364244462281783e-07,6.736028704322382e-07,-4.072318382781442e-08,1.1597323812557151e-06,-4.9911776343272475e-08,7.658177058864526e-07,-1.5475983828925538e-07,-6.577096398974404e-07,-5.411618937878677e-07,-8.407426191218186e-08,-4.8184406868849055e-08,-4.964009540477365e-07,9.43963668201036e-08
-4.057467486004797e-07,-4.870413607283279e-07,-7.280501212507002e-07,-2.1650732087439868e-06,-1.8958296985770203e-06,8.237362085008233e-07,7.058771760176851e-07,-3.043358810466398e-08,1.1928531795162684e-06,-5.810522520514971e-08,7.627486969650108e-07,-1.6812120126927883e-07,-6.354116012654079e-07,-5.328020740757978e-07,-4.496300894055344e-08,3.5003843007257113e-08,-4.7189007170678924e-07,1.1457728884837631e-07
-4.3300397832929793e-07,-4.963501838606675e-07,-7.50782008771561e-07,-2.179397633345134e-06,-1.912118951816057e-06,8.05416002559002e-07,7.312712692813799e-07,-1.6339967884039326e-08,1.2237560000980003e-06,-7.082721467632527e-08,7.562258860486195e-07,-1.8813248592812136e-07,-6.189103213833529e-07,-5.237461313600715e-07,-2.295191175711545e-08,1.0000904752514696e-07,-4.490837015165193e-07,1.3075762092179566e-07
-4.586262640577251e-07,-5.016990377309388e-07,-7.770064565587642e-07,-2.189061114163009e-06,-1.932156307974041e-06,7.855172233804292e-07,7.467973084700065e-07,2.44423980147246e-09,1.2520107611509493e-06,-8.613897598846065e-08,7.502514970267597e-07,-2.1113536421383361e-07,-6.088623346101676e-07,-5.173119487954834e-07,-1.7589013690010463e-08,1.4069053738654133e-07,-4.2816492669918506e-07,1.4258344700174013e-07
-4.821219368384571e-07,-5.019168235597074e-07,-8.059336212549807e-07,-2.1929207486392122e-06,-1.9543309346678785e-06,7.664336448890507e-07,7.509625198221541e-07,2.378311755001004e-08,1.2771405244686172e-06,-1.0258030349789369e-07,7.462141320526788e-07,-2.444993405485835e-07,-6.05538812597774e-07,-5.134578246170298e-07,-2.6608756937804848e-08,1.6921720019809346e-07,-4.060557300385832e-07,1.4801739613577713e-07
-5.066921664968735e-07,-4.975664371185475e-07,-8.364294992373666e-07,-2.190769679658288e-06,-1.974617656963887e-06,7.540135189605379e-07,7.451729312025042e-07,4.445066184440722e-08,1.2987001663853199e-06,-1.195879018696655e-07,7.454368967595757e-07,-2.780824103428502e-07,-6.08647252082032e-07,-5.067327221203574e-07,-4.1280803111402366e-08,1.874576127061389e-07,-3.8091723589702523e-07,1.4842870175986247e-07
-5.330819384945512e-07,-4.910946677932976e-07,-8.675753099612967e-07,-2.183656078957387e-06,-1.988832754534142e-06,7.494801260122844e-07,7.331407055122542e-07,6.133103105080495e-08,1.318847556749687e-06,-1.376059072020201e-07,7.487065363808477e-07,-3.135818242645343e-07,-6.178544645479461e-07,-4.956930849761719e-07,-5.644585884734308e-08,1.922964136209587e-07,-3.667429835024607e-07,1.3674348495592367e-07
-5.624159190977168e-07,-4.869222607369958e-07,-8.98893231950518e-07,-2.174127459527355e-06,-1.9910095981558057e-06,7.518436476954314e-07,7.189988364141712e-07,7.201106960781489e-08,1.3376677290574026e-06,-1.5805162725344688e-07,7.525254719914985e-07,-3.4158477004671933e-07,-6.328878454716623e-07,-4.827890650256498e-07,-7.056010329274755e-08,2.004327308431086e-07,-3.7003346556677347e-07,1.1639108376208834e-07
-5.997194392612973e-07,-4.906826007064005e-07,-9.313060780463814e-07,-2.165115215256514e-06,-1.984990534684491e-06,7.60303332733056e-07,7.05898405501889e-07,7.50160070729836e-08,1.3547657034247016e-06,-1.8223641098733437e-07,7.558294468394675e-07,-3.641376431619977e-07,-6.529444049506965e-07,-4.660096199827465e-07,-8.120506645547621e-08,2.1874538112647705e-07,-3.8971509297888555e-07,8.879541537147683e-08
-6.478559508395199e-07,-5.073956214097438e-07,-9.659470159145897e-07,-2.1608908512797423e-06,-1.974898949546602e-06,7.702539777173938e-07,6.955957428512768e-07,7.091484175663857e-08,1.367754988274003e-06,-2.0978876337487816e-07,7.549776727252172e-07,-4.012595128382525e-07,-6.762520623665217e-07,-4.4526012518921184e-07,-9.436708295674427e-08,2.4217192823110067e-07,-4.2719557318547835e-07,5.27602952986443e-08
-7.032319133161985e-07,-5.394345085716197e-07,-1.0032608737774082e-06,-2.165195999122307e-06,-1.966291497384199e-06,7.790455305417414e-07,6.883198725166074e-07,6.122176028222724e-08,1.3727002761354522e-06,-2.3940121487948473e-07,7.53083050826716e-07,-4.585031758002056e-07,-7.008038701336624e-07,-4.219233883667453e-07,-1.0575621180363033e-07,2.4728826201179814e-07,-4.773849366650052e-07,1.0429618034838014e-08
-7.631352961739367e-07,-5.85312334211283e-07,-1.043076097443936e-06,-2.180304883686031e-06,-1.9470317708923386e-06,7.829687366457563e-07,6.82499687724165e-07,4.631444827542778e-08,1.3676666470029526e-06,-2.698843825472346e-07,7.514796663028726e-07,-5.080526039904917e-07,-7.256011165373772e-07,-3.9611242545850865e-07,-1.2472518142124216e-07,2.0946863775275025e-07,-5.386132408454105e-07,-2.3337951140095836e-08
-8.191453383854689e-07,-6.396407527299083e-07,-1.0850580822738942e-06,-2.2080411307305932e-06,-1.923314663030213e-06,7.774449093285553e-07,6.749882013758399e-07,2.3067655367304797e-08,1.351314268672134e-06,-3.0016168626110133e-07,7.408351949627724e-07,-5.509174128355672e-07,-7.511568082801105e-07,-3.72760398867548e-07,-1.858714806299708e-07,1.181810054097233e-07,-6.007864169970785e-07,-5.4032563938155555e-08
-8.61951219971528e-07,-6.941219251932536e-07,-1.1287384276800839e-06,-2.2471690323862874e-06,-1.9019926625469436e-06,7.5828575324069e-07,6.621100784944535e-07,-9.894617749414952e-09,1.3226689730450016e-06,-3.296626525241253e-07,7.128837352289364e-07,-5.908132592105912e-07,-7.787085801933641e-07,-3.659338637982325e-07,-2.6266565709988406e-07,5.1074082880498906e-08,-6.525965885651709e-07,-9.525691281233701e-08
-8.943694988487779e-07,-7.394092840277191e-07,-1.1745314832823473e-06,-2.2939616599587277e-06,-1.8884877031433357e-06,7.224673477072426e-07,6.409475846016533e-07,-5.1712378722513626e-08,1.2836019004464054e-06,-3.5788406104197534e-07,6.708190929393229e-07,-6.298202963299603e-07,-8.091050005970533e-07,-3.7536286387801435e-07,-3.599469435305101e-07,8.292721095945196e-09,-6.951696529734389e-07,-1.2725580731931766e-07
-9.08788339549166e-07,-7.675145053127951e-07,-1.223085813481244e-06,-2.3472513809387253e-06,-1.888262039103749e-06,6.711015316452297e-07,6.099709264798481e-07,-1.0035635975158192e-07,1.238285278452328e-06,-3.847691779094892e-07,6.317886510710516e-07,-6.637311501947799e-07,-8.424469561412955e-07,-3.981659668445975e-07,-4.803856181639066e-07,-3.6670705527706304e-08,-7.309553125213391e-07,-1.6235250967439775e-07
-9.158767246506307e-07,-7.739365307057575e-07,-1.2744908687568654e-06,-2.4097535789325237e-06,-1.8670749877056927e-06,6.064200598840628e-07,5.690952792472005e-07,-1.5235104074456681e-07,1.1899715318456948e-06,-4.1188957290615024e-07,6.065531999861243e-07,-7.273632186245168e-07,-8.781447596228434e-07,-4.2932972515136627e-07,-6.04853747627536e-07,-4.367861448593533e-08,-7.716863261346322e-07,-2.1306835142933981e-07
-9.164585259606458e-07,-7.586588724903712e-07,-1.327423748502767e-06,-2.47340258624133e-06,-1.8225624429415157e-06,5.331783974744214e-07,5.190274603434414e-07,-2.0454093447766142e-07,1.1466711139326952e-06,-4.422672515865087e-07,5.798593338930526e-07,-7.946339826887017e-07,-9.148435179075203e-07,-4.57278818116391e-07,-7.302579678294628e-07,-1.8865531237162883e-08,-8.45005042722168e-07,-2.3263146033619456e-07
-9.324021902273028e-07,-7.261001184106205e-07,-1.3782249922115099e-06,-2.5404896890056046e-06,-1.6851417963243388e-06,4.5779792023858796e-07,4.6802501210315363e-07,-2.5401971094824544e-07,1.1120763007941064e-06,-4.782167016904222e-07,5.370696801190682e-07,-8.460703805269336e-07,-9.503808444855642e-07,-4.7682811732927555e-07,-8.284316061858683e-07,-4.456815113912779e-08,-8.877434357994276e-07,-2.272393880239694e-07
-9.870356628024231e-07,-6.847673818627278e-07,-1.4203895274542134e-06,-2.5866971741037533e-06,-1.4950850597674538e-06,3.873664527588588e-07,4.2293214983320895e-07,-2.97700955813763e-07,1.0943132505146778e-06,-5.229235834505472e-07,4.718728476137249e-07,-9.596173260540124e-07,-9.824257838682244e-07,-4.96946524766039e-07,-9.000068332416684e-07,-1.0167704196704009e-07,-9.016314241732509e-07,-2.2156728703084002e-07
-1.1129699437384345e-06,-6.465265664305518e-07,-1.44682558277753e-06,-2.5338574967012607e-06,-1.333735099581246e-06,3.2877846199526354e-07,3.890283340233831e-07,-3.3405250517699927e-07,1.0946263816428738e-06,-5.771907477389796e-07,3.243983448418831e-07,-9.98656136636853e-07,-1.0096954760528052e-06,-5.268520038633807e-07,-9.522898342766972e-07,-1.198079947256566e-07,-9.365018851500706e-07,-2.014460422181613e-07
-1.2512063381465624e-06,-6.243990984456836e-07,-1.4516838037544465e-06,-2.4997883820364853e-06,-1.210579799950791e-06,2.8518332494384014e-07,3.72925548980761e-07,-3.651686950147058e-07,1.1066447948555715e-06,-6.405727462951581e-07,1.6729899192547173e-07,-1.0421707082593638e-06,-1.0324983317731575e-06,-5.910813910466006e-07,-9.959138578229506e-07,-1.2053541268255998e-07,-1.0299212728134449e-06,-2.0160842810441857e-07
-1.3518755089093244e-06,-6.286747813000469e-07,-1.4312271640913142e-06,-2.460959123186642e-06,-1.0950977266736293e-06,2.539164734585211e-07,3.750007546549609e-07,-3.911907257651413e-07,1.1304441206388737e-06,-7.077928460776901e-07,5.718969899319744e-08,-1.0797940753506348e-06,-1.0520778399133436e-06,-7.206259504458975e-07,-1.0980028319922376e-06,-9.90848739627382e-08,-1.160191455195991e-06,-2.605976609383955e-07
-1.4796213984994302e-06,-6.630963043132349e-07,-1.3858259610155579e-06,-2.3410511711303613e-06,-9.876103978321235e-07,2.3040755234559788e-07,3.9346322480810964e-07,-4.1708087757180376e-07,1.1506930161296159e-06,-7.692894906614747e-07,-3.1568828510953244e-08,-1.2244836622275274e-06,-1.0695593253462798e-06,-8.034791101716606e-07,-1.259887617701232e-06,-9.958809007018107e-08,-1.2553492145631466e-06,-3.454304839635533e-07
-1.6388122327069256e-06,-7.233667512972757e-07,-1.3196216876767366e-06,-2.2292112518886816e-06,-7.867950552850342e-07,2.079404174293449e-07,4.202634192027898e-07,-4.446965884683652e-07,1.1509382913393891e-06,-8.155877973325668e-07,-1.722009956399004e-07,-1.4272161695842013e-06,-1.0855291344322386e-06,-8.790684917718982e-07,-1.3642399996765559e-06,-1.38170939463713e-07,-1.3319504586203667e-06,-4.0600002171091034e-07
-1.750173655428092e-06,-7.986812832620119e-07,-1.2393201679769237e-06,-2.140782702977836e-06,-5.931192090277274e-07,1.7870006904929066e-07,4.568128206070124e-07,-4.74513384426873e-07,1.1264604897706849e-06,-8.164017020273748e-07,-3.2825874702586183e-07,-1.625673509290098e-06,-1.1002279103930676e-06,-9.449866746810976e-07,-1.3675135240752256e-06,-2.1712369217062904e-07,-1.3800597857411242e-06,-4.703253135145991e-07
-1.796006654717395e-06,-8.751348291904773e-07,-1.1528570801993532e-06,-2.0777395932668323e-06,-4.6920869380207834e-07,1.3620642423409645e-07,4.6217401575972674e-07,-5.09032608175004e-07,1.0685849520224276e-06,-7.936077041926466e-07,-4.7593724935131685e-07,-1.7707104924131151e-06,-1.113365670819828e-06,-1.0195964768104952e-06,-1.5378076605550746e-06,-3.416303532472155e-07,-1.4341762126990977e-06,-4.895965228177591e-07
-1.8364807790477864e-06,-9.393433494492801e-07,-1.0676099973914435e-06,-2.053627351763489e-06,-3.6088020039996353e-07,7.966998336464045e-08,4.1538536431988515e-07,-5.500094726396052e-07,9.780328149455279e-07,-7.807168963536518e-07,-5.769362609635657e-07,-1.8360130443285092e-06,-1.1240842079357325e-06,-1.1849510271884034e-06,-1.7342771307271783e-06,-5.08250600436679e-07,-1.4961441855817423e-06,-5.26052238585157e-07
-1.8540224736845704e-06,-9.813678258035413e-07,-9.886378461797495e-07,-2.0662111503089093e-06,-2.2302645151375634e-07,2.9916336520286483e-09,3.166354950489748e-07,-6.01932545057815e-07,8.646593699937665e-07,-7.548190140585559e-07,-6.589107758493668e-07,-1.8345797862262793e-06,-1.1317097845659171e-06,-1.3493906987516785e-06,-1.8538037150471515e-06,-6.952351715498542e-07,-1.5628480590168128e-06,-5.875405139001617e-07
-1.869894665478278e-06,-9.96628812838243e-07,-9.201357352001332e-07,-2.0954655992358554e-06,-1.021273089833953e-07,-9.787091902263808e-08,1.898647368297106e-07,-6.694988501022848e-07,7.284108780321675e-07,-6.940414427795866e-07,-7.280409171813847e-07,-1.892616976521381e-06,-1.1371522556613062e-06,-1.4471148098884206e-06,-1.953599611069363e-06,-8.696943917555607e-07,-1.5922279412595688e-06,-6.309931813418342e-07
-1.868979708105573e-06,-9.862746119675769e-07,-8.66379460368189e-07,-2.113437313031571e-06,-1.4048125040045995e-09,-2.2011104078433042e-07,9.000455426858368e-08,-7.544586410775338e-07,5.743120727547382e-07,-6.141889962003546e-07,-8.047905472653097e-07,-2.027046365163756e-06,-1.1434690067144805e-06,-1.5333373412608629e-06,-2.0101992038500175e-06,-9.904960805616606e-07,-1.6022181965501363e-06,-6.826306680605327e-07
-1.836085670876753e-06,-9.555862114621419e-07,-8.326883344440957e-07,-2.119590294541706e-06,1.1501784029903088e-07,-3.56519168974604e-07,-1.0193311000253217e-08,-8.527476939532635e-07,4.0497609850209694e-07,-5.472509973024035e-07,-8.676157583977278e-07,-2.168431387020687e-06,-1.1543853890806803e-06,-1.6311705167394895e-06,-2.0832910110988955e-06,-1.0342012132845847e-06,-1.5946132317101744e-06,-6.81252908975819e-07
-1.7711342581468866e-06,-9.112609498445875e-07,-8.213827290517645e-07,-2.129584839362441e-06,2.0339325890972539e-07,-4.899029474619269e-07,-1.7538119801820642e-07,-9.532392011302522e-07,2.5985255395875467e-07,-4.91507450816886e-07,-8.977183890413804e-07,-2.314133553485898e-06,-1.1718201958228487e-06,-1.7368455792804235e-06,-2.114741457067696e-06,-1.0852288909173307e-06,-1.5780996640550815e-06,-6.672777423194219e-07
-1.7050468805568373e-06,-8.593892176696574e-07,-8.315565891670135e-07,-2.1187286131895775e-06,1.8685125422652631e-07,-5.995610895802684e-07,-2.7154946861762683e-07,-1.0398426904146085e-06,1.9752165088687387e-07,-4.452750643268338e-07,-9.070709284948054e-07,-2.4050020851728215e-06,-1.1943038818593665e-06,-1.8347636637421457e-06,-2.2073078417670082e-06,-1.1791223223569204e-06,-1.5575008176416048e-06,-6.639388791914585e-07
-1.6479599198883338e-06,-8.050777683178063e-07,-8.587971732952639e-07,-2.097503241490967e-06,1.2949672217735913e-07,-6.786375580512021e-07,-3.233549463670824e-07,-1.1125241533100829e-06,1.8375947542857273e-07,-4.122171747883633e-07,-8.515550697366898e-07,-2.459219183973846e-06,-1.217185283186451e-06,-1.9107792519054018e-06,-2.3438379142534196e-06,-1.260009161868767e-06,-1.5373331534173875e-06,-6.602497285341424e-07
-1.5895769080106473e-06,-7.529523473844717e-07,-8.951549224291527e-07,-2.06719822964529e-06,5.901093041683829e-08,-6.935098872609251e-07,-3.6779916326140885e-07,-1.1494693373039927e-06,2.083263583223513e-07,-3.928186618698396e-07,-7.829816788573632e-07,-2.5038165340725332e-06,-1.234152026319366e-06,-1.906928723404741e-06,-2.391189478795384e-06,-1.3121513638575628e-06,-1.5452047766646744e-06,-6.785955065028832e-07
-1.5570376289197274e-06,-7.072789933869191e-07,-9.313331907441712e-07,-2.0238630601091834e-06,-1.4093836615025945e-08,-6.83203739613525e-07,-4.362096243592562e-07,-1.1333645006291227e-06,1.7537813881907276e-07,-3.8641359340109174e-07,-7.137423164758526e-07,-2.536958350476275e-06,-1.238762489732336e-06,-1.8909958862317716e-06,-2.416022618194307e-06,-1.321189675885388e-06,-1.5649418160913192e-06,-7.020742823024971e-07
-1.5406172284420654e-06,-6.713566702369382e-07,-9.57996154207861e-07,-1.9726779457822346e-06,-2.4920069245431528e-08,-6.418729807575903e-07,-4.97254187164198e-07,-1.0901889106381546e-06,1.665891683572964e-07,-3.895631739333399e-07,-6.27471292347578e-07,-2.5302751097192415e-06,-1.2260785418960158e-06,-1.8702360810362238e-06,-2.40178759063414e-06,-1.3016352655735149e-06,-1.5824278994526137e-06,-7.265033549432722e-07
-1.5271816243773223e-06,-6.467616436712864e-07,-9.680079585594982e-07,-1.9104276375097742e-06,4.046207393010574e-09,-5.877838802939395e-07,-4.773354314127007e-07,-1.048073892320094e-06,2.3580568916354387e-07,-3.958732679502902e-07,-5.591624390671163e-07,-2.512443087732762e-06,-1.194520842046282e-06,-1.8364014793581171e-06,-2.3420794998804614e-06,-1.2748113332098422e-06,-1.5997442191395846e-06,-7.45956772818295e-07
-1.5105018800511991e-06,-6.331325246304072e-07,-9.581381474267237e-07,-1.8400104125593147e-06,7.602649174695373e-09,-5.339522786113538e-07,-4.3621157352374827e-07,-1.0113286238374286e-06,2.920115025660917e-07,-4.0000173830094227e-07,-5.101806708256575e-07,-2.4569395068228007e-06,-1.1470818283429113e-06,-1.837161113891128e-06,-2.283038344461891e-06,-1.2519205426605493e-06,-1.6085420072890281e-06,-7.550822559290709e-07
-1.4877528299495759e-06,-6.286156761946161e-07,-9.307485553059185e-07,-1.7671447879414406e-06,-3.0569626586326696e-09,-4.905385241270363e-07,-4.1602583876993483e-07,-9.771340856461343e-07,3.342438059967119e-07,-3.9696387184112684e-07,-4.750594247731975e-07,-2.3794266015939843e-06,-1.0905557409041068e-06,-1.8597166959561126e-06,-2.2620057022093593e-06,-1.2612386087748977e-06,-1.6071017553119698e-06,-7.536463315133997e-07
-1.4636871843788517e-06,-6.304271552153739e-07,-8.923925571878055e-07,-1.6969088549073006e-06,-1.996828388973437e-08,-4.6289023270096633e-07,-4.042051628258928e-07,-9.539528212237204e-07,3.770546220998064e-07,-3.8355844813751607e-07,-4.4850321341833574e-07,-2.3066552546767768e-06,-1.0327247005299835e-06,-1.89103415535666e-06,-2.259725197208814e-06,-1.2984583589730618e-06,-1.5961545775802137e-06,-7.415443346752678e-07
-1.4406858276069685e-06,-6.349787624204761e-07,-8.497504207669243e-07,-1.634471008508598e-06,-1.5630720971256847e-08,-4.530322005267919e-07,-4.0014284115301885e-07,-9.453191893691451e-07,3.7225123802727775e-07,-3.5934278663117574e-07,-4.2369891699296185e-07,-2.2047753928085227e-06,-9.79711672065286e-07,-1.9247570460313767e-06,-2.259238467485985e-06,-1.3461195273074005e-06,-1.5760589355701142e-06,-7.242320837003995e-07
-1.4194657820113503e-06,-6.37883443050077e-07,-8.102469164131359e-07,-1.583627120076048e-06,1.3179985899607291e-11,-4.6663890179142755e-07,-4.335360939064977e-07,-9.540685075614203e-07,3.5179321898422277e-07,-3.266076673946619e-07,-3.9738450128665024e-07,-2.077900355945122e-06,-9.350705433215156e-07,-1.9447642110091093e-06,-2.240216535823372e-06,-1.374821357766567e-06,-1.5418172701805626e-06,-6.998682686541151e-07
-1.3984289301669152e-06,-6.34649199923864e-07,-7.788120791833622e-07,-1.546569535123672e-06,8.083863695130493e-09,-5.113106796994228e-07,-5.03309344929532e-07,-9.697353122613874e-07,3.1494413289743336e-07,-2.9045180051788635e-07,-3.7406469284450824e-07,-1.921231112805594e-06,-9.003027815032357e-07,-1.9422755762589417e-06,-2.182954747612064e-06,-1.3758500731348297e-06,-1.4959057487148908e-06,-6.711481042804414e-07
-1.3786528065943579e-06,-6.220224215527403e-07,-7.585903879123954e-07,-1.5236549190772578e-06,-3.940371495775574e-09,-5.886585456933837e-07,-5.964730877676435e-07,-9.950883127655441e-07,2.56583131105304e-07,-2.5723757059908927e-07,-3.5860283657332067e-07,-1.764134552736189e-06,-8.754027882312263e-07,-1.9162901804428103e-06,-2.0820120627687346e-06,-1.349460479092816e-06,-1.4473401978470568e-06,-6.423610637407152e-07
-1.362875090482909e-06,-5.992060263176633e-07,-7.525908307187985e-07,-1.5132709772446958e-06,-5.265789854125225e-08,-6.857787884526375e-07,-7.103688731563751e-07,-1.0313152347331008e-06,1.9857882195920545e-07,-2.3242699113137572e-07,-3.4961596695780046e-07,-1.6191717837016748e-06,-8.591250841539299e-07,-1.8702905568483642e-06,-1.9766566631276035e-06,-1.297644772612243e-06,-1.396371689878081e-06,-6.211482854398121e-07
-1.354130036711411e-06,-5.685246642224309e-07,-7.585106187199199e-07,-1.5123993633010199e-06,-1.2524529442824235e-07,-8.089081312058633e-07,-8.336611097304236e-07,-1.0738063144315697e-06,1.385420424354037e-07,-2.1590381342823628e-07,-3.426249648288539e-07,-1.4971684089033289e-06,-8.49642689753222e-07,-1.813212239259428e-06,-1.8748665272836502e-06,-1.2310375533736702e-06,-1.3458280530583728e-06,-6.06428729192135e-07
-1.3536743674883163e-06,-5.353291293881256e-07,-7.729713539775641e-07,-1.5175258104906636e-06,-2.2090373151549605e-07,-9.471376817052401e-07,-9.64844362525069e-07,-1.1193625482149697e-06,7.201300095542632e-08,-2.0888311093565325e-07,-3.4296270370820357e-07,-1.4120961440509634e-06,-8.455515179289008e-07,-1.7625732083512975e-06,-1.780738107203732e-06,-1.1599233030537676e-06,-1.2959605364871328e-06,-5.879134463056084e-07
-1.3607355997096116e-06,-5.068705375690469e-07,-7.937131540311979e-07,-1.525379867082864e-06,-3.4021173036995554e-07,-1.080865040766233e-06,-1.096806418639791e-06,-1.161533319449243e-06,-5.691720857234227e-09,-2.1123515458866514e-07,-3.4328452594441065e-07,-1.3714686239590185e-06,-8.46323436201979e-07,-1.7343641118856318e-06,-1.7377748149041048e-06,-1.1018837770167597e-06,-1.2451499120988824e-06,-5.695261082164265e-07
-1.3777278411147294e-06,-4.903027084785176e-07,-8.175983329113913e-07,-1.5337867097282035e-06,-4.786704858319227e-07,-1.214533201914924e-06,-1.2197544322066706e-06,-1.198868099718024e-06,-6.577676477978548e-08,-2.213011397741282e-07,-3.451965844265514e-07,-1.39621365475381e-06,-8.51785870626704e-07,-1.7372907776035736e-06,-1.7556357343414095e-06,-1.0586575061162247e-06,-1.1972801383702562e-06,-5.478358713107315e-07
-1.4065779113452994e-06,-4.903564848660223e-07,-8.447725399630623e-07,-1.5413972484811678e-06,-6.199985469739223e-07,-1.2982242427931265e-06,-1.3360833217828323e-06,-1.2214301068207516e-06,-1.0871216444386844e-07,-2.407700443607891e-07,-3.5100891830958023e-07,-1.4716081137400215e-06,-8.613822648250524e-07,-1.7702726229743797e-06,-1.8248539185928585e-06,-1.0426753593473312e-06,-1.1531040644827355e-06,-5.228196888282127e-07
-1.4479454166722845e-06,-5.07337511181347e-07,-8.753215295937984e-07,-1.547349772250176e-06,-7.461758646291679e-07,-1.2756862329284262e-06,-1.4126722233092617e-06,-1.2222392647157357e-06,-1.1485627075929117e-07,-2.66001098480602e-07,-3.5585968859776983e-07,-1.576754625183095e-06,-8.742036752844916e-07,-1.8221235603557746e-06,-1.927122976873733e-06,-1.0453203821371994e-06,-1.1180867040683081e-06,-4.977161374040689e-07
-1.5004666356458837e-06,-5.363951458476498e-07,-9.099985905107464e-07,-1.551387750395833e-06,-8.451469433029584e-07,-1.2809156779861328e-06,-1.474849413540286e-06,-1.197399870537558e-06,-5.70280122401761e-08,-2.9221300214319005e-07,-3.6307143361586484e-07,-1.666808602610634e-06,-8.893643901774302e-07,-1.878303681287236e-06,-2.0298252235884843e-06,-1.0521678063571597e-06,-1.094095188510171e-06,-4.753858297216222e-07
-1.5577810714000098e-06,-5.687167393435436e-07,-9.482951115606795e-07,-1.553841587405133e-06,-9.055723593901731e-07,-1.2445681145391296e-06,-1.487903721071299e-06,-1.1549909779715973e-06,6.010014502744658e-08,-3.1845094135962724e-07,-3.735273300835427e-07,-1.7294827593210066e-06,-9.057419417395776e-07,-1.9231710151068804e-06,-2.0551619448891435e-06,-1.0580098387066192e-06,-1.0800075779815588e-06,-4.5203851896866374e-07
-1.6111315531126667e-06,-5.940846370225044e-07,-9.888513529617764e-07,-1.5555200010270862e-06,-9.345385634212505e-07,-1.1253175578884155e-06,-1.4350669749203999e-06,-1.0932132941586121e-06,1.2947369336013518e-07,-3.4312931646286156e-07,-3.889827730485513e-07,-1.7618121505410404e-06,-9.213396122587205e-07,-1.943750891028179e-06,-2.053807284946393e-06,-1.0548970333635169e-06,-1.0701508039203552e-06,-4.2654798138039937e-07
-1.6521789048422885e-06,-6.036769681073768e-07,-1.0293906503306321e-06,-1.5572275646925821e-06,-9.432724876776574e-07,-9.832217356481248e-07,-1.4033226978019691e-06,-1.0150476978826659e-06,1.6517962895471225e-07,-3.671632914893628e-07,-4.080647574692625e-07,-1.7542960646868414e-06,-9.335461735382119e-07,-1.935613088487388e-06,-2.065155429977924e-06,-1.0408034499048808e-06,-1.0609149006160057e-06,-4.0884390473151134e-07
-1.6905772040359488e-06,-5.924963787993859e-07,-1.0666569192068888e-06,-1.5591641864851116e-06,-9.477592333736865e-07,-8.588092462556949e-07,-1.328156463292647e-06,-9.294092149136576e-07,2.586898030795092e-07,-3.907668070835447e-07,-4.3543109559258004e-07,-1.7068712769420558e-06,-9.405579163300995e-07,-1.8977593707864767e-06,-2.000398652980323e-06,-1.014188448100387e-06,-1.0518317582694793e-06,-3.9389500566071724e-07
-1.7203153515777137e-06,-5.609933118150102e-07,-1.1008010697152967e-06,-1.560526642227315e-06,-9.50294561173454e-07,-7.875025100111352e-07,-1.2188160485100878e-06,-8.408326136505634e-07,3.089904917707781e-07,-4.1446778615645995e-07,-4.7000278819056484e-07,-1.6408534665597984e-06,-9.425290011571655e-07,-1.8360447402788974e-06,-1.8943409700862398e-06,-9.803209792493878e-07,-1.0459185582622727e-06,-3.860528181157975e-07
-1.7439826169149222e-06,-5.152103757810134e-07,-1.1309458504363752e-06,-1.5589219359065394e-06,-9.609609451680796e-07,-7.477064099439125e-07,-1.1165580039985555e-06,-7.643024710918754e-07,3.212810896392603e-07,-4.3915288716033524e-07,-5.144754576914818e-07,-1.5682915968602194e-06,-9.410267934458714e-07,-1.760080579043277e-06,-1.8062774325394643e-06,-9.499038175955283e-07,-1.0422755707773794e-06,-3.9933290898961705e-07
-1.7732714104306556e-06,-4.6513739161255083e-07,-1.1688055736644418e-06,-1.5506581505401125e-06,-9.780284719353402e-07,-7.24606273004769e-07,-9.968973360156534e-07,-7.218498693816941e-07,3.3781602647322405e-07,-4.6776309105193163e-07,-5.644949400968817e-07,-1.5150962003159303e-06,-9.376117859984626e-07,-1.6766242819128604e-06,-1.75577128699441e-06,-9.300961891983803e-07,-1.043792683925937e-06,-4.1568639861534444e-07
-1.802678139419537e-06,-4.2185119536574425e-07,-1.2204910494541177e-06,-1.531314757689746e-06,-9.907610878358317e-07,-7.16358163785907e-07,-9.109479310409506e-07,-7.100974173996102e-07,3.417133369898548e-07,-5.18614560360722e-07,-6.139279667260587e-07,-1.5024087501785566e-06,-9.326895296131992e-07,-1.5950634046621384e-06,-1.7390134771268613e-06,-9.229999301578426e-07,-1.0552098883397643e-06,-4.3077838533425653e-07
-1.843139686785142e-06,-3.944983585876608e-07,-1.2708873525456627e-06,-1.496751599143809e-06,-9.94426367324873e-07,-7.315423443784854e-07,-8.460917230519555e-07,-7.24078486323796e-07,3.321382886211834e-07,-5.928412091369743e-07,-6.488167613103427e-07,-1.516276431425803e-06,-9.254043552173153e-07,-1.5138057229857986e-06,-1.7493851776334598e-06,-9.300261110683134e-07,-1.0822626231158091e-06,-4.430567019624161e-07
-1.9024223983749928e-06,-3.880421096037727e-07,-1.3273336004950328e-06,-1.4443948971730525e-06,-9.800666787851165e-07,-7.527798020682514e-07,-7.869484279823495e-07,-7.585249289329683e-07,3.106949088270311e-07,-6.960831981658294e-07,-6.637272815419091e-07,-1.5494853732071734e-06,-9.141097652290563e-07,-1.4311968864999607e-06,-1.767404573501698e-06,-9.499068498945723e-07,-1.1211014071129083e-06,-4.535507041210477e-07
-1.970632804513679e-06,-4.0236825263442136e-07,-1.3909820402895088e-06,-1.3739274542818728e-06,-9.439821343401478e-07,-7.67677233903522e-07,-7.625907956411077e-07,-8.013109381650588e-07,2.755918079251013e-07,-8.294975094861194e-07,-6.634220903014509e-07,-1.5923359868525716e-06,-8.970243541326313e-07,-1.3449780880642948e-06,-1.767628315342521e-06,-9.800684726976048e-07,-1.1676313536449205e-06,-4.6304346533726413e-07
-2.014321031533457e-06,-4.3288830420023827e-07,-1.4571728247852147e-06,-1.2876798334411464e-06,-8.856004196724211e-07,-7.652012139369387e-07,-7.56634081582715e-07,-8.43420196635746e-07,2.3685986910780074e-07,-9.217785915304459e-07,-6.551647071968098e-07,-1.6167249508081988e-06,-8.734411457683462e-07,-1.2543449583203752e-06,-1.7257077528497604e-06,-1.014897869607631e-06,-1.2210459800084324e-06,-4.618226508360431e-07
-2.002932777215929e-06,-4.7211869597125917e-07,-1.5238743480902124e-06,-1.1905294027980105e-06,-8.096533212200105e-07,-7.33163856269907e-07,-7.678060487990242e-07,-8.558727819918299e-07,2.3838575249215113e-07,-9.870087191320624e-07,-6.540489888642842e-07,-1.5814335558605402e-06,-8.449518016332866e-07,-1.1795491282268407e-06,-1.630076912556621e-06,-1.0443961973747845e-06,-1.256674439993218e-06,-4.2692840894661636e-07
-1.9385235649190207e-06,-5.113178653347111e-07,-1.544244644198052e-06,-1.0895358762043878e-06,-7.192686277565533e-07,-6.782647774345139e-07,-8.000525102510803e-07,-8.359171458682297e-07,2.747747614468047e-07,-1.0550582669333857e-06,-6.50746009774432e-07,-1.5344055206677171e-06,-8.153724336387269e-07,-1.1253677915923668e-06,-1.4897849474381261e-06,-1.056914522485904e-06,-1.2590300058548219e-06,-3.72335452405848e-07
-1.8488354156068182e-06,-5.414058642851512e-07,-1.4968281821101043e-06,-9.921647381067748e-07,-6.193687431180188e-07,-6.131166056696431e-07,-8.362253564602872e-07,-8.447369851864007e-07,3.2819872794770994e-07,-1.1592153614223577e-06,-6.421930618430165e-07,-1.4145567251495848e-06,-7.89033029000677e-07,-1.1026621171144794e-06,-1.3283968309137599e-06,-1.046395681919489e-06,-1.2365970328967667e-06,-3.4369073903202786e-07
-1.796702999935075e-06,-5.531093423446444e-07,-1.4297975893389969e-06,-9.035277028034574e-07,-5.158089655206086e-07,-5.540141589165225e-07,-8.79927760740506e-07,-8.077292055728102e-07,3.8791481317022395e-07,-1.2646018309693498e-06,-6.053658765500384e-07,-1.2734881532472621e-06,-7.687266482536152e-07,-1.1258677457550218e-06,-1.172794931771304e-06,-1.0118205975036814e-06,-1.1851672104649853e-06,-3.3239629996439133e-07
-1.6452304457427286e-06,-5.373683280593624e-07,-1.4048948719562773e-06,-8.241193537762526e-07,-4.153334330604446e-07,-5.060118794462233e-07,-9.28703558635225e-07,-7.464898822376505e-07,4.389537016884852e-07,-1.3238495207853905e-06,-5.590266965158835e-07,-1.1314501536336785e-06,-7.547469276757778e-07,-1.1154117334766395e-06,-1.046106979474103e-06,-9.581789915489228e-07,-1.154756875319051e-06,-3.5180540773007875e-07
-1.4645395964298266e-06,-4.869174730622598e-07,-1.3752016002181604e-06,-7.496506057441976e-07,-3.2570403223244567e-07,-4.7149859108499576e-07,-9.702982720165573e-07,-7.006033738190985e-07,4.62624835485998e-07,-1.3654612105576668e-06,-4.7646746848126067e-07,-1.012047214024919e-06,-7.453302232637342e-07,-1.100714362712898e-06,-9.59631678136772e-07,-8.957597567087223e-07,-1.1215015312290438e-06,-3.9858044189407925e-07
-1.3265547147056146e-06,-3.986613354705852e-07,-1.348805912625716e-06,-6.741971893345661e-07,-2.551320814294293e-07,-4.5202845994735434e-07,-9.689207469173763e-07,-6.7956024170293e-07,4.6818961861704323e-07,-1.3721645572080953e-06,-3.896145622154816e-07,-9.296813507187417e-07,-7.377104465554547e-07,-1.0902652664740528e-06,-9.105868400549048e-07,-8.346554194234695e-07,-1.086054740640462e-06,-4.2690955921424014e-07
-1.187147875686855e-06,-2.7627147561230326e-07,-1.2750936965486193e-06,-5.94858596304279e-07,-2.0867871399503097e-07,-4.367922825857805e-07,-9.3942134164513e-07,-6.738701151506013e-07,4.929314130849385e-07,-1.3702485070441687e-06,-3.4942555883576646e-07,-8.923701345224402e-07,-7.288108241866781e-07,-1.1835530040830926e-06,-8.862392495885293e-07,-7.832279483078887e-07,-1.0611005810508586e-06,-4.218008564285819e-07
-1.0791448040591412e-06,-1.3196993334101682e-07,-1.123951998766192e-06,-5.146054222837931e-07,-1.9030996974463e-07,-3.866773650097381e-07,-8.430729290002257e-07,-6.821237582177149e-07,5.584237290668596e-07,-1.347549908790493e-06,-3.402938346654487e-07,-8.90047490860626e-07,-7.1547539484174e-07,-1.2878304641311666e-06,-8.685605224670118e-07,-7.451455033038488e-07,-1.0441436891725415e-06,-4.157248679245749e-07
-1.0037617735411306e-06,1.4763516563998744e-08,-9.71764807244852e-07,-4.417241145253404e-07,-1.9510163504426175e-07,-3.045512262276726e-07,-6.961615129110343e-07,-6.714601015974407e-07,6.641753368398249e-07,-1.336705826121701e-06,-3.0218046172126465e-07,-9.072374800869029e-07,-6.948155569535626e-07,-1.3228067934885055e-06,-8.394561901880031e-07,-7.18035269289527e-07,-1.0319038653646864e-06,-4.012761807257671e-07
-9.423265633583055e-07,1.4214670873276652e-07,-8.685198399085495e-07,-3.8595483524811474e-07,-2.1451230867707546e-07,-1.9159284949295115e-07,-5.974692951741918e-07,-6.226574363768264e-07,7.974675592200478e-07,-1.3246676176251865e-06,-2.1110359155730017e-07,-9.226096184981028e-07,-6.644567993111879e-07,-1.3045292816109555e-06,-7.901691306327034e-07,-6.945765512656491e-07,-1.00979022446615e-06,-3.49894807737596e-07
-9.174003085474863e-07,2.3277390670951087e-07,-7.98601055012195e-07,-3.5346360814555774e-07,-2.3738463466247103e-07,-4.668656814754117e-08,-4.67819394780137e-07,-5.362529277689533e-07,9.463713334186382e-07,-1.2912187298824037e-06,-1.0844698650761998e-07,-9.170012742904363e-07,-6.226615367612154e-07,-1.2422419251106668e-06,-7.186996866826749e-07,-6.681281846868342e-07,-9.881168903906507e-07,-2.919136800930351e-07
-9.136397114079524e-07,2.796350838064449e-07,-7.409833868139168e-07,-3.4384939246238937e-07,-2.505528942810957e-07,1.4177988439111068e-07,-3.048874844509248e-07,-4.1729122356656333e-07,1.080078057164888e-06,-1.2477175305196335e-06,-3.1847989287423394e-08,-8.84877303551624e-07,-5.689953942948462e-07,-1.2060695791458022e-06,-6.289359301332515e-07,-6.33244314031993e-07,-9.622542332139268e-07,-2.3069755654277109e-07
-9.184833137020908e-07,2.8829447467031157e-07,-6.775653308884871e-07,-3.5096404275587474e-07,-2.4719306973122384e-07,3.3745267192725136e-07,-1.5661219061253323e-07,-2.856379363788109e-07,1.1756875569594907e-06,-1.2520498396986816e-06,6.357316058241874e-08,-8.307930566177843e-07,-5.048853999784655e-07,-1.1694151069789288e-06,-5.350364124325773e-07,-5.887367506474777e-07,-9.089663072149208e-07,-1.6207044905354816e-07
-9.295195648633126e-07,2.7333223883978625e-07,-6.829643301537429e-07,-3.660453645845389e-07,-2.2627681842618858e-07,4.6538356472593764e-07,1.575468410206521e-08,-1.7354923530141069e-07,1.2301997952889067e-06,-1.2546420739080334e-06,1.3001794257107e-07,-7.686652022927212e-07,-4.3344092361665614e-07,-1.100972826218396e-06,-4.5595154141663876e-07,-5.370680203578301e-07,-8.530129410674833e-07,-1.160519848092151e-07
-9.285474607424224e-07,2.518261844717513e-07,-7.312117662667829e-07,-3.8041679233003614e-07,-1.9092096562340119e-07,5.439439625926044e-07,1.924120988660855e-07,-1.21505327685314e-07,1.27698519096556e-06,-1.2538100352708577e-06,2.0593432070456438e-07,-6.982879744874023e-07,-3.5809176025614676e-07,-1.004941960314806e-06,-3.837634727158451e-07,-4.804998180400256e-07,-7.979860399560808e-07,-8.636052562285992e-08
-9.156908144435216e-07,2.3798106120081907e-07,-7.543532886236648e-07,-3.8784031004078657e-07,-1.4506187849980914e-07,5.81123986500373e-07,3.429415308070749e-07,-6.082285782549049e-08,1.3365892496801957e-06,-1.2328783650937672e-06,2.5369930062873054e-07,-6.22359595173282e-07,-2.818630020160771e-07,-8.865982920397776e-07,-3.2698689655093814e-07,-4.284956938484845e-07,-7.445953559734393e-07,-5.870591064571483e-08
-8.945776934355328e-07,2.4024422622409063e-07,-7.622794458244632e-07,-3.8508278938601627e-07,-9.390051209214153e-08,6.876537863555544e-07,4.52230602146952e-07,9.073557260074479e-09,1.4203581287751852e-06,-1.1752480855811777e-06,2.4729481329104717e-07,-5.478989109223831e-07,-2.0730389807846475e-07,-7.598725155374145e-07,-2.8458987684040175e-07,-3.769576888123626e-07,-6.977503721790547e-07,-3.588109131564856e-08
-8.69271247558764e-07,2.606197000669434e-07,-7.542790420481749e-07,-3.717007485180326e-07,-4.1847806737450974e-08,7.736509508505234e-07,5.143620545513861e-07,1.930555260041813e-08,1.4843410807286235e-06,-1.1099664682557657e-06,2.3468273890244316e-07,-4.851209399688435e-07,-1.3628256845047875e-07,-6.074096561583954e-07,-2.508183132844788e-07,-3.2908919763670793e-07,-6.484870408355184e-07,-1.9780736852739864e-08
-8.408765889857869e-07,2.957578866215363e-07,-7.238739779017208e-07,-3.493155664891845e-07,8.361436830096177e-09,7.881670369586691e-07,5.318989450147829e-07,2.4266325243292904e-09,1.5360247272525488e-06,-1.0407883734597448e-06,2.4433636589062817e-07,-4.380910947789876e-07,-7.009130327153058e-08,-4.77178810750461e-07,-2.3490488005851247e-07,-2.880380832526305e-07,-5.94674924996607e-07,-3.4484619907617695e-09
-8.16504980874004e-07,3.391268077516233e-07,-6.996274678316215e-07,-3.206576583863695e-07,5.502861674007994e-08,8.008761448081293e-07,5.190933344922504e-07,-1.6272169024275864e-09,1.5404507854434344e-06,-9.786434423732579e-07,2.519308591078106e-07,-4.0173419295970553e-07,-9.923868053797578e-09,-3.6887180243249054e-07,-2.2838189926929146e-07,-2.5144403954896287e-07,-5.516115229360486e-07,2.2206383589505557e-08
-8.001631223198462e-07,3.8357304327135814e-07,-6.826891099690136e-07,-2.894412508573863e-07,9.689842267393231e-08,8.080168633294877e-07,5.035385032687353e-07,3.4379807587689996e-08,1.5440985091532094e-06,-9.293606487222972e-07,2.8526029412374316e-07,-3.702218341900745e-07,4.23122503296491e-08,-2.71231074585344e-07,-2.2334411944711224e-07,-2.2118261413060552e-07,-5.239918604879837e-07,5.640056290267036e-08
-7.867591193197832e-07,4.2390593647505776e-07,-6.725469346273752e-07,-2.602847587127467e-07,1.3149019099056154e-07,8.141430231540188e-07,4.882201129842844e-07,1.20734898504734e-07,1.557882124529246e-06,-8.840210818324464e-07,3.360785966298017e-07,-3.3701827001157937e-07,8.411461842758101e-08,-1.9388769852484863e-07,-2.071619613632638e-07,-2.0269935143017506e-07,-5.082929547825966e-07,8.978617713070056e-08
-7.737837175188837e-07,4.5879680443498155e-07,-6.630029179322064e-07,-2.3777148509245818e-07,1.5544977378277645e-07,8.600643874148709e-07,4.7672476267996254e-07,2.3128362336777594e-07,1.5734733277424813e-06,-8.406566935064707e-07,3.85313964605366e-07,-3.0456619457308935e-07,1.1364547299474549e-07,-1.2972610014793676e-07,-1.8753341438955446e-07,-1.9969154663184185e-07,-5.029200143799969e-07,1.2120718650257945e-07
-7.588996295712607e-07,4.907153548620225e-07,-6.501428307773274e-07,-2.246612278909101e-07,1.658802487173648e-07,9.102011646003223e-07,4.7129174322626844e-07,3.4978408289421404e-07,1.604752543028022e-06,-7.930744553770934e-07,4.3662232800646347e-07,-2.769020900020528e-07,1.3111549893069704e-07,-8.136795322646705e-08,-1.5792892443622758e-07,-2.0698451062395493e-07,-5.013111542400228e-07,1.5259583868582698e-07
-7.392602942495701e-07,5.236442097168286e-07,-6.351843189333401e-07,-2.2030042716171383e-07,1.6087173428526585e-07,9.893963258995125e-07,4.6747145306069867e-07,4.5260641494855905e-07,1.6463736957396033e-06,-7.661041981771281e-07,4.918686942698808e-07,-2.509798934608532e-07,1.3862451871024479e-07,-5.133877607602935e-08,-1.2020488635098628e-07,-2.2454167933019655e-07,-4.891880183464247e-07,1.8029453720793434e-07
-7.125282601810188e-07,5.60092227520981e-07,-6.196922820655559e-07,-2.2161057760957707e-07,1.3947612123469884e-07,1.0839543006152375e-06,4.640589137357349e-07,5.276197517291415e-07,1.7031316058352287e-06,-7.438305772646741e-07,5.519447765424863e-07,-2.2714861977039599e-07,1.3935831330029877e-07,-3.8463196721829766e-08,-7.401300745373502e-08,-2.364401949043959e-07,-4.653163964440783e-07,2.1679087258514556e-07
-6.742606196411449e-07,5.989551534976373e-07,-6.058354498265194e-07,-2.2528405417214352e-07,1.0194637859878615e-07,1.1688172535624845e-06,4.6278917662329116e-07,5.749039040992594e-07,1.7648240200004535e-06,-7.170808835513679e-07,6.113633308515028e-07,-2.0665977937091537e-07,1.3747142742497354e-07,-3.952979710721488e-08,-1.4571544863746065e-08,-2.388613901647752e-07,-4.317363997173285e-07,2.594326088646407e-07
-6.318065283154954e-07,6.347811061430581e-07,-5.934144602848181e-07,-2.3004936199894675e-07,5.1845802199515854e-08,1.2474146474155025e-06,4.628071529413216e-07,5.929438007727224e-07,1.820187434756145e-06,-6.892633183672157e-07,6.686563397294907e-07,-1.844330594800909e-07,1.3795796330199093e-07,-5.302423879403452e-08,5.308760717301925e-08,-2.3125985400166137e-07,-3.799354471370907e-07,3.0221255956772597e-07
-5.846488795743388e-07,6.585109866058197e-07,-5.857918098401332e-07,-2.3857973476110706e-07,-5.547267789933853e-09,1.3122630860798102e-06,4.6024473444171076e-07,5.941308354855857e-07,1.8654083304327744e-06,-6.360414116787699e-07,7.184423044311692e-07,-1.5300624501045752e-07,1.45260885873866e-07,-7.553308915502251e-08,1.2208456198334492e-07,-2.0528148612716324e-07,-3.2933052238210396e-07,3.496855301290718e-07
-5.443676245045269e-07,6.593913181570112e-07,-5.849768599354341e-07,-2.5769425680617505e-07,-6.594745491738068e-08,1.3726399015813939e-06,4.580138601279755e-07,5.875200589861449e-07,1.887838379356062e-06,-5.648469798513165e-07,7.506143412754617e-07,-1.0355170012023979e-07,1.615178631751289e-07,-1.0090627784401663e-07,2.008535350965876e-07,-1.5844166397395361e-07,-2.7810157127457e-07,3.904771420993925e-07
-5.193706709258346e-07,6.278905409442666e-07,-5.918938733302206e-07,-2.9536885833872833e-07,-1.259203134828862e-07,1.4262577018034933e-06,4.5592416196482704e-07,5.798680815085794e-07,1.8893541952492712e-06,-4.852532779640654e-07,7.705133119106484e-07,-3.577140965763721e-08,1.861279515885425e-07,-1.2106140912762952e-07,2.878551284624887e-07,-8.921390780097478e-08,-2.251415693830931e-07,4.2342250390801184e-07
-5.120147001420967e-07,5.594864166050394e-07,-6.072946828213747e-07,-3.5582820242517864e-07,-1.828599690634267e-07,1.4754116648635014e-06,4.510291531191848e-07,5.738766261197057e-07,1.8763559511345871e-06,-4.014333049650315e-07,7.804991748009902e-07,4.695367282161721e-08,2.1663354054596046e-07,-1.2690544788315177e-07,3.7769483921771443e-07,3.4820436789950586e-10,-1.9018665456880943e-07,4.5114536123457256e-07
-5.265802200500666e-07,4.577453495941394e-07,-6.282972435741058e-07,-4.367985929265132e-07,-2.3287482508711488e-07,1.515294648658155e-06,4.4498315047786957e-07,5.844435866637548e-07,1.8480207913611495e-06,-3.207222590618134e-07,7.77969702671212e-07,1.3871452791331032e-07,2.4945763730818676e-07,-1.1145364366201945e-07,4.855059122160854e-07,1.0262887490898638e-07,-1.714836735966519e-07,4.7064030173414354e-07
-5.593406721663137e-07,3.3444211304754593e-07,-6.483386736829458e-07,-5.301019277686126e-07,-2.717548883230962e-07,1.5443527305661596e-06,4.3741034537877935e-07,6.102792643343207e-07,1.8090133460851966e-06,-2.7313874106008874e-07,7.740105769583825e-07,2.3320552210610566e-07,2.8044919047591343e-07,-7.308292441325328e-08,5.991234803095678e-07,2.070630873607114e-07,-1.803249484506389e-07,4.805888125187175e-07
-6.077661163281634e-07,2.0641098296837849e-07,-6.625872401144259e-07,-6.25027877865182e-07,-2.978240345597308e-07,1.563776688458807e-06,4.308192907217019e-07,6.427044671135658e-07,1.7697854530699285e-06,-2.4063157240360224e-07,7.748103841352018e-07,3.2269994822786194e-07,3.05280512594975e-07,-1.7264440473124013e-08,7.081236530860761e-07,3.113292692950323e-07,-2.0416014436201022e-07,4.921016910367903e-07
-6.599130548459817e-07,9.085528173760893e-08,-6.687737760559912e-07,-7.124408955944559e-07,-3.1332150880888536e-07,1.5740191858533098e-06,4.2972044999265845e-07,6.715389968486676e-07,1.7367208594612859e-06,-1.977425944244441e-07,7.779637264312281e-07,3.976291914774603e-07,3.1983000701201865e-07,4.6601570898222415e-08,8.040362448853108e-07,4.0880654075735446e-07,-2.23614198822841e-07,4.852195698150536e-07
-7.123239335049717e-07,1.0741326563790683e-09,-6.669386120187224e-07,-7.875567597400853e-07,-3.234774070875662e-07,1.577886017332194e-06,4.368314426175506e-07,6.836613389408331e-07,1.7144869266623523e-06,-1.7476967983805574e-07,7.813272234426523e-07,4.5153719950027755e-07,3.2116282662966537e-07,1.0790187393546274e-07,8.746722892730098e-07,4.922973964079405e-07,-1.9904615979684615e-07,4.657169126334021e-07
-7.590751770305601e-07,-5.605902675861965e-08,-6.603785700597343e-07,-8.501861354094257e-07,-3.329812224197949e-07,1.575523160155916e-06,4.5225000861149857e-07,6.743160512375473e-07,1.7043227272231905e-06,-1.870641203660697e-07,7.82754764113366e-07,4.819422401400566e-07,3.0856325697704563e-07,1.5802769242886854e-07,9.134356640830287e-07,5.595887174986604e-07,-1.6686477423770487e-07,4.6341203592061726e-07
-7.941223800186396e-07,-8.04602245515061e-08,-6.531750962975521e-07,-9.031571276445903e-07,-3.466816243029361e-07,1.5698720260735463e-06,4.7363730838398066e-07,6.404614985494517e-07,1.7121426045898865e-06,-2.189153437206348e-07,7.771249454835738e-07,4.932088606045581e-07,2.834335039466693e-07,1.924402379646007e-07,9.262248668047585e-07,6.071927468809758e-07,-1.616543622644318e-07,4.3380468303877794e-07
-8.158801277976147e-07,-7.764866908692294e-08,-6.468013500040057e-07,-9.505082884258745e-07,-3.688233982682343e-07,1.5692999444124423e-06,4.973615678626164e-07,5.8164150480907e-07,1.7315945250045748e-06,-2.418610466839968e-07,7.555350505411973e-07,4.915217008210989e-07,2.479094682587071e-07,2.081258128005103e-07,9.184559370748774e-07,6.318595959238558e-07,-1.540227247778757e-07,4.0887648901553857e-07
-8.245908595340459e-07,-5.664688988256165e-08,-6.466424503146489e-07,-9.960136726722777e-07,-4.0076786362650605e-07,1.5682377914615962e-06,5.190738867890156e-07,5.047346835662266e-07,1.7562095665915695e-06,-2.5903402348407323e-07,7.290612890645151e-07,4.801391023641181e-07,2.0398733800331126e-07,2.0387874207743876e-07,9.091969856024427e-07,6.335487557913914e-07,-1.6281833424095733e-07,4.1245213534993195e-07
-8.246129107590175e-07,-2.720147272355161e-08,-6.554291351179733e-07,-1.0417148669374322e-06,-4.418512965246971e-07,1.5698577759528215e-06,5.365977982585163e-07,4.287383219306255e-07,1.7816011209056407e-06,-2.7748473802803907e-07,6.994972657737765e-07,4.621300369174124e-07,1.5389754225574572e-07,1.8128366725161189e-07,9.03775531287314e-07,6.106444364110296e-07,-1.9958917213719532e-07,3.9578326770705086e-07
-8.200053607835039e-07,2.8373078792707196e-09,-6.731115143828735e-07,-1.0868983361290893e-06,-4.878981145452297e-07,1.5772523373298002e-06,5.491617453257797e-07,3.562530665444541e-07,1.8092323206761253e-06,-2.9668962637072865e-07,6.639690452635095e-07,4.4011991921618925e-07,1.0073168134754226e-07,1.4417684706546126e-07,9.049289590180307e-07,5.678034729926961e-07,-2.447614791420025e-07,3.7210620017559813e-07
-8.094820913900162e-07,2.86173305991423e-08,-6.987959561306506e-07,-1.128747024792582e-06,-5.336598761688876e-07,1.588796518065603e-06,5.563431430128507e-07,2.760056696182518e-07,1.8399330679051984e-06,-3.1344823030594367e-07,6.205895950534819e-07,4.1431359059308353e-07,4.811349677670068e-08,9.886900638668296e-08,9.194829231839163e-07,5.155049255060125e-07,-2.8224289582296227e-07,3.400328943822338e-07
-8.03202111090628e-07,4.7529369731138925e-08,-7.284038327662121e-07,-1.1640674865716985e-06,-5.740083226006887e-07,1.5948205491649686e-06,5.579702614014389e-07,2.273577515095678e-07,1.8715208464338128e-06,-3.265060126225488e-07,5.762458288685562e-07,3.842062266176636e-07,-9.074353178329528e-10,5.135202564378875e-08,9.488818004562272e-07,4.657452811830158e-07,-3.0643953156431937e-07,2.9707993926340755e-07
-7.960092866866925e-07,5.7743061136139714e-08,-7.585692757536262e-07,-1.1909414327552799e-06,-6.071942439435596e-07,1.5925304071799815e-06,5.519157538659659e-07,2.3898180888084696e-07,1.8899146900029028e-06,-3.345725578542999e-07,5.390249168640956e-07,3.5015494682990667e-07,-4.4090761259624996e-08,6.466672238081032e-09,9.944076259834872e-07,4.260143874899754e-07,-2.957471869716563e-07,2.584199391967853e-07
-7.87570100092989e-07,5.741218535231337e-08,-7.860758830751595e-07,-1.2095276367458287e-06,-6.34657916003868e-07,1.5812503196329876e-06,5.364407418685903e-07,3.218035387154005e-07,1.88990988118389e-06,-3.3582922078911907e-07,5.185958031505441e-07,3.014751999631147e-07,-7.920807931774154e-08,-3.113169543032693e-08,1.029067060293547e-06,4.0204758883131277e-07,-2.4019499572138725e-07,2.3051103673251422e-07
-7.822414077309739e-07,4.485574043826956e-08,-8.077656157126455e-07,-1.2216070019655663e-06,-6.586187258089558e-07,1.5578687569514773e-06,5.127268709851392e-07,4.578214727288269e-07,1.8658516221574463e-06,-3.2673113914227265e-07,5.212409003392419e-07,2.432474142464306e-07,-1.0221999648975144e-07,-5.714622456944735e-08,1.0621099554228898e-06,3.9879336497438013e-07,-1.9688472970881136e-07,2.456829117638033e-07
-7.755800603162288e-07,1.9133974226027145e-08,-8.181059257383476e-07,-1.2300671617660092e-06,-6.858212944744913e-07,1.5290087836322399e-06,4.851305496298666e-07,5.706086384772316e-07,1.811099873879712e-06,-3.099435867829275e-07,5.744653701270528e-07,1.8565760035384241e-07,-1.1013606889112354e-07,-6.999950991141559e-08,1.044535021553115e-06,4.1522941796253737e-07,-1.8060747499863239e-07,2.788861651657272e-07
-7.653709630741222e-07,-1.9258545732109626e-08,-8.135448315910916e-07,-1.2385845112907793e-06,-7.214953717814609e-07,1.5016245935000587e-06,4.6239517628309115e-07,6.464770323409148e-07,1.7273759201105663e-06,-2.839483575415724e-07,6.183047232128317e-07,1.5093341125442358e-07,-1.0499711060968293e-07,-7.707299094580285e-08,9.69396365864872e-07,4.4277366823672247e-07,-1.4911571901584077e-07,3.1905087671335224e-07
-7.470723189733464e-07,-6.744630249344568e-08,-7.932004295598925e-07,-1.251226243581437e-06,-7.72312179095192e-07,1.477783507857757e-06,4.5412647757965856e-07,6.951230053699901e-07,1.6245511739144727e-06,-2.4786262010687287e-07,6.388609404838244e-07,1.4601234117237792e-07,-8.828726362782508e-08,-8.726065487478703e-08,8.567517334950538e-07,4.665321926284971e-07,-1.2905178540249595e-07,3.609289896275095e-07
-7.226112825374084e-07,-1.196194463147337e-07,-7.610719476186081e-07,-1.2718246440957512e-06,-8.447927290058724e-07,1.4616762492663066e-06,4.675763887117124e-07,7.360498882341069e-07,1.5166206336929333e-06,-2.03044350574628e-07,7.087802679332477e-07,1.7131952102319445e-07,-6.332160385338464e-08,-1.1479867889916742e-07,7.082692055976983e-07,4.7376089365378226e-07,-1.0076095051728743e-07,3.842206705212072e-07
-6.797474889416949e-07,-1.6829486328367355e-07,-7.25248457877772e-07,-1.3033668053235059e-06,-9.431834402996413e-07,1.4682765742228342e-06,5.059790806026791e-07,8.151634603616625e-07,1.4250032602004163e-06,-1.4401871463848807e-07,7.901546587644909e-07,2.2794686462528208e-07,-3.456979696631983e-08,-1.7144991707532588e-07,5.658594218309186e-07,4.591100827112584e-07,-2.5130150422416895e-08,3.9530711100886686e-07
-6.165373945987683e-07,-2.0755526658560673e-07,-6.943185036573627e-07,-1.347672389402455e-06,-1.079519125401122e-06,1.5028120206102337e-06,5.677719805518027e-07,8.433315155320612e-07,1.421237110689959e-06,-7.74241307305374e-08,8.572266310316695e-07,3.034956441332724e-07,-4.006230795110387e-09,-2.6217662037319806e-07,4.176870508964186e-07,4.37098049609422e-07,3.530942600710544e-08,4.500350233229574e-07
-5.375246746892704e-07,-2.360365930893724e-07,-6.738269365918424e-07,-1.4055052710814351e-06,-1.246907974860704e-06,1.5616295029467104e-06,6.496946377270137e-07,8.415247301718623e-07,1.437325459379186e-06,-7.859295121226193e-09,9.33680476413622e-07,3.869276270811955e-07,2.2779624954532978e-08,-3.858053449249133e-07,3.559844893077105e-07,4.327552902717398e-07,4.943792492771277e-08,5.361684673759106e-07
-4.4995331530971414e-07,-2.5698815145087616e-07,-6.667447462651713e-07,-1.4766808372744976e-06,-1.4221542972755134e-06,1.6346299733558112e-06,7.372708535223353e-07,8.121193554795421e-07,1.4290533773674067e-06,5.024874778470797e-08,1.0041301231201558e-06,4.412300899295838e-07,2.5881294185672533e-08,-5.278647793447664e-07,4.042909098699837e-07,4.428041916310906e-07,2.4136982764172492e-08,5.944460639828508e-07
-3.831502052299599e-07,-2.750714533619409e-07,-6.714007980319854e-07,-1.5596130054999713e-06,-1.5705310072082555e-06,1.7117389475347018e-06,8.194585873127144e-07,7.643770633216617e-07,1.4959261223917341e-06,7.458427127573279e-08,1.0326844628354382e-06,4.212266838130216e-07,-2.12572733910042e-09,-6.715154127326437e-07,3.7797440967306635e-07,4.834125754069056e-07,2.582365998104837e-08,6.309262878796678e-07
-3.555136416167823e-07,-2.9215582439108854e-07,-6.785094967816154e-07,-1.6502350762617925e-06,-1.660469764949377e-06,1.7341394922060428e-06,8.813839301750687e-07,7.324928211084888e-07,1.6025713959413842e-06,5.652521333205432e-08,1.0459771013920277e-06,3.0090411670291374e-07,-5.686524861707925e-08,-7.730651806648372e-07,4.1734071407934343e-07,5.515113763314705e-07,2.7249185158733277e-08,6.29467653248417e-07
-3.983507000994615e-07,-3.0488305895656536e-07,-6.805186021093626e-07,-1.7414737803947715e-06,-1.6270908876046728e-06,1.689765225435187e-06,8.600526922123784e-07,7.240919934912462e-07,1.693968445929079e-06,3.998629620206838e-08,1.0430374181150745e-06,1.639699364712806e-07,-1.5379676125974775e-07,-8.120146736893906e-07,4.783752225172263e-07,6.398254779900675e-07,2.902461751221808e-08,6.257053199890932e-07
-4.2382833883424583e-07,-3.0541930642392063e-07,-6.692154096214367e-07,-1.8237226056015282e-06,-1.5794045050593707e-06,1.6471288238498971e-06,8.318034425378149e-07,7.119359398878602e-07,1.7588613698911805e-06,1.9440887422934253e-08,1.0257248215270738e-06,3.3095757511071106e-08,-1.877329981128641e-07,-7.899245257030352e-07,5.963825409686371e-07,7.472801545817503e-07,5.3436550163309765e-08,6.309754177702836e-07
-4.259474718227873e-07,-2.851711392276941e-07,-6.394114733123715e-07,-1.886368445272017e-06,-1.5434740179036548e-06,1.5954382593946214e-06,8.161783443497104e-07,6.978228662040896e-07,1.800915441665709e-06,-1.325001170058008e-08,9.958385834105477e-07,-8.834074901020947e-08,-2.0874102830281896e-07,-7.92781880091467e-07,7.205410623522433e-07,8.469000725156146e-07,5.225537224470328e-08,6.466452246214264e-07
-4.3220947457987397e-07,-2.4012562108686325e-07,-5.883917401616701e-07,-1.9204663442112953e-06,-1.4891005224574942e-06,1.4991721293975843e-06,7.387971180121049e-07,6.472550642427163e-07,1.8209269321232997e-06,-2.8875992581298645e-08,9.803578190432499e-07,-2.645278115792939e-07,-2.946023781099498e-07,-8.388762395437676e-07,8.07964858371314e-07,9.529248025982015e-07,3.6350728778485084e-08,6.803913512466125e-07
-4.918619402633773e-07,-1.7526795657533295e-07,-5.221251778441075e-07,-1.9221481940729383e-06,-1.4195466579123018e-06,1.3538213492152225e-06,6.1096082092267e-07,5.458735661133858e-07,1.8183610534855687e-06,-6.4444368120772e-08,9.187309548423245e-07,-4.5200551564602813e-07,-4.1653748214655536e-07,-8.645276530751081e-07,9.283670530341637e-07,1.0290937567145293e-06,6.886016653899249e-09,6.961311142660716e-07
-5.857660131164461e-07,-1.0464492100294024e-07,-4.507157708046989e-07,-1.8950752319306934e-06,-1.3002442385047669e-06,1.1764915927640414e-06,5.009245717842856e-07,4.819550134697161e-07,1.798740041317701e-06,-1.4318023942871234e-07,8.269822761735827e-07,-5.980835158813531e-07,-5.26960233637807e-07,-8.382848163645149e-07,1.0231327354388737e-06,1.077674111519305e-06,-3.348019637242104e-09,6.90156033107814e-07
-6.752813872715772e-07,-4.55836635040806e-08,-3.7581542612839073e-07,-1.8495793197482993e-06,-1.1230612542887952e-06,1.0517551605096062e-06,4.244677844242593e-07,4.302874908784358e-07,1.7687384575082479e-06,-2.2333422707928753e-07,7.342935717745543e-07,-7.296485112912246e-07,-5.990512098246505e-07,-7.887791048241253e-07,1.104854976927262e-06,1.0804324242202584e-06,-3.3342493281149767e-08,6.545148265798845e-07
-7.628638972934321e-07,-1.0269124276472398e-08,-3.4997470018635535e-07,-1.7985103065094318e-06,-1.0036846417904258e-06,9.179092392887777e-07,3.714602252081477e-07,3.8426888377233106e-07,1.7341181294048306e-06,-2.9356202862655476e-07,6.453848187149231e-07,-8.277613518462014e-07,-6.495874559611533e-07,-7.101767797048541e-07,1.182895473628547e-06,1.0149733728397214e-06,-5.739105954718407e-08,6.273165429694279e-07
-8.470931450738534e-07,-4.993812747677099e-10,-3.400919720747416e-07,-1.7523531492830652e-06,-8.943743176750196e-07,8.101767240451642e-07,3.404342337734714e-07,2.9971945099513137e-07,1.6957182102745184e-06,-3.650459171692478e-07,5.658072439424278e-07,-9.294208311498018e-07,-6.966191197829973e-07,-6.444878336667713e-07,1.2005828390331644e-06,9.737261849115396e-07,-9.321524935949429e-08,6.097349786058523e-07
