0,1,2,3,4,5,6,7,8,9,10,11,12,13,14,15,16,17
-7.445231889464952e-07,-1.266044522468518e-07,1.4868873565628135e-07,1.0309544176465765e-07,3.1565525927116925e-07,3.1909287850075745e-07,4.892445139328943e-07,1.659344943077121e-07,2.9557298372572027e-07,2.3832322513058064e-07,3.793803076191501e-07,5.571700597009621e-07,5.509781824084509e-07,1.6530908473486027e-07,5.8538135370474216e-08,-2.011861123951119e-07,4.5523428932701917e-07,2.451693198315357e-07
-7.344676853201794e-07,-4.882100648723089e-07,1.310264588446769e-07,1.193743427977257e-07,3.044897135713643e-07,2.764250481290291e-07,4.148990998455922e-07,1.8535033825564228e-07,2.8693175556748005e-07,1.3384690369374461e-07,3.764361417305516e-07,4.5949146086890233e-07,3.802689184101488e-07,1.6787616637032382e-07,3.488482627293963e-08,-2.8171165747397934e-07,3.2842333744109734e-07,2.0162129736801916e-07
-6.315563305009001e-07,-8.866904465233815e-07,7.24813847786191e-08,1.1268211856808989e-07,2.923015469865518e-07,2.3133011426438795e-07,3.4639316299207967e-07,1.6237969674168604e-07,2.3669505853070591e-07,5.921738392488325e-08,3.5811868744307693e-07,3.434899152650981e-07,2.4353800394493013e-07,1.721046368397629e-07,-3.313615705290179e-08,-3.50179433288615e-07,2.0317563335282166e-07,1.216256842589055e-07
-4.0821072717087303e-07,-1.1906604089353072e-06,2.284185138090213e-08,6.271452187945268e-08,2.881731825441181e-07,1.4247181255434906e-07,1.5558672107711223e-07,1.0816831894177171e-07,1.17032360522506e-07,6.790289279403783e-09,2.9355835871705316e-07,2.1533443389394343e-07,1.3477333431193842e-07,1.4464157823317746e-07,-5.4057135308071685e-08,-3.949753482017011e-07,8.750308161789387e-08,8.343668150744123e-08
-5.818786901548013e-08,-1.3068679396207362e-06,-2.2538945402401967e-08,3.135497873446217e-08,2.627871789169719e-07,5.939028359751002e-08,-5.14369247065618e-08,-2.5835198645000048e-09,1.810037030207572e-08,-2.5408575507259477e-08,2.008832013718301e-07,8.940178414177616e-08,5.223466866381165e-08,1.0319778089085382e-07,-6.192532762691456e-08,-4.0140995027715063e-07,-1.0068244340271154e-08,5.000992572454505e-08
2.5927521271069624e-07,-1.1849870789830321e-06,-5.567370921111935e-08,8.42943677582185e-09,1.9412676382566666e-07,-7.570597660525626e-09,-2.3534636520175589e-07,-1.359999780613928e-07,-6.841662970711827e-08,-2.0624854183894784e-08,9.675085456243347e-08,-2.246189088756349e-08,-9.3386420783524e-09,5.587125960207528e-08,-3.7079310450880346e-08,-3.5534081575150605e-07,-8.333097592950382e-08,3.119693784779043e-08
4.890476325585006e-07,-8.609786674649836e-07,-6.610509230469207e-08,-1.1829028205327101e-08,1.1344723361318639e-07,-6.631687752114009e-08,-3.082998718777823e-07,-2.264205001217481e-07,-9.224446856183144e-08,-4.213710043984287e-08,-5.780990391324544e-09,-1.0682950347430954e-07,-6.649203272488468e-08,3.748931714919449e-09,-2.0831979238609857e-08,-2.490524882908442e-07,-1.3054577689985942e-07,4.817769268200826e-09
6.188407332325446e-07,-3.879058563690352e-07,-6.339004526035395e-08,-1.2108923392387435e-08,1.5503131176734247e-08,-9.812076064271059e-08,-3.1187787943547535e-07,-2.642480637168025e-07,-6.37467167404118e-08,-7.394820998927589e-08,-7.585452714973371e-08,-1.5515822951590114e-07,-1.1169868265642365e-07,-3.6066864600235324e-08,-1.413101697839586e-08,-1.0910757263950313e-07,-1.5361419097702118e-07,-2.9166294172868723e-08
6.742715451483695e-07,1.1897444853084593e-07,-4.4674925136289375e-08,-2.1892910098458383e-08,-9.168216081595185e-08,-1.0394971579249766e-07,-3.0023530431057803e-07,-2.434289780034289e-07,-1.1196900315684663e-07,-6.500221728993812e-08,-1.4400646469552773e-07,-1.6869639411476456e-07,-1.3752187082724497e-07,-6.544261522939351e-08,5.750534288692098e-08,5.345254563121966e-08,-1.578748935722439e-07,1.1667182872973007e-08
6.560758389199589e-07,5.771188737499113e-07,-6.595093116671847e-09,-3.862265569538941e-08,-1.7890031288095091e-07,-9.048223119831706e-08,-2.9114630176387336e-07,-1.4385969736151745e-07,-1.5191917314151874e-07,-2.7994271642098894e-08,-2.1047586752430752e-07,-1.535413051496855e-07,-1.5498908410990178e-07,-8.681496818279034e-08,9.381462006930174e-08,2.1812631240822226e-07,-1.4833284418969859e-07,4.541660168597323e-08
5.708817256697705e-07,9.223060977883058e-07,3.043621622699992e-08,-6.396620167556256e-08,-2.2030861347007088e-07,-5.569809776037656e-08,-1.747909165905737e-07,4.4305064010942705e-09,-1.1254358355640144e-07,3.2635316418408e-08,-2.6108732990501015e-07,-1.2290288572650392e-07,-1.6063737808299478e-07,-9.895676031519645e-08,8.769000980619399e-08,3.555567407879012e-07,-1.284847878181884e-07,2.940298690091252e-08
3.5609773551397055e-07,1.1014430183007466e-06,5.0511149201636715e-08,-7.332719995664868e-08,-2.359832227082462e-07,-1.2505827502443018e-08,3.0152856795259143e-10,1.3630998693718625e-07,-5.400187383116151e-08,5.1789819049863554e-08,-2.777658122969603e-07,-9.382782335766857e-08,-1.5666711951216977e-07,-1.0457556816561259e-07,8.147749315293219e-08,4.355294929989512e-07,-1.0261386370884823e-07,-3.694317636466149e-08
1.520618711874287e-07,1.155221420395972e-06,4.148925835709692e-08,-6.538921973450089e-08,-2.391691785003137e-07,-2.0875835936909514e-08,1.0837955457395995e-07,1.7340621704749642e-07,-4.1235044058409896e-08,1.1505893518959385e-08,-2.5821887055586185e-07,-9.777947958530471e-08,-1.4914014976938177e-07,-1.0438267170106639e-07,4.1027267165922667e-08,4.477453167225077e-07,-7.455352532924109e-08,-1.1635929921766419e-07
-1.2083024372650017e-07,1.069375312676378e-06,-1.909709711262531e-08,-4.1118759778064625e-08,-2.3763467728323968e-07,-1.1258066931370097e-07,9.073523107155315e-08,1.0790781341513892e-07,-6.58882535100622e-08,-6.212966496641529e-08,-2.135407169909944e-07,-1.6107159828891936e-07,-1.3948179029575194e-07,-1.0188165920124809e-07,-1.7725084620727338e-08,3.943123757886782e-07,-4.792426574937432e-08,-1.4954097500237613e-07
-4.077283351303519e-07,8.734218617911552e-07,-8.273467832025288e-08,-4.0751958267037936e-08,-2.5958372655209027e-07,-1.9532023659714617e-07,3.894368716152382e-08,2.1354306923728252e-08,-8.800846622590056e-08,-8.516986832936708e-08,-1.5572223122976098e-07,-2.480765449054942e-07,-1.3286517283953078e-07,-1.01831023569837e-07,-7.388667756999843e-08,2.8508011372934576e-07,-2.6038495844641436e-08,-1.8467179350023465e-07
-6.710479151304592e-07,6.150438817823248e-07,-1.3666546858180628e-07,-6.864398371683248e-08,-3.232221176948992e-07,-2.652892871202662e-07,2.865006466392682e-08,-4.870094184206651e-08,-1.0435931615882474e-07,-1.3169406866775072e-07,-1.0267474070461372e-07,-3.3454199886456687e-07,-1.429611848426439e-07,-1.1279730742059329e-07,-1.4216500587818507e-07,1.5316048025158474e-07,-1.0954477379939874e-08,-3.0768284900849026e-07
-9.156709288654464e-07,2.727969173419848e-07,-1.9084796005604277e-07,-9.548488056312288e-08,-3.775541928795592e-07,-3.104169860307978e-07,-1.8637681674000758e-08,-6.155554514837028e-08,-1.4552296141579216e-07,-2.0169407091977195e-07,-5.822054158006034e-08,-3.9765822809355665e-07,-1.6921229899423757e-07,-1.3701170057227789e-07,-2.463049210151674e-07,1.1310886286233289e-08,-3.491724549202816e-09,-4.4800792004185743e-07
-1.1294389212490349e-06,-1.6317369401747583e-07,-2.360014525575522e-07,-1.0659223265065995e-07,-4.864393380555032e-07,-4.040726983943013e-07,-2.1275609047487426e-07,-2.9020144596023423e-07,-2.829642496121762e-07,-2.8529807201308564e-07,-2.7535224434116595e-08,-5.127532781704125e-07,-1.997399153498781e-07,-1.743917323486924e-07,-3.9599784929234096e-07,-1.2993483000440505e-07,-3.815054908864124e-09,-5.939475964317054e-07
-1.2782576022171395e-06,-6.858738618072882e-07,-2.8566701234891347e-07,-1.407486289263012e-07,-6.091970426600827e-07,-5.503861059537547e-07,-4.7427224228805405e-07,-5.590172833817177e-07,-4.495135487755091e-07,-3.690907530969625e-07,-1.2740863584866828e-08,-6.481964754152951e-07,-2.3321953117031764e-07,-2.216739625765325e-07,-5.3860774997465e-07,-2.5886258809462263e-07,-1.127102998435403e-08,-7.389046833530686e-07
-1.290540855090745e-06,-1.2242703605317443e-06,-3.2634468022218646e-07,-1.785905781058475e-07,-7.337122559685288e-07,-6.740552489440976e-07,-7.320411627109237e-07,-7.398340846581476e-07,-5.739350536979172e-07,-4.199087928267312e-07,-1.4710036338060513e-08,-7.440030328051072e-07,-2.603108126318017e-07,-2.706083440344365e-07,-6.626902926360461e-07,-3.697998510642979e-07,-2.378642841781408e-08,-8.683346522413542e-07
-1.105004671007827e-06,-1.6726959367141294e-06,-3.1923423967185405e-07,-1.990552255286531e-07,-8.128426610986456e-07,-7.065149824375739e-07,-9.6802886946923e-07,-8.922981829009069e-07,-7.051565889119378e-07,-3.9612983577830355e-07,-2.642053198658905e-08,-8.174521927101201e-07,-2.7330840957835643e-07,-3.132889098348171e-07,-7.527635759842795e-07,-4.606474069566681e-07,-3.88076117737371e-08,-9.522336404941122e-07
-6.998117139353382e-07,-1.9384571219043114e-06,-3.0860754300497837e-07,-1.908457764132233e-07,-8.080939016351038e-07,-7.116373749361003e-07,-1.190985255401411e-06,-9.45539643276141e-07,-7.861037596085554e-07,-3.6962050352034967e-07,-3.81928597878273e-08,-8.456887284548267e-07,-2.691549178614243e-07,-3.4307579007960045e-07,-8.04994097962635e-07,-5.32665621573368e-07,-5.4076214052863746e-08,-9.89740066675588e-07
-2.853396276521626e-07,-1.9253936433922484e-06,-3.399150783837713e-07,-1.9259881516546276e-07,-7.926428048171569e-07,-6.591369412323289e-07,-1.34913551595888e-06,-1.0170233996223732e-06,-8.154285361501868e-07,-3.680568161739135e-07,-4.229472844317223e-08,-8.527727227844331e-07,-2.440584975366923e-07,-3.570942347291563e-07,-8.300062508214006e-07,-5.894024971455585e-07,-6.821910693273113e-08,-9.915434459263357e-07
-2.6215920327548755e-08,-1.6489981915349218e-06,-3.5027805505510645e-07,-1.939416458822532e-07,-7.450928240266753e-07,-6.940594842973962e-07,-1.4650037015975806e-06,-9.922924181225411e-07,-8.134263859819024e-07,-3.6412259262697954e-07,-3.0939001124272347e-08,-8.397307432030941e-07,-1.993989066226174e-07,-3.553539513248056e-07,-8.354682489446684e-07,-6.39843829968166e-07,-8.11565365893767e-08,-9.673870910827523e-07
1.3779507669525487e-07,-1.1654950358624413e-06,-3.707320264188241e-07,-1.9453329869572007e-07,-7.427881321890985e-07,-7.283040934292256e-07,-1.5761347347873786e-06,-8.670601075289348e-07,-7.776811892870756e-07,-3.488545308083974e-07,-4.674865608398269e-10,-8.347041494078598e-07,-1.401685204716973e-07,-3.4317989685514586e-07,-8.313457784698282e-07,-6.864348605353883e-07,-9.347786195192563e-08,-9.31949539283053e-07
2.096166978339372e-07,-5.716627777911828e-07,-4.086100949565127e-07,-2.1880476617818683e-07,-7.700826643736568e-07,-7.563747144586257e-07,-1.6939185670749164e-06,-7.036879268197702e-07,-7.365704173130727e-07,-3.458566984612772e-07,4.9600375623652946e-08,-8.408448602456786e-07,-7.486539019124219e-08,-3.2369668533637686e-07,-8.16586080640919e-07,-7.288349503397943e-07,-1.0537861642447994e-07,-8.890044190092259e-07
2.2420486137595972e-07,-4.098036430052775e-09,-4.1767518876743237e-07,-2.149456887984523e-07,-8.074270175720286e-07,-8.100850293393679e-07,-1.8330762801123005e-06,-5.861938517399769e-07,-6.992175640468145e-07,-3.279281973681423e-07,1.1677685938829007e-07,-8.343332154016048e-07,-9.034116074486195e-09,-2.989660227822646e-07,-7.894155779394029e-07,-7.646341685638258e-07,-1.1614565800730827e-07,-8.414830704871264e-07
1.9487822630538934e-07,4.13658452850261e-07,-4.142548197321065e-07,-1.934059765001818e-07,-8.086224931787887e-07,-8.347422267122814e-07,-1.979784672201928e-06,-5.027807143837598e-07,-6.637372455249381e-07,-2.981534237467649e-07,1.9542359997431152e-07,-8.244070808114068e-07,5.3322199422224364e-08,-2.71316706437204e-07,-7.506235524104685e-07,-7.877664520535432e-07,-1.2437411716252355e-07,-7.938166316076282e-07
1.4676307258977543e-07,6.182397951607055e-07,-3.764231214969874e-07,-1.5160994168750638e-07,-7.665971091376755e-07,-8.407265852153674e-07,-2.1171561384704304e-06,-4.3353565502434374e-07,-6.294308574415109e-07,-2.745428691124657e-07,2.7826670264612866e-07,-7.608023972390718e-07,1.0945167414311945e-07,-2.4182189679919827e-07,-6.995086884482994e-07,-7.93130110504391e-07,-1.2834198579377024e-07,-7.460249309847859e-07
7.927726832398491e-08,6.225906982212788e-07,-3.4532555517746913e-07,-1.2732650838854376e-07,-6.962713605521411e-07,-8.431048939674819e-07,-2.2351188059948312e-06,-3.7657490828283135e-07,-5.935422570640778e-07,-2.2662095282302662e-07,3.5864823084473774e-07,-6.644886454529844e-07,1.5983090988416416e-07,-2.123059501975063e-07,-6.37127801024363e-07,-7.77307672940921e-07,-1.2634290354776318e-07,-6.977736231518808e-07
-4.6462536793726406e-08,5.380962749630415e-07,-2.941076637749855e-07,-8.818119897330882e-08,-6.087082637804509e-07,-8.039471656344433e-07,-2.326106013897939e-06,-3.279693949449309e-07,-5.540700987677737e-07,-1.9064984892484553e-07,4.3229449457118223e-07,-5.853441671456649e-07,2.0605056859332325e-07,-1.8508259760026346e-07,-5.674617173557554e-07,-7.396493796453404e-07,-1.1683119523521127e-07,-6.499065079994962e-07
-2.469957912751877e-07,4.705224421606029e-07,-2.3694377727925278e-07,-2.3382699413202774e-08,-5.387760005922757e-07,-7.873522540348867e-07,-2.3857102635814965e-06,-2.8750461139224645e-07,-5.121056095291954e-07,-1.551012993610433e-07,4.982462102760212e-07,-5.170929670653691e-07,2.507936013625158e-07,-1.6073562952918483e-07,-4.9730842231859e-07,-6.828811845877144e-07,-9.817537805698542e-08,-6.045718525358036e-07
-5.36906458610974e-07,5.001873558211662e-07,-2.1074839907463585e-07,3.4660733862698325e-08,-4.690385631364526e-07,-7.660250216065894e-07,-2.4120102765550907e-06,-2.6156111853332074e-07,-4.708433879293172e-07,-1.1357057269989029e-07,5.586099434793044e-07,-4.7080614628375637e-07,2.9749212901371584e-07,-1.3948245627028574e-07,-4.349022569553968e-07,-6.120893658634634e-07,-6.837273313356257e-08,-5.658930659835513e-07
-8.755517534899905e-07,6.257554073756259e-07,-1.8944019951518266e-07,8.685893815860023e-08,-3.963102748705943e-07,-7.444849851492222e-07,-2.4049575281871404e-06,-2.614714516083135e-07,-4.340265380498118e-07,-6.87182273883343e-08,6.173366533524691e-07,-4.429846218103007e-07,3.4950210261502835e-07,-1.2053250120175584e-07,-3.873302256270757e-07,-5.330291721480375e-07,-2.5069204736768974e-08,-5.375146292363781e-07
-1.1900547729321651e-06,7.473309466610245e-07,-1.7303236371354156e-07,1.1458167819474863e-07,-3.2641356677711746e-07,-7.260113716968545e-07,-2.3658988439643646e-06,-2.909722766864976e-07,-4.040250468865308e-07,-1.7860857549648693e-08,6.787148687575503e-07,-3.9423116600939613e-07,4.098432803166288e-07,-1.019516366927263e-07,-3.5807480339944103e-07,-4.5036060581874193e-07,3.390563251358244e-08,-5.202140894931054e-07
-1.4010095153457757e-06,7.675292417424534e-07,-1.4016283975246805e-07,1.2032670110411387e-07,-2.522937479680687e-07,-7.022527573513528e-07,-2.297833800273474e-06,-3.501649575238708e-07,-3.804297179016773e-07,2.9709822297304206e-08,7.457159958515286e-07,-3.296677172477717e-07,4.803099280044832e-07,-8.228508218048496e-08,-3.4527467835872327e-07,-3.6702643982391395e-07,1.0917323917785057e-07,-5.108741623899154e-07
-1.4406630593123592e-06,6.363439538867692e-07,-1.0451319273815483e-07,1.1900825760204977e-07,-2.0148801647172788e-07,-6.863849476692565e-07,-2.206722641099144e-06,-4.318741101495491e-07,-3.604758657502579e-07,8.26224010252948e-08,8.186056147672363e-07,-2.7580630139527354e-07,5.600768544465572e-07,-6.134301411660307e-08,-3.424275782094942e-07,-2.851268964408467e-07,1.9810711103463949e-07,-5.034281916962062e-07
-1.2884496640726458e-06,3.767397999470623e-07,-7.941866758734882e-08,1.3284138769647852e-07,-1.6721497648745277e-07,-6.604474605970637e-07,-2.102213279399505e-06,-5.229637002227819e-07,-3.40803920260862e-07,1.2006203821464398e-07,8.946026060971135e-07,-2.2363770660616616e-07,6.446248307423684e-07,-4.0928830286108685e-08,-3.407904770697457e-07,-2.0740094383441888e-07,2.9401049474461334e-07,-4.914561298182663e-07
-9.98792927574486e-07,6.785833697597823e-08,-7.119422902903051e-08,1.5227133239187576e-07,-1.3510356446662754e-07,-6.434008517820715e-07,-1.9957568996177242e-06,-6.093318251177303e-07,-3.1964097237222466e-07,1.4960928963329672e-07,9.690637424573247e-07,-1.7493812983447388e-07,7.260823615466787e-07,-2.4412117134393816e-08,-3.328081261773572e-07,-1.3825529386531853e-07,3.8692737351352567e-07,-4.7109473776438524e-07
-6.320023504084883e-07,-1.6046062098726303e-07,-6.558830184228537e-08,1.815970858815654e-07,-1.0176660408207798e-07,-6.192534329644609e-07,-1.8994286739261442e-06,-6.802665557105212e-07,-2.984495224315498e-07,1.755851538486827e-07,1.0375587514303614e-06,-1.33036610872126e-07,7.951061366182389e-07,-1.5838142782270183e-08,-3.1492616310376035e-07,-8.331348219845686e-08,4.6619441000945673e-07,-4.427279376818428e-07
-2.4368128531548994e-07,-1.7756865929325734e-07,-3.15192402931011e-08,2.258789650660831e-07,-6.738700789600947e-08,-5.82144884782475e-07,-1.8230405556895138e-06,-7.321025423732211e-07,-2.8165131835021694e-07,1.9386139886260216e-07,1.0978113891363698e-06,-9.407159934433259e-08,8.43939065176238e-07,-1.7249719921068245e-08,-2.8821936586649204e-07,-4.727858614185196e-08,5.239118854999909e-07,-4.104311273915352e-07
7.791031428403896e-08,9.471652581382305e-08,1.539214571787659e-08,2.700889455624065e-07,-3.3464955987836145e-08,-5.380860385983571e-07,-1.7708780950874334e-06,-7.668419705333699e-07,-2.7409525811413033e-07,2.1653538779437333e-07,1.150433148441172e-06,-6.150006113108135e-08,8.694341441823934e-07,-2.878589049618036e-08,-2.574260094116848e-07,-3.1300304942477004e-08,5.576630283973643e-07,-3.794618396865373e-07
2.646308746751293e-07,6.484782516658185e-07,6.712934072791778e-08,3.143268434093871e-07,-3.0258002613064407e-09,-4.812763397749108e-07,-1.7402296448083668e-06,-7.909075616077452e-07,-2.7783684446643224e-07,2.4018781368771594e-07,1.198123806315404e-06,-4.0921548807451484e-08,8.744365715714195e-07,-4.749854860803323e-08,-2.272429358371715e-07,-3.108204955704826e-08,5.713302796491027e-07,-3.529199270610026e-07
2.7253178183224605e-07,1.3750073999159994e-06,1.1772297724077188e-07,3.5746165454130344e-07,2.184451764884017e-08,-4.2625077949631177e-07,-1.7222795847199425e-06,-8.050487476386015e-07,-2.903981452176839e-07,2.642219469416766e-07,1.2441479684770625e-06,-2.5683879822740126e-08,8.666743642165769e-07,-6.775670759312374e-08,-1.993710522242907e-07,-3.7073804415318024e-08,5.734808927889011e-07,-3.2956553635825937e-07
9.742238744038943e-08,2.112002104194839e-06,1.5959366080190454e-07,3.9630372440750155e-07,4.8410435840743236e-08,-3.837152264601395e-07,-1.7045458340100795e-06,-8.096987481405171e-07,-3.0611080799806696e-07,2.8961654687241936e-07,1.2906984133306643e-06,-3.787171628962308e-09,8.548369068715987e-07,-8.41295964657707e-08,-1.7232248788068447e-07,-3.841357198170771e-08,5.731194706301352e-07,-3.0499122863039536e-07
-1.9450625295495852e-07,2.700379210495948e-06,1.992267908231093e-07,4.3464592351550946e-07,7.683285798815252e-08,-3.5607192599137486e-07,-1.677376275982924e-06,-8.035177181257835e-07,-3.1989100071155534e-07,3.2140452409189567e-07,1.3374852682148449e-06,2.4044798873277412e-08,8.436214466142009e-07,-9.393143078281325e-08,-1.4355309587262154e-07,-2.9092628162528055e-08,5.747520582068684e-07,-2.754610514509466e-07
-4.921211871987254e-07,3.025431219388594e-06,2.4097377353717124e-07,4.738132385394042e-07,1.0570732599269217e-07,-3.343382074510476e-07,-1.636158017075208e-06,-7.884965323565105e-07,-3.2994987693527106e-07,3.581187461006681e-07,1.3814921070758688e-06,5.44621292293951e-08,8.317137606443587e-07,-1.0001190193467158e-07,-1.1203967159528805e-07,-1.0987776754562572e-08,5.765775081467123e-07,-2.407069546839912e-07
-6.902776233030739e-07,3.0363882431336864e-06,2.852178026435659e-07,4.989540499594044e-07,1.3500346318831543e-07,-3.1375865366027987e-07,-1.5838242634670195e-06,-7.676473191709209e-07,-3.371187051845238e-07,3.963666850721493e-07,1.4186024416548282e-06,8.149849026142528e-08,8.14319442930296e-07,-1.0494282429546157e-07,-7.930668372207454e-08,8.98036558645085e-09,5.731014859226017e-07,-2.037250458447566e-07
-7.144771843084914e-07,2.7607324515660617e-06,3.2725512745947264e-07,5.114620967011182e-07,1.624387697971175e-07,-2.8982124453512254e-07,-1.5290208717017773e-06,-7.422657189760112e-07,-3.4269511647812636e-07,4.354814153095031e-07,1.4456712714490902e-06,9.808080695940698e-08,7.874821434305482e-07,-1.1401422932673609e-07,-4.780936186576822e-08,2.4520794472876133e-08,5.595864155284748e-07,-1.6901821809568943e-07
-5.539054909021243e-07,2.295030872514184e-06,3.6326111628962016e-07,5.139449693071507e-07,1.876118394319801e-07,-2.5873861414608454e-07,-1.4811366676738865e-06,-7.196900432688983e-07,-3.472625428251897e-07,4.640782128505171e-07,1.4615799142268662e-06,1.0306747148304245e-07,7.511237927633929e-07,-1.283495711513554e-07,-2.0226708383917193e-08,3.4464008076826774e-08,5.356014414814792e-07,-1.4068484996882408e-07
-2.553810681731828e-07,1.7712401627804552e-06,3.9214106896366814e-07,5.059770140317768e-07,2.1087010229980893e-07,-2.381581980870472e-07,-1.4478425549172295e-06,-6.975540187454432e-07,-3.502458357126023e-07,4.878564512337793e-07,1.4672274076724951e-06,9.971133118377678e-08,7.098228256953169e-07,-1.4464462632883683e-07,1.4402566845712013e-09,4.40493899516334e-08,5.064031877112809e-07,-1.2083410277120964e-07
7.707069091302015e-08,1.299101021134543e-06,4.060079451909917e-07,4.933404212925241e-07,2.3287706093144738e-07,-2.2552919318665344e-07,-1.4323804175798631e-06,-6.758033997759329e-07,-3.498927704946547e-07,5.137083782147674e-07,1.4646459953027135e-06,9.401506750609164e-08,6.708454864097434e-07,-1.5851799096687083e-07,1.6469424811830486e-08,6.181608950182277e-08,4.811764744500267e-07,-1.095277674843183e-07
3.139177343261137e-07,9.160460513408328e-07,4.1203900076154117e-07,4.792994471554268e-07,2.5500527698548236e-07,-2.1820598362954703e-07,-1.4339310323064246e-06,-6.498017189872637e-07,-3.4440703803318326e-07,5.437582539171012e-07,1.4554958475231277e-06,9.19008656697056e-08,6.401395666469371e-07,-1.6485274782352213e-07,2.4215355117109954e-08,9.342253956407201e-08,4.687256783877305e-07,-1.064328101944244e-07
3.547607921234052e-07,5.885409738449635e-07,4.177618655311459e-07,4.6586435563987006e-07,2.784048677474106e-07,-2.190768527854976e-07,-1.4500159950132294e-06,-6.108507053831814e-07,-3.332689737369477e-07,5.814857600377919e-07,1.4400831898292898e-06,9.593786507061619e-08,6.194170792925317e-07,-1.6160307571591368e-07,2.344929516568986e-08,1.3722710284064366e-07,4.7361777104066975e-07,-1.1192106442074626e-07
1.6644761978716477e-07,2.59770922536479e-07,4.223833950389029e-07,4.566101862798736e-07,3.0322793636541597e-07,-2.2345642112881701e-07,-1.4792656985145402e-06,-5.54617823388692e-07,-3.1704188792347195e-07,6.245303299766776e-07,1.4179113389517362e-06,1.0467176093699513e-07,6.064317944580577e-07,-1.4987640507961855e-07,1.3214416425105854e-08,1.847152279647959e-07,4.94883474986914e-07,-1.262387155507226e-07
-2.0288323812586917e-07,-1.036687338620962e-07,4.2775404400581907e-07,4.5428116525933354e-07,3.294220335069913e-07,-2.2951200187413326e-07,-1.5214819845858205e-06,-4.795516240954836e-07,-2.963682940607353e-07,6.693300790280442e-07,1.3889391420504064e-06,1.1386773827280406e-07,5.970501039310366e-07,-1.3404479728795765e-07,-5.646376942818064e-09,2.2405400641924555e-07,5.267493064513178e-07,-1.4806020602544982e-07
-6.557293283039153e-07,-5.003733726752233e-07,4.3244970042152966e-07,4.577832578181762e-07,3.5637521883849267e-07,-2.338772935916304e-07,-1.576746151024428e-06,-3.8910192926574676e-07,-2.714377794661594e-07,7.130837585336733e-07,1.354372870969815e-06,1.1848108776580467e-07,5.873099676251402e-07,-1.1770207712237092e-07,-2.9832798175047917e-08,2.443756911294666e-07,5.607151063450369e-07,-1.7362114140164868e-07
-1.0737620877640699e-06,-8.985720229107072e-07,4.3432162568904474e-07,4.6612594871776277e-07,3.8291221226323445e-07,-2.3098922972834517e-07,-1.643847774160461e-06,-2.882877162028708e-07,-2.414026740793078e-07,7.52883632612458e-07,1.3169293556169152e-06,1.1495091090423095e-07,5.75145778108198e-07,-1.0612809763235048e-07,-5.2854379107757364e-08,2.3984978187147013e-07,5.887893049575484e-07,-1.9652116938969357e-07
-1.3612955337722924e-06,-1.2339723717593483e-06,4.34340837506539e-07,4.783826622135931e-07,4.082641535870404e-07,-2.1600370153588924e-07,-1.7182552627827788e-06,-1.8448818255648741e-07,-2.0374425559004577e-07,7.879675467209264e-07,1.280626864209543e-06,1.0282206156956641e-07,5.61106562186057e-07,-1.0273687604403024e-07,-6.608859616236438e-08,2.1191619676363422e-07,6.065905791824177e-07,-2.0871513946276425e-07
-1.4668895134673607e-06,-1.4118720672904717e-06,4.3551954578063807e-07,4.925319485364419e-07,4.325264945039249e-07,-1.8572593392655325e-07,-1.7905302317943023e-06,-8.376146519121983e-08,-1.5491246184083678e-07,8.189983964057694e-07,1.2498399718353516e-06,8.469125338549227e-08,5.474192431649331e-07,-1.0730927522299383e-07,-6.156053469979338e-08,1.6820614917050053e-07,6.147733077482451e-07,-2.0291080737236333e-07
-1.387933266955129e-06,-1.3400003304937398e-06,4.4003699449344277e-07,5.099759906947723e-07,4.565793162762584e-07,-1.386929414522568e-07,-1.8474866889361818e-06,9.937402766967417e-09,-9.225995531487555e-08,8.468239386466287e-07,1.2279568098467408e-06,6.48632015914288e-08,5.362735735859126e-07,-1.1786037632438938e-07,-3.507828484314209e-08,1.1892634441025987e-07,6.183051877688509e-07,-1.7537115667916057e-07
-1.1642055036155085e-06,-9.828345824982002e-07,4.5076626231377176e-07,5.313824113680065e-07,4.813917616085154e-07,-7.626106393130657e-08,-1.8753087056483158e-06,9.287274352942e-08,-1.6332254407000455e-08,8.71633844384742e-07,1.2163567568776534e-06,4.7302947298637655e-08,5.282051732044858e-07,-1.3052118368423193e-07,1.1187414625660436e-08,7.234871145949729e-08,6.235529910711034e-07,-1.2812764436894542e-07
-8.651814713908831e-07,-3.9641555447121683e-07,4.6979635272596016e-07,5.57026516892533e-07,5.069904479980419e-07,-3.1826022346164218e-09,-1.8654942811699295e-06,1.6345824983154374e-07,6.704744375566996e-08,8.91394293345596e-07,1.2136587537173405e-06,3.3346515262319104e-08,5.209067885011754e-07,-1.4152938709569566e-07,6.822563079649753e-08,3.118966732026751e-08,6.341890926594258e-07,-6.960053614073153e-08
-5.695038887000036e-07,2.8501056777405405e-07,4.940055376040861e-07,5.873875423165406e-07,5.312940991266733e-07,6.888705506514852e-08,-1.8195824098429476e-06,2.1921752210560848e-07,1.465446475042679e-07,9.018763799890465e-07,1.2158686290705152e-06,2.0817945073877387e-08,5.097952323605962e-07,-1.499654046691401e-07,1.229143486656854e-07,-7.514907208776368e-09,6.488382099762387e-07,-1.2216134634023052e-08
-3.4852810961541664e-07,9.020593773401202e-07,5.187997134621846e-07,6.156418650143945e-07,5.506195595689564e-07,1.2810614322874393e-07,-1.7493619697221586e-06,2.574931210401447e-07,2.0851803815388195e-07,8.986058755345524e-07,1.21811173372572e-06,5.6698113268636084e-09,4.908739099663347e-07,-1.5610575258209463e-07,1.6276234478786848e-07,-4.852163388220605e-08,6.623084609331376e-07,3.239446943069566e-08
-2.5008615834266715e-07,1.3254952442277476e-06,5.390638862427612e-07,6.348107199494382e-07,5.613807399454204e-07,1.6564901292510947e-07,-1.6738166913809379e-06,2.7896192035529997e-07,2.418700605464041e-07,8.821842769241034e-07,1.2169281794654543e-06,-1.5398547002801617e-08,4.634858217680217e-07,-1.6063194385069537e-07,1.804284981734744e-07,-9.414767254793185e-08,6.687593562730955e-07,5.7450167476681924e-08
-2.944052852251229e-07,1.486603074248225e-06,5.502647178602556e-07,6.408197913456841e-07,5.615284459267959e-07,1.779605798844513e-07,-1.6122807931865462e-06,2.8331036060716264e-07,2.4156053792600685e-07,8.534242103256593e-07,1.2115395733960851e-06,-4.310328238353873e-08,4.3089740145308816e-07,-1.6418392642447784e-07,1.756663738058814e-07,-1.4286378483477803e-07,6.645087975943409e-07,6.253024789732115e-08
-4.640130478666519e-07,1.3838628587305493e-06,5.539639106991979e-07,6.327134837091961e-07,5.517416491384693e-07,1.6377767469162028e-07,-1.5791641501733114e-06,2.7318830675404167e-07,2.1042062392565432e-07,8.172266146963998e-07,1.2038475796886112e-06,-7.447626236062824e-08,3.9956754801236903e-07,-1.6622912141934946e-07,1.5504083386713155e-07,-1.898182717283609e-07,6.498753260575345e-07,5.3400675343060733e-08
-7.038693608562088e-07,1.0711240662344414e-06,5.508850020950751e-07,6.141025518724109e-07,5.356612070134468e-07,1.2841770348138054e-07,-1.5804981594599776e-06,2.535417148692414e-07,1.5921351804879133e-07,7.826990911686276e-07,1.1975921057851092e-06,-1.0299934670976383e-07,3.7761951213526083e-07,-1.6486231900094254e-07,1.2988487196382808e-07,-2.2821781695582129e-07,6.292865624223589e-07,4.023101920875945e-08
-9.449268510763794e-07,6.288821080597603e-07,5.45049490414354e-07,5.915734073814346e-07,5.192663173519368e-07,8.345824588414543e-08,-1.6135129590780278e-06,2.314846226378905e-07,1.0315848523376181e-07,7.584875687267386e-07,1.1964473741859447e-06,-1.213186247320287e-07,3.714609354032605e-07,-1.574521346635292e-07,1.1174227297896622e-07,-2.5249943544267327e-07,6.086386908597599e-07,3.328876047683334e-08
-1.129091022779244e-06,1.3745907095346912e-07,5.422231540560079e-07,5.708745831486872e-07,5.088506037935173e-07,4.021912227511407e-08,-1.6693973807999143e-06,2.1479306547231434e-07,5.558131262377075e-08,7.507847311080605e-07,1.2016937275378622e-06,-1.2525274502602185e-07,3.818843883345343e-07,-1.4266568213918374e-07,1.0713176350944577e-07,-2.620429745599194e-07,5.915444383667301e-07,3.786828476005519e-08
-1.2268198623932983e-06,-3.26085991832361e-07,5.435745139538654e-07,5.542398418421338e-07,5.083047190231114e-07,5.791282374929995e-09,-1.737977288262587e-06,2.0885499003421898e-07,2.324673408275709e-08,7.602751848939062e-07,1.2113988437859895e-06,-1.15624328208499e-07,4.033295497810867e-07,-1.2131101576879608e-07,1.1504823256299485e-07,-2.616783880538952e-07,5.777306340385795e-07,5.2012360946835595e-08
-1.2390075375938068e-06,-6.795024794065344e-07,5.48059191085846e-07,5.412052203987699e-07,5.183747304970058e-07,-1.6658888672079e-08,-1.8103404940772301e-06,2.1579135441744874e-07,5.9538237729771956e-09,7.829168564593664e-07,1.221758371705509e-06,-9.701735674043068e-08,4.268651576277448e-07,-9.631834679498252e-08,1.281479051787173e-07,-2.58538516721831e-07,5.641652226350639e-07,6.771780969512428e-08
-1.1784021211737648e-06,-8.455872145273192e-07,5.518209903986728e-07,5.278692052404276e-07,5.370798158579301e-07,-3.1224153461795336e-08,-1.879338036019232e-06,2.3357585464873867e-07,-1.6396290693072907e-09,8.119375764363776e-07,1.228905117044512e-06,-7.559590020337473e-08,4.437991423738283e-07,-7.021480611635375e-08,1.354548477036685e-07,-2.584870338128217e-07,5.470728230115499e-07,7.368452815152702e-08
-1.0602529494097227e-06,-7.814825363931657e-07,5.49388836859234e-07,5.098397542786285e-07,5.601968494832173e-07,-4.8950571178175185e-08,-1.9398936084725126e-06,2.5791922020909585e-07,-7.776274294540531e-09,8.407730764385707e-07,1.2298184071416042e-06,-5.716319416300262e-08,4.48204409792577e-07,-4.464184098476925e-08,1.2555827240330113e-07,-2.6365553072448565e-07,5.240721549687924e-07,5.881045777011886e-08
-8.982632378518056e-07,-4.9711170524058e-07,5.362149390623329e-07,4.84268048984711e-07,5.823673800372403e-07,-8.1357048076792e-08,-1.989414209287977e-06,2.823216069468428e-07,-2.0412602251359275e-08,8.639779654976599e-07,1.222682621903135e-06,-4.53034013114095e-08,4.3860493951632894e-07,-1.99359967257308e-08,9.017587000030041e-08,-2.708981937067265e-07,4.961748614271753e-07,1.6277247777374126e-08
-6.81348480991255e-07,-4.51183816146525e-08,5.110286322326514e-07,4.489167641079417e-07,5.990172291939548e-07,-1.3703157622770403e-07,-2.025377104565293e-06,3.026996084303223e-07,-4.392641937640305e-08,8.78054856598384e-07,1.20686290029491e-06,-4.064042961272532e-08,4.178962882955854e-07,5.153530501248062e-09,2.6805624055945118e-08,-2.726649022633565e-07,4.6782473873668165e-07,-5.3606052284242804e-08
-4.3183487952194756e-07,5.027115643389637e-07,4.7603449699662766e-07,4.0485198363044193e-07,6.076024867785188e-07,-2.2169470455578486e-07,-2.0460646857270405e-06,3.1789308976247977e-07,-7.814165846619356e-08,8.815108260946786e-07,1.1820157549275685e-06,-4.209513312197722e-08,3.908816926316377e-07,3.156460384889541e-08,-5.969673941864578e-08,-2.610377395904072e-07,4.4411924532910835e-07,-1.4328872718215967e-07
-1.762991444760478e-07,1.0696550830639467e-06,4.340303061249234e-07,3.571058447879521e-07,6.072648220513183e-07,-3.409963683336225e-07,-2.053376890949032e-06,3.2967820756468333e-07,-1.1955759930030263e-07,8.73953234161195e-07,1.1477815485235246e-06,-4.837638840187235e-08,3.6179402532540285e-07,5.877198122961953e-08,-1.61052595274598e-07,-2.3176112617499241e-07,4.2771014437265967e-07,-2.3965748718891414e-07
5.630798004841501e-08,1.576022928914069e-06,3.8785067417653864e-07,3.0787893386643526e-07,5.985373547352712e-07,-4.6549882508641897e-07,-2.0521735574509867e-06,3.41294707334441e-07,-1.6268875433078766e-07,8.569277814986004e-07,1.1044711835457102e-06,-5.779259803249984e-08,3.3393506020647054e-07,8.38462604252812e-08,-2.637784837488232e-07,-1.8536851501636058e-07,4.178553809322678e-07,-3.257986277855549e-07
2.9967549928731757e-07,1.9416877611781665e-06,3.422320770947078e-07,2.6430764628300657e-07,5.826666789008324e-07,-5.835631478715115e-07,-2.0489748828081384e-06,3.562652113689417e-07,-2.0134065656639036e-07,8.348643673103387e-07,1.0544438565887873e-06,-6.731977331666926e-08,3.10064443555059e-07,1.0455919017518013e-07,-3.521252199857173e-07,-1.2660093100839026e-07,4.1105582679360966e-07,-3.8779178307328944e-07
5.86985362398174e-07,2.099420702726286e-06,3.025847493464288e-07,2.406899287851216e-07,5.618827169972791e-07,-6.841931477945904e-07,-2.0502871593543048e-06,3.798123430792151e-07,-2.304338082319716e-07,8.146696029691336e-07,1.002543622767102e-06,-7.246380575692619e-08,2.9201205579839306e-07,1.1929590867772556e-07,-4.235546191212861e-07,-6.362625925761044e-08,4.021871230461915e-07,-4.234263711335794e-07
9.323305176141427e-07,2.016191040949642e-06,2.751982062890381e-07,2.3126817805784604e-07,5.395150897188376e-07,-7.321087994221399e-07,-2.0615360255373935e-06,4.1409787209906875e-07,-2.470276474644475e-07,8.043802988729545e-07,9.552103986309496e-07,-6.776733974145754e-08,2.8059788266988803e-07,1.2811737346319834e-07,-4.671390998191642e-07,-6.03531825965385e-09,3.863294145621942e-07,-4.0745429302314133e-07
1.2153463269489034e-06,1.7062925763221654e-06,2.670750887923953e-07,2.4033282384278265e-07,5.198532987413823e-07,-7.114713669702312e-07,-2.086207199696366e-06,4.596342558261039e-07,-2.4987757334596414e-07,8.112616112850769e-07,9.190961079547212e-07,-4.801759529058537e-08,2.7627532871559353e-07,1.3365299629210624e-07,-4.4514681422254877e-07,3.8335104656496895e-08,3.6064562113290284e-07,-3.714984903332439e-07
1.3086907934374589e-06,1.2268774167992163e-06,2.8335031741775744e-07,2.793840960082275e-07,5.07760566875966e-07,-6.957074919541721e-07,-2.1259802108375577e-06,5.155807425135115e-07,-2.395720963121366e-07,8.390530192539209e-07,8.990129409430599e-07,-1.0757076133988429e-08,2.7890522235042524e-07,1.393254605484561e-07,-4.103565346569322e-07,6.530478382868274e-08,3.2483744796887953e-07,-3.095869529757457e-07
1.2201490228572794e-06,6.676281166067256e-07,3.230038654569454e-07,3.01374968315617e-07,5.06800535866006e-07,-7.148434980299741e-07,-2.181174788094688e-06,5.753379364877728e-07,-2.199356041105811e-07,8.853112752318392e-07,8.960896310695651e-07,4.1429823773373084e-08,2.867863080922433e-07,1.4775522486534517e-07,-3.6821166513813635e-07,7.423387765368564e-08,2.8057272430458835e-07,-2.3676417463496963e-07
9.787839750638051e-07,1.4065813263092895e-07,3.7904860337972107e-07,3.2589931794817433e-07,5.164921461129964e-07,-6.950650712870783e-07,-2.2503694859758614e-06,6.291380758168303e-07,-1.9823062147008346e-07,9.412554057205515e-07,9.076961210731864e-07,1.0140082977835085e-07,2.968755893455234e-07,1.5948159366212672e-07,-3.1874010706337895e-07,6.744942708955936e-08,2.3118775638294053e-07,-1.652166213511198e-07
7.18760704209576e-07,-2.4506202043371334e-07,4.4094013739234486e-07,3.8276412349647115e-07,5.330605457087123e-07,-6.636542980062063e-07,-2.3297420887852484e-06,6.654285345197733e-07,-1.8308835690635236e-07,9.946979165742822e-07,9.29282223877463e-07,1.6038423587370688e-07,3.0609116644064936e-07,1.7341633891347927e-07,-2.749518141523346e-07,4.950766118505156e-08,1.8124988163523644e-07,-1.0451949239388747e-07
4.4182627939254665e-07,-4.226537458150343e-07,4.967900513896302e-07,4.2996135350582325e-07,5.508513592015496e-07,-6.135088276897927e-07,-2.412869982856993e-06,6.75599082833653e-07,-1.8194012471581513e-07,1.0339852045675058e-06,9.563520984043288e-07,2.1036891487958869e-07,3.123528791572053e-07,1.868954082350844e-07,-2.49913355761115e-07,2.5947992041753072e-08,1.354928919800075e-07,-5.970183158367845e-08
1.0303458867043808e-07,-3.844661144506807e-07,5.375397341446413e-07,4.791551396360246e-07,5.636203125533303e-07,-5.261280400047566e-07,-2.4917733794077503e-06,6.54674057367562e-07,-1.9882729842970938e-07,1.051545264866025e-06,9.859396388966127e-07,2.4906741648921996e-07,3.157152862778442e-07,1.9809873651422105e-07,-2.445438964058436e-07,3.0221299072011157e-09,9.842998944960078e-08,-3.012671053880078e-08
-1.4442575288853325e-07,-1.6329308174400524e-07,5.577250827775515e-07,5.290544585886031e-07,5.655296074267194e-07,-4.3048609464994723e-07,-2.5578230602032156e-06,6.023048278640477e-07,-2.325438059723182e-07,1.0465510197794378e-06,1.0175230948557867e-06,2.7895376287804466e-07,3.1949766267385787e-07,2.0719160517927668e-07,-2.535439792158017e-07,-1.1268608760530185e-08,7.488647938425072e-08,-9.505174443005961e-09
-2.3632115866529335e-07,1.9005006665619697e-07,5.594505114346262e-07,5.626011177446447e-07,5.548695932798464e-07,-3.28291775693632e-07,-2.6027373948085467e-06,5.22475746451575e-07,-2.76888194552526e-07,1.0251842146006786e-06,1.0525324014771237e-06,3.0671947542539703e-07,3.2911308244993286e-07,2.164114131508213e-07,-2.668784111327426e-07,-7.923469056214895e-09,6.924020129328271e-08,1.1188275583079507e-08
-1.0953147016087034e-07,6.072178077130916e-07,5.463837287538662e-07,5.881720432839194e-07,5.32334313478656e-07,-2.4978224637801164e-07,-2.6217068847774634e-06,4.1935046954127434e-07,-3.241683148517229e-07,9.976170462707183e-07,1.0918073273341211e-06,3.396386319758083e-07,3.483243726571341e-07,2.2875997609443582e-07,-2.751891652502545e-07,1.916889585807518e-08,8.284841909207482e-08,3.850534179866147e-08
5.4192205269487015e-08,9.990983329290395e-07,5.210362815432407e-07,6.089341357058191e-07,4.988627216242932e-07,-1.9525272079170174e-07,-2.61599352683568e-06,2.94075080984647e-07,-3.690973196696962e-07,9.737198068615728e-07,1.1331859417693403e-06,3.8043486541018395e-07,3.7661095419040036e-07,2.4571687089202525e-07,-2.74024361857133e-07,6.989256958822118e-08,1.1256324809553248e-07,7.302042660514835e-08
3.307231672673147e-07,1.2725058587424404e-06,4.868597469712205e-07,6.241908015077586e-07,4.5547046862756856e-07,-1.5606193170727815e-07,-2.592478609223766e-06,1.5046371574211867e-07,-4.0989415786531347e-07,9.600409374362851e-07,1.171254712500298e-06,4.270091108365188e-07,4.0990997497982406e-07,2.669006137066424e-07,-2.6452834762264226e-07,1.3816699726249788e-07,1.5209871116655704e-07,1.0975998152834197e-07
6.802180822150587e-07,1.3587963028137746e-06,4.4532602059634904e-07,6.395993155165075e-07,4.023552130981271e-07,-1.0210228145498588e-07,-2.561011785670252e-06,-1.376089047150204e-08,-4.4752747048116434e-07,9.581019060166613e-07,1.1991635709587876e-06,4.733996262431734e-07,4.426140177991307e-07,2.908433736548664e-07,-2.5263754687615517e-07,2.1403230977050276e-07,1.9451476490179673e-07,1.4068431180841675e-07
9.402387371828129e-07,1.2367148664443813e-06,3.9688615114915934e-07,6.530477072206071e-07,3.3970515730287873e-07,-3.2552548345268287e-08,-2.531113416624502e-06,-1.993308927355618e-07,-4.851413839837699e-07,9.635857314002565e-07,1.2108383524734204e-06,5.17730650613162e-07,4.688826720949546e-07,3.147673966171601e-07,-2.474746171686287e-07,2.853498419520971e-07,2.34115032584102e-07,1.5722680530586115e-07
1.0621218518016292e-06,9.438867072828515e-07,3.4240099345324325e-07,6.588240845850735e-07,2.68228537475756e-07,1.2189129857461533e-08,-2.5095512517562284e-06,-4.048354907438397e-07,-5.270402174377105e-07,9.673657867890104e-07,1.2029684060832613e-06,5.429908031735744e-07,4.841003509976068e-07,3.35228099207078e-07,-2.589879297394571e-07,3.3977699888416254e-07,2.6784337868833965e-07,1.5272536559217253e-07
9.778676605683218e-07,5.723455474877275e-07,2.8345488565737533e-07,6.55085910651615e-07,1.9037715393009595e-07,3.665800689166251e-08,-2.499194173560202e-06,-6.243601836769501e-07,-5.767750873813074e-07,9.586118138744455e-07,1.1764794571520932e-06,5.425092893579603e-07,4.86545651660069e-07,3.4948038273264193e-07,-2.9571939083679286e-07,3.6739257240412463e-07,2.9578222019689686e-07,1.2407673571942807e-07
6.699850340685231e-07,2.456463897567214e-07,2.2187697026851018e-07,6.314722576356138e-07,1.1030216696847905e-07,3.8634776680523716e-08,-2.499323539293163e-06,-8.488378961720064e-07,-6.361749233821035e-07,9.282617402427037e-07,1.1361646691095661e-06,5.153890355112662e-07,4.77641415709105e-07,3.562622507654226e-07,-3.626512406849158e-07,3.628354916022733e-07,3.2003981002281324e-07,7.174844794486914e-08
1.3686392589234388e-07,8.988609709239589e-08,1.5936612784158765e-07,5.894861075009704e-07,3.299418410822727e-08,2.411291333795945e-08,-2.5068143990806194e-06,-1.0774295772061137e-06,-7.057930046955404e-07,8.716938945338651e-07,1.0885915774695835e-06,4.4892080511911547e-07,4.609089720639309e-07,3.5604728125564725e-07,-4.5917689728068743e-07,3.2687608466882257e-07,3.4316337543463523e-07,-7.091406039378414e-10
-3.9978196980165807e-07,2.09946088894631e-07,9.693277869633533e-08,5.328041835099078e-07,-3.7418281498063405e-08,-1.4238035111117507e-10,-2.518341169938929e-06,-1.2966409156431628e-06,-7.848730616260985e-07,7.90623995520648e-07,1.0397774604241833e-06,3.665926279917757e-07,4.410027870114188e-07,3.510125204468684e-07,-5.781299663917367e-07,2.674233414496045e-07,3.673573470617742e-07,-8.656955412093125e-08
-8.163877184516304e-07,6.607611643141858e-07,3.356626632717595e-08,4.709605609775736e-07,-9.85095058011515e-08,-3.393114262700746e-08,-2.530966281349319e-06,-1.4980487547228485e-06,-8.707850910985161e-07,6.933163601761264e-07,9.934015518155592e-07,2.7955929166727304e-07,4.223113393201137e-07,3.445224255098578e-07,-7.0645274151729e-07,1.979118592103046e-07,3.935648671241659e-07,-1.76688455640685e-07
-1.0986399855696068e-06,1.4083864948629534e-06,-3.223357120207722e-08,4.051606810352079e-07,-1.4981951985787354e-07,-8.659782099746674e-08,-2.5427708206131613e-06,-1.6682005377853597e-06,-9.597322964506797e-07,5.921141013748526e-07,9.493050117563653e-07,1.9624831959639952e-07,4.066403904247465e-07,3.3949759623607613e-07,-8.284629053621013e-07,1.323552635188111e-07,4.198480289180859e-07,-2.6203250816094893e-07
-1.1656501250864115e-06,2.3149189810347468e-06,-1.0286092797296694e-07,3.3560782320336934e-07,-1.9301410104386535e-07,-1.5331687854947668e-07,-2.5541725771464143e-06,-1.8067313380565252e-06,-1.0481984216903431e-06,4.996246265235708e-07,9.031525175619306e-07,1.3903845344072237e-07,3.9219832636498077e-07,3.3726645530495437e-07,-9.301291024117879e-07,8.038904152264904e-08,4.41083983407431e-07,-3.3598688499297964e-07
-1.006098992800557e-06,3.182271453977417e-06,-1.8029878101812795e-07,2.647277023900448e-07,-2.324834401540717e-07,-2.1480049375840641e-07,-2.5677426496281355e-06,-1.917312694299415e-06,-1.1333316775599178e-06,4.255620569289292e-07,8.483501045709341e-07,1.020158689025308e-07,3.7539683332437956e-07,3.3741905238988235e-07,-1.0027552670197323e-06,4.512827893143373e-08,4.5117227588620846e-07,-3.950280988425424e-07
-6.473374408314079e-07,3.829758779918853e-06,-2.627485660231109e-07,1.9295236855386341e-07,-2.692004507720703e-07,-2.7084198659936556e-07,-2.5874689537831147e-06,-1.998418056020135e-06,-1.212962027689486e-06,3.7442509195797195e-07,7.793393629623996e-07,8.648279264313607e-08,3.533673167984822e-07,3.3880178344026533e-07,-1.0446338093081096e-06,2.29696312806238e-08,4.457984613151664e-07,-4.3893313957104286e-07
-3.714470467577334e-07,4.1474792569730645e-06,-3.45749778471595e-07,1.3052783360508526e-07,-3.0275297775741404e-07,-3.189118420519645e-07,-2.6180357143784297e-06,-2.0499474416505087e-06,-1.2863666684855433e-06,3.44216665648029e-07,6.943242425489847e-07,9.08073353851383e-08,3.2515877476654643e-07,3.4003057873425966e-07,-1.061753221651022e-06,4.743090425410294e-09,4.239304266835494e-07,-4.7080789969130675e-07
-4.50106669635118e-07,4.106393678012031e-06,-4.2204378003998344e-07,7.965813972441422e-08,-3.334425947705674e-07,-3.5978044217218393e-07,-2.6639254832680235e-06,-2.0468829888588706e-06,-1.3542556786086354e-06,3.278489773712599e-07,5.966818734928924e-07,1.0197550926524751e-07,2.9234218039029865e-07,3.3987585079372607e-07,-1.0650836084604368e-06,-2.0434198547770397e-08,3.883473479467868e-07,-4.954446065899576e-07
-5.447610650495249e-07,3.743663251310314e-06,-4.816236224157081e-07,4.25682264843613e-08,-3.596290682736171e-07,-3.960255737804012e-07,-2.7268588187840124e-06,-1.9913651616883246e-06,-1.4170543036843894e-06,3.1720341197066455e-07,4.948277962956384e-07,1.1386921815328663e-07,2.593571515657999e-07,3.381960903546663e-07,-1.0650953884222578e-06,-5.982484787551408e-08,3.452317048378763e-07,-5.165699739077289e-07
-9.137786256550026e-07,3.134456961344414e-06,-5.193460021735644e-07,1.3833242074956506e-08,-3.7954649140071293e-07,-4.252269701110765e-07,-2.804172398752994e-06,-1.8921610911197244e-06,-1.4737850792289945e-06,3.0679789264912735e-07,3.999225172358428e-07,1.2061179478354758e-07,2.323047569716466e-07,3.3605412615477196e-07,-1.068061070990961e-06,-1.143431150026181e-07,3.022105867581298e-07,-5.355259105240678e-07
-1.296722103703638e-06,2.3589847831132133e-06,-5.26471830409379e-07,-7.0535626492724634e-09,-3.9467016690886174e-07,-4.4512232624858995e-07,-2.8896076344354476e-06,-1.7764153051454379e-06,-1.5230110293974179e-06,2.948869268653367e-07,3.2218923816632407e-07,1.2028250640897223e-07,2.1652181338171338e-07,3.3487190032895344e-07,-1.0751108343983683e-06,-1.7965135015953905e-07,2.659084113362135e-07,-5.517401575373319e-07
-1.6113404452750746e-06,1.4908162391306617e-06,-5.10309343792973e-07,-1.7238103213928615e-08,-4.0340292873381747e-07,-4.5622595702004027e-07,-2.9755016656959648e-06,-1.6565668292958108e-06,-1.564087680030778e-06,2.828114221886512e-07,2.677153793380883e-07,1.1617314340513538e-07,2.14821438371425e-07,3.356375977200686e-07,-1.0833381277492322e-06,-2.4878114314459583e-07,2.4063313129887836e-07,-5.635716162388483e-07
-1.732400766915781e-06,6.178294603239116e-07,-4.7626233188754504e-07,-1.8647426740153117e-08,-4.0601460606084576e-07,-4.618060526592488e-07,-3.055160210713599e-06,-1.5379238090791694e-06,-1.597692427866304e-06,2.7358033500868324e-07,2.3701375022202939e-07,1.131305979555837e-07,2.2655334615322534e-07,3.384861414156148e-07,-1.0881063375764676e-06,-3.151018449194513e-07,2.2773343577141414e-07,-5.697092702174026e-07
-1.6295954561895351e-06,-1.3325315995908035e-07,-4.2512674486883594e-07,-1.1974151496686188e-08,-4.049413622071186e-07,-4.637078505455106e-07,-3.124472573832384e-06,-1.4329942627861914e-06,-1.626561182263423e-06,2.699059327983988e-07,2.2510574388233971e-07,1.1451832178609367e-07,2.4696092392584856e-07,3.420801565694993e-07,-1.0862661734452502e-06,-3.754100819329037e-07,2.2495311375386271e-07,-5.714392088110484e-07
-1.313241378582146e-06,-6.040912766575107e-07,-3.68147866035124e-07,-1.1620475905426945e-09,-4.023860210888525e-07,-4.631613003578824e-07,-3.1826833202702913e-06,-1.3462905978044376e-06,-1.6556824834749862e-06,2.725722730082822e-07,2.229441548319628e-07,1.2049307231852162e-07,2.682340441594555e-07,3.437408395073128e-07,-1.078325488351688e-06,-4.3090537770320463e-07,2.2726680548925936e-07,-5.744108857297884e-07
-8.379977668345329e-07,-6.549365921387293e-07,-3.1361590258260237e-07,8.954155513847953e-09,-4.0221423993061665e-07,-4.5990256137226887e-07,-3.2309177967507944e-06,-1.302111606767917e-06,-1.6901636111105943e-06,2.803664226518202e-07,2.2033163782398012e-07,1.2917315316308448e-07,2.829879529155341e-07,3.411921879728329e-07,-1.0682499964098823e-06,-4.845907069099177e-07,2.2997248799904117e-07,-5.846442290825797e-07
-2.8370565080355955e-07,-2.43628060141148e-07,-2.824499683278777e-07,1.1033543113931941e-08,-4.0980586595947194e-07,-4.5176626468834617e-07,-3.2687644469175365e-06,-1.3031151049372422e-06,-1.732118640881775e-06,2.908110290648409e-07,2.091257273223722e-07,1.3859156320078686e-07,2.875823447759199e-07,3.3447019086439024e-07,-1.0616252802551227e-06,-5.377490561473673e-07,2.3164883688442246e-07,-6.082928800577942e-07
2.2908127354411538e-07,5.175935689145529e-07,-2.7822881746276726e-07,-6.448695699998734e-09,-4.2450028979285986e-07,-4.3704221470750104e-07,-3.2922166020481016e-06,-1.3442764359438388e-06,-1.7794746495626382e-06,3.002640967959912e-07,1.8497764995066452e-07,1.4723702830757832e-07,2.829396228005294e-07,3.261760703897761e-07,-1.0638596329109517e-06,-5.883812369339431e-07,2.3472892265409885e-07,-6.489333400028444e-07
5.687892815717014e-07,1.391042322099068e-06,-2.857334486066678e-07,-2.324316615131591e-08,-4.471332335283503e-07,-4.172186139824485e-07,-3.293765426291092e-06,-1.4067457240950888e-06,-1.8268021838507857e-06,3.017651041778234e-07,1.47430293692936e-07,1.5393946099895142e-07,2.7382580845408997e-07,3.2036579029486533e-07,-1.0782221879827948e-06,-6.311821797714184e-07,2.442671137363311e-07,-7.053441621151188e-07
6.717621958698237e-07,2.125190135501016e-06,-3.1192543557225294e-07,-5.537628318123792e-08,-4.76926243057402e-07,-3.958330867180215e-07,-3.2641979009541593e-06,-1.4825960265550331e-06,-1.8670490160907532e-06,2.932532751074584e-07,9.925180454273824e-08,1.5801714148516624e-07,2.6758947342120833e-07,3.2113838498694526e-07,-1.104272903648902e-06,-6.587453214223173e-07,2.658424469163574e-07,-7.720907541725379e-07
4.745266599910065e-07,2.5683875089494094e-06,-3.4382655629884183e-07,-1.0149770437895151e-07,-4.967281751960027e-07,-3.797588138444863e-07,-3.1964497666140535e-06,-1.5658511575646555e-06,-1.8945591303800033e-06,2.7090744725986445e-07,4.502176799101994e-08,1.5879931769290988e-07,2.714031601966854e-07,3.3080818619997407e-07,-1.1380608921179847e-06,-6.653395060029446e-07,3.0258464559444694e-07,-8.40856037560861e-07
8.723213798386222e-08,2.7132094266793173e-06,-3.530020438923458e-07,-1.2858919774450137e-07,-5.104610541042558e-07,-3.742039747987802e-07,-3.090604927473889e-06,-1.6438068820373332e-06,-1.908564385953121e-06,2.3171068569112745e-07,-1.0749389209289103e-08,1.5475023206617516e-07,2.888016784210395e-07,3.480331498119589e-07,-1.1741362050288112e-06,-6.518805772441626e-07,3.52623099061324e-07,-9.038131691182379e-07
-3.109347509552275e-07,2.6618489071188177e-06,-3.590952853623964e-07,-1.8876315905682816e-07,-5.280052059804512e-07,-3.84959921276299e-07,-2.9571941608536985e-06,-1.7086380166779968e-06,-1.913951417216732e-06,1.7666634313351545e-07,-6.454312305380048e-08,1.4405761638269178e-07,3.1871780822909544e-07,3.6761735285935736e-07,-1.206739986431079e-06,-6.278432175279695e-07,4.091409472824945e-07,-9.550545468843984e-07
-5.901561819296138e-07,2.5464382717511017e-06,-3.835383864237483e-07,-2.543902517744599e-07,-5.405769441171944e-07,-4.145405832100621e-07,-2.8158066709418605e-06,-1.7454476728582049e-06,-1.918298309726457e-06,1.0668988070385071e-07,-1.130856561783812e-07,1.2654616916665882e-07,3.577563751045907e-07,3.8250124857891713e-07,-1.2297119094764177e-06,-6.086649843987875e-07,4.6295470829689117e-07,-9.917500130573236e-07
-8.193334475871813e-07,2.4527911434052504e-06,-3.590508387676448e-07,-2.7022345878659597e-07,-5.290080061933933e-07,-4.6150652526676964e-07,-2.6899764082985626e-06,-1.7424671347884835e-06,-1.927810806701336e-06,3.040590218919135e-08,-1.522576487782508e-07,1.0484768493547011e-07,4.032324770131146e-07,3.8652107822122414e-07,-1.236926074288576e-06,-6.108171041793197e-07,5.059066145339994e-07,-1.007094006349488e-06
-9.813004337294946e-07,2.3862397361198546e-06,-2.794308238471567e-07,-2.527222986115562e-07,-4.896532710654e-07,-5.172022668188262e-07,-2.6005838595438944e-06,-1.7034768771540545e-06,-1.9441531202121213e-06,-4.051950921469867e-08,-1.7679411873553492e-07,8.433793811860375e-08,4.55410180001952e-07,3.7685486972699797e-07,-1.2230420015940771e-06,-6.462359182910353e-07,5.342532697278714e-07,-9.988165048844771e-07
-1.003128320185239e-06,2.287622782595148e-06,-2.2825498373512551e-07,-2.1981826658456203e-07,-4.0050078644202294e-07,-5.472924323887501e-07,-2.559934698995136e-06,-1.6277324184760435e-06,-1.9625444040064065e-06,-7.552346838539921e-08,-1.8097804985317673e-07,7.237644859418261e-08,5.184605762236916e-07,3.556127417788506e-07,-1.1840270387010793e-06,-7.174859590095057e-07,5.509610326246986e-07,-9.647234321879074e-07
-7.929837417877996e-07,2.0774298645461615e-06,-1.8394020339170243e-07,-1.903239128649879e-07,-2.6521959859583676e-07,-5.42691995093026e-07,-2.5686094027760985e-06,-1.5179369917885345e-06,-1.97251289156705e-06,-5.0910083313794374e-08,-1.604222130774765e-07,7.614676578831152e-08,5.98708372166775e-07,3.293160704093083e-07,-1.1183968384204938e-06,-8.165885662747477e-07,5.646505100129108e-07,-9.06284454694919e-07
-5.482127367174561e-07,1.6990191741085418e-06,-1.2813760683819477e-07,-1.5683104436865165e-07,-1.9944176819221157e-07,-4.649264080909986e-07,-2.617422674906509e-06,-1.3832254605783869e-06,-1.9620952827824516e-06,-1.6306155945420635e-10,-1.1458486533737278e-07,9.932365530806827e-08,7.003473603595798e-07,3.059456979119589e-07,-1.0291882013327235e-06,-9.286385809809228e-07,5.851401242335007e-07,-8.272765699762043e-07
-3.439546496132648e-07,1.1455648877301186e-06,-1.018341354928577e-07,-1.2452135274563303e-07,-1.591789600413557e-07,-3.5281447913085054e-07,-2.6912825639337606e-06,-1.237935596319843e-06,-1.922734135472058e-06,2.619506876617199e-08,-4.822668795226266e-08,1.4037248949128166e-07,8.221881198965515e-07,2.917227245431493e-07,-9.242358619299919e-07,-1.0371248539277705e-06,6.188959782971305e-07,-7.321992976782769e-07
-2.2475111815773117e-07,4.660208949721779e-07,-1.9452469578792014e-08,-8.843320544184371e-08,-4.960523477888851e-08,-2.861246896118822e-07,-2.7734623191029353e-06,-1.0942945732443507e-06,-1.8519053540923018e-06,2.8131141863501925e-08,2.976596375341675e-08,1.939074076460875e-07,9.577496590388403e-07,2.8957874546366486e-07,-8.142173708820784e-07,-1.1281623092777857e-06,6.668242929291463e-07,-6.274060020858221e-07
-2.779940674506899e-07,-2.5249404376107616e-07,5.381824678025368e-08,-2.204176102743353e-08,1.0708179459540325e-07,-2.428874044653043e-07,-2.849716578205788e-06,-9.637249197017965e-07,-1.754105242923764e-06,9.313617324135051e-08,1.0921482425370515e-07,2.5285894677142106e-07,1.096885192661418e-06,2.9881453357896157e-07,-7.104903884582885e-07,-1.1939048497250664e-06,7.240193244625482e-07,-5.268494455709227e-07
-4.199300517482595e-07,-9.159438563692436e-07,1.2499593344484176e-07,7.376619008334234e-08,2.8862766086047286e-07,-1.1465151753161334e-07,-2.9112195000400687e-06,-8.574557362089693e-07,-1.641198100778499e-06,1.931758622593668e-07,1.8121372503613144e-07,3.0961726970029395e-07,1.2272498398019364e-06,3.152358116503e-07,-6.23899231009405e-07,-1.2347355700231937e-06,7.810647182425118e-07,-4.732260790006254e-07
-5.192007484764537e-07,-1.4459247594035042e-06,1.955952718895291e-07,1.2259164712078593e-07,4.236561183979725e-07,4.3415998511949535e-08,-2.955014213548332e-06,-7.798126505664116e-07,-1.53047965729537e-06,2.606099450500555e-07,2.3972204268362565e-07,3.5707711669251867e-07,1.3365113159526106e-06,3.3243374183234744e-07,-5.638212429417752e-07,-1.2581777643614644e-06,8.270804611924639e-07,-4.958538979814663e-07
-5.351815671417378e-07,-1.7837406791756516e-06,2.475243153570556e-07,1.7842304452070772e-07,4.82884753847841e-07,1.6865300028629435e-07,-2.9830924026534262e-06,-7.363890403980765e-07,-1.43988573218768e-06,3.295948533178566e-07,2.821163877661168e-07,3.9005467859003876e-07,1.415330828214558e-06,3.4423128993776296e-07,-5.368248287130746e-07,-1.2750320168442786e-06,8.531076044334414e-07,-5.93385164074482e-07
-5.252954020330848e-07,-1.8876216786127017e-06,3.157770159231907e-07,2.3844496351594435e-07,5.486493402504204e-07,2.2771539484502339e-07,-3.0007104338683087e-06,-7.279368849368678e-07,-1.3830333242200752e-06,3.64226305925583e-07,3.0835064801578737e-07,4.0601398202118325e-07,1.4593053179433915e-06,3.467711389962711e-07,-5.455792054631989e-07,-1.2956851573970518e-06,8.539339731365991e-07,-6.77792114352585e-07
-4.959891671985973e-07,-1.7393956141013786e-06,3.8482319002697006e-07,2.9679978312611523e-07,6.472140349803026e-07,2.6679817764998903e-07,-3.014691392312491e-06,-7.496642927265165e-07,-1.3660918045099732e-06,3.6261301466045606e-07,3.1927760723156106e-07,4.051503021612208e-07,1.4694403206010838e-06,3.395278778126601e-07,-5.88122892281373e-07,-1.327485640630917e-06,8.28603018934269e-07,-7.08935772291189e-07
-4.404684253245114e-07,-1.364164423723113e-06,4.375236674729347e-07,3.55823952461126e-07,7.415527549053043e-07,2.9054195600264534e-07,-3.0311927210838233e-06,-7.92448889046543e-07,-1.3863403849018694e-06,3.4059270065668115e-07,3.1560764987624447e-07,3.905512041318452e-07,1.4518142777162983e-06,3.2560017503441013e-07,-6.57840807957474e-07,-1.372572371438782e-06,7.804334356454369e-07,-7.960393326333415e-07
-4.0065972923806535e-07,-8.464885649800614e-07,4.822665994586855e-07,3.7568602580522857e-07,7.983713015878348e-07,3.3964661162434056e-07,-3.0544441423534696e-06,-8.437522995893644e-07,-1.4330602101096725e-06,2.970837041126229e-07,2.979799493733352e-07,3.6762087534307625e-07,1.415812735249049e-06,3.109655526260462e-07,-7.448006530337911e-07,-1.4274754627259846e-06,7.158520688331547e-07,-9.157123633080437e-07
-3.4585457521460217e-07,-3.191352876709214e-07,5.023827897577091e-07,3.8225579979333825e-07,8.079143113551226e-07,3.258642808959175e-07,-3.0829254778333438e-06,-8.901799735859052e-07,-1.4913594052060707e-06,2.530391476303358e-07,2.6744483551950567e-07,3.4227930070136167e-07,1.3710185254562613e-06,3.0250216614611386e-07,-8.387281050162824e-07,-1.4854967565346151e-06,6.420405474148483e-07,-1.018835839968237e-06
-3.18311251297948e-07,8.298076515217613e-08,4.949294339090793e-07,3.682696488307167e-07,8.279815812807533e-07,2.629137937156897e-07,-3.1116048035703735e-06,-9.21131382255575e-07,-1.5465350901630394e-06,2.1802421558486646e-07,2.261724825074598e-07,3.196916701299225e-07,1.3252373475750681e-06,3.060573021269368e-07,-9.312468707168002e-07,-1.5394887247829863e-06,5.65402144269048e-07,-1.1489370917334311e-06
-3.850615505260582e-07,2.816122591253147e-07,4.7320570810085604e-07,3.3639884769799646e-07,8.356394035396595e-07,2.193678014377658e-07,-3.13408222785518e-06,-9.275161125764807e-07,-1.5864613479885409e-06,1.9703331414263732e-07,1.7818428083847838e-07,3.04411229344458e-07,1.2846252790873944e-06,3.2534819486438383e-07,-1.0156927510401103e-06,-1.583054550399623e-06,4.915490775869675e-07,-1.2921648113979238e-06
-4.915404027319485e-07,2.870106320974906e-07,4.5032617797141273e-07,2.9190050589399006e-07,8.33181226052624e-07,1.7550858902362524e-07,-3.1431941883743516e-06,-9.070820867532483e-07,-1.603055210989854e-06,1.9564610830270872e-07,1.293362660269811e-07,3.0000083904661086e-07,1.2535205788104558e-06,3.6070402443901763e-07,-1.0862818532279232e-06,-1.6117550910379183e-06,4.250713132978622e-07,-1.4362554551139225e-06
-6.033728111992753e-07,1.832023152783881e-07,4.399495676834997e-07,2.4638443886691743e-07,8.568375249354919e-07,1.3298366079929002e-07,-3.133861751646477e-06,-8.615841402987661e-07,-1.5939423525526386e-06,2.1460106873906688e-07,8.597256917934019e-08,3.073366384390617e-07,1.233114065966914e-06,4.0747336531636936e-07,-1.1380024883036061e-06,-1.6252458707902524e-06,3.6858907574230714e-07,-1.5489279702813794e-06
-6.407395418406506e-07,8.577894880916005e-08,4.429328459280887e-07,2.2262839379370401e-07,8.823299326195584e-07,1.3058841281803228e-07,-3.1040979045437787e-06,-7.975994890766368e-07,-1.5622835379681978e-06,2.50207989224782e-07,5.3600186519128696e-08,3.239616539638922e-07,1.2215198953360067e-06,4.561866930976316e-07,-1.1666708954792853e-06,-1.6280815633098115e-06,3.2269875784992804e-07,-1.6219581189197315e-06
-5.264283974541275e-07,9.769329306248769e-08,4.555930265440217e-07,2.1566229419071166e-07,9.064287165406713e-07,1.589059754050815e-07,-3.05512998216058e-06,-7.237972424715229e-07,-1.5138981041859901e-06,2.961534193010797e-07,3.668001201422282e-08,3.457081152173805e-07,1.216065313215517e-06,4.956005883485449e-07,-1.1689937808867838e-06,-1.6279890834622318e-06,2.8708083250114683e-07,-1.66419397301542e-06
-2.3371050796476442e-07,2.727880642736022e-07,4.7486404202446893e-07,2.2752679399138985e-07,9.295423233958274e-07,2.1746642360829022e-07,-2.9908726088608347e-06,-6.493598667573017e-07,-1.4546248996021966e-06,3.457819468081695e-07,3.855669778772177e-08,3.6868462544241133e-07,1.2152827139511978e-06,5.167610346031186e-07,-1.1435899873331871e-06,-1.6332441094681052e-06,2.6131954093653176e-07,-1.6618885446078576e-06
2.0291464698584082e-07,6.013297665885754e-07,4.722540010773272e-07,2.6066599740637433e-07,9.384009035151461e-07,3.0115571920668256e-07,-2.918293847805111e-06,-5.815295995459271e-07,-1.3897963214706536e-06,3.9349800919243075e-07,6.080785225607248e-08,3.90246902237462e-07,1.2193126099387535e-06,5.159309305323441e-07,-1.0925984143319868e-06,-1.6548673497531877e-06,2.450292068928144e-07,-1.6379858279623363e-06
7.0593634310835e-07,1.0305285786620446e-06,4.864874807998454e-07,3.146538238183467e-07,9.392219164768483e-07,3.944977829592575e-07,-2.8456724007133732e-06,-5.232369978870095e-07,-1.3244569917599039e-06,4.349202928145143e-07,1.0258442881725665e-07,4.091276300604303e-07,1.2294262822578102e-06,4.956492005836952e-07,-1.0227998184507907e-06,-1.693558464252383e-06,2.3762810123933698e-07,-1.5947017906269273e-06
1.1668696653288455e-06,1.4946704495862477e-06,5.220006530773834e-07,3.8224385137195425e-07,9.430487968862754e-07,4.866299522626286e-07,-2.7797245674642864e-06,-4.7449634256259816e-07,-1.2636371324247486e-06,4.662636630075302e-07,1.6027926067423946e-07,4.243337940902453e-07,1.2465151963077672e-06,4.634270245264111e-07,-9.458917232440062e-07,-1.7462099153150136e-06,2.3725812188083788e-07,-1.5347117278260276e-06
1.424062794320066e-06,1.9188010980051323e-06,5.681922865592625e-07,4.5326619752961217e-07,9.547658678983014e-07,5.637204665039522e-07,-2.724435244903975e-06,-4.327930730873532e-07,-1.2129413738117844e-06,4.835760497846445e-07,2.2728706378639116e-07,4.3325546467067493e-07,1.2688609438956464e-06,4.2821311154097205e-07,-8.772408585763558e-07,-1.815285077033925e-06,2.3922878662008073e-07,-1.4751665872555684e-06
1.3767924543316882e-06,2.2137338271463394e-06,6.324940711740819e-07,5.176172390226565e-07,9.785040566304618e-07,6.284468257749362e-07,-2.6816874916649528e-06,-3.873439209164144e-07,-1.1775839658569057e-06,4.840821683526315e-07,2.9458599927571445e-07,4.317109666333759e-07,1.2916981629961935e-06,3.9684891858101325e-07,-8.316202850287805e-07,-1.9025441600273379e-06,2.3618470125120403e-07,-1.4262908422412399e-06
1.1771858623490706e-06,2.301401952313147e-06,6.990854700084247e-07,5.644733402436593e-07,1.0154475060969722e-06,6.357511908483441e-07,-2.652595036152853e-06,-3.3572661534075453e-07,-1.1585874453177541e-06,4.648541861502133e-07,3.5277766813743144e-07,4.169592682975813e-07,1.309565123120235e-06,3.727627775442371e-07,-8.171054994223265e-07,-2.0097351004043484e-06,2.2070920294280846e-07,-1.3963759895277048e-06
8.888264741813019e-07,2.1534576303799947e-06,7.559524582135333e-07,5.905615932032636e-07,1.0611384022687363e-06,6.0704149240818e-07,-2.6380139922836255e-06,-2.70294264899273e-07,-1.1494328621968968e-06,4.3265632226942123e-07,3.9461456304352494e-07,3.9064895151056475e-07,1.3187988417079204e-06,3.565916742218888e-07,-8.311650872178459e-07,-2.1381905482749856e-06,1.8817584382198223e-07,-1.3852276371521416e-06
4.97090697944217e-07,1.7988514276580653e-06,8.017781633151022e-07,6.004550447015785e-07,1.1137218688053445e-06,5.684926377854887e-07,-2.6379218079857496e-06,-1.8008105616358258e-07,-1.1369048653068045e-06,3.9657161540769765e-07,4.16724482708433e-07,3.590882332864409e-07,1.3183286935564155e-06,3.4735780466448203e-07,-8.614773590182823e-07,-2.2779684172242657e-06,1.3816690462042995e-07,-1.3851211214831742e-06
1.0252179460121402e-07,1.3025918472305638e-06,8.41194844170151e-07,6.062857889608002e-07,1.171658182917864e-06,5.433958618129378e-07,-2.6512651529534103e-06,-6.085398087561285e-08,-1.1053654576787497e-06,3.603228011474556e-07,4.2060827240253005e-07,3.3162297598945137e-07,1.3099791962867495e-06,3.437974186901649e-07,-8.891681811487737e-07,-2.3694243427395056e-06,7.477031115200561e-08,-1.377360885193013e-06
-1.393552274486606e-07,7.472390272528972e-07,8.663251411498277e-07,6.211189946471962e-07,1.2327545913563417e-06,5.849600355128844e-07,-2.6743125351000407e-06,9.266072460934265e-08,-1.0422829555513903e-06,3.6953788197318284e-07,4.127967840419509e-07,3.182216969103479e-07,1.2986096729617361e-06,3.4534028323318866e-07,-8.968787460880917e-07,-2.41171094066779e-06,5.752784351387644e-09,-1.3474741978875263e-06
-2.402458273776e-07,2.2432533853073478e-07,8.819414488828973e-07,6.55576950612077e-07,1.2934048679541432e-06,6.839847460962525e-07,-2.7008485713850406e-06,2.7507697344185784e-07,-9.42150962401565e-07,4.095104125386032e-07,4.0336508652784315e-07,3.2626059490367414e-07,1.2905964080061925e-06,3.5175396148441314e-07,-8.789687021537996e-07,-2.3501356045520712e-06,-5.968685372106151e-08,-1.2892357652142838e-06
-3.5853383737185913e-07,-1.7613906703347246e-07,8.898082634431981e-07,7.182781378646074e-07,1.3491576637773357e-06,7.555542130663351e-07,-2.724914769049884e-06,4.7384508997410504e-07,-8.189096794926397e-07,4.4518267057227475e-07,4.029455249779147e-07,3.578584153189623e-07,1.291305655674944e-06,3.6197944137258946e-07,-8.125314103955657e-07,-2.23507322913554e-06,-1.1317282797322586e-07,-1.2058735868770347e-06
-4.7338137634265165e-07,-3.828476369306756e-07,8.895943697553097e-07,8.009056664323443e-07,1.3916235344877802e-06,8.448713103460632e-07,-2.7420548335575564e-06,6.261263694286506e-07,-6.908542652632382e-07,5.099433157672912e-07,4.1984877225329603e-07,4.0964816853690464e-07,1.3038119147079933e-06,3.73901275496533e-07,-7.324145028578485e-07,-2.202334289477744e-06,-1.4795241470122413e-07,-1.1125919764470056e-06
-6.586132399117604e-07,-3.640569105296439e-07,8.827067048724094e-07,8.881973139689042e-07,1.411393262371428e-06,9.71869497388483e-07,-2.748786561161158e-06,6.588750916518466e-07,-5.823940631618664e-07,6.009176218808538e-07,4.580219747507526e-07,4.7423673634997523e-07,1.3285875025355625e-06,3.85144006827904e-07,-6.427906776214153e-07,-2.195680317052629e-06,-1.593027961503242e-07,-1.0287531164992962e-06
-1.0055352041212745e-06,-1.4163349919335562e-07,8.664390698408006e-07,9.760948122038043e-07,1.4036308527966469e-06,1.072032395833188e-06,-2.7407901663138653e-06,5.9608839006415e-07,-5.508313495214843e-07,6.804596415743137e-07,5.156180481096714e-07,5.41645253642573e-07,1.3628983877731212e-06,3.935675610224988e-07,-5.663039027128836e-07,-2.067942917214518e-06,-1.4581499274233746e-07,-9.718643190041416e-07
-1.399952624289597e-06,2.1747634162397505e-07,8.407608244444461e-07,1.0226061940132897e-06,1.3676039450296134e-06,1.0708904910129324e-06,-2.7140417770788588e-06,5.253726660619711e-07,-5.34811405063463e-07,7.048879585867628e-07,5.851228991850865e-07,6.013027970676569e-07,1.4012477965074752e-06,3.974595285412875e-07,-5.175265389981507e-07,-1.8872846410642106e-06,-1.1016685917738794e-07,-9.515992128164199e-07
-1.7368338169185394e-06,6.327865267522849e-07,8.100903860676345e-07,1.0274836805164101e-06,1.3089551882936322e-06,1.0775364027004621e-06,-2.6666984336473872e-06,5.002488880768382e-07,-5.174463971985878e-07,7.21752568482713e-07,6.559737213065652e-07,6.452257660979271e-07,1.4379480665396512e-06,3.96230270790554e-07,-5.005447958293425e-07,-1.7101053596546686e-06,-5.7954387185626256e-08,-9.655037685335753e-07
-1.8058503412832234e-06,1.042481807388127e-06,7.783668832011529e-07,1.0378753598034678e-06,1.2394672776436785e-06,1.0797442549055488e-06,-2.601385267656169e-06,3.753731857093406e-07,-5.765570658506715e-07,7.390636572301807e-07,7.182653666797328e-07,6.702352041238268e-07,1.4693240940733768e-06,3.909211315414207e-07,-5.085932819986107e-07,-1.562690665035456e-06,4.0472018372610435e-09,-1.0008717738858315e-06
-1.5993276506727365e-06,1.414885242704079e-06,7.503687326392414e-07,1.0326801149039495e-06,1.1717081712804444e-06,1.0826430374341423e-06,-2.526813087740412e-06,1.936261105853167e-07,-6.663406775362543e-07,7.022068020997803e-07,7.651302256920157e-07,6.773620000272359e-07,1.4934789887253471e-06,3.835138763135434e-07,-5.294643150310877e-07,-1.4794078905826975e-06,6.87471551843413e-08,-1.0418795760082473e-06
-1.2524808323635885e-06,1.7395751925790343e-06,7.318700775261083e-07,9.829617750165892e-07,1.1160833854679859e-06,1.0441437651736256e-06,-2.456100076538577e-06,9.491205726053203e-08,-7.320366429889488e-07,6.455684871483152e-07,7.935199032402924e-07,6.700205936786452e-07,1.5095996824194565e-06,3.7589156305455905e-07,-5.524420120898801e-07,-1.4352639512605112e-06,1.297296904831731e-07,-1.0766787913824869e-06
-8.349651251650118e-07,2.0099354470367997e-06,7.207031890372343e-07,9.237889453382613e-07,1.077035959593461e-06,9.7294599314547e-07,-2.40253949321603e-06,-1.0572455087720988e-08,-7.85776822794002e-07,6.054125335181542e-07,8.044724000262253e-07,6.528945837924177e-07,1.5186937438378164e-06,3.696605957541426e-07,-5.722310244360288e-07,-1.4262874495950524e-06,1.830494435910293e-07,-1.1002019852249234e-06
-4.646339797085831e-07,2.201992039157544e-06,7.136487839407584e-07,8.783793538561869e-07,1.0528870670684128e-06,9.08529526029792e-07,-2.3742872374073606e-06,-8.422067979103986e-08,-8.37821647014308e-07,5.701287316527088e-07,8.027698863441255e-07,6.308881958041032e-07,1.5240889482562606e-06,3.662966029702666e-07,-5.892342765429759e-07,-1.4363358368771684e-06,2.2825530649349736e-07,-1.1133415353331967e-06
-2.327906836019474e-07,2.2597635482344073e-06,7.082935096401522e-07,8.537643842240952e-07,1.0395279827123736e-06,8.189795878777635e-07,-2.371922643765714e-06,-1.277339022444931e-07,-8.842298000763102e-07,5.320198055249293e-07,7.954184557908766e-07,6.077424607939955e-07,1.5304192519055674e-06,3.669474093665002e-07,-6.077770963134331e-07,-1.4445256921037483e-06,2.6775247702834827e-07,-1.1204698478626498e-06
-1.8510261455000077e-07,2.109144685320472e-06,7.002235256151218e-07,8.412199651998564e-07,1.0316822148240452e-06,7.105276875538091e-07,-2.3891461481505265e-06,-1.7807185221032895e-07,-9.292964783103827e-07,4.920738592742892e-07,7.897604046292027e-07,5.85956495769374e-07,1.5428006408886143e-06,3.726180146875213e-07,-6.323127054125326e-07,-1.4528250593174439e-06,3.0568432738051975e-07,-1.1258589004296076e-06
-2.587120598850223e-07,1.6995924414599374e-06,6.877113500221878e-07,8.23501423825631e-07,1.0262497319336276e-06,6.365717475836192e-07,-2.415894074973437e-06,-2.2095801035194973e-07,-9.732528601085904e-07,4.614579166481179e-07,7.92130630607096e-07,5.680801671286416e-07,1.566629000332031e-06,3.847804515553813e-07,-6.634331463725594e-07,-1.4605693944209379e-06,3.4667071467222257e-07,-1.130505408402552e-06
-4.1765723842856297e-07,1.0440363457582553e-06,6.725360490956867e-07,8.029608574479053e-07,1.02374569313818e-06,5.76296827420829e-07,-2.441468304059854e-06,-2.724463401648558e-07,-1.0127203797482608e-06,4.3972463199354825e-07,8.065632860317147e-07,5.568252091374596e-07,1.6056974523494983e-06,4.0483036549477657e-07,-6.967671475603021e-07,-1.4637022224068992e-06,3.9341047988717724e-07,-1.1319557048884844e-06
-5.859224425242832e-07,2.3671923949688828e-07,6.558470246772664e-07,7.785530165507081e-07,1.0269682957825432e-06,5.321847369336495e-07,-2.460553680731774e-06,-3.306506039726843e-07,-1.043336072573172e-06,4.2729660783786185e-07,8.333176762575553e-07,5.534367476305733e-07,1.6588486483002704e-06,4.322009304817487e-07,-7.250816346975376e-07,-1.4611206866998738e-06,4.4407345542810005e-07,-1.1269340396210527e-06
-6.596163817939892e-07,-5.572315711851308e-07,6.376838587973692e-07,7.593992922893806e-07,1.038185764036802e-06,4.934635760987535e-07,-2.4743147334219505e-06,-3.814576070672799e-07,-1.0621846511567476e-06,4.1797728112424557e-07,8.685100504675117e-07,5.569123406089573e-07,1.7189953337065514e-06,4.6339644289546004e-07,-7.412677098183571e-07,-1.4545197288449865e-06,4.920767082458597e-07,-1.1137874019290128e-06
-6.105827550570658e-07,-1.150966512743959e-06,6.178471047336479e-07,7.495254079740954e-07,1.05928023681601e-06,4.560065116963376e-07,-2.487951639635582e-06,-4.161652052138316e-07,-1.0679027986935408e-06,4.163751006840634e-07,9.057228662520042e-07,5.651331281572869e-07,1.7759255091330053e-06,4.932225367937965e-07,-7.404639409411201e-07,-1.4467579509231308e-06,5.285846831991312e-07,-1.093338934879835e-06
-4.446022335440729e-07,-1.417337953059421e-06,5.951465811585765e-07,7.473023908225431e-07,1.0878319034430317e-06,4.591026147980529e-07,-2.5081015219488134e-06,-4.2761048504359336e-07,-1.06028869275917e-06,4.290044671624237e-07,9.383588049622315e-07,5.761710443973943e-07,1.8201397862476337e-06,5.168609743518958e-07,-7.216159457535849e-07,-1.4402815750372853e-06,5.457237656484834e-07,-1.0688634401531635e-06
-3.1873575723676474e-07,-1.3506414792723538e-06,5.681046506804767e-07,7.461848095205543e-07,1.1191142323550832e-06,4.915795884702234e-07,-2.539130239844337e-06,-4.1267221052597286e-07,-1.0404417195832174e-06,4.6008230134113565e-07,9.614008664236797e-07,5.890131620154374e-07,1.8457631048416723e-06,5.315560971109679e-07,-6.877948974303537e-07,-1.4361370944576803e-06,5.394497454206361e-07,-1.0450236461091683e-06
-3.9720452106983334e-07,-1.052257896354088e-06,5.36572507128492e-07,7.452685086061992e-07,1.1486631346376117e-06,5.318067718987971e-07,-2.5810486192856824e-06,-3.7151296235553517e-07,-1.009736246438329e-06,5.131552003799448e-07,9.726152980838986e-07,6.044746100006253e-07,1.8526274028593326e-06,5.380079330448382e-07,-6.4475888901874e-07,-1.4324022010529754e-06,5.117882189099048e-07,-1.025494282926222e-06
-5.667823210256337e-07,-6.525718156401493e-07,5.025335986495398e-07,7.459651640523096e-07,1.1735334426780993e-06,5.738337030454556e-07,-2.628188471837073e-06,-3.058897104640599e-07,-9.67955403228995e-07,5.609562743912256e-07,9.730053466385078e-07,6.25537927894004e-07,1.846335081475995e-06,5.407963847303698e-07,-5.982201004093617e-07,-1.423526188413482e-06,4.7086438259243505e-07,-1.0112768477702756e-06
-7.530059482259219e-07,-2.3758185022919502e-07,4.7062915548273067e-07,7.467985417788912e-07,1.1946342718165443e-06,6.047534688492832e-07,-2.6699198209659885e-06,-2.1862293952635665e-07,-9.135944670587423e-07,6.083329233225636e-07,9.656402785808818e-07,6.556182898307527e-07,1.8349621983733222e-06,5.465710016737488e-07,-5.525054707477777e-07,-1.4027218952951104e-06,4.277922451626055e-07,-1.0014165557673088e-06
-9.605293101336228e-07,1.7148355393654487e-07,4.4701820974468517e-07,7.525870146447226e-07,1.2143731572100865e-06,6.233062457780617e-07,-2.693601344708236e-06,-1.130169330145275e-07,-8.463439363108956e-07,6.592792417320901e-07,9.534995132588247e-07,6.960321929718297e-07,1.8248388433672365e-06,5.60918852898339e-07,-5.102479160838584e-07,-1.3652320815269562e-06,3.927626751213975e-07,-9.944068385828398e-07
-1.0655884580947646e-06,5.835790898900265e-07,4.365660324184093e-07,7.612359874220858e-07,1.2360309510715034e-06,6.396304744168228e-07,-2.6883001400928545e-06,4.790304867427829e-09,-7.683539224237147e-07,7.233116230881444e-07,9.385425561909269e-07,7.453765894592734e-07,1.8191405627899519e-06,5.864631095888231e-07,-4.7158580139369357e-07,-1.3089743758719192e-06,3.73104444515024e-07,-9.882543057985662e-07
-1.01862204929098e-06,9.808913744669556e-07,4.431423863608345e-07,7.722804541150379e-07,1.2621572078127894e-06,6.569586866666179e-07,-2.6470531490380477e-06,1.2719495992317439e-07,-6.835772547332609e-07,7.966847997750897e-07,9.22662229956569e-07,8.007413431364697e-07,1.818927822625359e-06,6.228620838031939e-07,-4.34055129312777e-07,-1.233803636242783e-06,3.7285144426473973e-07,-9.804954389517905e-07
-7.932731427245724e-07,1.2935065392310747e-06,4.675466562817978e-07,7.875367492251904e-07,1.294155724127305e-06,6.732460342690075e-07,-2.569445539142469e-06,2.4525390726514946e-07,-5.966515768987207e-07,8.717020225834725e-07,9.082891530163894e-07,8.586928421478418e-07,1.823919148161087e-06,6.673819725552887e-07,-3.945005052377553e-07,-1.1426122419427753e-06,3.9224204173467727e-07,-9.69709661495398e-07
-4.3125952385752914e-07,1.433670347993726e-06,5.057874528030446e-07,8.07469588444346e-07,1.3310233051652593e-06,6.949731760372377e-07,-2.4641262150236294e-06,3.4840009290120095e-07,-5.156538515588414e-07,9.160019539025485e-07,8.981387174468507e-07,9.155899634264206e-07,1.8328030757136793e-06,7.15532821864205e-07,-3.515965434093759e-07,-1.043284351742193e-06,4.2765248782890836e-07,-9.568751466422707e-07
-9.286052155530525e-08,1.3536665591083878e-06,5.496432927674869e-07,8.30720659700672e-07,1.3671042395906672e-06,7.244839063537014e-07,-2.349121388882639e-06,4.2576585660633714e-07,-4.509471482002327e-07,9.419835164406292e-07,8.944333813135914e-07,9.677412104751157e-07,1.8439544974756408e-06,7.620643546876495e-07,-3.0696865420328573e-07,-9.484417384581274e-07,4.7274034687428736e-07,-9.448206365689857e-07
1.330749269968161e-07,1.0728485306855129e-06,5.901960307662744e-07,8.555616412275435e-07,1.395132069948257e-06,7.55839095365023e-07,-2.2471530070235506e-06,4.690379112574009e-07,-4.102336891727493e-07,9.446257940341792e-07,8.98680581153312e-07,1.0108650754766373e-06,1.8555240157792964e-06,8.017608568723372e-07,-2.65319493780062e-07,-8.726251454515294e-07,5.199498068179631e-07,-9.369649691964593e-07
1.2259020754095558e-07,6.652282718123575e-07,6.206609191053594e-07,8.795235148670074e-07,1.4086086667535576e-06,7.824985758298541e-07,-2.178243528685834e-06,4.753678386510646e-07,-3.9911243542022604e-07,8.917336712814965e-07,9.10294698040938e-07,1.0392315146546333e-06,1.8647354001734167e-06,8.297251414251488e-07,-2.3381768340797456e-07,-8.276769192810363e-07,5.620298754354083e-07,-9.366296581465686e-07
-1.6898209265185325e-07,2.3423399843711103e-07,6.365607952157731e-07,8.974367830534247e-07,1.403335016015735e-06,7.946470626765088e-07,-2.1515928319917238e-06,4.445375458437726e-07,-4.195780541133707e-07,8.919698514290208e-07,9.272156261008445e-07,1.0466384215320748e-06,1.8686191992726625e-06,8.421470100824663e-07,-2.1997390009164054e-07,-8.168946386527103e-07,5.942744517422178e-07,-9.461426390043959e-07
-5.114060894289214e-07,-1.1149343135579058e-07,6.365987063279018e-07,9.044990748135775e-07,1.378325737199679e-06,7.830533956680437e-07,-2.1607785129641883e-06,3.8284758719113595e-07,-4.667848640447617e-07,9.297542392277071e-07,9.473885135298154e-07,1.0293481562332947e-06,1.8663357436170584e-06,8.376540847388066e-07,-2.2770780129015684e-07,-8.312186935990931e-07,6.165394665362977e-07,-9.653027973672275e-07
-8.748653502647268e-07,-2.8619764004739776e-07,6.212064353462508e-07,8.955565054707547e-07,1.3357051310499771e-06,7.454333572485002e-07,-2.1814189980964792e-06,2.9944881489956687e-07,-5.319647746583435e-07,9.317767340598321e-07,9.692924957862168e-07,9.881588341022874e-07,1.8601171626705316e-06,8.176816122224732e-07,-2.544011500661354e-07,-8.515217831937059e-07,6.330305601124678e-07,-9.902061385797139e-07
-1.1593778307742827e-06,-2.557740583504334e-07,5.911246873143744e-07,8.670067645379196e-07,1.2808002265152131e-06,6.820164838705472e-07,-2.1856520850042257e-06,2.0570841095570517e-07,-6.11949303292697e-07,9.30482425308714e-07,9.925931877096194e-07,9.282672306817681e-07,1.8538268815890872e-06,7.855003476981502e-07,-2.903066350758418e-07,-8.559483840590382e-07,6.502014462071745e-07,-1.013091610308668e-06
-1.0139723415322565e-06,-5.848600950392639e-08,5.477382130508861e-07,8.181124577401821e-07,1.2204052643017958e-06,6.05888362341335e-07,-2.1479116332935117e-06,1.149936407559656e-07,-6.89616789236823e-07,9.051074992567785e-07,1.0155795394147106e-06,8.581732863442247e-07,1.8509331489042321e-06,7.452677303151595e-07,-3.2082844577787315e-07,-8.276827810873011e-07,6.745195095332031e-07,-1.0236061280814444e-06
-7.45155387541434e-07,2.0241568456660723e-07,4.940690766153159e-07,7.52182533794827e-07,1.1624421957932535e-06,5.320863757820033e-07,-2.0537491597284408e-06,4.2074984279318147e-08,-7.5204222504021e-07,8.458950837595654e-07,1.0345764469262048e-06,7.880378603896211e-07,1.8525839081554203e-06,7.013931419182411e-07,-3.3149792731207237e-07,-7.608526970236484e-07,7.102562802490835e-07,-1.0122237369156688e-06
-5.501661237743606e-07,3.832396229878544e-07,4.3504256988702414e-07,6.764550743599846e-07,1.1144481411457673e-06,4.6794599888053616e-07,-1.896509496360604e-06,2.0453885044544363e-10,-7.484128496222742e-07,7.831154597371632e-07,1.0446675123731259e-06,7.27124590729802e-07,1.856023201221582e-06,6.575115993750186e-07,-3.136504766439448e-07,-6.633577409672845e-07,7.573813901682663e-07,-9.74596116512805e-07
-7.200335372835892e-08,3.415395748598032e-07,3.7659905932849955e-07,6.007661639772016e-07,1.081384027184423e-06,4.70321211232446e-07,-1.6824814363375674e-06,-2.8827669690696012e-09,-7.036011615498766e-07,7.222174844491239e-07,1.0406671373683197e-06,6.818223939673114e-07,1.8555462791747392e-06,6.157842734304786e-07,-2.6714209603367414e-07,-5.536747443951721e-07,8.114351762472668e-07,-9.133289342441227e-07
5.990696394025266e-07,-1.1915579434691082e-08,3.24348267443792e-07,5.339705105279487e-07,1.065173026651174e-06,5.125253462843567e-07,-1.4266254368914954e-06,3.4040647934768114e-08,-5.614955487153495e-07,6.866575778001021e-07,1.023734131121367e-06,6.558062217229107e-07,1.8465900685136058e-06,5.77602425359053e-07,-1.9865117823679328e-07,-4.521117984143254e-07,8.65847737165777e-07,-8.3609769738659e-07
1.0659170525860037e-06,-6.686520651137237e-07,2.8237051526427584e-07,4.840433640786763e-07,1.0645308875912174e-06,5.456624691987908e-07,-1.1535583868872002e-06,1.03453376750402e-07,-4.332522938348833e-07,6.65153659839024e-07,9.758765464049263e-07,6.509624814515703e-07,1.8291128143430764e-06,5.446095931495181e-07,-1.1862874368926818e-07,-3.734429330266036e-07,9.139955434780967e-07,-7.530822428059099e-07
1.2188187859800317e-06,-1.5003136773102337e-06,2.5274248244867126e-07,4.5506824823537866e-07,1.075561613380537e-06,6.135562527861138e-07,-9.25435903616306e-07,1.911490264980861e-07,-3.130543620863476e-07,6.427632677510409e-07,9.229160163840006e-07,6.672739783263823e-07,1.807180196364372e-06,5.184953812917585e-07,-3.91434326929553e-08,-3.2589054358923034e-07,9.494496950231957e-07,-6.755452817364617e-07
1.179234809352589e-06,-2.2981077662848547e-06,2.3458917642698218e-07,4.4632361372367956e-07,1.0922539714885924e-06,7.147242838862941e-07,-7.646348518157672e-07,2.7951537867136797e-07,-1.8620540888852532e-07,6.175816402040539e-07,8.552733325906699e-07,7.024667257927411e-07,1.7865164445727125e-06,5.000739523803214e-07,2.8356741545881084e-08,-3.13281839052276e-07,9.661909606301582e-07,-6.138741741417641e-07
9.249876531795757e-07,-2.836480414955517e-06,2.2496820262403207e-07,4.53557432691887e-07,1.1081294874973508e-06,8.036218858299479e-07,-7.199452209017415e-07,3.523932244078439e-07,-1.591851510415256e-07,5.850533440194453e-07,7.770644908393535e-07,7.523044529587582e-07,1.772234084985315e-06,4.885761747590392e-07,7.637076267991213e-08,-3.3598757469065893e-07,9.597223181696556e-07,-5.74600425754878e-07
5.741713219327002e-07,-2.9982512622869165e-06,2.2054101889594876e-07,4.6971723589253135e-07,1.1185117441981528e-06,8.612161148797312e-07,-7.946880049658307e-07,3.989629373401637e-07,-1.6188319328133596e-07,5.68255368199719e-07,7.362985639759619e-07,8.104952206836796e-07,1.7662448038567168e-06,4.807627239284842e-07,1.035193490151057e-07,-3.9142761907091836e-07,9.27473833500641e-07,-5.589157608187171e-07
2.4020896213717254e-07,-2.787435204120514e-06,2.174913789454255e-07,4.872368992276106e-07,1.120506323493259e-06,8.908011995237517e-07,-7.962115003624279e-07,4.1502111221956606e-07,-1.5445393449312992e-07,5.572089480989258e-07,7.142866383720217e-07,8.681852964812955e-07,1.7649989744152684e-06,4.701822664700074e-07,1.1380951785084225e-07,-4.756079077752661e-07,8.681554418380846e-07,-5.638233303392656e-07
-8.971271549421323e-08,-2.2619956452676496e-06,2.1162855362532947e-07,4.994857822009962e-07,1.112616650476669e-06,8.911048010707229e-07,-7.376018227607724e-07,4.027398827112234e-07,-2.1422643931527814e-07,5.478536455090884e-07,7.427494357253901e-07,9.148966436349439e-07,1.7603472386358536e-06,4.4836876102781597e-07,1.1389919258647091e-07,-5.841096073685822e-07,7.818333419480435e-07,-5.843746694900819e-07
-3.9927783133835274e-07,-1.5586175632538745e-06,2.0011820608778753e-07,5.021237395606629e-07,1.0951127319101678e-06,8.674163993068367e-07,-7.471955447788077e-07,3.7092361079634544e-07,-3.1954342324204193e-07,5.409230440052088e-07,7.979800140032127e-07,9.41205013037635e-07,1.7435130928676425e-06,4.0817525930532864e-07,1.0974841926271793e-07,-7.117008957110546e-07,6.711137483329423e-07,-6.159421458424543e-07
-7.794367628759454e-07,-8.190434953510191e-07,1.8206392680568607e-07,4.934994969331581e-07,1.0702304582698743e-06,8.265204687616232e-07,-8.892488608654122e-07,3.318120685656708e-07,-4.28360514180468e-07,5.301637190368376e-07,8.233002696303037e-07,9.414096732213617e-07,1.7089883424850046e-06,3.4695568929625545e-07,1.0369596410938587e-07,-8.518105459782913e-07,5.420667872967983e-07,-6.560926653137886e-07
-1.0729828856674126e-06,-1.9720933751208667e-07,1.583462372361602e-07,4.7470921704258713e-07,1.0408481794138404e-06,7.74155194887834e-07,-1.1281469076691326e-06,2.9766544516246403e-07,-5.280148143779131e-07,5.139342948566748e-07,8.273335853526723e-07,9.152531433915614e-07,1.656783216067309e-06,2.6789332531675315e-07,9.388507309627072e-08,-9.960757982122336e-07,4.0435527839929607e-07,-7.045852580521473e-07
-1.2056660635974405e-06,1.4885964026014107e-07,1.316756327835419e-07,4.4855290431234565e-07,1.0105796105001182e-06,7.1421943465936e-07,-1.3469587997047288e-06,2.7750804764361445e-07,-6.065624545543205e-07,4.893989021878597e-07,8.119931379206581e-07,8.683472067849971e-07,1.5929548540378615e-06,1.7937301902428914e-07,7.655398228946025e-08,-1.1340519924922352e-06,2.703267561027088e-07,-7.611750117366594e-07
-1.1133912302475125e-06,1.5929683506340567e-07,1.0596861775867268e-07,4.18736133647361e-07,9.831185813752194e-07,6.493713905397186e-07,-1.5248713378387645e-06,2.7631577422449237e-07,-6.749868516999508e-07,4.5624773515651423e-07,7.782401149669828e-07,8.099497365300539e-07,1.5270700483743813e-06,9.228464251912122e-08,4.8732510879142206e-08,-1.2551837647355628e-06,1.519099334024239e-07,-8.239181886391849e-07
-8.512003190130384e-07,-1.4245054279111317e-07,8.512226346146109e-08,3.888242840881084e-07,9.611980086833574e-07,5.816923344398236e-07,-1.607001935946976e-06,2.9504376651464227e-07,-7.326560829240731e-07,4.1230519422463753e-07,7.434855833201794e-07,7.481531503472785e-07,1.466996709829803e-06,1.5882367608697984e-08,9.036005900151648e-09,-1.3532742888703602e-06,5.60564626426995e-08,-8.900957582913021e-07
-5.684468280909299e-07,-6.30008327472803e-07,7.123385618915893e-08,3.603353080967164e-07,9.457247353640113e-07,5.130278660268403e-07,-1.6019116040256029e-06,3.308052097549172e-07,-7.776621444388664e-07,3.6564573188063625e-07,7.100574291990715e-07,6.86229830350423e-07,1.415677307967153e-06,-4.510164080946933e-08,-4.2884607881086326e-08,-1.4289431816947125e-06,-1.7348470481683062e-08,-9.580674302405014e-07
-3.514144371966549e-07,-1.0886210946647071e-06,6.369788459218978e-08,3.3385817289523387e-07,9.357751421091752e-07,4.454956183464624e-07,-1.55085020645216e-06,3.778822457963381e-07,-8.183810894912597e-07,3.2170464400114454e-07,6.793966388835249e-07,6.235184890016428e-07,1.3730344109184845e-06,-9.003464622620985e-08,-1.0592577578750148e-07,-1.4867214655926723e-06,-7.290756311058236e-08,-1.027448336850069e-06
-2.7472963960993857e-07,-1.3037055336580726e-06,6.021972496528199e-08,3.0602392975768314e-07,9.291393673513314e-07,3.8205861089217304e-07,-1.4793529707749708e-06,4.288134654833431e-07,-8.525556138400652e-07,2.835387695746835e-07,6.5122126328565e-07,5.592880074805496e-07,1.3399052818426314e-06,-1.2010135547917727e-07,-1.7628882756568267e-07,-1.5297456171780429e-06,-1.1515349660053868e-07,-1.0976598823914305e-06
-3.207029364535183e-07,-1.1338994330190458e-06,5.848234278310572e-08,2.7655101128714394e-07,9.237311627120774e-07,3.266213408322449e-07,-1.4222745548460264e-06,4.7573636677863826e-07,-8.805434416277061e-07,2.556056810021217e-07,6.212528869077319e-07,4.956432320195902e-07,1.3195732158047166e-06,-1.3673884872036187e-07,-2.4700626288186054e-07,-1.5568670835240184e-06,-1.45655157040993e-07,-1.1663359118886723e-06
-4.6979319108388777e-07,-5.666453952830387e-07,5.679088039305547e-08,2.4749884452623383e-07,9.182571987363947e-07,2.8353437062902305e-07,-1.3841326513598477e-06,5.106970423665062e-07,-9.034262899862442e-07,2.385841649539466e-07,5.909037834805796e-07,4.376789518391405e-07,1.3164291060881803e-06,-1.4140364155494743e-07,-3.090443804592266e-07,-1.5638737149772028e-06,-1.6293838973059078e-07,-1.2286244804997728e-06
-6.60992490459344e-07,2.795418136384244e-07,5.4524102896144055e-08,2.2135441464738369e-07,9.118258470306913e-07,2.56537535993319e-07,-1.362571429309963e-06,5.267811727401147e-07,-9.218620435046754e-07,2.3166947405344294e-07,5.623535523440746e-07,3.9107514886914893e-07,1.3332058077727903e-06,-1.3623699094287686e-07,-3.540600326477133e-07,-1.5483142365121198e-06,-1.6491676782814194e-07,-1.2783011940269443e-06
-8.37350875813022e-07,1.1860561091571207e-06,5.202133009408954e-08,2.0178604408840208e-07,9.044550249967494e-07,2.47310662038989e-07,-1.358492973278731e-06,5.19781475442128e-07,-9.386827125353187e-07,2.3173172789026815e-07,5.376586824743639e-07,3.5848180371981436e-07,1.3681293251208772e-06,-1.2510694317556048e-07,-3.7784385048641353e-07,-1.5150267813382143e-06,-1.5227907966770223e-07,-1.3104856866609188e-06
-9.575611450452211e-07,1.8866145186922218e-06,4.956651351892211e-08,1.902922096763378e-07,8.968348763190343e-07,2.545752310959656e-07,-1.3718346586983728e-06,4.899691941425941e-07,-9.5781901367584e-07,2.3290131135098715e-07,5.204871286773661e-07,3.3750504638321087e-07,1.4141966880258229e-06,-1.1365404069470607e-07,-3.8320373333125254e-07,-1.4770623458066167e-06,-1.2987501646420483e-07,-1.3237490799701568e-06
-9.917595411147474e-07,2.1520744319500984e-06,4.730076855189755e-08,1.8603023694950515e-07,8.906184101476167e-07,2.746263437607272e-07,-1.4013741977412863e-06,4.4341286426488185e-07,-9.815994089474987e-07,2.2837759603330928e-07,5.087842372750438e-07,3.2210992541345315e-07,1.4617089688696278e-06,-1.0744562968165545e-07,-3.761640950837376e-07,-1.4502209734002759e-06,-1.0490807176517589e-07,-1.3201692346162597e-06
-9.538156734640996e-07,1.883743996491688e-06,4.5374571293559636e-08,1.8691134037670926e-07,8.889591921751661e-07,3.028178243176519e-07,-1.442271455111005e-06,3.917521504980402e-07,-1.0082618057717224e-06,2.1336444359005284e-07,5.023976942900304e-07,3.0619666100215394e-07,1.502262814611952e-06,-1.094191461847977e-07,-3.6347246319988945e-07,-1.445459644197983e-06,-8.389222240109028e-08,-1.3042316128714106e-06
-8.867846187037544e-07,1.174638941424484e-06,4.413754614723836e-08,1.914036202732195e-07,8.963524589733111e-07,3.349941178655109e-07,-1.4849218911813094e-06,3.5010296527453365e-07,-1.0313226316762885e-06,1.87668562442602e-07,5.019292241142998e-07,2.871816822034465e-07,1.5321451544389797e-06,-1.1818695467077981e-07,-3.5282887402228264e-07,-1.463585193747478e-06,-7.027560555823316e-08,-1.2814285394381007e-06
-8.258418240227954e-07,2.810742007894697e-07,4.4693344198615123e-08,1.9779948079234326e-07,9.174646803182524e-07,3.6849945999875253e-07,-1.515071347115377e-06,3.3394397696817937e-07,-1.0405414050764746e-06,1.5668190477793517e-07,5.072016613201648e-07,2.6801898930331506e-07,1.554029541437676e-06,-1.278514380374971e-07,-3.4860052308658035e-07,-1.493993729632009e-06,-6.328380609320132e-08,-1.2567171014403875e-06
-7.800199183251048e-07,-4.1528468065860886e-07,4.933504410896319e-08,2.054042664194088e-07,9.557938938022001e-07,4.0254431446591045e-07,-1.5155418218653133e-06,3.558305541506638e-07,-1.024623484322161e-06,1.2990062455611321e-07,5.197920771253504e-07,2.5628871912590683e-07,1.5756576916549432e-06,-1.2981643527394837e-07,-3.5131146294994565e-07,-1.5183114250335755e-06,-5.845520787984037e-08,-1.2335265672646538e-06
-7.304353982634636e-07,-4.666458032506502e-07,6.08891216131201e-08,2.1431727617916215e-07,1.0115412522191042e-06,4.377440252950566e-07,-1.4696505947709935e-06,4.221491145168718e-07,-9.755085676060109e-07,1.1693611377014046e-07,5.401830068069551e-07,2.605998146846272e-07,1.6059225327463925e-06,-1.1619984592871907e-07,-3.598198737383861e-07,-1.5175078924198921e-06,-4.9560505875416446e-08,-1.2133850538393313e-06
-6.466024205915249e-07,-3.346791230432436e-07,8.121478048747443e-08,2.244549731578605e-07,1.0808508515289532e-06,4.754633452351995e-07,-1.3657627447515246e-06,5.312371061490817e-07,-8.916439349749561e-07,1.2329692427609625e-07,5.675016433994733e-07,2.8679694098629344e-07,1.6513775368405068e-06,-8.284353087939891e-08,-3.689103988400281e-07,-1.478492853223792e-06,-3.0604854090764505e-08,-1.1929877597274448e-06
-5.118934180375195e-07,4.87168456602179e-07,1.1040595127847522e-07,2.360352489324647e-07,1.1573215897063187e-06,5.176603848026544e-07,-1.2012519684187325e-06,6.742155319167532e-07,-7.780210209450204e-07,1.4831832537047345e-07,6.000833553833605e-07,3.358864469763729e-07,1.714748483308157e-06,-3.047261169550082e-08,-3.687521599238786e-07,-1.3977342927616743e-06,2.433423524898567e-09,-1.1679501332183803e-06
-3.3699230429715255e-07,1.403478680707796e-06,1.4680713948274925e-07,2.49709158315832e-07,1.2344948788924505e-06,5.668531813629764e-07,-9.850663474357708e-07,8.377623981327064e-07,-6.439547276934073e-07,1.855883725573817e-07,6.375644675096324e-07,4.0376886817883506e-07,1.7944072737914004e-06,3.567225851822128e-08,-3.5294942200893055e-07,-1.2817235029792064e-06,4.984495167293013e-08,-1.131310587571447e-06
-1.6795484015067821e-07,2.1666148847897108e-06,1.8770443800566138e-07,2.659213926885248e-07,1.3081888112114698e-06,6.256946456676462e-07,-7.369830034684191e-07,1.0069396191259393e-06,-5.004251116660267e-07,2.2524532827849464e-07,6.785582375920583e-07,4.826338910021425e-07,1.8846128428647265e-06,1.0727126832127433e-07,-3.181260568256444e-07,-1.1439622025805357e-06,1.0734429087108096e-07,-1.0742455583216164e-06
-6.507042278171208e-08,2.117809888750173e-06,2.3017966768971502e-07,2.86123152800216e-07,1.3781165097581104e-06,6.963966659036182e-07,-4.836282414490676e-07,1.1672830136096246e-06,-3.577497192686645e-07,2.578780356835136e-07,7.205421592366543e-07,5.634989992740944e-07,1.977210006486422e-06,1.751937903323418e-07,-2.6146687622620425e-07,-9.994619020922402e-07,1.6708990847668275e-07,-9.908763590070816e-07
-5.7180271600481367e-08,1.934831637231473e-06,2.718164633867103e-07,3.112052965213102e-07,1.4474532136827644e-06,7.802204808965525e-07,-2.5281733873671044e-07,1.3066377519500761e-06,-2.2415477931112227e-07,2.784125935787213e-07,7.604679190481425e-07,6.384285925260572e-07,2.0640975727668557e-06,2.3170711943132096e-07,-1.8025179720628063e-07,-8.600763254654101e-07,2.1997934352994152e-07,-8.731867246046264e-07
-1.3169761065868586e-07,1.3983848259376112e-06,3.111209499200579e-07,3.416519025646052e-07,1.5203547695997392e-06,8.769016292144176e-07,-6.808622606153995e-08,1.4173923211197664e-06,-1.0519511456651123e-07,2.8808984464222964e-07,7.946591002830078e-07,7.01754797384623e-07,2.1393982305438514e-06,2.7191753507697806e-07,-7.304730614546822e-08,-7.326808688768938e-07,2.5832709577300116e-07,-7.206023733018004e-07
-2.505073213823546e-07,5.370254603008237e-07,3.476120265411569e-07,3.777232109009463e-07,1.5994818916496564e-06,9.82961333313306e-07,5.222611393513715e-08,1.498790039501632e-06,-3.420867105226832e-09,2.9333116690522876e-07,8.202761666549906e-07,7.50607564221576e-07,2.200672297656797e-06,2.9442693975868824e-07,5.89477064091324e-08,-6.201363378168967e-07,2.7820503679827905e-07,-5.410564733777334e-07
-3.6280876091193103e-07,-6.892142176280201e-07,3.817432655311003e-07,4.1875457231854254e-07,1.684308268996313e-06,1.094293596602594e-06,1.0384040570291992e-07,1.5574933779456398e-06,8.099218424003714e-08,3.023995211233463e-07,8.357150306380091e-07,7.8437916101601e-07,2.2480693873923547e-06,3.0096480938313645e-07,2.0699361901298758e-07,-5.248805874073687e-07,2.80251732455283e-07,-3.671744242879452e-07
-4.203775352092235e-07,-1.3256261080364816e-06,4.1451052208078324e-07,4.6328294726834787e-07,1.770481619029608e-06,1.20163523369054e-06,9.279275071076244e-08,1.6049805075592092e-06,1.4807637155792912e-07,3.21021840224111e-07,8.363679674242446e-07,8.030691323503265e-07,2.281675315269669e-06,2.9508135965075935e-07,3.373790276686101e-07,-4.5293947327259905e-07,2.686552264802072e-07,-2.4020508309077807e-07
-3.949072306563579e-07,-1.0117179165834403e-06,4.4667153431063527e-07,5.082500850944909e-07,1.8502356055833132e-06,1.2934891107366598e-06,3.523720401614589e-08,1.6532471168047458e-06,1.9663715425596567e-07,3.4912653555517994e-07,8.289342830085837e-07,8.060941127136076e-07,2.2998646136602068e-06,2.8105745460062453e-07,4.184744837421152e-07,-4.138990193159487e-07,2.4955779284927245e-07,-1.971318400047549e-07
-2.801080749383207e-07,-1.0662510231031065e-06,4.786744307960655e-07,5.493332698442702e-07,1.914584281084951e-06,1.3640842281345763e-06,-5.0279000406113146e-08,1.7117701214867754e-06,2.2580501439510307e-07,3.8173849019395546e-07,8.16170548347109e-07,7.927105882498083e-07,2.300410753005991e-06,2.636322546816511e-07,4.2408479587575933e-07,-4.1571142501473974e-07,2.2968958432308347e-07,-1.8312693643008413e-07
-8.665316297962686e-08,-6.83847499977518e-07,5.111499910052665e-07,5.822386786841324e-07,1.9568060345573597e-06,1.3793131431150305e-06,-1.4317183787003727e-07,1.7868322515001602e-06,2.3817706152201128e-07,4.123669954503411e-07,7.960195579283832e-07,7.633556420852745e-07,2.282865991250398e-06,2.4782102399809694e-07,4.2774194938276166e-07,-4.5807823710838347e-07,2.1508921701104345e-07,-1.6111010214975632e-07
1.4968739572828288e-07,3.043497623716464e-07,5.452751793148475e-07,6.045716124914669e-07,1.97551195719344e-06,1.3652793242804203e-06,-2.226374460258617e-07,1.8817508079045212e-06,2.412318760961711e-07,4.357734400007216e-07,7.719680344509365e-07,7.206413407709282e-07,2.2499492039938052e-06,2.3837329942971415e-07,4.643584371325728e-07,-5.284603115801562e-07,2.1001153279075535e-07,-1.3616366351854465e-07
3.7759884864444924e-07,1.4777790108197072e-06,5.819680589624175e-07,6.161364426225796e-07,1.9753059828525555e-06,1.3039666182559591e-06,-2.745008345233094e-07,1.9957167634325324e-06,2.4497143275387924e-07,4.488187586224096e-07,7.392816440359641e-07,6.690732660455572e-07,2.2068574387290023e-06,2.390339436834958e-07,4.996070304720266e-07,-6.001361194847218e-07,2.1610997120362799e-07,-1.187686764338541e-07
5.463521074972695e-07,2.145171517794835e-06,6.199282532834992e-07,6.184534728227367e-07,1.96427679806298e-06,1.2480613679364793e-06,-2.9439723181161946e-07,2.1209746122108522e-06,2.5666740752926446e-07,4.4983177425930196e-07,6.942362726269369e-07,6.135851169789915e-07,2.159077796236946e-06,2.516733799318286e-07,4.606540854152368e-07,-6.4676291464692e-07,2.3191669418378249e-07,-1.5247156207667098e-07
6.305607545694815e-07,2.313095384367373e-06,6.543602983579764e-07,6.140153351804263e-07,1.94971000925377e-06,1.1911257515536688e-06,-2.947556885417281e-07,2.2414055551294734e-06,2.7638060235697383e-07,4.3811723305269495e-07,6.367815183063123e-07,5.582526833264133e-07,2.1107061369590173e-06,2.757136493830072e-07,3.974753428568107e-07,-6.467995447420218e-07,2.533491254965618e-07,-2.390249319957917e-07
6.392969464951036e-07,2.133796468043409e-06,6.779819943405672e-07,6.041900699346225e-07,1.934794541376063e-06,1.1464456290156891e-06,-2.978505672279754e-07,2.335454889095499e-06,2.9647372088865964e-07,4.143313406693109e-07,5.699218358499055e-07,5.060085918516596e-07,2.064318109021709e-06,3.084137770750108e-07,3.4023369797397395e-07,-5.903592570786462e-07,2.755244998955689e-07,-3.1713962158613044e-07
6.014570502546475e-07,1.760632631728633e-06,6.842657902895307e-07,5.908938326024705e-07,1.918010476621161e-06,1.1246218115473658e-06,-3.359291605960134e-07,2.382533619260769e-06,3.0516268752939794e-07,3.810699729593007e-07,4.969140445443292e-07,4.588508684374487e-07,2.0214993118985103e-06,3.458079157367743e-07,2.8608225439757556e-07,-4.82173284728059e-07,2.948228949548026e-07,-3.699063385418075e-07
5.504335891453335e-07,1.389105940019522e-06,6.706815953844059e-07,5.756316712999717e-07,1.8948085414257514e-06,1.1214976401839117e-06,-4.305929266851096e-07,2.369531821203558e-06,2.919777776324312e-07,3.4251777970420944e-07,4.171001758151127e-07,4.1811456202373747e-07,1.983283582285274e-06,3.837481066521005e-07,2.364776521201076e-07,-3.3433025095678963e-07,3.101747012081865e-07,-4.065232851197425e-07
5.137084698545546e-07,1.1309459041584806e-06,6.399539155256663e-07,5.601103535186204e-07,1.8608904063615024e-06,1.1280623753962408e-06,-5.844453531749828e-07,2.294414577097238e-06,2.522070443797415e-07,3.03160734237985e-07,3.586639390511881e-07,3.8460137928832505e-07,1.9502691164552836e-06,4.186219520381093e-07,2.1846828707877147e-07,-1.6690033322577704e-07,3.229814740801837e-07,-3.9818231501193625e-07
5.073560206737496e-07,9.760102367687897e-07,5.98701854667715e-07,5.455968269534711e-07,1.8139921330763084e-06,1.1334046222064692e-06,-7.867550067213586e-07,2.1656393185973003e-06,1.8793419786440008e-07,2.662847390968468e-07,2.987436432697904e-07,3.5835601906634703e-07,1.922145408970283e-06,4.4747740110587677e-07,2.2454945903442604e-07,1.9646855216753634e-09,3.354812871533475e-07,-3.6967114097395645e-07
5.302404122219968e-07,8.246569737199788e-07,5.543787793183561e-07,5.314653754770285e-07,1.7545241515697384e-06,1.1281128320455628e-06,-1.0107162051754956e-06,1.998820965163912e-06,1.063049018407426e-07,2.3329167082414764e-07,2.451290549324534e-07,3.38690084024435e-07,1.8974226943396439e-06,4.6805926541156325e-07,2.3797376186074577e-07,1.5401376983206482e-07,3.4885775595069345e-07,-3.4535324608499724e-07
5.630985318755524e-07,5.627610932720076e-07,5.127988092126788e-07,5.165193325205779e-07,1.6851027329034141e-06,1.1075325840094607e-06,-1.2023763186518918e-06,1.813286446606008e-06,1.7616238466585962e-08,2.0455125705475424e-07,2.505532989793651e-07,3.24980613185095e-07,1.8743383999530282e-06,4.794521430025514e-07,2.5001601442447754e-07,2.748167181565092e-07,3.627477274567086e-07,-3.336491774714202e-07
5.755257610453794e-07,1.316088250011243e-07,4.776019074720174e-07,4.994323284228852e-07,1.6095226410947168e-06,1.0720324871068139e-06,-1.3472110732173237e-06,1.6293921822601836e-06,-6.620512094540369e-08,1.8039263942281376e-07,2.7136736495393056e-07,3.174632560558694e-07,1.8521756329879533e-06,4.828820931371018e-07,2.527602840375161e-07,3.5849039401046883e-07,3.76073669062623e-07,-3.4395732396852695e-07
5.361520925386121e-07,-4.3494050034932456e-07,4.5045368269558063e-07,4.79880126707108e-07,1.5319428805546588e-06,1.0259817558650487e-06,-1.441116046548871e-06,1.4661159807961686e-06,-1.3356920285516654e-07,1.6120579793250164e-07,3.2278608478758386e-07,3.174018214497393e-07,1.8319852724065118e-06,4.818944470335049e-07,2.488749791969713e-07,4.084985044447688e-07,3.8832270882302555e-07,-3.6816161014337615e-07
4.27504660726516e-07,-1.0107914669334145e-06,4.3188903601809107e-07,4.580556582236368e-07,1.4566239595063384e-06,9.765782760665625e-07,-1.5052438611441106e-06,1.3390351872758173e-06,-1.751211752170077e-07,1.4727611929146296e-07,3.748825282013579e-07,3.269386481297035e-07,1.8166788112980093e-06,4.81891336582604e-07,2.460719006856129e-07,4.3594122669003346e-07,4.0059274418741564e-07,-3.9365629067722723e-07
2.57078001113685e-07,-1.423499595474202e-06,4.21907300469473e-07,4.357582749282168e-07,1.3877508970627964e-06,9.302163967767374e-07,-1.5399092658541316e-06,1.2586030183740312e-06,-1.8519695648724566e-07,1.383372962871902e-07,4.0464809652182565e-07,3.4844024305007505e-07,1.8099757217331218e-06,4.88966018750802e-07,2.508526876596983e-07,4.5944650640362743e-07,4.1541094713849315e-07,-4.0940678839939245e-07
6.201446057511535e-08,-1.5342609098799142e-06,4.1972444940411883e-07,4.157099629027992e-07,1.3289860641873516e-06,8.916240009545099e-07,-1.532786883935086e-06,1.2281779554522967e-06,-1.632819671482873e-07,1.3280549529924938e-07,4.5051322952782963e-07,3.83286923046554e-07,1.8141374717354963e-06,5.079763191142315e-07,2.674948937422719e-07,4.940756084417199e-07,4.3525914628585956e-07,-4.070093349683223e-07
-1.1863479678676166e-07,-1.2975567567999586e-06,4.2344909081558826e-07,3.9889339957144563e-07,1.2827568454208863e-06,8.570094832284876e-07,-1.4863606793392696e-06,1.242795387330698e-06,-1.1434061365875791e-07,1.2764796638100295e-07,4.7026288814191875e-07,4.313471558954678e-07,1.8285078396341627e-06,5.408583055302679e-07,2.9717924660978546e-07,5.478390175086488e-07,4.6150133056157787e-07,-3.83537206544234e-07
-2.610779918871369e-07,-7.618099346936537e-07,4.3060270921864185e-07,3.8481260132691414e-07,1.249563436901441e-06,8.325295619803158e-07,-1.3931451812142476e-06,1.2905247954241833e-06,-4.666768719640863e-08,1.1954857852569373e-07,4.735953882065524e-07,4.91458427935331e-07,1.8500661511696751e-06,5.861146237316685e-07,3.389998639541896e-07,5.990156278304706e-07,4.945515916205992e-07,-3.4112348531461145e-07
-3.7441542802459437e-07,-3.2496106524186196e-08,4.390039905888667e-07,3.7311333526659834e-07,1.2283691625913598e-06,8.152045019931458e-07,-1.3046344082446666e-06,1.3563319551956653e-06,3.139266540428565e-08,1.0644363637825111e-07,4.767485033855751e-07,5.638125240842477e-07,1.8745959753731228e-06,6.391139469000374e-07,3.957850309785632e-07,6.619973458119166e-07,5.342224297730019e-07,-2.85317799208826e-07
-4.894434173055254e-07,7.701837227066638e-07,4.4758335702600665e-07,3.5884255606333743e-07,1.2173909081687618e-06,7.991413041966901e-07,-1.2061574745501275e-06,1.4266150753634711e-06,1.1389895216526777e-07,8.84783493331585e-08,4.7308353140022185e-07,6.419136398310152e-07,1.8975794435781749e-06,6.928660497187644e-07,4.656574142341029e-07,7.346457632364205e-07,5.797304311434697e-07,-2.2289808504864675e-07
-6.136876016349943e-07,1.54110554678086e-06,4.5645871059640895e-07,3.4641317462372395e-07,1.2149249476343247e-06,7.891880901625942e-07,-1.1157054228007453e-06,1.492485738921199e-06,1.9846240379960363e-07,6.842624317861798e-08,4.778468853839076e-07,7.209161014530658e-07,1.9151692672079545e-06,7.395035123709197e-07,5.48738389634938e-07,8.138871944743337e-07,6.296373103423723e-07,-1.5932740078449987e-07
-7.622931168252715e-07,2.188480601695216e-06,4.665561614065065e-07,3.367823521242418e-07,1.2193632850605798e-06,7.855964827254114e-07,-9.591461177733059e-07,1.550289311283185e-06,2.8562216140182564e-07,5.128707199663468e-08,4.940129515076556e-07,7.963657144875034e-07,1.924783546675606e-06,7.719984839969318e-07,6.374132741270301e-07,9.011746311187476e-07,6.814121622516479e-07,-9.71259953317062e-08
-9.066946604247413e-07,2.6335715033547803e-06,4.788283459118164e-07,3.2888924842129735e-07,1.2290666935160392e-06,7.932600700218183e-07,-7.422740445432161e-07,1.5995857111378487e-06,3.765609949511801e-07,4.295487133492592e-08,5.193797861306297e-07,8.6288787422306e-07,1.9250853013976442e-06,7.852917620497148e-07,7.390298149719423e-07,9.444932043266758e-07,7.306956418281849e-07,-3.572117563300962e-08
-9.928961100048435e-07,2.8103192081202903e-06,4.934763671898159e-07,3.1797767321925286e-07,1.2420775707755413e-06,8.201703536951622e-07,-5.621246212104753e-07,1.6410625590092253e-06,4.7125272823724587e-07,4.865061233215285e-08,5.428019609551032e-07,9.183093085710023e-07,1.9159880667084783e-06,7.766196604886546e-07,8.5375576476034e-07,9.524852392232772e-07,7.710630623801899e-07,2.789395187674385e-08
-9.452188941658683e-07,2.673875947866399e-06,5.096592792918489e-07,3.068999963274146e-07,1.256983325091336e-06,8.820317666613109e-07,-3.9928962597638535e-07,1.6759928068917384e-06,5.681450275873206e-07,7.15772045061388e-08,5.795132816638846e-07,9.61167738507282e-07,1.8982670655323288e-06,7.452625194794246e-07,9.630931389643314e-07,8.677310551013393e-07,7.943476851358317e-07,9.93959153584048e-08
-6.916842540635293e-07,2.242833559520539e-06,5.258091503090626e-07,2.953800237977273e-07,1.2740178617190711e-06,9.758407289717011e-07,-4.128350276145112e-07,1.7061258068886888e-06,6.641464383983752e-07,1.1440525992863587e-07,6.230757697078632e-07,9.89469441986684e-07,1.8724786664526787e-06,6.91997944651279e-07,1.0709641071151956e-06,6.972422406797238e-07,7.916565318603978e-07,1.7930826244169743e-07
-3.2100348159682985e-07,1.6130429517070736e-06,5.397320959830994e-07,2.964127787421001e-07,1.2945600630786925e-06,1.0988232818150264e-06,-5.101835986216769e-07,1.732880745841709e-06,7.54697230039747e-07,1.7316106247669546e-07,6.412919479410707e-07,9.79069895907419e-07,1.8389119108965248e-06,6.19324644216693e-07,1.150742651626444e-06,5.847336481577878e-07,7.55992417430024e-07,2.5904000721979345e-07
1.2610240367346068e-07,9.397274713466896e-07,5.491535221925086e-07,3.4713628834468603e-07,1.3191600457804469e-06,1.2541545644438852e-06,-5.722767219180882e-07,1.7564684736841283e-06,8.345627002826929e-07,2.3754837398646567e-07,6.316483286095603e-07,9.514402641586518e-07,1.7988829516368323e-06,5.32488949102253e-07,1.19329651661338e-06,5.040698932644275e-07,6.855324002159056e-07,3.311105089455357e-07
4.226592128422937e-07,3.924169194107899e-07,5.522281529097807e-07,4.3034468747171856e-07,1.3448162512395934e-06,1.3895226731162637e-06,-5.144996428574945e-07,1.7757923397667843e-06,8.981042419976791e-07,2.999492683947176e-07,5.659578551604374e-07,9.023738993212855e-07,1.7545899485859995e-06,4.393006020170027e-07,1.1719265195414145e-06,4.5655605161647643e-07,5.846178508412588e-07,3.618168558538467e-07
7.562985414182496e-07,9.267013997991958e-08,5.470548299664327e-07,4.880926910586529e-07,1.3635199697939418e-06,1.4479167136763493e-06,-4.593483859512638e-07,1.789221606650856e-06,9.384789511069852e-07,3.270162113037554e-07,4.4031204950789437e-07,8.225425752620211e-07,1.7069157125947416e-06,3.478813043885333e-07,1.098795696913234e-06,3.8338303048317667e-07,4.6187409261481004e-07,3.2263999394337544e-07
1.0573515323436821e-06,4.343934279409251e-08,5.316740935514663e-07,5.32481014985284e-07,1.3644230119135777e-06,1.4444042933437557e-06,-4.0560512133977925e-07,1.7959108150009713e-06,9.483760253211965e-07,2.8924855830704233e-07,3.736253803308971e-07,7.574734106675079e-07,1.6544685725155842e-06,2.6431959673234706e-07,1.0621751185603095e-06,2.3949490231431744e-07,3.2790143581287707e-07,3.072454338506221e-07
8.80601677262008e-07,1.4669923097112758e-07,5.05092905928242e-07,5.56981736412844e-07,1.339378609872537e-06,1.3820579876805304e-06,-5.214789481726013e-07,1.7968355010128885e-06,9.235883050278732e-07,2.808414137292017e-07,3.504752832023752e-07,6.606709365339217e-07,1.5952983503202923e-06,1.918482833966961e-07,1.0524327531173947e-06,-4.2077219852069234e-08,1.938176146945434e-07,2.832987505197895e-07
7.525832502599866e-07,2.82262603973067e-07,4.6866262531535466e-07,5.630881892412168e-07,1.287734823054012e-06,1.336227888231792e-06,-8.217304142266497e-07,1.7946449406026871e-06,8.664268819246262e-07,2.7976661569212076e-07,3.2005461853288593e-07,5.44740624915538e-07,1.5289286675593147e-06,1.3121803358823002e-07,1.0587464148516168e-06,-2.2555307146396158e-07,6.983752052934705e-08,1.5813320156901542e-07
4.1820864091731564e-07,3.305116774036889e-07,4.261054960000955e-07,5.463407730278845e-07,1.2168583822693816e-06,1.2959606192577794e-06,-1.0843806436852648e-06,1.7924317086162245e-06,7.859116381391274e-07,2.0044532978532834e-07,2.3821566319260202e-07,4.382992989207615e-07,1.4568691728367656e-06,8.152114933808917e-08,1.0399436224294826e-06,-3.3831255260952513e-07,-3.62743204668908e-08,1.4477819992147516e-08
-1.0005705767701695e-07,2.1713485071168058e-07,3.828737104443854e-07,5.266262133434696e-07,1.138523597012233e-06,1.2150212525632951e-06,-1.220843579649013e-06,1.791999971868494e-06,6.948796033223191e-07,1.033073319892767e-07,1.2055586132856713e-07,3.172919969989714e-07,1.3818668989545871e-06,4.1222157587484526e-08,9.635332326242428e-07,-4.303116843820557e-07,-1.201087073608649e-07,-9.30226718832314e-08
-4.2166287097531806e-07,-3.239809769804798e-08,3.44305718703622e-07,4.936420322492056e-07,1.0637958429411064e-06,1.1302123177738428e-06,-1.2849897560836882e-06,1.7919835472336323e-06,6.058960760965548e-07,3.533724634079064e-08,2.5248102966752678e-08,2.275562299631269e-07,1.3067100681696385e-06,9.034329977413846e-09,9.111031144956228e-07,-5.557559139591211e-07,-1.8067620157220134e-07,-1.870511500683343e-07
-5.986020410889772e-07,-3.597776836262581e-07,3.145891212417446e-07,4.6261950742824345e-07,9.9906644890278e-07,9.949423431606855e-07,-1.316818971654586e-06,1.7871446694185407e-06,5.280862558648973e-07,-9.295449355203127e-09,-3.808699107689443e-08,1.6793279344579134e-07,1.233666719440548e-06,-1.5770164879826517e-08,8.501603013809453e-07,-6.809442095513368e-07,-2.1982998598227597e-07,-2.75806048833023e-07
-6.794962100795354e-07,-6.639704888435736e-07,2.958968598607386e-07,4.329079974931393e-07,9.460363339576092e-07,8.720724123109865e-07,-1.436175564726816e-06,1.770573346929912e-06,4.6615112914012767e-07,-4.188795597285239e-08,-9.906657194232998e-08,1.2297893477017406e-07,1.164953052327481e-06,-3.352638124389997e-08,7.899286085958054e-07,-7.436123017121265e-07,-2.4138823952941384e-07,-3.5630013227112295e-07
-9.069848586341902e-07,-7.742588084459126e-07,2.8765018563981565e-07,4.0408084967075566e-07,9.034346140385841e-07,7.756298440340125e-07,-1.5600325405358603e-06,1.7374566870104352e-06,4.206242858799828e-07,-6.582969815490096e-08,-1.403049656281668e-07,9.892720690832466e-08,1.10282259479051e-06,-4.468091708448126e-08,7.587745837904847e-07,-8.016037009110476e-07,-2.5069173514116087e-07,-4.3626336251558116e-07
-7.608907900708192e-07,-5.728354967451082e-07,2.866445842769416e-07,3.7789492569295604e-07,8.694260125379213e-07,6.895489565769033e-07,-1.5373329566661908e-06,1.686747543388591e-06,3.88002407999804e-07,-8.667373833738792e-08,-1.9537202667058923e-07,8.094305129269483e-08,1.0484186113986083e-06,-5.037096372257458e-08,7.277578039824805e-07,-7.360222591916034e-07,-2.546607845538975e-07,-5.23354598325477e-07
-3.3887381075536097e-07,2.5963932948949617e-08,2.8786374958068744e-07,3.4930919394139547e-07,8.425569702043281e-07,6.445420968978383e-07,-1.4220880922465773e-06,1.6199952800332767e-06,3.6156014427011945e-07,-1.0768408812912935e-07,-2.3564287207920658e-07,6.519609910002833e-08,1.000906524368708e-06,-5.259361964273991e-08,6.668831620476395e-07,-6.558549503783817e-07,-2.61289559877643e-07,-6.240504346696529e-07
-2.5722565893082934e-08,1.0433914977311582e-06,2.8611280006682164e-07,3.152493369728665e-07,8.214675090534177e-07,6.235643902788394e-07,-1.2889336848784954e-06,1.5399739735644263e-06,3.336620870028064e-07,-1.297679405578734e-07,-2.2523340281180836e-07,5.031633374567208e-08,9.581148647073516e-07,-5.376548892559588e-08,5.731243439568177e-07,-5.872429703470066e-07,-2.7797302513662536e-07,-7.404454946561173e-07
3.1852325515388537e-07,2.267927654536883e-06,2.7747728940520344e-07,2.7375245465173477e-07,8.039746523282631e-07,6.064770228666353e-07,-1.2001217989563832e-06,1.450434000898969e-06,2.9821021223050927e-07,-1.5241609194741968e-07,-1.7832603601640115e-07,3.1443520051116314e-08,9.180598340125046e-07,-5.6034393269918755e-08,4.5912286839189835e-07,-5.120364776228815e-07,-3.092457219196441e-07,-8.681422785603354e-07
7.376860734033926e-07,3.307704707084621e-06,2.601009652437542e-07,2.2537836669371207e-07,7.877115274974975e-07,5.87000549855261e-07,-1.2021732085607717e-06,1.355894145640096e-06,2.5201236778342464e-07,-1.7473676962180707e-07,-1.2785016515268736e-07,5.759987763887914e-09,8.804466701004386e-07,-6.062396285507339e-08,3.221068872749984e-07,-5.022454947850577e-07,-3.550761770256314e-07,-9.970494077700522e-07
9.869452356522322e-07,3.958808606559792e-06,2.3426624542640388e-07,1.6931473934061988e-07,7.691452235443053e-07,5.560656781162991e-07,-1.1976989467618148e-06,1.2606151866413618e-06,1.9499897393013272e-07,-1.9586092970113527e-07,-1.0112636322333961e-07,-2.7184532654512706e-08,8.47020682426743e-07,-6.760391574167422e-08,2.0618154567572594e-07,-5.353113561602363e-07,-4.110031992851593e-07,-1.1149732874611278e-06
1.0607128463871655e-06,3.7802620363761936e-06,2.0191344486072803e-07,1.0907730629862536e-07,7.450943521457624e-07,5.069542823338578e-07,-1.2262802087076924e-06,1.1672685344971383e-06,1.2932491044909498e-07,-2.1477066246312805e-07,-1.200360590739473e-07,-6.609336279572375e-08,8.198886651860185e-07,-7.655622186145467e-08,1.0843407270235996e-07,-5.806739529299228e-07,-4.7031659209921934e-07,-1.2120195085140283e-06
9.387999051400264e-07,3.330299633879487e-06,1.6568665928505285e-07,4.950680083908596e-08,7.138256728666569e-07,4.489784018840893e-07,-1.4156363559685685e-06,1.0753100635067198e-06,5.7596705758196024e-08,-2.3086493974176402e-07,-1.5124588319998715e-07,-1.0929765508156968e-07,7.992482520742757e-07,-8.754143181386903e-08,2.597244412084983e-08,-6.267843444282576e-07,-5.266565789586139e-07,-1.2819168016443467e-06
6.522460673434602e-07,3.2806057811858743e-06,1.2837274630602738e-07,-6.100209140318021e-09,6.749386730534231e-07,3.9081217044154083e-07,-1.660302486906999e-06,9.857899211427326e-07,-1.6185783061009815e-08,-2.4452811308933367e-07,-1.779777271606323e-07,-1.5550238561472305e-07,7.826635036701468e-07,-1.0130282734485596e-07,-3.3261279583055555e-08,-6.701533822945543e-07,-5.755803974596692e-07,-1.3251116833887125e-06
3.3325476130451513e-07,2.8289840401180824e-06,9.240403294597109e-08,-5.4446636830247204e-08,6.294803955924556e-07,3.378323783816744e-07,-1.8718806554488318e-06,8.987172919600453e-07,-8.745068059988328e-08,-2.570893852238085e-07,-2.1182347434692072e-07,-2.038624065477561e-07,7.660374721797033e-07,-1.1873370931206332e-07,-7.171715580296771e-08,-6.976101714961603e-07,-6.150554839990615e-07,-1.3459908643087111e-06
6.049276102789152e-08,1.8068915842552707e-06,5.963318649963068e-08,-9.446337230424599e-08,5.812565619992006e-07,2.941319376694783e-07,-2.046971847590363e-06,8.151303801872501e-07,-1.5118920661470478e-07,-2.7026117756619956e-07,-2.436770386698952e-07,-2.5367431790254903e-07,7.455443237177917e-07,-1.4009798978013137e-07,-9.251046680990317e-08,-7.189172301985496e-07,-6.450118297969676e-07,-1.3524290647296352e-06
-1.1076776086856813e-07,9.915142856886232e-07,3.1419740636243315e-08,-1.2639912521219962e-07,5.353128378039811e-07,2.613540192211419e-07,-2.18905869664266e-06,7.383808496933025e-07,-2.0360096964606757e-07,-2.851311397277179e-07,-2.6798254208763943e-07,-3.0383424960714384e-07,7.196504265966902e-07,-1.6435528169954008e-07,-1.0138934441840843e-07,-7.43818541059661e-07,-6.66274999780716e-07,-1.3483007554078597e-06
-1.5152124013623725e-07,3.5193324592681945e-07,8.79579454211734e-09,-1.5097763052105832e-07,4.964633051314629e-07,2.393765898311485e-07,-2.291513679914351e-06,6.716214473635586e-07,-2.425649844677942e-07,-3.0134312933142053e-07,-2.8721705234669916e-07,-3.525411467641613e-07,6.899611193280141e-07,-1.891227398258878e-07,-1.0069926738144793e-07,-7.699587797064376e-07,-6.797679191369808e-07,-1.336264109610516e-06
