0,1,2,3,4,5,6,7,8,9,10,11,12,13,14,15,16,17
2.2840337299704223e-07,-1.0277484276554265e-07,2.9612456039320466e-07,-2.3721304621014874e-07,-1.8095524115414326e-08,-1.914336135962603e-07,-5.84422225553156e-07,-2.997787978448866e-07,-9.169841155556104e-08,-2.192883178763437e-07,7.672633513764737e-08,-1.5243650181090886e-07,3.3975904082870705e-07,5.096403275350428e-07,8.699188921666108e-07,1.4921380054677521e-06,-6.840721716353906e-08,1.2121629986610952e-07
1.204145338961772e-07,-6.338010695015242e-08,2.1841332200253685e-07,-1.5732457415222225e-07,6.310265194602046e-08,-1.4093248901000828e-07,-4.785338577002668e-07,-2.6007486767059413e-07,-5.6062191984241e-08,-1.3993385602902705e-07,1.2776653140813457e-07,-5.7126377550338186e-08,3.588712227102602e-07,4.819965801298307e-07,7.626298650370938e-07,1.2398993497127681e-06,-5.265352142269951e-09,1.5434846488382707e-07
3.564030935358663e-08,-3.3949812230035794e-08,1.4710452074265384e-07,-7.78237027347667e-08,1.0668934458725733e-07,-9.382220130316582e-08,-3.669053369187172e-07,-2.1775417304993333e-07,-2.6267857372044126e-08,-7.76649918202564e-08,1.4604183816484394e-07,1.2876332205752378e-08,3.575994016373706e-07,4.397559565916214e-07,6.081710760813476e-07,8.25108851637581e-07,4.1892960360036705e-08,1.6947033323772388e-07
-1.1104887956410133e-08,-1.72066819692418e-08,8.544255505063722e-08,-1.2053413576330586e-08,1.9288091646368162e-07,-5.247419136262349e-08,-2.5976984026876536e-07,-1.7499748143809813e-07,-4.780979006423658e-09,-3.6495869011843307e-08,1.353942378427339e-07,5.621991452678071e-08,3.3275139270896634e-07,3.8371216022245636e-07,4.2725832287874997e-07,4.134706419575728e-07,7.02982761327833e-08,1.6378504802893808e-07
-1.793700688794152e-08,-1.1919186988508839e-08,3.150411152516241e-08,4.048691351918507e-08,2.37416703607056e-07,-1.845597824025252e-08,-1.6546971801928476e-07,-1.333816337082343e-07,7.876268875379014e-09,-1.1878638290483392e-08,1.0352547905777647e-07,7.397199219691927e-08,2.80900205351614e-07,3.1447222993310353e-07,2.8329221731237483e-07,9.701315153646576e-08,8.099868898574682e-08,1.4116516728567746e-07
5.037557177487737e-09,-1.3945430099288257e-08,-7.722309823620749e-09,7.623834379785927e-08,2.3209256695396175e-07,8.19432724166363e-09,-8.752142165744738e-08,-9.317106443626886e-08,1.3073674923741929e-08,3.1572740091192835e-09,6.026889233178312e-08,7.355774625654241e-08,2.021984369205807e-07,2.3091258116490145e-07,1.1388901173046574e-07,-1.4688202467199246e-07,7.742827222136317e-08,1.02346641908539e-07
3.942605379023733e-08,-1.7804528914505992e-08,-3.384246301472424e-08,9.620558543471453e-08,1.731384218088934e-07,2.7833041043902007e-08,-2.4534187506482414e-08,-5.42805319426752e-08,1.2841019454134748e-08,1.1756868774649232e-08,1.441154958582968e-08,6.092209022687577e-08,1.0354648071670474e-07,1.3829740313367264e-07,-3.19318315986918e-10,-2.9433442169318605e-07,6.412849919519984e-08,7.500841792817789e-08
6.46858423982213e-08,-1.8381576401828734e-08,-4.910904886976433e-08,1.0054521968525363e-07,8.708747033651587e-08,4.0614250490440443e-08,2.8106806725066303e-08,-1.6739842280130524e-08,9.150945483116398e-09,1.6177206754896415e-08,-2.8574467388054647e-08,3.9752972290921304e-08,-2.2201857753733367e-09,4.0753699731269155e-08,-1.0619180092974242e-07,-3.9056988736461406e-07,4.5285557537748694e-08,3.558806527572668e-08
6.606583187975057e-08,-1.3190500970709963e-08,-6.097888385460747e-08,8.855087189894576e-08,-8.82453479335253e-09,4.7364691851157884e-08,7.647083451118433e-08,2.042773791036829e-08,4.3204703415463814e-09,1.7765358048885265e-08,-6.601565517136643e-08,1.3889597714490867e-08,-1.0087057801183036e-07,-5.452349379500086e-08,-2.1577985669256966e-07,-4.4981021393050784e-07,2.411982755287475e-08,-1.510419649826202e-08
4.0398167578710895e-08,-2.9550076089565377e-09,-7.024565053406082e-08,6.469832906435901e-08,-1.0781971816239782e-07,5.0244745491330526e-08,1.2573692693625197e-07,5.89400256404726e-08,9.786489612799756e-10,1.7349222495185695e-08,-9.610024288428678e-08,-1.217840396900831e-08,-1.816030156986367e-07,-1.4398152989876274e-07,-2.969634772310816e-07,-4.6705496574183797e-07,2.722208440843462e-09,-6.29138423082123e-08
-4.279359098830521e-09,9.592197331581765e-09,-7.828439649378611e-08,3.458938233535271e-08,-1.6709454902431396e-07,5.1694413474533614e-08,1.7743621713636153e-07,9.936136869153878e-08,9.568062509360361e-10,1.6393273961173553e-08,-1.1643010396646178e-07,-3.3844949425221495e-08,-2.395685737323441e-07,-2.2518118077589126e-07,-3.759217288108716e-07,-4.6239629263228247e-07,-1.7854418832046396e-08,-1.0780855688514865e-07
-5.446126789780269e-08,2.320029026690985e-08,-8.347386528124052e-08,5.446910313612255e-09,-1.8947785878911811e-07,5.3388354783241614e-08,2.2891794279659527e-07,1.4042855393976758e-07,4.673929235042603e-09,2.6359925649448005e-08,-1.2352421088250537e-07,-4.644026139892449e-08,-2.7508007935227324e-07,-3.000916278705257e-07,-4.0378735166599667e-07,-4.5518224343663994e-07,-3.7403131982097836e-08,-1.4059769189727803e-07
-9.77904126993808e-08,3.736377241594196e-08,-8.695361156479478e-08,-1.559479857480877e-08,-1.9068934656611366e-07,5.639844629507015e-08,2.761415383746569e-07,1.802521427043705e-07,1.1841369297058394e-08,4.7846095740385296e-08,-1.1373703078822036e-07,-4.5343788191364315e-08,-2.921412602869899e-07,-3.696572571744305e-07,-4.144760789957496e-07,-4.279860350734198e-07,-5.4666029493951545e-08,-1.578953170195026e-07
-1.2721248760141288e-07,5.405680604791114e-08,-9.314095066145057e-08,-1.5858288159142318e-08,-1.709178995134133e-07,5.573216395276219e-08,3.169082587096001e-07,2.1736471739335352e-07,2.229650865861848e-08,7.938490345073749e-08,-8.575655606579185e-08,-2.903422110428225e-08,-2.966025578901215e-07,-4.3228770194250445e-07,-4.209205827803034e-07,-3.806377238214183e-07,-6.811785616503546e-08,-1.59187128914699e-07
-1.4187747813852102e-07,7.3408324953368e-08,-1.0188794910349281e-07,-1.5395792396588212e-09,-1.410523175244029e-07,5.3517852767626e-08,3.520973056208584e-07,2.5109161365819006e-07,3.626603280514436e-08,1.11523718375828e-07,-4.265288066288438e-08,1.8738274563215983e-09,-2.9493230028140424e-07,-4.861820566201414e-07,-4.19192690921912e-07,-3.2805081490145234e-07,-7.629715770967043e-08,-1.641051691174889e-07
-1.4540876879091422e-07,9.788628388305841e-08,-1.1294994051265278e-07,1.064584659779501e-08,-9.843632721486234e-08,5.213618612058189e-08,3.853407568135452e-07,2.823122324327598e-07,5.4533765632271924e-08,1.3754782576764548e-07,8.656284280822808e-09,4.334003057544355e-08,-2.926076298452291e-07,-5.276360903646422e-07,-4.1160649886242906e-07,-2.64725377044789e-07,-7.886312693798665e-08,-1.5531653577412813e-07
-1.4348210840778875e-07,1.3021975802657855e-07,-1.2242287269261383e-07,2.6829819264838047e-08,-3.740116501782109e-08,5.2943770195381504e-08,4.2189285172828284e-07,3.1347195129662014e-07,7.827180949496039e-08,1.5359721547934924e-07,5.945400146731435e-08,8.914713157592194e-08,-2.921362325215592e-07,-5.533809938600105e-07,-3.9718865907484953e-07,-2.007822237609377e-07,-7.719610449584682e-08,-1.3342389267154145e-07
-1.4253277345837463e-07,1.6874695312454744e-07,-1.274950773929901e-07,4.731419293490402e-08,4.119309801298467e-08,5.96483617487871e-08,4.6681265507182377e-07,3.468726749842397e-07,1.0804118940202802e-07,1.536179682049699e-07,1.006330535293313e-07,1.3386752259118837e-07,-2.925006768198438e-07,-5.677211560098065e-07,-3.818533627138702e-07,-1.4805992809638528e-07,-7.395144994512393e-08,-1.1193499453203241e-07
-1.4884776481220412e-07,2.1032588738316564e-07,-1.2607113383471105e-07,6.654551913376934e-08,1.1147948043250943e-07,7.825154933553724e-08,5.233406627806995e-07,3.8333522338204397e-07,1.4295432307394582e-07,1.356776531581361e-07,1.2377982388477277e-07,1.7142282801678943e-07,-2.9031899782501727e-07,-5.765800327961243e-07,-3.6926649018169e-07,-1.1343268792030313e-07,-7.246379128978153e-08,-9.30269288045429e-08
-1.6647184283404925e-07,2.417307377316343e-07,-1.1654708194526846e-07,9.823621148470299e-08,1.791657287554042e-07,1.0691977594125121e-07,5.9234084563382e-07,4.226010472961726e-07,1.8096080651320243e-07,9.987461159991677e-08,1.2276423613418578e-07,1.9579904986178713e-07,-2.8168077318433297e-07,-5.885576547181684e-07,-3.7370134433996956e-07,-9.963985274142128e-08,-7.482973329372072e-08,-8.591457931261386e-08
-1.9498864779758405e-07,2.449352199645648e-07,-9.670089166225569e-08,1.2154208598137418e-07,2.437751013967122e-07,1.4313645860985098e-07,6.719773150274528e-07,4.637097172573621e-07,2.193836842043143e-07,5.2116488080272715e-08,9.458302154456113e-08,2.0335344855969856e-07,-2.6452714537029233e-07,-6.086383581571444e-07,-3.8710139527255445e-07,-1.1568978241222447e-07,-8.152150356075194e-08,-9.396205739522901e-08
-2.2937787179519343e-07,2.067681401841415e-07,-6.70714257443849e-08,1.0954317291331061e-07,2.598700304794435e-07,1.8539814066766396e-07,7.570076586636234e-07,5.043540989748319e-07,2.5487420465706496e-07,1.7227617015470991e-10,3.870350124375728e-08,1.9169993654560694e-07,-2.4125902976587004e-07,-6.372859173913784e-07,-4.0248870905935205e-07,-1.602466247798015e-07,-9.169331339354866e-08,-1.1523413632935555e-07
-2.6166288292782253e-07,1.6855177609723678e-07,-2.5099538899367088e-08,6.147478906046596e-08,2.1674517922944965e-07,2.2650994336886764e-07,8.390293555246672e-07,5.410568367644997e-07,2.836427278434233e-07,-4.8618721636438945e-08,-4.356647930016894e-08,1.6125025287485682e-07,-2.1972163508832215e-07,-6.735186204567816e-07,-4.237931794301054e-07,-2.340758519382393e-07,-1.0373432559735983e-07,-1.4225843318373183e-07
-2.8259982180502905e-07,1.4228042782737902e-07,3.0446821627245375e-08,4.226116167065828e-08,6.160794974592845e-08,2.590596979037204e-07,9.083433240960297e-07,5.705155476124173e-07,3.0237650953217103e-07,-9.220438736632084e-08,-1.488685877700036e-07,1.1510536173280826e-07,-2.1138395118342235e-07,-7.142672242142176e-07,-4.4044784502034607e-07,-3.250648166374927e-07,-1.1584797038487884e-07,-1.7684073061295408e-07
-2.833425243963773e-07,1.1982856139481027e-07,9.750343332455315e-08,4.911304156867046e-08,-1.286158044382742e-07,2.7714336692771563e-07,9.55936515499236e-07,5.900886227752914e-07,3.089512276721172e-07,-1.3222001711139284e-07,-2.716530353621245e-07,5.7457512825287084e-08,-2.2788334162823565e-07,-7.576465834216265e-07,-4.5018461439001577e-07,-4.169719761128848e-07,-1.272437551155699e-07,-2.1565040967624472e-07
-2.579441151541558e-07,9.220170089870418e-08,1.7292795558853167e-07,8.684522914555765e-08,-2.918120015106981e-07,2.752663072779439e-07,9.747778726455663e-07,5.977412088695899e-07,3.0241709807815116e-07,-1.710232802809577e-07,-4.043367762298936e-07,-7.343105543869584e-09,-2.7489792707178123e-07,-8.020686893872825e-07,-4.5258132769426684e-07,-4.990983966203234e-07,-1.3864141057650646e-07,-2.5569755380372475e-07
-2.0609271925434227e-07,4.442427194670958e-08,2.5074388466162833e-07,1.405247748674233e-07,-4.2231931960254986e-07,2.4962125985003266e-07,9.614984009899606e-07,5.930498541783704e-07,2.8342131910867544e-07,-2.1108833475034007e-07,-5.374961821645079e-07,-7.449374808926601e-08,-3.4726397490317844e-07,-8.451762077377348e-07,-4.479116316533473e-07,-5.599344542616262e-07,-1.504982369858047e-07,-2.9356572578174196e-07
-1.3466380427009726e-07,-4.204533643957751e-08,3.231583860813734e-07,1.7440739420519342e-07,-4.988344504546964e-07,2.027546270836654e-07,9.178827828962976e-07,5.781198109516242e-07,2.54701084117979e-07,-2.552187619836797e-07,-6.610458593406645e-07,-1.3893634420691254e-07,-4.2852879089697225e-07,-8.817008943788382e-07,-4.395577693411446e-07,-5.930919149272474e-07,-1.6322157932221894e-07,-3.238945562944486e-07
-5.7315555123305507e-08,-1.2466638468578924e-07,3.838874086245944e-07,1.378406126688563e-07,-5.520226338256386e-07,1.4054133856091707e-07,8.502630569127773e-07,5.564669398573578e-07,2.2029220882853686e-07,-3.0241371306731566e-07,-7.668911080123895e-07,-1.9761480806660048e-07,-4.957547529249245e-07,-9.062845775882062e-07,-4.30295372460646e-07,-5.993758221134633e-07,-1.7685691156924878e-07,-3.453079364403887e-07
8.51698423240958e-09,-1.6915377329258395e-07,4.279789743651718e-07,7.822267025583234e-08,-7.063378538540247e-07,8.178814343697718e-08,7.671776796495928e-07,5.313358908218687e-07,1.8409608414140865e-07,-3.518919321313676e-07,-8.511238091018611e-07,-2.501599486972382e-07,-5.317756519916364e-07,-9.163948638780471e-07,-4.241154981969077e-07,-5.786980199646479e-07,-1.9176708710324908e-07,-3.586033274525236e-07
4.7369914955534095e-08,-2.0640206589190414e-07,4.508754954196878e-07,2.415014043763836e-08,-9.751490199531302e-07,3.0044615156730194e-08,6.783365152417181e-07,5.056440818243854e-07,1.492969017557582e-07,-4.014175337240187e-07,-9.13992188393293e-07,-2.9714304480038224e-07,-5.271238972277176e-07,-9.122528309299374e-07,-4.2087457133511185e-07,-5.31470600731064e-07,-2.0734771987222823e-07,-3.664189045427502e-07
5.185419952463735e-08,-2.323298836818292e-07,4.518293183461128e-07,-4.5658235347654777e-08,-1.2258924529716462e-06,-1.3107217412216266e-08,5.898082908510841e-07,4.824781192746678e-07,1.1839742173663032e-07,-4.499183125141824e-07,-9.587143654526673e-07,-3.395621102835968e-07,-4.861385255986184e-07,-8.97304787997813e-07,-4.17055309583301e-07,-4.6405433766358656e-07,-2.2241553388837273e-07,-3.7104907275516434e-07
2.5323183773775844e-08,-2.433850425846893e-07,4.3397001826764613e-07,-8.74007883962426e-08,-1.4419794545134294e-06,-4.50416575175688e-08,5.10384709082019e-07,4.6304853219016417e-07,9.272457108203287e-08,-4.971627729599247e-07,-9.90768246576691e-07,-3.786872422593235e-07,-4.238962795053036e-07,-8.750125238728814e-07,-4.131286833473238e-07,-3.834874298403521e-07,-2.364885263578558e-07,-3.7536151934483664e-07
-1.9925678571527103e-08,-2.3774895366012045e-07,4.030902350919426e-07,-1.0478588595654851e-07,-1.5825014701345507e-06,-7.057596557839927e-08,4.4293382492221915e-07,4.459561614197258e-07,7.201148947019458e-08,-5.431274236325618e-07,-1.0170891088367327e-06,-4.1517048948992736e-07,-3.5471599702839273e-07,-8.579143495444764e-07,-4.098425397751827e-07,-2.980840024299566e-07,-2.4989338558462507e-07,-3.799560093015367e-07
-6.669462700611603e-08,-2.280458277792586e-07,3.6669137315437447e-07,-1.1635723736116061e-07,-1.7056978879422008e-06,-1.0286435693625409e-07,3.8565597362089355e-07,4.293469747760206e-07,5.501547405990547e-08,-5.88785092347412e-07,-1.0442776539519607e-06,-4.492803878747067e-07,-2.941311977488777e-07,-8.487826813877523e-07,-4.0686047148288384e-07,-2.1563898781118595e-07,-2.638114287716408e-07,-3.852923785063235e-07
-9.735321758573771e-08,-2.112876781758715e-07,3.3215928534632094e-07,-1.2982109705668915e-07,-1.8347757564881116e-06,-1.4125399539398616e-07,3.377799511241545e-07,4.11484784237448e-07,4.038742504668124e-08,-6.335342964024584e-07,-1.0768558902532136e-06,-4.821407630175561e-07,-2.5059967112361954e-07,-8.534139297255702e-07,-4.045029587846356e-07,-1.3997164742108252e-07,-2.7973183736726933e-07,-3.91325776170527e-07
-9.84350527213993e-08,-1.8980317059132993e-07,3.046582842803588e-07,-1.3820036268649717e-07,-1.9679100743858016e-06,-1.8580864448312028e-07,2.9597458322644867e-07,3.904727564280597e-07,2.670570608209374e-08,-6.769452375314698e-07,-1.1165792646128823e-06,-5.151447684670432e-07,-2.266650761626147e-07,-8.737410783777417e-07,-4.0593197486649586e-07,-7.165116506417034e-08,-2.9981158980992123e-07,-3.975320615102705e-07
-6.450537847617101e-08,-1.6853711465330382e-07,2.890093346453587e-07,-1.4163598098060773e-07,-2.124943564106051e-06,-2.426950325946833e-07,2.5656206667408544e-07,3.6432912534006725e-07,1.237244328662575e-08,-7.181122152955116e-07,-1.162069561783124e-06,-5.501060498051536e-07,-2.202547165519492e-07,-9.072088348925009e-07,-4.0782416373667395e-07,-1.0357528076401129e-08,-3.26120329499136e-07,-4.034953379737073e-07
1.777330558636502e-10,-1.4672661909117297e-07,2.8476408479520476e-07,-1.6018054229319633e-07,-2.251380642116965e-06,-3.127550051124969e-07,2.1652169963624478e-07,3.321913426331943e-07,-3.748543194361529e-09,-7.553133910339367e-07,-1.2085395857911526e-06,-5.865508189428014e-07,-2.2674282082458328e-07,-9.530004004072137e-07,-4.035628766962414e-07,4.8254087998753305e-08,-3.5949162907529755e-07,-4.0835388471208777e-07
8.247318726669318e-08,-1.3059377290194557e-07,2.8862778926425716e-07,-1.8409440244036182e-07,-2.3600484810613344e-06,-3.888763218679292e-07,1.7429519765897338e-07,2.950922854032462e-07,-2.183896444043833e-08,-7.857072225684359e-07,-1.2489615615065107e-06,-6.211892035848051e-07,-2.3719821047801065e-07,-1.0071519150781054e-06,-3.910412587800903e-07,1.0554596585345564e-07,-3.9892109583522465e-07,-4.1140415944241393e-07
1.6315481410113242e-07,-1.1823158832890105e-07,2.995465551160574e-07,-2.1682288178000329e-07,-2.464958113627788e-06,-4.682049410086801e-07,1.2739207111004686e-07,2.5493564265108876e-07,-4.1596496254213484e-08,-8.069430077860163e-07,-1.2768620915378719e-06,-6.495410425884965e-07,-2.421309254890068e-07,-1.0678587168551106e-06,-3.6714581927438116e-07,1.6036976337623466e-07,-4.4177945145863604e-07,-4.1223962220512724e-07
2.2184403455129775e-07,-1.0555776252341748e-07,3.1563550710649083e-07,-2.5699608583171147e-07,-2.5603354586018325e-06,-5.462532810892578e-07,7.360871742057133e-08,2.133795252000435e-07,-6.265657990819946e-08,-8.184160823041764e-07,-1.288927364606446e-06,-6.673225936761483e-07,-2.3723682187735798e-07,-1.132814671436224e-06,-3.336808406023355e-07,2.0930717891715234e-07,-4.840251575123688e-07,-4.108480076924812e-07
2.4346166860070883e-07,-9.205461178099936e-08,3.366609837308719e-07,-2.941329151226778e-07,-2.6419411579395274e-06,-6.137712583384135e-07,9.189876802224234e-09,1.7060460430818947e-07,-8.436518904389396e-08,-8.208583889969488e-07,-1.2864023977186873e-06,-6.720291304246306e-07,-2.2347309762301442e-07,-1.2027616411841837e-06,-2.978945699518585e-07,2.4586526717610313e-07,-5.2064799719374e-07,-4.0901301990270273e-07
2.2330068387346682e-07,-7.791961464288218e-08,3.5960141890783406e-07,-3.2273279882541086e-07,-2.7092514438175314e-06,-6.683416963609852e-07,-6.726436017338745e-08,1.2678804601941367e-07,-1.0570752424862019e-07,-8.205846238508074e-07,-1.275570763074916e-06,-6.641422992059016e-07,-2.244189704719062e-07,-1.2793219093772373e-06,-2.709443175991352e-07,2.632635604643176e-07,-5.468181053570631e-07,-4.0930522026098507e-07
1.677029353347821e-07,-6.491347118625371e-08,3.8035285078637274e-07,-3.4751746282493866e-07,-2.7658334853176993e-06,-7.07716527619048e-07,-1.5350067357368504e-07,8.002304409109552e-08,-1.2562422515226572e-07,-8.172160446047889e-07,-1.2668059790857842e-06,-6.47889245225219e-07,-2.608517526494169e-07,-1.3675178760529934e-06,-2.6627301357012103e-07,2.5513295870359937e-07,-5.594428319161861e-07,-4.147877643098108e-07
9.011259903353187e-08,-5.551079462372164e-08,3.79913445792211e-07,-3.604156132723565e-07,-2.816726804506478e-06,-7.395788021692136e-07,-2.53458713057885e-07,2.7264101305821584e-08,-1.4277332645051496e-07,-8.124598485696512e-07,-1.2713904186787135e-06,-6.293347330416834e-07,-3.529819576025134e-07,-1.4730473471562395e-06,-2.968386581872908e-07,2.1793394597448108e-07,-5.572637940653031e-07,-4.283647185645945e-07
4.749039252747426e-09,-5.1615461392497545e-08,3.4372554139070813e-07,-3.6669780639729133e-07,-2.8794576298650227e-06,-7.543451192600421e-07,-3.7425294507810067e-07,-3.468941933221009e-08,-1.547835278374557e-07,-8.061010501771922e-07,-1.2975572558793194e-06,-6.147290436135919e-07,-5.388536919308052e-07,-1.5965734759380163e-06,-3.695686695160987e-07,1.528504298980047e-07,-5.411305350579433e-07,-4.5075601606370026e-07
-7.919863270223958e-08,-5.345950915503234e-08,2.7408091090862833e-07,-3.7755784535674017e-07,-2.9499528096377022e-06,-7.608305292710964e-07,-4.921711966184628e-07,-1.1136933222241192e-07,-1.582277707410223e-07,-7.973055937146572e-07,-1.3480039614382378e-06,-6.094064311412942e-07,-7.966281853148257e-07,-1.7340550445874299e-06,-4.825328912663195e-07,6.745157415495301e-08,-5.146291344197454e-07,-4.804371920077014e-07
-1.6005538277252856e-07,-6.006129426096784e-08,2.0025395035277042e-07,-3.9942311811811053e-07,-3.0211566914875993e-06,-7.622836534057747e-07,-6.266910000608441e-07,-2.008664724744016e-07,-1.4937853825869982e-07,-7.873054809544767e-07,-1.4189606608311084e-06,-6.171653874871993e-07,-1.0969061565135429e-06,-1.8774890896801017e-06,-6.242235547649328e-07,-2.5583744240762892e-08,-4.839675908268337e-07,-5.139302811134427e-07
-2.412612505095502e-07,-6.898230855034235e-08,1.4189762425687002e-07,-4.4181087293811456e-07,-3.0874287206705514e-06,-7.580675478932375e-07,-7.639587217516794e-07,-2.946413857593052e-07,-1.247176953033646e-07,-7.758296584194331e-07,-1.5002870086779012e-06,-6.391642317561958e-07,-1.4483440789276986e-06,-2.012647583675471e-06,-7.762456602306286e-07,-1.0949819343588525e-07,-4.562663993405839e-07,-5.467020842412969e-07
-3.256289248188928e-07,-7.723726400270563e-08,8.449829396650496e-08,-5.075848299532833e-07,-3.13597935682428e-06,-7.485688664261025e-07,-8.610160728879219e-07,-3.7816151735657963e-07,-8.139538639099704e-08,-7.621361273779586e-07,-1.577769859907594e-06,-6.729461994398684e-07,-1.8394027047424136e-06,-2.1252828864419574e-06,-9.182806674631564e-07,-1.6620070428592508e-07,-4.375150972895998e-07,-5.740522461274594e-07
-4.1010153127655546e-07,-8.26876711449895e-08,-2.4652816214361722e-08,-5.894115503125473e-07,-3.157216887366993e-06,-7.386170760567803e-07,-9.167379066983906e-07,-4.397572540760472e-07,-1.867829735252947e-08,-7.434923774169339e-07,-1.6380258592731577e-06,-7.139133744193701e-07,-2.19123150144598e-06,-2.2014171985784906e-06,-1.0334135895508473e-06,-1.824840090448333e-07,-4.32221904998861e-07,-5.929745488478209e-07
-4.838688217775882e-07,-8.509891200830944e-08,-1.1575806827226932e-07,-6.789340193636124e-07,-3.1452136470521756e-06,-7.344195561330997e-07,-9.216124163610132e-07,-4.570285659040395e-07,6.044328888491802e-08,-7.198838763799548e-07,-1.6731791876118772e-06,-7.579829825127385e-07,-2.4380776289781547e-06,-2.2335504863010675e-06,-1.111602682314934e-06,-1.5422883389537653e-07,-4.434006181430051e-07,-6.029899172028174e-07
-5.305858990869712e-07,-8.625620776684787e-08,-1.555421668489229e-07,-7.664369113494498e-07,-3.099057517490808e-06,-7.366952864393982e-07,-9.367904070177406e-07,-4.81358711796759e-07,1.4949654288942211e-07,-6.961681948655632e-07,-1.6823782863346388e-06,-8.024887110501872e-07,-2.5755579391245273e-06,-2.2227087757731773e-06,-1.1530270138725857e-06,-8.632910915642947e-08,-4.721246981206191e-07,-6.057470134511372e-07
-5.343925959091159e-07,-8.877090519582283e-08,-1.8274941516047438e-07,-8.411256800319588e-07,-3.023573861727289e-06,-7.551274203310528e-07,-9.302839399482912e-07,-5.271176598078683e-07,2.405292762966284e-07,-6.742135972639822e-07,-1.6706511518337998e-06,-8.471298920883734e-07,-2.608216468216494e-06,-2.1769770169368906e-06,-1.165908085934343e-06,1.0543851505925031e-08,-5.174697048939562e-07,-6.043329546710177e-07
-4.878423295399273e-07,-9.449089392562343e-08,-2.0312770843011628e-07,-8.945714627310217e-07,-2.928049204169731e-06,-7.808191798530297e-07,-9.38180656126204e-07,-5.448419897484089e-07,3.2607953944371814e-07,-6.641169562951432e-07,-1.6466538450276203e-06,-8.943779313056616e-07,-2.5603396562082407e-06,-2.1121007505417056e-06,-1.1638227494070783e-06,1.2381104555326787e-07,-5.773838994263072e-07,-6.024594950138614e-07
-3.974185914033383e-07,-1.0338115083558796e-07,-2.2111896544813534e-07,-9.250339569038264e-07,-2.8250565711093286e-06,-8.116411426346625e-07,-8.391190001956744e-07,-5.486878767007956e-07,4.002289770327811e-07,-6.781851965175079e-07,-1.6193069465779053e-06,-9.476995549403055e-07,-2.4787790020347183e-06,-2.0463819406152006e-06,-1.1620690732477243e-06,2.428731915066484e-07,-6.490323634899216e-07,-6.031590810110883e-07
-2.8271418741015735e-07,-1.1361404088035525e-07,-2.2905112552937416e-07,-9.36675606705649e-07,-2.7285265147562035e-06,-8.493576208205393e-07,-7.361618284326067e-07,-5.381540726472143e-07,4.592697435299287e-07,-7.226411989932106e-07,-1.5939624748046423e-06,-1.00815704704487e-06,-2.4602908027439514e-06,-1.9950627291528983e-06,-1.170215132780209e-06,3.6211077947645256e-07,-7.281815457340323e-07,-6.070099625750948e-07
-1.6971331113498168e-07,-1.2235114816960222e-07,-1.9682992735554536e-07,-9.360534289784504e-07,-2.651110568461136e-06,-8.928644809618556e-07,-6.337998978556485e-07,-5.256225956020928e-07,5.016497304445455e-07,-7.959708578603389e-07,-1.5707541130503453e-06,-1.072487459192259e-06,-2.5281837197756477e-06,-1.9652989589709046e-06,-1.189045115951821e-06,4.805316491285815e-07,-8.092126162132432e-07,-6.118220644922396e-07
-8.218919421736704e-08,-1.2710380619780375e-07,-1.321001269450107e-07,-9.297158377185335e-07,-2.602228519900655e-06,-9.432144765235333e-07,-5.120528526310213e-07,-5.193986233597486e-07,5.271261214504487e-07,-8.662010281018467e-07,-1.546338550164235e-06,-1.1345365369537604e-06,-2.656525554048765e-06,-1.957130824234753e-06,-1.212125702465463e-06,5.989134013368301e-07,-8.862725236588147e-07,-6.140537006514159e-07
-3.464901517587224e-08,-1.2691420131888346e-07,-7.357402817958363e-08,-9.23093999131951e-07,-2.5863798735950496e-06,-1.0000233806663962e-06,-4.5028416084441544e-07,-5.217945374431455e-07,5.3650097233524e-07,-9.389143277680748e-07,-1.51681425946755e-06,-1.187638083339399e-06,-2.806869125910239e-06,-1.964398889800065e-06,-1.2292973941488384e-06,7.174886888303665e-07,-9.544832194115688e-07,-6.103850744059311e-07
-2.835177626209883e-08,-1.2258975685508342e-07,-2.7370801065285296e-08,-9.167718739790667e-07,-2.6011698616779622e-06,-1.0591966869372225e-06,-4.1949185784435497e-07,-5.400701084796926e-07,5.324184871156775e-07,-9.689957619804992e-07,-1.479595932613295e-06,-1.2264082397619755e-06,-2.890399055993512e-06,-1.9759726096540355e-06,-1.229734656509737e-06,8.351454790972961e-07,-1.010716024351152e-06,-5.984618777708e-07
-5.1540050855217634e-08,-1.1622709122612822e-07,1.6075390375497265e-08,-9.165509275574972e-07,-2.6371710206304875e-06,-1.115348725565965e-06,-4.190635160002275e-07,-5.674208913816821e-07,5.195898080689489e-07,-9.726333920014453e-07,-1.4340629887027493e-06,-1.2478840583364177e-06,-2.894488653617442e-06,-1.979392294135729e-06,-1.2058558647097932e-06,9.486853749898139e-07,-1.054285223555388e-06,-5.77245984606249e-07
-8.461684975508565e-08,-1.103387307597719e-07,3.729141250186301e-08,-9.213239244912985e-07,-2.6813488965074163e-06,-1.1661700859849085e-06,-4.178838847182513e-07,-5.969741039998203e-07,5.032526785931789e-07,-9.503068708284074e-07,-1.3809999374947762e-06,-1.2517868083257727e-06,-2.831292467668826e-06,-1.964959120967177e-06,-1.1570498545347955e-06,1.052175624763149e-06,-1.0868443930433701e-06,-5.469818901334291e-07
-1.0879428137294154e-07,-1.0696363422445922e-07,5.0081714024863944e-08,-9.269007529029661e-07,-2.7221607863386783e-06,-1.2070780469536433e-06,-4.309317069641619e-07,-6.209085122341436e-07,4.871983845466141e-07,-8.863028825309309e-07,-1.32069523625647e-06,-1.2390478328010306e-06,-2.7098948340802943e-06,-1.9296372103517107e-06,-1.0873030346150547e-06,1.137911231798284e-06,-1.1106959073463093e-06,-5.086282156151957e-07
-1.1427027354873363e-07,-1.0706936735283225e-07,6.379887461914296e-08,-9.294567791782424e-07,-2.7526637802446356e-06,-1.2348038926459632e-06,-4.650604460825591e-07,-6.280231463642926e-07,4.727275031699646e-07,-8.434428529072783e-07,-1.2512225559110925e-06,-1.2099930387316239e-06,-2.5314862981043255e-06,-1.874364528499695e-06,-1.0052207172785788e-06,1.1981510335238136e-06,-1.126963534326427e-06,-4.6344959337701234e-07
-1.0400971216363348e-07,-1.1043735276378499e-07,7.47313025152865e-08,-9.213821341499371e-07,-2.7716415201163016e-06,-1.2508342969787403e-06,-5.024052233777395e-07,-6.225284303875722e-07,4.583169532009212e-07,-7.574096626389501e-07,-1.1690024121389617e-06,-1.1643886229133339e-06,-2.2953168162093127e-06,-1.8072444956154666e-06,-9.222805647866186e-07,1.2259241616764412e-06,-1.135490698298241e-06,-4.1333581992377153e-07
-9.168507433003169e-08,-1.160993248272859e-07,8.165154713303221e-08,-8.971002992074767e-07,-2.7826857264543516e-06,-1.2556996738809897e-06,-5.613012429465794e-07,-6.103717414029497e-07,4.400639463717867e-07,-6.735191180342773e-07,-1.0713792525574247e-06,-1.1027735572355124e-06,-2.0177174230642114e-06,-1.7374260192252489e-06,-8.495966065374611e-07,1.2156345154308135e-06,-1.1358902378560154e-06,-3.611595959465935e-07
-9.491849698557551e-08,-1.2299191317793028e-07,7.574615843751659e-08,-8.532531773154137e-07,-2.793682318841304e-06,-1.2531638684643366e-06,-6.414070585798124e-07,-5.977178085022061e-07,4.137534515111913e-07,-5.687431878634755e-07,-9.59272401293387e-07,-1.0276429065252664e-06,-1.7014122357628916e-06,-1.6731630895251447e-06,-7.947898785564015e-07,1.1650737406875054e-06,-1.1283472512776598e-06,-3.103862279924553e-07
-1.2691349785793082e-07,-1.3051561267079668e-07,5.173593919698496e-08,-7.929568843281063e-07,-2.812591520292256e-06,-1.2492346929368607e-06,-7.419122659271167e-07,-5.909227262587584e-07,3.778208750312336e-07,-4.035322427214638e-07,-8.389012519163608e-07,-9.44551663263316e-07,-1.3801834383437647e-06,-1.619629546518106e-06,-7.627692959002946e-07,1.077550941683245e-06,-1.1143802878331844e-06,-2.645172456013364e-07
-1.9051378157624827e-07,-1.3877165606059498e-07,1.1511289531617696e-08,-7.127053025857542e-07,-2.844242356947962e-06,-1.2477431313018895e-06,-8.568150237393138e-07,-5.916555192551692e-07,3.3490189218269987e-07,-2.540794016813628e-07,-7.21930998994919e-07,-8.627748004846764e-07,-1.0469329121115263e-06,-1.578242805399289e-06,-7.547041182148595e-07,9.623613734701599e-07,-1.097686604399823e-06,-2.265736432152955e-07
-2.770584806984624e-07,-1.483630740436841e-07,-3.838345267754898e-08,-6.239410061383897e-07,-2.889359326409901e-06,-1.2525623114791401e-06,-9.778376599383246e-07,-5.980882009828739e-07,2.911148616787477e-07,-1.1833423614066008e-07,-6.225808137917289e-07,-7.933958167103832e-07,-7.228523962350937e-07,-1.5497718277763848e-06,-7.67970478432909e-07,8.33704844338428e-07,-1.0834992055685775e-06,-1.9901500499957426e-07
-3.693823501216386e-07,-1.5981033414611193e-07,-8.830311559765304e-08,-5.408066585863027e-07,-2.9432139367929624e-06,-1.2656147010914093e-06,-1.0771184404336176e-06,-6.081974200192854e-07,2.5425595588349416e-07,-5.500085862900158e-09,-5.520451984238725e-07,-7.448113355020226e-07,-4.5646776429291643e-07,-1.5326050030047218e-06,-7.973040112408998e-07,7.090889322714293e-07,-1.0759286305476483e-06,-1.8209688988484359e-07
-4.47314346680798e-07,-1.7306518864476978e-07,-1.282134222449138e-07,-4.713795865327621e-07,-2.995950182848642e-06,-1.2844764125284123e-06,-1.1399199084983098e-06,-6.192422948265097e-07,2.3163012775125668e-07,6.284584055537393e-08,-5.141092875196384e-07,-7.195072724481818e-07,-2.6497737600431647e-07,-1.522868563844653e-06,-8.345907722343054e-07,6.063141192949499e-07,-1.0756813884777085e-06,-1.7340417468141946e-07
-4.943378885706632e-07,-1.8728719261208068e-07,-1.5043181089143188e-07,-4.2304856578969904e-07,-3.0355243513581e-06,-1.3029050443024767e-06,-1.1648945186514718e-06,-6.266639004077573e-07,2.2766191248372015e-07,1.0196209115675362e-07,-5.051446572003857e-07,-7.146409348650975e-07,-1.5966219502301437e-07,-1.5151338999090533e-06,-8.718207802751325e-07,5.38591025670445e-07,-1.0801774041038401e-06,-1.693169040080953e-07
-5.030978851390403e-07,-2.0102155997427802e-07,-1.5169869300912666e-07,-3.9644027886868737e-07,-3.0521905849732416e-06,-1.3147031729642868e-06,-1.1501678330892336e-06,-6.285932011534545e-07,2.42407034060926e-07,1.4170202299994075e-07,-5.170854496416236e-07,-7.243415071383604e-07,-1.3850777169057813e-07,-1.5053050803448216e-06,-9.034302844001914e-07,5.108535993266667e-07,-1.0851234966061767e-06,-1.6635640905187255e-07
-4.769655645917108e-07,-2.1291201711734977e-07,-1.3371413365581304e-07,-3.8833358243484454e-07,-3.0401735924409946e-06,-1.315222922537644e-06,-1.1067181134439277e-06,-6.253346795971359e-07,2.721600025364462e-07,1.4540033089031395e-07,-5.398070404104879e-07,-7.413888238780442e-07,-1.7803239838517307e-07,-1.4904768410808486e-06,-9.263603602834227e-07,5.194669540944428e-07,-1.0860541167253233e-06,-1.619443931491354e-07
-4.2736385961432653e-07,-2.2194591822383403e-07,-1.0200651175855286e-07,-3.987424177689688e-07,-2.997407910348745e-06,-1.302186950955063e-06,-1.046885882407683e-06,-6.179271340382567e-07,3.113127046205533e-07,1.2086379017986355e-07,-5.64576231928478e-07,-7.588570282189983e-07,-2.5760939334971816e-07,-1.4692116307319825e-06,-9.389919940278346e-07,5.542633938585922e-07,-1.0798123501580652e-06,-1.547739920392811e-07
-3.692219440629034e-07,-2.2770864829372512e-07,-6.396386690560855e-08,-4.1939523586362477e-07,-2.9252640574249413e-06,-1.2768770525536152e-06,-9.808685864420127e-07,-6.088227519325891e-07,3.537680899804098e-07,8.556820969132585e-08,-5.852907573829691e-07,-7.719997444526618e-07,-3.6512687642190477e-07,-1.4427036965076724e-06,-9.411716600298548e-07,6.014096692177812e-07,-1.0656967078253513e-06,-1.4519276730231678e-07
-3.165759384892307e-07,-2.3057270327682513e-07,-2.6812926403943236e-08,-4.467472545288445e-07,-2.8285153657580088e-06,-1.2436904902256048e-06,-9.186261818298159e-07,-6.007430070179266e-07,3.939788398104884e-07,3.799151257512194e-08,-5.987423880212525e-07,-7.786619194281526e-07,-4.747359493921106e-07,-1.4130671033328025e-06,-9.327864125957211e-07,6.474864331393818e-07,-1.0452130650325538e-06,-1.3458667477446808e-07
-2.790242480435382e-07,-2.3140246210224842e-07,4.139450824822591e-09,-4.802366273140556e-07,-2.7144141784507958e-06,-1.2083491691782023e-06,-8.66435304662952e-07,-5.947002858166013e-07,4.2834942719016147e-07,-3.603986498423924e-09,-6.03571880966057e-07,-7.779720647114304e-07,-5.644421320243088e-07,-1.380255303444704e-06,-9.128599982397649e-07,6.83875379165087e-07,-1.0207701166616963e-06,-1.2425175323513767e-07
-2.6001055614762536e-07,-2.310462429740771e-07,2.659880263639682e-08,-5.173664320119651e-07,-2.590502918824084e-06,-1.1755525734460613e-06,-8.259120404217071e-07,-5.889985761396188e-07,4.5613699608886653e-07,-3.193260461203463e-08,-5.991577376389186e-07,-7.695977669471621e-07,-6.217395591219408e-07,-1.3420755029346232e-06,-8.799884822578995e-07,7.08803283663973e-07,-9.949424407533755e-07,-1.1474170388492032e-07
-2.5791472877112705e-07,-2.2984260404634395e-07,4.105545672202513e-08,-5.571929975467188e-07,-2.4635745496116153e-06,-1.1479897335496911e-06,-7.95261881174702e-07,-5.804658137036302e-07,4.787873916081831e-07,-4.4605404376981256e-08,-5.847641422884448e-07,-7.543214502095034e-07,-6.365788273684893e-07,-1.295555153921297e-06,-8.342921249910413e-07,7.261801148555903e-07,-9.705237414145725e-07,-1.0608021782606994e-07
-2.689400002993346e-07,-2.276092402434541e-07,4.950346968167954e-08,-5.966989439062709e-07,-2.3409921956002104e-06,-1.1266838798260115e-06,-7.710412974003919e-07,-5.662894515460522e-07,4.986141688350937e-07,-4.803625674106322e-08,-5.606656888899395e-07,-7.342557291693519e-07,-6.111931374843411e-07,-1.240098908341879e-06,-7.785930896520384e-07,7.432574448283449e-07,-9.50200750205638e-07,-9.804936027538128e-08
-2.8934464784108724e-07,-2.2393156984172557e-07,5.4111836303492205e-08,-6.319535100456823e-07,-2.2284162305717484e-06,-1.1110247675907362e-06,-7.492393454482541e-07,-5.446773878241613e-07,5.180612033016949e-07,-3.512980972233296e-08,-5.279286961239423e-07,-7.115592124859542e-07,-5.575237512676272e-07,-1.176785746856364e-06,-7.17656809756514e-07,7.683048477164873e-07,-9.357493252522291e-07,-9.009810450889149e-08
-3.1594592347274153e-07,-2.1857319569011848e-07,5.6421335988123136e-08,-6.577278556748433e-07,-2.130506536627228e-06,-1.099048847473841e-06,-7.261574385082722e-07,-5.151631319985416e-07,5.392572599803461e-07,-1.1157269607006251e-08,-4.873794858606406e-07,-6.887128502767903e-07,-4.887666669607978e-07,-1.1077086740582669e-06,-6.563151398506395e-07,8.07800431979439e-07,-9.276551239187632e-07,-8.190687898309201e-08
-3.457392049614794e-07,-2.1164573718886943e-07,5.7211348204134914e-08,-6.735545448957017e-07,-2.0507363261621733e-06,-1.0886289243155178e-06,-6.997590324930684e-07,-4.789748430932964e-07,5.633391516277509e-07,1.509998267046117e-08,-4.40533668798073e-07,-6.679816577188519e-07,-4.148349551352018e-07,-1.0359998040112207e-06,-5.9875835424411e-07,8.639803276310918e-07,-9.250992618042617e-07,-7.319335718420485e-08
-3.7550321023876624e-07,-2.0344371804013254e-07,5.699913802527817e-08,-6.791794986676254e-07,-1.9896887783346893e-06,-1.0780282950057676e-06,-6.701680272042058e-07,-4.3820884768214507e-07,5.903518914703692e-07,4.1207613394285294e-08,-3.895719064785834e-07,-6.49479279609879e-07,-3.4833910597679055e-07,-9.640864228404325e-07,-5.474791938341026e-07,9.345785049549926e-07,-9.258125826871325e-07,-6.383289230959284e-08
-4.016866654043592e-07,-1.942879816662647e-07,5.68634882383661e-08,-6.748988529665037e-07,-1.9444892409423306e-06,-1.0652090983531578e-06,-6.385819797872427e-07,-3.9419964399827216e-07,6.198564029788652e-07,6.181974634969276e-08,-3.367805829328867e-07,-6.317191021416009e-07,-2.9133416146180597e-07,-8.930491312419835e-07,-5.026322113438915e-07,1.0140531654082872e-06,-9.264535927177692e-07,-5.379374743376064e-08
-4.208761864238409e-07,-1.8415678678666059e-07,5.8559466820406875e-08,-6.626268681544512e-07,-1.908922813469024e-06,-1.0476865048624425e-06,-6.063739427086851e-07,-3.4738587460066924e-07,6.511484811881259e-07,7.674663834946512e-08,-2.846270312473467e-07,-6.12702800183224e-07,-2.4297956878997023e-07,-8.236804938524095e-07,-4.6368673768332415e-07,1.0943258458146808e-06,-9.240058784451217e-07,-4.317078914964e-08
-4.306131491909848e-07,-1.7299467442129617e-07,6.367930691314294e-08,-6.439151977968209e-07,-1.876075326567151e-06,-1.02374919499048e-06,-5.75267012750242e-07,-2.9853500056304095e-07,6.828398226027731e-07,8.80595806734164e-08,-2.3631913280102732e-07,-5.911529103776245e-07,-2.0495160151260213e-07,-7.582606728062251e-07,-4.305885933948784e-07,1.1655138260282042e-06,-9.168895314491468e-07,-3.2467779933293e-08
-4.296338683080277e-07,-1.609880925897743e-07,7.28270109926268e-08,-6.212300313251419e-07,-1.8406507719258488e-06,-9.931302373761014e-07,-5.471779417180111e-07,-2.489540837484089e-07,7.129976574267036e-07,9.788936576862766e-08,-1.9494335162472307e-07,-5.666414351088605e-07,-1.7728264661884876e-07,-6.996423759317251e-07,-4.0335532671354004e-07,1.2178669905964655e-06,-9.046699851574694e-07,-2.2028231730421215e-08
-4.1752923521508124e-07,-1.4846413432453094e-07,8.548574222521352e-08,-5.972217030900905e-07,-1.8001389389987087e-06,-9.563939351165848e-07,-5.233629712298585e-07,-1.996635025098256e-07,7.399801380844453e-07,1.0915254412924983e-07,-1.625700467878349e-07,-5.38882615838802e-07,-1.629940328138423e-07,-6.504257377210177e-07,-3.8155172499355253e-07,1.2437538142498686e-06,-8.874288716002352e-07,-1.1692856705515981e-08
-3.9492124577843096e-07,-1.3596805865765876e-07,1.0023779690643856e-07,-5.718539756682105e-07,-1.7546550737412158e-06,-9.147165420641287e-07,-5.044821199183578e-07,-1.5160565843640264e-07,7.625874497897709e-07,1.2272093826371592e-07,-1.401943146328619e-07,-5.079815574745825e-07,-1.6419587951714075e-07,-6.13606573871786e-07,-3.6500322546401005e-07,1.2379950780519157e-06,-8.659181410884959e-07,-1.315142088981388e-09
-3.6418319243137573e-07,-1.2403625316269492e-07,1.1492006826018853e-07,-5.471517894932951e-07,-1.7074627031871916e-06,-8.70358929310476e-07,-4.917927837998848e-07,-1.0661533608960881e-07,7.794247832797192e-07,1.4078325295286925e-07,-1.285545907258968e-07,-4.751314792313757e-07,-1.818533293499738e-07,-5.927959301243164e-07,-3.540574893579819e-07,1.1977399172522482e-06,-8.416913747332255e-07,8.584548987922977e-09
-3.2945077633161153e-07,-1.1316391729235314e-07,1.2709513462880496e-07,-5.233555328709623e-07,-1.6646399110275628e-06,-8.26354688417085e-07,-4.873996242693112e-07,-6.706189123593131e-08,7.888129664624783e-07,1.640599592373229e-07,-1.2792863778969786e-07,-4.422951555309143e-07,-2.1474155497296224e-07,-5.904437735932586e-07,-3.4878476987491464e-07,1.1237204637345361e-06,-8.165533706751868e-07,1.7232847398740383e-08
-2.95692835142429e-07,-1.0365635636206059e-07,1.344859763625769e-07,-5.000193859629463e-07,-1.6325014190034383e-06,-7.853546735413982e-07,-4.929936420464387e-07,-3.463576308407361e-08,7.894745058178396e-07,1.9166372497018616e-07,-1.3726917146342858e-07,-4.113954466960779e-07,-2.602582332558721e-07,-6.059207768168213e-07,-3.4864152593623214e-07,1.0216964423730207e-06,-7.923624967555373e-07,2.399592392111258e-08
-2.6787523402920984e-07,-9.552158154031388e-08,1.3547931006710037e-07,-4.779739143968079e-07,-1.615628539447814e-06,-7.495875285851285e-07,-5.089065106864332e-07,-1.0365276195961333e-08,7.808214173681304e-07,2.2202763421536814e-07,-1.5448805505857888e-07,-3.848940740747954e-07,-3.133948049582635e-07,-6.361536965598091e-07,-3.5331148218963126e-07,9.017831656422985e-07,-7.716067091831423e-07,2.800501748854052e-08
-2.503201374326645e-07,-8.859498070051994e-08,1.2910656314598088e-07,-4.583591597381102e-07,-1.6163094302604506e-06,-7.215495291503642e-07,-5.341322396875583e-07,4.751864702071025e-09,7.627704463654411e-07,2.5141270755389763e-07,-1.7766638656487737e-07,-3.6592443750694984e-07,-3.672059069545532e-07,-6.767363645803213e-07,-3.6317348492564647e-07,7.760600887748165e-07,-7.573350475843041e-07,2.8098841174199166e-08
-2.4533910447596796e-07,-8.282344912840052e-08,1.1552764477054677e-07,-4.436450819907208e-07,-1.6340224782902883e-06,-7.035560462018667e-07,-5.660152947028853e-07,1.0613984308456802e-08,7.361023608626376e-07,2.779214804340882e-07,-2.0478795481789556e-07,-3.566721071638404e-07,-4.1559006078498194e-07,-7.216004434348609e-07,-3.7832777742865125e-07,6.56250822145644e-07,-7.518996067163164e-07,2.3540487593767493e-08
-2.516333754651017e-07,-7.801220818000826e-08,9.608214468135414e-08,-4.359881356021673e-07,-1.664905936448141e-06,-6.961371670560956e-07,-5.99798763724173e-07,9.347206434930207e-09,7.030182665992625e-07,2.989041424292138e-07,-2.3312286611852895e-07,-3.572649826942999e-07,-4.545825900077081e-07,-7.635397766579803e-07,-3.980257987738192e-07,5.514921552243531e-07,-7.561625992081673e-07,1.454216886684567e-08
-2.6447091510272193e-07,-7.410238361296074e-08,7.334925781868734e-08,-4.359890763728396e-07,-1.7028410495600545e-06,-6.97716742005366e-07,-6.299635388343166e-07,4.446377069246813e-09,6.665048738055778e-07,3.119732612211601e-07,-2.599199635762506e-07,-3.662169531155503e-07,-4.847673013864492e-07,-7.972405456892665e-07,-4.216458788726283e-07,4.658549841031638e-07,-7.700500018423434e-07,1.895499291283634e-09
-2.7805498020468095e-07,-7.091836899599625e-08,5.007476866060655e-08,-4.447118220362999e-07,-1.7426523002638781e-06,-7.061516900604777e-07,-6.52969809365712e-07,-1.476635087198131e-09,6.289365875405455e-07,3.180089268213591e-07,-2.832788023833723e-07,-3.816338114427161e-07,-5.10609200021998e-07,-8.215670360502769e-07,-4.4927389698763755e-07,3.9741486602186767e-07,-7.928273975954718e-07,-1.3824855716220709e-08
-2.8790559637120346e-07,-6.835687544318693e-08,2.788019082262954e-08,-4.6002797133869615e-07,-1.7822618625897425e-06,-7.195852419043741e-07,-6.684508884983162e-07,-7.222020976995307e-09,5.917564918942824e-07,3.1808422181083236e-07,-3.0218398874932117e-07,-4.012602107052076e-07,-5.367426719649428e-07,-8.381733222382704e-07,-4.80377165276548e-07,3.403990127831239e-07,-8.219689447800558e-07,-3.1677491233589486e-08
-2.914991174604984e-07,-6.642452366340637e-08,8.847381634699316e-09,-4.784833021715694e-07,-1.821685272237981e-06,-7.357545140921167e-07,-6.780205907956168e-07,-1.1711809143825362e-08,5.563014593502297e-07,3.14572133648397e-07,-3.1607947515089914e-07,-4.215605305792222e-07,-5.677524520749264e-07,-8.488918022890832e-07,-5.123023234937677e-07,2.884482651484111e-07,-8.52270530931704e-07,-4.9974124256249034e-08
-2.8777078728533563e-07,-6.497738320185846e-08,-6.327738957667075e-09,-4.962335640299818e-07,-1.8617331251281744e-06,-7.5163565415395e-07,-6.839547648567509e-07,-1.3531140126747054e-08,5.239566649223692e-07,3.116099142511035e-07,-3.2536945870096106e-07,-4.3834453306871907e-07,-6.048574191084867e-07,-8.551446248179316e-07,-5.405730359189821e-07,2.3629600082074958e-07,-8.768832598526122e-07,-6.666626990739383e-08
-2.765500111880971e-07,-6.384225403106371e-08,-1.7614836324796388e-08,-5.090039588975612e-07,-1.9027594887291857e-06,-7.643269797341128e-07,-6.888395140023442e-07,-1.1648799086946052e-08,4.953078134109733e-07,3.156034608683707e-07,-3.320586899404626e-07,-4.479248684377875e-07,-6.46173522688736e-07,-8.581885210899653e-07,-5.601511529719144e-07,1.8045708587581595e-07,-8.892495297191424e-07,-7.978239709098609e-08
-2.579251060519237e-07,-6.289973051894699e-08,-2.5399826660340632e-08,-5.143015501028527e-07,-1.9437833117334137e-06,-7.716205139814861e-07,-6.947750987927794e-07,-5.511421124648502e-09,4.6984701193512787e-07,3.3034015713274925e-07,-3.3911713341374014e-07,-4.474395444927482e-07,-6.891975443236311e-07,-8.581577936729858e-07,-5.663455717206713e-07,1.206079333587539e-07,-8.843995793477448e-07,-8.76644499679074e-08
-2.3180451668275966e-07,-6.213517798246199e-08,-3.0864491195468164e-08,-5.112083484174562e-07,-1.981785593163747e-06,-7.719147042825492e-07,-7.020444553657554e-07,5.228118920184873e-09,4.466353906312074e-07,3.5984124252682943e-07,-3.492200954523066e-07,-4.3534017706787835e-07,-7.315305710891666e-07,-8.535955908697847e-07,-5.560349963648662e-07,6.049298238035088e-08,-8.600073450229747e-07,-8.92766964246026e-08
-1.986824142973627e-07,-6.097363453169594e-08,-3.526646188772805e-08,-5.008195568298565e-07,-2.0123013363657475e-06,-7.64893857628453e-07,-7.092936394045527e-07,1.97121603835655e-08,4.2461856789752367e-07,4.0716884463183343e-07,-3.6396596731765406e-07,-4.126299332757631e-07,-7.719242829857026e-07,-8.432134590813641e-07,-5.29447771386839e-07,6.415511268263589e-09,-8.176542208488568e-07,-8.500917010571273e-08
-1.6120352385436096e-07,-5.88688378352967e-08,-4.010462215437425e-08,-4.855734024199783e-07,-2.0316972413675183e-06,-7.526618338526269e-07,-7.152910509126726e-07,3.467183421461467e-08,4.024936810330488e-07,4.6907925385770493e-07,-3.841789271566294e-07,-3.830696305883923e-07,-8.097311906288541e-07,-8.272767453247892e-07,-4.904851003029519e-07,-3.5545249166081186e-08,-7.629405921369361e-07,-7.679757912116434e-08
-1.243744464448865e-07,-5.634109885941141e-08,-4.677005934732392e-08,-4.6981895082635334e-07,-2.0380259777430697e-06,-7.391761262589727e-07,-7.197775352022456e-07,4.5491311391953905e-08,3.791759794680567e-07,5.391755830231496e-07,-4.0925217578292255e-07,-3.512819224649681e-07,-8.435218039089632e-07,-8.063862200444978e-07,-4.4461528329120395e-07,-6.120128624273619e-08,-7.036137994643891e-07,-6.711601755242945e-08
-9.367208508984813e-08,-5.34906324985018e-08,-5.6121268020408646e-08,-4.577401948133193e-07,-2.0311450711735435e-06,-7.280257848394001e-07,-7.22726812265074e-07,4.855751357176733e-08,3.546580788807703e-07,6.09875783548987e-07,-4.3637390095881535e-07,-3.2086202674769967e-07,-8.694371136565803e-07,-7.802324968997545e-07,-3.966576554191926e-07,-6.90001078220033e-08,-6.473424551370291e-07,-5.7823898352197255e-08
-7.295957628931838e-08,-5.096512288282707e-08,-6.809121048451705e-08,-4.51980170667422e-07,-2.011469715704754e-06,-7.211122237797924e-07,-7.239542623950101e-07,4.210256586739828e-08,3.2989669949775415e-07,6.738708687246268e-07,-4.6140622437997804e-07,-2.942151235356131e-07,-8.825069457547353e-07,-7.486908218502106e-07,-3.50420498375318e-07,-6.090426255548773e-08,-6.006378128061387e-07,-5.003773379709485e-08
-6.375720941384836e-08,-4.870640010960462e-08,-8.150852619354363e-08,-4.5370074549857497e-07,-1.980486768066945e-06,-7.189440224693328e-07,-7.235053011464994e-07,2.5788314345969767e-08,3.0586717272410145e-07,7.255595466096947e-07,-4.809432351185027e-07,-2.730528442241838e-07,-8.792645851065676e-07,-7.128008133054937e-07,-3.0888149811976086e-07,-4.221134811974883e-08,-5.680356421173791e-07,-4.4334534963051775e-08
-6.520777922649786e-08,-4.637722285173905e-08,-9.514637219482755e-08,-4.624200849704177e-07,-1.9394881625075327e-06,-7.205285315977223e-07,-7.211000723602679e-07,1.2380360545006533e-09,2.8337172850182054e-07,7.623702140983176e-07,-4.929096880502771e-07,-2.578659241838908e-07,-8.599816388440511e-07,-6.721990487426263e-07,-2.73491262663792e-07,-1.9146857410529755e-08,-5.507170175075799e-07,-4.032990177420744e-08
-7.411749039976454e-08,-4.4109768211336515e-08,-1.0744051294712272e-07,-4.761357420920046e-07,-1.891366411975989e-06,-7.226890264411973e-07,-7.148106294115005e-07,-2.7162643292672917e-08,2.6360289649348693e-07,7.856225326171912e-07,-4.964408059457807e-07,-2.4742867138640784e-07,-8.297909125857719e-07,-6.260215426022516e-07,-2.439231627800696e-07,3.756371379538516e-09,-5.46011249364348e-07,-3.6487829133685745e-08
-8.592364986773509e-08,-4.204302210978063e-08,-1.1660880930013591e-07,-4.919043318875811e-07,-1.8385648392241847e-06,-7.210070757154365e-07,-7.014470137693208e-07,-5.373795814580332e-08,2.479258122327003e-07,7.991974930542939e-07,-4.923969940697695e-07,-2.3942129076406435e-07,-7.975619016503847e-07,-5.734937609884227e-07,-2.1936918417818105e-07,2.4009477558792476e-08,-5.488999549972103e-07,-3.0868023525078304e-08
-9.670145535291394e-08,-4.0630578622898215e-08,-1.2151505714435782e-07,-5.063438910993867e-07,-1.7836648816270754e-06,-7.124539851706229e-07,-6.788796486154135e-07,-7.441051184648528e-08,2.3686371388255623e-07,8.069927188138179e-07,-4.833988298151647e-07,-2.3170399008188353e-07,-7.73091248081855e-07,-5.158121894793881e-07,-1.9955205415409302e-07,4.023632551680985e-08,-5.539576503365675e-07,-2.2256751096893907e-08
-1.0445201188999711e-07,-3.969941271958841e-08,-1.2174572897388704e-07,-5.175787533961047e-07,-1.7310300147363874e-06,-6.968224684052052e-07,-6.473859703464335e-07,-8.770477342353642e-08,2.2994128590657853e-07,8.124903080383956e-07,-4.726859784706604e-07,-2.2248458205841302e-07,-7.63374308538111e-07,-4.5604496128125877e-07,-1.8387419952590444e-07,5.217333836870006e-08,-5.56093172082608e-07,-1.0130378529764204e-08
-1.087321616825814e-07,-3.969688033934308e-08,-1.1772812024455148e-07,-5.246539782789791e-07,-1.6840392939371401e-06,-6.757709141183563e-07,-6.087979616295749e-07,-9.369879392086561e-08,2.2660246801076133e-07,8.199025356691945e-07,-4.6143493627962446e-07,-2.0957921831128236e-07,-7.696856997758866e-07,-3.9656214075909693e-07,-1.704777529313116e-07,6.097331602832924e-08,-5.510424794291784e-07,6.302018112366013e-09
-1.1001898010308569e-07,-4.02211846510243e-08,-1.0994933076719094e-07,-5.27171570563614e-07,-1.6440985089976538e-06,-6.517421846701251e-07,-5.656021717673014e-07,-9.370042170243078e-08,2.2648299422783985e-07,8.311614568483108e-07,-4.5102176614855907e-07,-1.9138894097562797e-07,-7.871819546988341e-07,-3.3954871059710505e-07,-1.5714047114216723e-07,6.814774832818945e-08,-5.367411140579806e-07,2.641942653301682e-08
-1.0975953476955453e-07,-4.090372295724814e-08,-9.974357537695091e-08,-5.259500564081035e-07,-1.6112008964927851e-06,-6.280533410345781e-07,-5.211712264130669e-07,-9.083837394385035e-08,2.2865606979941386e-07,8.463730950899279e-07,-4.4249783139286634e-07,-1.6714418876002366e-07,-8.067933966636026e-07,-2.8769543108505985e-07,-1.424026614696045e-07,7.440229056014207e-08,-5.141167882195865e-07,4.871340292026335e-08
-1.0985714810491719e-07,-4.1901588546387114e-08,-8.915993843806667e-08,-5.224257861702571e-07,-1.5847408359580434e-06,-6.084277992606641e-07,-4.793119086257062e-07,-8.899703129227672e-08,2.3151497006785495e-07,8.645966656340617e-07,-4.359760367370445e-07,-1.3851538320858735e-07,-8.177758720627557e-07,-2.4237193028427583e-07,-1.2474666025872405e-07,8.054168700892125e-08,-4.857080103412074e-07,7.17848707382752e-08
-1.1096298253432405e-07,-4.3206987677593684e-08,-7.968654029407731e-08,-5.175756841707466e-07,-1.5621150407399754e-06,-5.951215907595972e-07,-4.4224766127888027e-07,-9.027159102354569e-08,2.3384683251631755e-07,8.861614466448085e-07,-4.301738312208003e-07,-1.0683448688730961e-07,-8.098968783027113e-07,-2.0024914492898654e-07,-1.012628190301881e-07,8.912529968057943e-08,-4.535842274784071e-07,9.499414547451635e-08
-1.1146978116083046e-07,-4.510333387342674e-08,-7.151106277433483e-08,-5.107518699128862e-07,-1.5387601984618778e-06,-5.878583164173271e-07,-4.0955387609963266e-07,-9.425533318640712e-08,2.3548092706458945e-07,9.126880384213924e-07,-4.2185456503386244e-07,-7.24400055105751e-08,-7.753831941775443e-07,-1.559725836114894e-07,-6.838203518847892e-08,1.0393366510466337e-07,-4.1891225080884277e-07,1.1877885122146269e-07
-1.0871278583812154e-07,-4.777675625082716e-08,-6.363511332370371e-08,-5.014873142432379e-07,-1.5096985130320188e-06,-5.849865106160402e-07,-3.795215084823157e-07,-9.984412011512615e-08,2.3663186403222403e-07,9.448807867570985e-07,-4.078352192812658e-07,-3.6081360742716234e-08,-7.108047250132504e-07,-1.0530439067112627e-07,-2.3875950018695657e-08,1.2770321360344112e-07,-3.8271758082653754e-07,1.436712879613156e-07
-1.0104360416229867e-07,-5.113855646654902e-08,-5.476388608667586e-08,-4.89503541440136e-07,-1.4711630674996564e-06,-5.848638400316805e-07,-3.507142663160234e-07,-1.0653075222926657e-07,2.3734460040460682e-07,9.825404744586698e-07,-3.865012058739134e-07,1.6389809519640894e-09,-6.186031457717318e-07,-4.7838624353946794e-08,3.2299484015375473e-08,1.609600483006651e-07,-3.4603036106829105e-07,1.6985760624894834e-07
-8.893435083782029e-08,-5.496979479009292e-08,-4.256550524612254e-08,-4.7504719279369506e-07,-1.4204640556236474e-06,-5.849778689629925e-07,-3.2188337543755666e-07,-1.1397698143994129e-07,2.3786347395888488e-07,1.0239153979370466e-06,-3.584291964980133e-07,4.00115863332247e-08,-5.079472505135158e-07,1.5720933229011194e-08,9.799974359186562e-08,2.0225909875281188e-07,-3.096749769962674e-07,1.9639150910438934e-07
-7.526379764632707e-08,-5.9291556364941336e-08,-2.6306083763020587e-08,-4.59247513812269e-07,-1.3574790434854465e-06,-5.847670351107622e-07,-2.917865571571381e-07,-1.2211675009952738e-07,2.386806133967837e-07,1.0663368191004252e-06,-3.2618918053228935e-07,7.725345436024683e-08,-3.9441661488937497e-07,8.110053777091308e-08,1.6818658781283344e-07,2.479756005106279e-07,-2.7491351418405947e-07,2.2267105208493128e-07
-6.522327074804492e-08,-6.396518683321635e-08,-6.646213621156667e-09,-4.4399276130444736e-07,-1.286353905821877e-06,-5.836235507519731e-07,-2.60214411329289e-07,-1.3222483851293015e-07,2.397200093452538e-07,1.1059294960990399e-06,-2.9477432257681424e-07,1.0860974217225991e-07,-2.9741454008401213e-07,1.3978003244913126e-07,2.3496028148974973e-07,2.922266265150187e-07,-2.4396575888581186e-07,2.4710441952250453e-07
-6.473104126171803e-08,-6.766653521369739e-08,1.4700338025196267e-08,-4.319316399884484e-07,-1.2221795406177465e-06,-5.818192684869564e-07,-2.2820420137265647e-07,-1.4611322008125689e-07,2.40309526362782e-07,1.1380293648398045e-06,-2.6983217894595214e-07,1.3095618211701016e-07,-2.3483340379082834e-07,1.840775514895989e-07,2.9071973926698405e-07,3.293716728398085e-07,-2.1862258606866646e-07,2.679938004983407e-07
-7.703101092334872e-08,-7.056042347427748e-08,3.552173067194129e-08,-4.25085474198949e-07,-1.1669630638781243e-06,-5.792946598244204e-07,-1.9596192070682974e-07,-1.6304791087753967e-07,2.407465933734651e-07,1.1610300023001116e-06,-2.5516659889000856e-07,1.4454954602293257e-07,-2.1682293608684853e-07,2.1309256184306328e-07,3.3259082306479586e-07,3.580905549148858e-07,-1.9806068300518898e-07,2.859011698174664e-07
-1.0011363882556985e-07,-7.075242048546887e-08,5.5083108343917385e-08,-4.233809489533124e-07,-1.1187927876930853e-06,-5.727615922646672e-07,-1.6100993956519944e-07,-1.7834236850699073e-07,2.434177038474985e-07,1.1781402721171478e-06,-2.4764853076737367e-07,1.5354284981369351e-07,-2.418669476949077e-07,2.3446719779668857e-07,3.6366323565689856e-07,3.826758981274272e-07,-1.787434755701152e-07,3.033579813434109e-07
-1.2758082229593346e-07,-6.766024860417186e-08,7.420084536293756e-08,-4.242947910073688e-07,-1.0714112904045486e-06,-5.578440390698351e-07,-1.1931808041778032e-07,-1.8580938427470913e-07,2.517316778393968e-07,1.1898894055494972e-06,-2.406299673497642e-07,1.6448428587620744e-07,-2.9703566182510517e-07,2.5936914497572827e-07,3.9036305545257333e-07,4.1012378465113136e-07,-1.56594337051142e-07,3.21248625600034e-07
-1.5180150791914325e-07,-6.14838162771064e-08,9.529360911481561e-08,-4.2424349581541566e-07,-1.0183538967755215e-06,-5.315872410476038e-07,-6.79473388272055e-08,-1.8105996150056293e-07,2.6820075419280483e-07,1.203514362819297e-06,-2.2760529500823844e-07,1.82658076869291e-07,-3.620145226412951e-07,2.974869523188642e-07,4.1932642771084783e-07,4.4633683941070423e-07,-1.2886968966397774e-07,3.429594643039845e-07
-1.6624090422379022e-07,-5.171182217096756e-08,1.1327733033914268e-07,-4.1976208907948674e-07,-9.583662353323052e-07,-4.93800386085507e-07,-6.235120651654807e-09,-1.626318174523852e-07,2.9363568519553003e-07,1.2244678616597545e-06,-2.0397649282723015e-07,2.1097067928063516e-07,-4.152690965339205e-07,3.5363779371821424e-07,4.556362203101566e-07,4.94171289981329e-07,-9.455698532916467e-08,3.706499864651936e-07
-1.6614180392276543e-07,-3.87350932975206e-08,1.3038522785838418e-07,-4.0780436912029017e-07,-8.919655761935364e-07,-4.462971800591639e-07,6.437765928720254e-08,-1.3190047952587347e-07,3.2717389751021473e-07,1.254298637300488e-06,-1.688048028534088e-07,2.4921003096822583e-07,-4.404846302362632e-07,4.275772351340841e-07,5.015693730142343e-07,5.529006106140948e-07,-5.4319917495132834e-08,4.0397796563924674e-07
-1.4886258335357328e-07,-2.3274441520868245e-08,1.4881517074194912e-07,-3.8821292616424576e-07,-8.234542786858083e-07,-3.9345006418635364e-07,1.4047533286028754e-07,-9.306981211233827e-08,3.6626688888178914e-07,1.2928882858570475e-06,-1.2537446660660415e-07,2.9343818669298375e-07,-4.3140901186362975e-07,5.126637654349479e-07,5.560471743639268e-07,6.188092676233592e-07,-1.0173937154915052e-08,4.416363237830437e-07
-1.1414102086547125e-07,-7.546090682746145e-09,1.680855861861889e-07,-3.6147638470358505e-07,-7.545273650869515e-07,-3.40934748138121e-07,2.1747330721331877e-07,-5.199875211818929e-08,4.0732336982082306e-07,1.3368401431779117e-06,-8.029285613210275e-08,3.371286868978099e-07,-3.9337223740114437e-07,5.993474877891969e-07,6.161241173194331e-07,6.877008987516742e-07,3.592261692249705e-08,4.805074486480305e-07
-6.346627221596889e-08,7.498717018391824e-09,1.9195625397176537e-07,-3.295285159066845e-07,-6.93051411321576e-07,-2.931094269695734e-07,2.917782363275941e-07,-1.3651206304299485e-08,4.474192277818998e-07,1.3810732278284856e-06,-4.56199363569501e-08,3.7352567871954186e-07,-3.411079951714863e-07,6.801359197824063e-07,6.794151621457402e-07,7.579195918776125e-07,8.368822660225017e-08,5.177753885821256e-07
1.0210655360894193e-09,1.983696637593783e-08,2.220063562326962e-07,-2.957799007338832e-07,-6.432550382650647e-07,-2.516092842293282e-07,3.6227014926709044e-07,1.9319151483505618e-08,4.855339169069896e-07,1.4201324416053681e-06,-2.7467719139007905e-08,3.971354825255064e-07,-2.946670438260727e-07,7.540458735505588e-07,7.447465952617054e-07,8.308962263601197e-07,1.3447130177457782e-07,5.51691780502045e-07
7.680806300288603e-08,2.6810766197720597e-08,2.602107570188389e-07,-2.6368854052798184e-07,-6.048756990849563e-07,-2.156709544661147e-07,4.293393237547331e-07,4.569946475059877e-08,5.220990400993743e-07,1.4546078848817162e-06,-3.0708010662186875e-08,4.0404874789833284e-07,-2.7542039734373515e-07,8.190734676596632e-07,8.109790592100973e-07,9.090907383441533e-07,1.897663492025374e-07,5.81596851228098e-07
1.6052325414104407e-07,3.089738665382907e-08,3.0865503177102385e-07,-2.3740916384373745e-07,-5.797919598902108e-07,-1.8353376493590168e-07,4.931067324322774e-07,6.475464865914958e-08,5.579286117548853e-07,1.4755572879803454e-06,-5.9385071773169204e-08,3.9260130914009167e-07,-3.019071612473411e-07,8.767400529263449e-07,8.762465721882318e-07,9.939607221129728e-07,2.50049729701704e-07,6.062836976497287e-07
2.4790667849199567e-07,3.353750391161524e-08,3.598152300472199e-07,-2.2050755527847307e-07,-5.605501565086446e-07,-1.530113079216134e-07,5.530488629137705e-07,7.672336892309266e-08,5.938503151415783e-07,1.4764970519944046e-06,-1.1164743487876559e-07,3.6467485799963063e-07,-3.841122759570098e-07,9.29113833098107e-07,9.384446543996468e-07,1.0850955403585536e-06,3.144076508343207e-07,6.252916385963296e-07
3.3474074782848224e-07,4.0766225888252765e-08,4.1597172554304997e-07,-2.1856393974113783e-07,-5.413976346935638e-07,-1.204309568907947e-07,6.088224678093386e-07,8.376222401995108e-08,6.308882336644018e-07,1.4507069746735162e-06,-1.7641636191772015e-07,3.285575534974705e-07,-5.17009014405798e-07,9.785763210689563e-07,9.96336621787641e-07,1.180080540137063e-06,3.8051266639318443e-07,6.38923622286498e-07
4.180358119914174e-07,5.3777571168454854e-08,4.750764527304076e-07,-2.2874022328525617e-07,-5.183159555943714e-07,-8.165424358058235e-08,6.612564378954925e-07,9.040165992592193e-08,6.704622187086298e-07,1.3980454010192656e-06,-2.4271347568833623e-07,2.942153343283515e-07,-6.776180543118467e-07,1.0307225193510128e-06,1.0508639681690533e-06,1.275443446854949e-06,4.4511888739478775e-07,6.483683120536031e-07
4.964190909245319e-07,6.908885225144623e-08,5.314515737701345e-07,-2.4505052021476147e-07,-4.547617172895383e-07,-3.278792991739287e-08,7.128193788929764e-07,1.0309027604136296e-07,7.142535422359132e-07,1.3285895724478879e-06,-2.954943660505628e-07,2.72909996168746e-07,-8.298551571948379e-07,1.083200818067488e-06,1.1056119926484017e-06,1.3684366834238183e-06,5.049084007321536e-07,6.561518346867729e-07
5.692705549955746e-07,8.681452027719073e-08,5.708644716254842e-07,-2.6029293435348523e-07,-3.6239746597694105e-07,2.815510087796963e-08,7.664635148291561e-07,1.2797553159664831e-07,7.632092842015314e-07,1.256346639121537e-06,-3.175730367680216e-07,2.7079054966654996e-07,-9.36191410043745e-07,1.1405276043030132e-06,1.1650765174247848e-06,1.4577291915695898e-06,5.568144992455141e-07,6.647472858801301e-07
6.352546249666629e-07,1.0212434789280025e-07,5.884602529560135e-07,-2.6550663275157515e-07,-2.6444973180309337e-07,9.87836245067812e-08,8.229992244146744e-07,1.6767341902543246e-07,8.160480946184332e-07,1.1970683305635213e-06,-3.0143501144707943e-07,2.933858356397302e-07,-9.693179845031297e-07,1.2065792965224627e-06,1.2318758227541987e-06,1.542620940825397e-06,5.980686642965153e-07,6.780260840972891e-07
6.914950335868677e-07,1.1480551451480635e-07,5.708172760147908e-07,-2.555651688484336e-07,-1.8504545407682404e-07,1.7257610763664107e-07,8.798863533039567e-07,2.2017154251869098e-07,8.691581653659872e-07,1.1624227915396327e-06,-2.4585994363720654e-07,3.4359842759754997e-07,-9.172229574780246e-07,1.2807631053548695e-06,1.3057540156118344e-06,1.6229209393379348e-06,6.271963401938743e-07,6.955942159290804e-07
7.336963150643095e-07,1.2363329092822823e-07,4.909525995138626e-07,-2.2855184191150457e-07,-8.505482656469386e-08,2.420048644877234e-07,9.333804276183149e-07,2.810665849962487e-07,9.186785878101463e-07,1.1587023376859547e-06,-1.5499723119278836e-07,4.180251761751191e-07,-7.807374652268346e-07,1.3650937048355507e-06,1.3847198421985202e-06,1.7000058521784405e-06,6.456636307662715e-07,7.160281890264084e-07
7.560995479519101e-07,1.2954715868680815e-07,4.56459576770181e-07,-1.8494487967829406e-07,3.3895779667934653e-08,3.0213765329659456e-07,9.816929892674995e-07,3.462139220946049e-07,9.627818805409487e-07,1.1767265048146908e-06,-4.6872067265087884e-08,5.138564081957074e-07,-5.675758980000779e-07,1.4619234384263227e-06,1.466100422963113e-06,1.7767945712907237e-06,6.58377462987286e-07,7.341140724965368e-07
7.508195972306268e-07,1.316048058690766e-07,4.381437115784465e-07,-1.263360276171347e-07,2.287508262200856e-07,3.5140382507187195e-07,1.0260224605449161e-06,4.1230549419847594e-07,1.0019811883289008e-06,1.2175371511985415e-06,7.011931590172613e-08,6.264950973859164e-07,-2.881243176278751e-07,1.5715397759801548e-06,1.5466713174112565e-06,1.8557678401518026e-06,6.723774635864168e-07,7.51085663159532e-07
7.081408091094719e-07,1.4230025767335528e-07,4.28559855789575e-07,-5.493137001233367e-08,5.392492652702623e-07,3.9048829354787753e-07,1.0695891086295206e-06,4.763958372139047e-07,1.037791936768258e-06,1.2784582255333941e-06,1.885492987311552e-07,7.40644316720721e-07,4.380697163170435e-08,1.6900912956918042e-06,1.6228487309144698e-06,1.936808824730956e-06,6.944567119867677e-07,7.691177369874319e-07
6.193915251467545e-07,1.671916341381085e-07,4.362360632840077e-07,2.31526503022569e-08,6.555988472429639e-07,4.205853493153126e-07,1.116171739941248e-06,5.356925261923468e-07,1.0712864235620853e-06,1.3644650346526908e-06,2.967159653717844e-07,8.511837460806302e-07,4.0664769706057256e-07,1.8099506591031215e-06,1.6910396672590174e-06,2.0160409893884546e-06,7.282182384222051e-07,7.880971907012611e-07
4.819943959663578e-07,1.8386548799113634e-07,4.5103943990512593e-07,1.0609148880170479e-07,7.022385266011645e-07,4.4198060064933175e-07,1.1682922668011864e-06,5.873873270194364e-07,1.1023144379148066e-06,1.461304815735663e-06,3.8731532789691397e-07,9.526963299335075e-07,7.690204052908691e-07,1.915972433584104e-06,1.7479583495898878e-06,2.0860402899150433e-06,7.71669556114188e-07,8.078959079393322e-07
3.043895899893435e-07,2.216253174165058e-07,4.106650436325335e-07,1.8221642663330293e-07,7.202701263199635e-07,4.537695282373939e-07,1.2257171538000212e-06,6.291154903811623e-07,1.1299699512208705e-06,1.5594527975423305e-06,4.529040456240023e-07,1.037016060444579e-06,1.0951270322644768e-06,1.9707309541187463e-06,1.7920326585182042e-06,2.138832238521291e-06,8.177526342780143e-07,8.248470312559534e-07
1.0733043165638867e-07,2.7232786381404947e-07,3.388241208465499e-07,2.4657977622193715e-07,7.684977803154424e-07,4.5519543850939595e-07,1.2858534234154419e-06,6.607843237059255e-07,1.1545215991254268e-06,1.6516048341739792e-06,4.938853817297024e-07,1.1040310303278577e-06,1.355955273870116e-06,1.979950629349864e-06,1.8256958618758586e-06,2.171322407833028e-06,8.583083682168259e-07,8.369783843033163e-07
-8.129122095961685e-08,3.1756446209454024e-07,2.47512331334722e-07,2.9911100466819986e-07,9.040114293933835e-07,4.474744122661012e-07,1.3453805493499554e-06,6.85785893676922e-07,1.179119235073088e-06,1.732772250245828e-06,5.212383681753522e-07,1.1588692706773726e-06,1.5388378879233073e-06,1.951979921244243e-06,1.8557253413191112e-06,2.188810134172925e-06,8.884330527935555e-07,8.452910721197053e-07
-2.3675417095727962e-07,3.5276575924142596e-07,1.5627921017820076e-07,3.388632239122141e-07,9.604112255201734e-07,4.319916217271018e-07,1.4009268461230233e-06,7.096036005016039e-07,1.2091211942891428e-06,1.7930009345039857e-06,5.524837008536599e-07,1.2106104789174567e-06,1.6491570977805116e-06,1.8940159937523295e-06,1.8905297765048451e-06,2.2033067709847642e-06,9.084457617027689e-07,8.593454982211194e-07
-3.4697276243050863e-07,3.830705699095575e-07,6.545229845212519e-08,3.7251050042198017e-07,8.68554561788395e-07,4.147466806010399e-07,1.4489945182569625e-06,7.375197057475951e-07,1.2493826541882933e-06,1.8525976481152022e-06,6.004375514152814e-07,1.2498328094680204e-06,1.7040089495051949e-06,1.8241588621068095e-06,1.9368279749688095e-06,2.2284025413518633e-06,9.233781630519986e-07,8.788648710918503e-07
-4.155466113879615e-07,4.093479181200108e-07,-2.085781632196205e-09,4.0327512776734906e-07,7.698775096678189e-07,3.990497248569922e-07,1.4867016471539682e-06,7.734676414855529e-07,1.3014469380694647e-06,1.905544504250825e-06,6.60373433921611e-07,1.2982915505369094e-06,1.7219834586408957e-06,1.7472464196640847e-06,1.9973824150721727e-06,2.2737284875629055e-06,9.403434374343214e-07,9.015617994388062e-07
-4.577005099765223e-07,4.3613599688927837e-07,-3.6272930209468e-08,4.327139914876368e-07,7.205359407648342e-07,3.8641037813803966e-07,1.5125693020760887e-06,8.189789362197325e-07,1.361733491458072e-06,1.9022843108297213e-06,7.20131777645058e-07,1.3527076086204216e-06,1.7137077531621334e-06,1.6798469075815356e-06,2.069190258271564e-06,2.340540269029232e-06,9.6415012163353e-07,9.251998681820664e-07
-4.924345300079656e-07,4.6240479313343896e-07,-4.96875153248202e-08,4.597123825166139e-07,6.81945592719644e-07,3.772090468873631e-07,1.5260553324272352e-06,8.716103358364872e-07,1.4215518851805763e-06,1.8461620118101647e-06,7.744677053627004e-07,1.3955884464664852e-06,1.677326592900924e-06,1.6036571260701654e-06,2.142723556858643e-06,2.420384013486513e-06,9.936651169229618e-07,9.430446558946718e-07
-5.353110149391581e-07,4.7305688018449324e-07,-5.014522121701173e-08,4.823854291481072e-07,6.879815218809325e-07,3.680797107849588e-07,1.5271635114597109e-06,9.249957694101116e-07,1.4699038311856028e-06,1.7434273142533623e-06,7.655437745980746e-07,1.4227931925404746e-06,1.6021579607863494e-06,1.5432008773283934e-06,2.2038695396917544e-06,2.4983270883129845e-06,1.021786467972527e-06,9.499384549526774e-07
-5.951870827576559e-07,4.614210436851686e-07,-4.85309998518046e-08,4.970002116741841e-07,6.733451259496974e-07,3.55476445376921e-07,1.517479754169591e-06,9.713280119264188e-07,1.4979742471955778e-06,1.7144879057270968e-06,6.928515902530993e-07,1.4068693651711665e-06,1.478723061904043e-06,1.467204311436963e-06,2.2377220702369515e-06,2.558557573738501e-06,1.0385445103830543e-06,9.48493159063218e-07
-6.748792983605245e-07,4.288084371960021e-07,-2.7448547015524176e-08,5.005278940003731e-07,6.705035640961787e-07,3.3739282395078543e-07,1.5012407855720235e-06,1.0042200479325132e-06,1.5024207911441207e-06,1.6738532947239658e-06,6.913435343797992e-07,1.3217837743946043e-06,1.3072500344347515e-06,1.4065931649278954e-06,2.231939514298726e-06,2.5888915481092835e-06,1.0347938531299017e-06,9.36652313860766e-07
-7.725393257596945e-07,3.8231207783804286e-07,-1.2068229834398984e-08,4.934446399807634e-07,6.65171413665306e-07,3.1462286314058783e-07,1.4849859352406015e-06,1.0207249314193217e-06,1.486133756711792e-06,1.6292039536839662e-06,6.121809178026899e-07,1.3018654248728564e-06,1.0982929461998606e-06,1.4128612129281782e-06,2.1792363801183446e-06,2.583461955803425e-06,1.005171038344965e-06,9.236697997951635e-07
-8.813415865651358e-07,3.4556758607503375e-07,-1.4944521218708766e-08,4.747380811875628e-07,6.607519222024787e-07,2.8954521426256184e-07,1.4761887805456132e-06,1.0223780796304032e-06,1.4571279772009564e-06,1.5803438890278854e-06,4.841722019972947e-07,1.2948187354210785e-06,8.669250197828607e-07,1.447548619462596e-06,2.079048531929478e-06,2.5437503275238005e-06,9.497125109557686e-07,9.110085405509361e-07
-9.889069233363104e-07,3.2872957164191633e-07,-8.647375438360536e-09,4.42250759272878e-07,6.279136441257316e-07,2.66572555596971e-07,1.4811034529957064e-06,1.0140346277789301e-06,1.4258712440570088e-06,1.5472816372308438e-06,3.69053351769236e-07,1.258950258929471e-06,6.264666036759198e-07,1.5087900651475662e-06,1.9373009872401965e-06,2.4769529958452246e-06,8.73334501057483e-07,8.984660908823122e-07
-1.079382517739333e-06,3.227376593459099e-07,-1.5358539660786437e-08,4.074380649091064e-07,6.404752799700353e-07,2.4920193661791913e-07,1.5019938500046677e-06,1.0006481007414179e-06,1.4013927365399413e-06,1.4693201375623792e-06,2.822123777135932e-07,1.2062090004187382e-06,3.8761485461436495e-07,1.532719953430711e-06,1.7645389590805113e-06,2.3922849841318463e-06,7.837921592464618e-07,8.901315038414966e-07
-1.138298309836322e-06,3.255665076720037e-07,-2.8450566865293027e-08,3.703520131395097e-07,6.622499743175037e-07,2.3778163413363612e-07,1.5356770965997272e-06,9.851913565155607e-07,1.388094709183125e-06,1.4015848567985208e-06,2.176814189909847e-07,1.194743719892111e-06,1.6093474624081206e-07,1.4560989082151512e-06,1.5741596554933124e-06,2.2979982898965576e-06,6.898578446213349e-07,8.861373325236956e-07
-1.1572162276321693e-06,3.4269998984565004e-07,-2.7048836554386485e-08,3.4008067364710884e-07,6.13629713884312e-07,2.3065198025950617e-07,1.5748294260554366e-06,9.69164696004103e-07,1.384924071113707e-06,1.3636064249552871e-06,1.8369270258353988e-07,1.2083784495400737e-06,-4.027915467013238e-08,1.3009369542550957e-06,1.3807493051555659e-06,2.200045652079557e-06,5.999685420338353e-07,8.8823629718276e-07
-1.1355416015705567e-06,3.690615934054857e-07,-1.906038116775193e-08,3.138433502346059e-07,5.708942435926297e-07,2.248094260590139e-07,1.6105074173545752e-06,9.533450860383857e-07,1.3863579236907953e-06,1.3247952859373692e-06,1.8027927489338734e-07,1.2051704715091905e-06,-2.0057951928680495e-07,1.1173193321381988e-06,1.1975480143285747e-06,2.1012546478467933e-06,5.206184523180825e-07,8.951621839205142e-07
-1.0791219148101295e-06,3.6986808662572125e-07,-9.04674761141273e-09,2.8224159616409605e-07,5.278574204315857e-07,2.163494710391968e-07,1.6340283534545337e-06,9.376305002269392e-07,1.3843670669056855e-06,1.2992930591135176e-06,2.0078523056378454e-07,1.2039073060316437e-06,-3.0831154179729604e-07,9.268637521941325e-07,1.034198549011754e-06,2.001508504309331e-06,4.55208690107439e-07,9.050425237259085e-07
-9.968317591805853e-07,3.549361881965479e-07,7.587337376015877e-09,2.49707335960919e-07,4.597785773386871e-07,2.015332404327901e-07,1.6385047925542402e-06,9.215859732982945e-07,1.371368658099947e-06,1.2275176863589532e-06,2.2750385503464677e-07,1.2134996331306529e-06,-3.607901089149181e-07,7.516720261009476e-07,8.962689719707925e-07,1.8997267722070603e-06,4.0429492758403187e-07,9.007002213085975e-07
-8.974484442418459e-07,3.2927809457411535e-07,4.499322088118083e-08,2.1431324875636908e-07,3.865329856380241e-07,1.76307768637039e-07,1.6201390785177466e-06,9.054270226280464e-07,1.3432067829626188e-06,1.1419850795255319e-06,2.4112888048006413e-07,1.199605683974518e-06,-3.668462137222097e-07,5.974350050183614e-07,7.854275800736716e-07,1.7954179452206214e-06,3.662828996383687e-07,8.854075106540885e-07
-7.891637339708142e-07,2.973604328547973e-07,7.559736085737683e-08,1.984724384625799e-07,2.551476129327652e-07,1.3849968282518748e-07,1.5780142828464331e-06,8.894559365098752e-07,1.3002995280834652e-06,1.0494815603806281e-06,2.345250500710369e-07,1.1519171468154734e-06,-3.45191549293226e-07,4.4470918718990185e-07,6.991824424617129e-07,1.687770971901681e-06,3.3771920924235177e-07,8.643357141726213e-07
-6.816244779709006e-07,2.6091639166260547e-07,1.001637108438214e-07,1.8226100521852893e-07,5.491656462888072e-08,8.722143765669674e-08,1.5126390786632114e-06,8.728668224868624e-07,1.2478315397268393e-06,9.442644969580171e-07,2.0477146096353095e-07,1.0806214504715214e-06,-3.218373972637282e-07,2.679875922648544e-07,6.317015429334906e-07,1.5744090524324822e-06,3.1431563779783587e-07,8.378657150785024e-07
-5.878409029562573e-07,2.1714155713008942e-07,1.2136918299873044e-07,1.6186329868197984e-07,-1.5834725247519916e-07,2.3113277391620735e-08,1.4251881012011969e-06,8.542010413409573e-07,1.1919374934371926e-06,8.408689364782177e-07,1.24199250645827e-07,9.978184655158625e-07,-3.2394425010829145e-07,1.0055865961562294e-07,5.7637606652872e-07,1.4520661150613149e-06,2.931334030487559e-07,8.122998703509744e-07
-5.240405520185477e-07,1.8345985541154333e-07,1.1137694037161495e-07,1.4200068965695795e-07,-3.325529491295428e-07,-4.995774561364274e-08,1.3175823927104378e-06,8.324426376305721e-07,1.139519127238314e-06,7.345348705044656e-07,7.952357398191607e-09,9.125009096397701e-07,-3.735402773676914e-07,-4.030257314762649e-08,5.277722960586695e-07,1.3176555268653032e-06,2.7387630430559673e-07,7.833782859833641e-07
-5.076968450820408e-07,1.6012734731558404e-07,5.663139706263002e-08,1.198527934307032e-07,-4.808248216233183e-07,-1.260492921665032e-07,1.1922062995931233e-06,8.068164461988924e-07,1.0934529414184398e-06,6.343516376872169e-07,-1.2041605032140457e-07,8.479516248203504e-07,-4.821911563494427e-07,-1.8023200559496848e-07,4.81705775625242e-07,1.1687120261345098e-06,2.579934671336901e-07,7.519211567165301e-07
-5.53983051728375e-07,1.3567702181183846e-07,3.149668887138836e-08,1.0448880235915166e-07,-6.034548914989316e-07,-1.988967813477409e-07,1.0520544976862975e-06,7.766484761766003e-07,1.0551271576539264e-06,5.480129758577268e-07,-2.6537596834056267e-07,7.9479195844178e-07,-6.461882668209411e-07,-3.306987098342468e-07,4.351717966134612e-07,1.0053193143199886e-06,2.4697144457169514e-07,7.207799497002988e-07
-6.704568398404566e-07,1.1433976722114934e-07,3.9734221530474406e-08,7.954936970383026e-08,-6.770709936098317e-07,-2.629720212477379e-07,9.024254299343951e-07,7.425932780692339e-07,1.0244912533939538e-06,4.701444648602629e-07,-4.3108840598415357e-07,7.417729567567327e-07,-8.431377097989646e-07,-4.900908622915465e-07,3.868879013555396e-07,8.334735796809928e-07,2.411401592803626e-07,6.852930978339848e-07
-8.516946696435283e-07,9.522610703924842e-08,4.57269533115305e-08,5.6397371547600866e-08,-7.137511389092722e-07,-3.135008809072954e-07,7.52034266652875e-07,7.070544728672259e-07,1.0008806949765007e-06,3.9370852959797583e-07,-6.024682796805213e-07,6.957226112278058e-07,-1.0360662942894176e-06,-6.422957903843384e-07,3.3711578033006855e-07,6.657841006511748e-07,2.3898569784718293e-07,6.485021342434332e-07
-1.0774665044057875e-06,7.563598057739803e-08,6.526189385261058e-08,-1.5673673680361444e-10,-6.774861198607523e-07,-3.4783074091978095e-07,6.110631885595866e-07,6.726118586683183e-07,9.852443789095166e-07,3.218105221052943e-07,-7.428364045519923e-07,6.392620145067288e-07,-1.1831982482461609e-06,-7.538992880497715e-07,2.8689883663543604e-07,5.17824011542171e-07,2.3747095773918548e-07,6.126854011702426e-07
-1.3166081818758517e-06,4.9036470808413923e-08,3.057539444324961e-08,-6.940083525136283e-08,-5.595209971411844e-07,-3.659398032976702e-07,4.877938265075445e-07,6.41072412618533e-07,9.787233887223014e-07,2.712041103075277e-07,-8.306415379232005e-07,5.744128759582788e-07,-1.250867982486359e-06,-8.20675521140186e-07,2.3808111687302314e-07,4.0344998507105895e-07,2.3379159057545245e-07,5.783095748420069e-07
-1.5341682301640324e-06,2.11608369717624e-08,-6.031456831768901e-08,-1.3986941776642103e-07,-6.232027135500484e-07,-3.6968231405124813e-07,3.8686505789564744e-07,6.142349587595371e-07,9.837187750436402e-07,2.387271272418391e-07,-8.297992963744435e-07,5.073877380694635e-07,-1.2252615170544845e-06,-8.226575185777838e-07,1.93293331661983e-07,3.3183751212940807e-07,2.2688447333060893e-07,5.475740009253068e-07
-1.7058174720766265e-06,-8.385178079284642e-09,-1.4944298109363092e-07,-2.208254709818463e-07,-7.450067620727085e-07,-3.623479832437783e-07,3.0920649955852744e-07,5.937191599345399e-07,1.0028013814390961e-06,2.2148052814193935e-07,-8.464736766336961e-07,4.4103279489379546e-07,-1.1164775098228788e-06,-8.022845321139605e-07,1.5442819479859436e-07,3.0595113225635197e-07,2.1692353390481056e-07,5.210767283936612e-07
-1.8321140503289835e-06,-3.738825547479368e-08,-2.285571166032154e-07,-2.938277033500517e-07,-8.047472127083866e-07,-3.4861943547810703e-07,2.5255219735933636e-07,5.792481746956391e-07,1.039621862892099e-06,2.210613165690425e-07,-9.68024719154311e-07,3.7754421473907496e-07,-9.525798697356938e-07,-7.701610290834169e-07,1.2099758033996e-07,3.2255657635711313e-07,2.0393656172470204e-07,4.955888154251162e-07
-1.8802814637943854e-06,-5.8289667308841074e-08,-2.880212286268143e-07,-3.6046932186263743e-07,-7.937750611515624e-07,-3.337433591285067e-07,2.1319887046950412e-07,5.683218670667725e-07,1.0920448857118505e-06,2.2672195219750494e-07,-1.0721669739253958e-06,3.188985762144382e-07,-7.711943937574137e-07,-7.049313134365175e-07,9.036398897725281e-08,3.7428732414360706e-07,1.8750473568860605e-07,4.6665962631993005e-07
-1.9094188520783625e-06,-7.106546673604943e-08,-3.220671544095009e-07,-4.091174025286792e-07,-7.663236111320998e-07,-3.2002624331962584e-07,1.8818260462006984e-07,5.578241898173564e-07,1.1579885625902824e-06,2.353617422518049e-07,-1.1704177704146185e-06,2.6421701591719157e-07,-6.090228122942532e-07,-6.092698923574029e-07,5.884605669955489e-08,4.518993057967683e-07,1.6710444508143283e-07,4.422500321303191e-07
-1.9128482184685887e-06,-7.84288958896676e-08,-3.446479881473495e-07,-4.5006589844506457e-07,-7.330218121554053e-07,-3.101021569771502e-07,1.7612147785679948e-07,5.449276934717156e-07,1.2341993810948488e-06,2.3808702688199232e-07,-1.2314333921572447e-06,2.0894967732049865e-07,-4.945532181070687e-07,-5.301498447109033e-07,2.2182406983372055e-08,5.44779228179873e-07,1.419703439317773e-07,4.160101661770866e-07
-1.909334989245992e-06,-7.976932855760695e-08,-3.720136681408769e-07,-4.827555981715408e-07,-6.31406282194799e-07,-3.0299121373958607e-07,1.7547882946810325e-07,5.270218109484214e-07,1.3134906137773655e-06,2.2272086474935984e-07,-1.2721781577161949e-06,1.6625046237513848e-07,-4.459992083936383e-07,-4.950531169184064e-07,-2.3591539637528704e-08,6.411027751991185e-07,1.1128065833695043e-07,3.833464354682741e-07
-1.9051919583354727e-06,-7.092101710789844e-08,-4.0191846470328307e-07,-5.16541389693066e-07,-5.743016472095935e-07,-2.962497691316212e-07,1.8287489284608078e-07,5.026154020986747e-07,1.382536392603227e-06,1.7957862275659408e-07,-1.289589479571559e-06,1.2624833244997455e-07,-4.5717229228397056e-07,-4.889191942289876e-07,-8.009735918035659e-08,7.292305651166059e-07,7.535043167285494e-08,3.4575046045859445e-07
-1.8981795582372294e-06,-5.9565682372780785e-08,-4.332097333952172e-07,-5.582837483180468e-07,-5.218397545221647e-07,-2.8775080068790755e-07,1.9342170224880389e-07,4.724867613184954e-07,1.4389301820823745e-06,1.0713953983488661e-07,-1.2818726044164671e-06,7.969578606329583e-08,-5.066708698428981e-07,-5.007406960867147e-07,-1.4538443651292667e-07,7.988540070918914e-07,3.6326065194416536e-08,3.027630020606559e-07
-1.8791993320962889e-06,-5.08427825249037e-08,-4.6533275382418935e-07,-6.007925140228246e-07,-4.549998625987301e-07,-2.751160920402881e-07,2.0170936513046864e-07,4.390250377721716e-07,1.4759298530020605e-06,9.987198124320878e-09,-1.3022629313490086e-06,2.895309873861873e-08,-5.64654882157576e-07,-4.787058972710696e-07,-2.1476660845032564e-07,8.409097878440017e-07,-2.7087650921922e-09,2.606698083852135e-07
-1.836674844643916e-06,-4.650465569808089e-08,-4.897160260762846e-07,-6.425537764081655e-07,-4.077959226439572e-07,-2.587540130980645e-07,2.0288546891914558e-07,4.048072493663273e-07,1.487309895930976e-06,-1.108434132181105e-07,-1.3327620564778727e-06,-2.5934707965794004e-08,-6.018530268909401e-07,-4.220815797072173e-07,-2.821301097437736e-07,8.482885355560797e-07,-3.892550065268968e-08,2.199871162244957e-07
-1.7614011529381332e-06,-4.4421258843346416e-08,-5.013067308879399e-07,-6.773347743556357e-07,-3.8295141966698787e-07,-2.416383619192265e-07,1.941365467517521e-07,3.722363026533986e-07,1.4802119803927582e-06,-2.3949990640555956e-07,-1.367575354072886e-06,-8.12063982897996e-08,-6.023662538065646e-07,-3.834963413447124e-07,-3.4089696634313076e-07,8.180344723112862e-07,-7.024912118217892e-08,1.8426160069662014e-07
-1.6497546360209027e-06,-4.115401408695149e-08,-5.036597574228281e-07,-7.041879717424095e-07,-3.768695281657088e-07,-2.2826853341325275e-07,1.7565078916099366e-07,3.4308087711325326e-07,1.4440820173848195e-06,-3.56694630243861e-07,-1.4053837582162118e-06,-1.3312820212131488e-07,-5.88192268600632e-07,-3.4390656808894895e-07,-3.8600023540641016e-07,7.523801204535249e-07,-9.600660152817423e-08,1.5599174412258897e-07
-1.5049205574339919e-06,-3.527063370736143e-08,-4.896094742004581e-07,-7.256962437377866e-07,-4.6339224784866986e-07,-2.229149240961097e-07,1.4961325733495757e-07,3.1695664693544075e-07,1.3796045373058424e-06,-4.5411303961799587e-07,-1.4298085028822178e-06,-1.8320385163092402e-07,-5.906312981367053e-07,-2.987951473580099e-07,-4.1656981341104687e-07,6.574146575656649e-07,-1.1779463837161166e-07,1.3396948291371369e-07
-1.3361803170383152e-06,-2.9054164624433605e-08,-4.575040703403818e-07,-7.301744678757095e-07,-6.469479118462183e-07,-2.301028686835575e-07,1.1861500160518658e-07,2.9099032179823007e-07,1.3383234494254149e-06,-5.245638457450611e-07,-1.447334144718195e-06,-2.372010167928596e-07,-6.563114978084077e-07,-2.519662145916808e-07,-4.366837967802818e-07,5.414376878650749e-07,-1.391468117929013e-07,1.1651550629482643e-07
-1.1560362897343588e-06,-2.8646282118425444e-08,-4.15154974717831e-07,-7.289027013723433e-07,-7.380943536082541e-07,-2.526721460610477e-07,8.517180413029743e-08,2.6183362668992976e-07,1.3121701072060831e-06,-5.732689647274103e-07,-1.4759790498545204e-06,-3.0123354530632306e-07,-8.147091002133503e-07,-2.0352322857117602e-07,-4.533933382250147e-07,4.14020237357897e-07,-1.639720319115352e-07,9.97879596404751e-08
-9.765753685518383e-07,-3.1305523753173775e-08,-3.548574443982895e-07,-7.32254128979347e-07,-7.749860961229187e-07,-2.9046127628530975e-07,5.1470327925261514e-08,2.2737012151568395e-07,1.302643855301936e-06,-6.041245933183211e-07,-1.5176344177702336e-06,-3.7956616621799914e-07,-1.0434756325958804e-06,-1.6570678848209292e-07,-4.7384797670441403e-07,2.8492513272561164e-07,-1.9530862576161593e-07,8.060066472900581e-08
-8.079562856007314e-07,-3.430899323407907e-08,-2.9041702815180805e-07,-7.44428954310006e-07,-8.297416922603023e-07,-3.416242287249628e-07,1.846845931726752e-08,1.8650403049862266e-07,1.3179271623202767e-06,-6.206050701663347e-07,-1.5591976148024793e-06,-4.741532817125205e-07,-1.3375582685073608e-06,-1.573831244790103e-07,-5.025139654573792e-07,1.6366707823066054e-07,-2.3456101818130356e-07,5.7098696336709344e-08
-6.59865087198645e-07,-3.7438572589809335e-08,-2.3422884039005102e-07,-7.742547039983429e-07,-9.421811812008784e-07,-4.0300896050116737e-07,-1.4195329567590377e-08,1.391598233071311e-07,1.2630757559987383e-06,-6.211397089694958e-07,-1.5995775683877724e-06,-5.826171675464808e-07,-1.6915487351633834e-06,-1.7571507363421431e-07,-5.38462352327524e-07,6.09498627646222e-08,-2.8032355721757915e-07,3.102783869620441e-08
-5.434717902062207e-07,-4.0637007132339244e-08,-1.8482196455208873e-07,-8.200535596164773e-07,-1.1582712103301016e-06,-4.696871886859722e-07,-4.6720074572063277e-08,8.737234926115704e-08,1.1737417523679618e-06,-6.151289773435054e-07,-1.6285727365246907e-06,-6.961722112534332e-07,-2.0870414546302267e-06,-2.0365219653299342e-07,-5.742559321116641e-07,-1.054980843710552e-08,-3.2768627775381966e-07,4.885788069292305e-09
-4.7103691785987423e-07,-4.5257885494182686e-08,-1.6032736708236004e-07,-8.75411925148748e-07,-1.442863853177098e-06,-5.355869262538715e-07,-7.829659129778637e-08,3.504517351794524e-08,1.071591864634096e-06,-6.125099025563901e-07,-1.6390900778679568e-06,-8.02595547074015e-07,-2.477181740699948e-06,-2.2852690718405335e-07,-5.981269409893516e-07,-3.9640624463402504e-08,-3.6959672825359205e-07,-2.1359536973342327e-08
-4.525968024161267e-07,-5.180081123506226e-08,-1.599481818799303e-07,-9.374470241254701e-07,-1.717106370937364e-06,-5.944543183988728e-07,-1.0860293779335395e-07,-1.4210402279419442e-08,9.576328487435413e-07,-6.151979111077565e-07,-1.6226746089153558e-06,-8.894416424617434e-07,-2.764680502952404e-06,-2.3513536616790202e-07,-5.981197610122484e-07,-2.272825909285591e-08,-3.992748878583312e-07,-4.396699826992664e-08
-4.915962498933301e-07,-5.952974891006408e-08,-1.3636395750674836e-07,-9.981366217838197e-07,-1.9703891022728114e-06,-6.429881364930797e-07,-1.3915559078516992e-07,-5.844633590544915e-08,8.81426934618209e-07,-6.238162289454195e-07,-1.5791005997211192e-06,-9.510459699988389e-07,-2.91173310195556e-06,-2.0732280428273172e-07,-5.655716537519477e-07,3.262102599196457e-08,-4.115503889461389e-07,-6.100770173453746e-08
-5.823881170231551e-07,-6.736548067788586e-08,-1.6141218672691415e-07,-1.0452689422856584e-06,-2.1785176547380243e-06,-6.803566435147275e-07,-1.7234508159297148e-07,-9.697588363297369e-08,8.136399018692745e-07,-6.315333081908215e-07,-1.5080945681406073e-06,-9.801732288207519e-07,-3.0334604234525675e-06,-1.456944096467706e-07,-4.974648602691266e-07,1.0883527790500656e-07,-4.033707687341679e-07,-7.271726714183603e-08
-7.112136232531018e-07,-7.666373316593155e-08,-2.191106869970256e-07,-1.0717425222000932e-06,-2.327527103773633e-06,-7.072795362861715e-07,-2.094235743842119e-07,-1.3002006974235556e-07,7.472129319291894e-07,-6.318713474380127e-07,-1.4211302293724214e-06,-9.821477848855175e-07,-2.99315653430817e-06,-5.577779893967746e-08,-3.9802442558707777e-07,1.829199423849787e-07,-3.7474206403014114e-07,-7.993560431893403e-08
-8.594592856948214e-07,-8.871258757705935e-08,-2.790563294321624e-07,-1.0748758702767545e-06,-2.446877359034517e-06,-7.266037013934728e-07,-2.4897502359741043e-07,-1.5877944870737178e-07,6.780830099995215e-07,-6.218170772391717e-07,-1.3318581388266596e-06,-9.630085634108908e-07,-2.9172659277695334e-06,5.436902689935615e-08,-2.783552253285286e-07,2.3331884307490965e-07,-3.2943308883800165e-07,-8.193745822171558e-08
-1.006918205549413e-06,-1.0437409651215677e-07,-3.3475201427028165e-07,-1.057550269974894e-06,-2.554591816729631e-06,-7.423788923917038e-07,-2.86101158810929e-07,-1.8478891568252304e-07,6.194131151743973e-07,-6.010616321907431e-07,-1.2514941383640953e-06,-9.25777683263082e-07,-2.8016813914680693e-06,1.7092140318965531e-07,-1.533565911113642e-07,2.47058911469166e-07,-2.7435352513793555e-07,-8.267459073618716e-08
-1.134687017688657e-06,-1.2510542780835583e-07,-3.755656850254448e-07,-1.028422481965147e-06,-2.659099760923827e-06,-7.585092996564535e-07,-3.1320364988032656e-07,-2.0922086155655355e-07,5.720574980666754e-07,-5.718713605726339e-07,-1.1914095180371148e-06,-8.854917696239411e-07,-2.6569460077400472e-06,2.8286355556164204e-07,-3.760517781005218e-08,2.2313972601042092e-07,-2.1810046616544406e-07,-8.602614068214701e-08
-1.228640085301617e-06,-1.4931370714611668e-07,-4.0926565381404585e-07,-9.973985170291608e-07,-2.7280099130099186e-06,-7.777845399321704e-07,-3.2316704768835565e-07,-2.3321374863379976e-07,5.299276880067062e-07,-5.374793294029847e-07,-1.1550105645705683e-06,-8.52422707829716e-07,-2.5184981027068534e-06,3.782507475981774e-07,5.801642874687342e-08,1.7055079718112808e-07,-1.6914063969533396e-07,-9.236412693766643e-08
-1.2826305064104028e-06,-1.7606931002668e-07,-4.344073534913887e-07,-9.702241697540164e-07,-2.7886075359173085e-06,-8.017176250867401e-07,-3.1259182896860275e-07,-2.5789468613555645e-07,4.944993499054663e-07,-5.015229516301481e-07,-1.1422181178884806e-06,-8.316291626799884e-07,-2.4331283689358567e-06,4.505310198478833e-07,1.2877574402588362e-07,1.0410604765703933e-07,-1.333826670388184e-07,-1.0257270630722054e-07
-1.2990551475479007e-06,-2.042503852972627e-07,-4.475403468272453e-07,-9.568365645774041e-07,-2.8452087547834793e-06,-8.294721140060005e-07,-2.821777409698715e-07,-2.831247303063405e-07,4.5930419038477064e-07,-4.6698267191711007e-07,-1.145430010117447e-06,-8.235315725903519e-07,-2.3925106836176825e-06,4.973319453558038e-07,1.7709359737651285e-07,4.0945265993568676e-08,-1.1219952099065312e-07,-1.1494355417826488e-07
-1.286322730414005e-06,-2.315393791475137e-07,-4.524444967853741e-07,-9.580511669912292e-07,-2.8822368994701577e-06,-8.578625434158047e-07,-2.3515394263642913e-07,-3.07008270168307e-07,4.302517781464691e-07,-4.34665650016184e-07,-1.1540736281864935e-06,-8.228732906139313e-07,-2.3889472835888677e-06,5.256280618394401e-07,2.1085838559620403e-07,-2.9280035675233466e-09,-1.0275143800209399e-07,-1.2635222357132733e-07
-1.2551320651976482e-06,-2.567286480035682e-07,-4.4307977414227787e-07,-9.644108863262988e-07,-2.9133301820761874e-06,-8.830186029013695e-07,-1.76306382359845e-07,-3.2736333994494856e-07,4.0957640473444345e-07,-4.043438147379365e-07,-1.1559844510818239e-06,-8.217820838257071e-07,-2.4166678759493784e-06,5.46428470055623e-07,2.397900886532174e-07,-1.621068408032991e-08,-1.0019958798444662e-07,-1.345020570810867e-07
-1.215054737707315e-06,-2.7786913746033263e-07,-4.2198804436601573e-07,-9.736278555036539e-07,-2.926718889557465e-06,-9.018732282440949e-07,-1.1138899920225953e-07,-3.428112467704471e-07,3.9866033023004735e-07,-3.783050006949849e-07,-1.145598385931467e-06,-8.159135757550279e-07,-2.433905022026449e-06,5.679325186703516e-07,2.723346647581111e-07,6.079765185090258e-09,-9.961140729156081e-08,-1.3863402255096496e-07
-1.1718368078838155e-06,-2.946505098527212e-07,-3.9249371000060997e-07,-9.802548987561027e-07,-2.9195884040324852e-06,-9.123338242754211e-07,-4.5651593212141834e-08,-3.521027763233617e-07,3.917576096735151e-07,-3.571041777862212e-07,-1.1207658698458516e-06,-8.044674323056945e-07,-2.416079674005544e-06,5.963565149165684e-07,3.139722910553731e-07,6.31878299041986e-08,-9.693264404857047e-08,-1.3722590917102217e-07
-1.1263205540436717e-06,-3.0747185896891337e-07,-3.564195333934268e-07,-9.785986614648737e-07,-2.8979528754238903e-06,-9.130686430592492e-07,1.7260466414304123e-08,-3.538785625221191e-07,3.8943888021294994e-07,-3.3781924798875756e-07,-1.0806009903758131e-06,-7.856678368283814e-07,-2.3569509465513746e-06,6.337289740331851e-07,3.661136145784137e-07,1.493161027104121e-07,-8.989038251500151e-08,-1.2910884956328266e-07
-1.0758274110894072e-06,-3.1716038999348325e-07,-3.1471997719327087e-07,-9.669903358938269e-07,-2.8732684696032594e-06,-9.046394296286998e-07,7.485304364179531e-08,-3.47957924883221e-07,3.933278713963339e-07,-3.191785172969431e-07,-1.0279809429830697e-06,-7.604810288782406e-07,-2.246835813655618e-06,6.782314700457723e-07,4.2575593060275185e-07,2.541247479885623e-07,-7.849230659018785e-08,-1.1456247481956652e-07
-1.0170261735448022e-06,-3.247228693921868e-07,-2.6757587359946695e-07,-9.428293833685718e-07,-2.842817312832066e-06,-8.886886608841854e-07,1.250908465214226e-07,-3.3590220515107896e-07,4.0117427658550426e-07,-3.0078681879476877e-07,-9.691661277985374e-07,-7.311192278627916e-07,-2.092411614642939e-06,7.253096987680486e-07,4.866590390720858e-07,3.6453381971079954e-07,-6.423210359219238e-08,-9.453122836150394e-08
-9.484663546565246e-07,-3.3068218908888096e-07,-2.1499029409993718e-07,-9.069020758336112e-07,-2.808338809133823e-06,-8.681318774018795e-07,1.6698338722911165e-07,-3.199345923443917e-07,4.1267940183118465e-07,-2.8279130030661233e-07,-9.085424470999455e-07,-6.991267827215776e-07,-1.914699262057986e-06,7.687366549213755e-07,5.412064743582899e-07,4.674398429323468e-07,-4.89093891461151e-08,-7.081551394472475e-08
-8.720666615938119e-07,-3.355676701568712e-07,-1.6073134569784926e-07,-8.633637497671464e-07,-2.7751276320243558e-06,-8.460484614327129e-07,2.0106885359266346e-07,-3.022776977645831e-07,4.255568389534239e-07,-2.636908417939888e-07,-8.514571704803108e-07,-6.665923856804061e-07,-1.7289364438421429e-06,8.043362922472765e-07,5.818749362307152e-07,5.519173955413102e-07,-3.434074342063431e-08,-4.584753956059017e-08
-7.932982858314868e-07,-3.3954267167170357e-07,-1.0712110259108767e-07,-8.190810605709047e-07,-2.739143968434512e-06,-8.25620333074735e-07,2.287675280651878e-07,-2.8542253164925747e-07,4.371414980070764e-07,-2.4623821502561496e-07,-8.034132037061012e-07,-6.338685353866101e-07,-1.5564233642868054e-06,8.280173230630288e-07,6.030823059108082e-07,6.115945986962352e-07,-2.2196761122456907e-08,-2.2313729422294463e-08
-7.19472145795729e-07,-3.428310444390299e-07,-5.8082301229308584e-08,-7.794984884740656e-07,-2.7010020798754057e-06,-8.101468008619799e-07,2.521554429228576e-07,-2.715287975827805e-07,4.4555022726094024e-07,-2.3547087537275085e-07,-7.658602800461851e-07,-6.022212031636538e-07,-1.4216492418881395e-06,8.377247968355368e-07,6.03805639403953e-07,6.47725240309991e-07,-1.3042251679397533e-08,-3.3845227810251388e-09
-6.570022794563588e-07,-3.4506745781179695e-07,-1.7215521734291482e-08,-7.485133581886356e-07,-2.6579188763295736e-06,-8.009398654122957e-07,2.7453866008760177e-07,-2.6120458439524033e-07,4.4997603407111527e-07,-2.290371702936814e-07,-7.38821000234801e-07,-5.729232418354973e-07,-1.3384294323918188e-06,8.353931679805103e-07,5.887793438986174e-07,6.701232730305177e-07,-5.827866388183323e-09,1.1792675483405823e-08
-6.1017100788253e-07,-3.4545949987036125e-07,1.5350642909485535e-08,-7.278812655725943e-07,-2.603759619809426e-06,-7.966261122778201e-07,2.999218411167898e-07,-2.5375491200615225e-07,4.5081552169604886e-07,-2.279675643634424e-07,-7.167343169139407e-07,-5.442770014364773e-07,-1.3139034366424802e-06,8.237893303042908e-07,5.66576961187255e-07,6.934981063748228e-07,1.05224232605761e-09,2.398690095790855e-08
-5.820080184902261e-07,-3.4342557176459036e-07,3.936950620730376e-08,-7.16561054521537e-07,-2.5347564391934597e-06,-7.940849316492624e-07,3.311081582117735e-07,-2.48419418780019e-07,4.486572282036552e-07,-2.3251958539107744e-07,-6.948867974740803e-07,-5.16241932371394e-07,-1.3494137585276675e-06,8.04353280723154e-07,5.46243937713484e-07,7.315107057473399e-07,8.517668133146628e-09,3.40924907958087e-08
-5.747792873121146e-07,-3.3851548380359224e-07,5.54565192625348e-08,-7.129592415497748e-07,-2.449254849070138e-06,-7.896323671213161e-07,3.688682824902008e-07,-2.444153589886358e-07,4.4393124423534815e-07,-2.407836158476078e-07,-6.701183613938074e-07,-4.896448179955472e-07,-1.4385351075201789e-06,7.769199050836464e-07,5.346357679061709e-07,7.922815446102356e-07,1.6767158845028998e-08,4.412470596192359e-08
-5.883591216624515e-07,-3.3099855115103675e-07,6.491203474905732e-08,-7.126732522093356e-07,-2.348626691618325e-06,-7.790457324669228e-07,4.128055745650551e-07,-2.402716250660534e-07,4.374013161423158e-07,-2.494530132609912e-07,-6.402331573580411e-07,-4.651506566333642e-07,-1.5612870034926104e-06,7.408233989967339e-07,5.342915418205693e-07,8.758793795311108e-07,2.549443625392004e-08,5.5394068541528076e-08
-6.180399388556873e-07,-3.2131706194720185e-07,7.079582268611449e-08,-7.101441515120933e-07,-2.2370618373087677e-06,-7.589467319160562e-07,4.6188791979668725e-07,-2.3432414194750883e-07,4.301521062541086e-07,-2.5983029563539174e-07,-6.063304249371342e-07,-4.450198158641055e-07,-1.697737492968921e-06,6.940367667761907e-07,5.418258611694637e-07,9.734597568614069e-07,3.347263191767222e-08,6.854491427246722e-08
-6.541044889842757e-07,-3.103890325920389e-07,7.662157445404652e-08,-7.018073173495122e-07,-2.1234312867891057e-06,-7.286918321635544e-07,5.139895792279705e-07,-2.255891395992252e-07,4.23121379435452e-07,-2.736030929466813e-07,-5.701205168230792e-07,-4.3268188415217544e-07,-1.8228178500405994e-06,6.345808692768022e-07,5.4876547403802e-07,1.0696941418081672e-06,3.8697885560557405e-08,8.277709148266817e-08
-6.836427444506467e-07,-2.992607232758584e-07,8.677855770583072e-08,-6.834015886605188e-07,-2.0196751531507823e-06,-6.906190946903067e-07,5.659100696374858e-07,-2.1337985794782953e-07,4.172987840546827e-07,-2.9073212562375855e-07,-5.376626009005959e-07,-4.298111476490362e-07,-1.911179675598732e-06,5.626878293764946e-07,5.452961428109621e-07,1.1485231096872745e-06,3.9682004010662516e-08,9.667356023511663e-08
-6.939613698645673e-07,-2.882706688241138e-07,1.0550194023263327e-07,-6.529748374235668e-07,-1.937667884219109e-06,-6.490957608311224e-07,6.140886150863379e-07,-1.968299057392945e-07,4.1407388884757957e-07,-3.159432704605771e-07,-5.149043579722361e-07,-4.3535770565710216e-07,-1.952852627910415e-06,4.808692499306775e-07,5.240311682488214e-07,1.1982478941188435e-06,3.6206656885811886e-08,1.0824115709319687e-07
-6.767537241824972e-07,-2.777523908819564e-07,1.351220077992298e-07,-6.113183346481057e-07,-1.8870579132681463e-06,-6.095608521368446e-07,6.547551870717759e-07,-1.7580390148307818e-07,4.145764721395453e-07,-3.4748576407373685e-07,-5.069789242689857e-07,-4.473190962053108e-07,-1.94540720325496e-06,3.918815991303106e-07,4.815916777881196e-07,1.2129672285998655e-06,2.8659360595264422e-08,1.1606536318356664e-07
-6.313195282864093e-07,-2.682289972518848e-07,1.7436738568340342e-07,-5.609180811772828e-07,-1.8729897355774548e-06,-5.775142590336287e-07,6.838028283293175e-07,-1.5157588904278827e-07,4.1883372976467e-07,-3.8169597828731686e-07,-5.171146640670572e-07,-4.625078687303914e-07,-1.9008868472245846e-06,2.9708210065808907e-07,4.1908806952676197e-07,1.191991785468524e-06,1.7512152944685867e-08,1.1931311246737953e-07
-5.64697323330928e-07,-2.6058357061212165e-07,2.1848105468759985e-07,-5.044093995704982e-07,-1.8952183935323073e-06,-5.570355869734329e-07,6.97799587874502e-07,-1.2574529164216087e-07,4.2620692875669707e-07,-4.149495038667481e-07,-5.458916345650768e-07,-4.7612714571372424e-07,-1.841596144848543e-06,1.9797896419753095e-07,3.4242386288028714e-07,1.1392021447457051e-06,3.736555893344794e-09,1.1813448998650953e-07
-4.885297194856471e-07,-2.559158717720487e-07,2.60777473261526e-07,-4.468999731478945e-07,-1.947859238152524e-06,-5.4894396239936e-07,6.954056328645695e-07,-9.916524111315307e-08,4.363522636503176e-07,-4.416636896463226e-07,-5.878879883939971e-07,-4.82298343061178e-07,-1.7883571581556778e-06,9.781752797931828e-08,2.6099716117445125e-07,1.0614201242852725e-06,-1.1264913835434569e-08,1.1411446774553431e-07
-4.1498019771375856e-07,-2.55045409944459e-07,2.9572497590029136e-07,-3.9320902884226297e-07,-2.024699814378907e-06,-5.512471900905195e-07,6.774990584308063e-07,-7.243117688587162e-08,4.4915120679446164e-07,-4.5732150269989095e-07,-6.352557226484009e-07,-4.760141076842308e-07,-1.7525578746736367e-06,6.719781702699482e-10,1.8450458591122767e-07,9.657376652122119e-07,-2.6583049822227177e-08,1.0905078558741992e-07
-3.5385796548504415e-07,-2.5790496551224996e-07,3.189500723388346e-07,-3.4673313376848654e-07,-2.1130699472648813e-06,-5.602706498515123e-07,6.465593836993572e-07,-4.6144186650401706e-08,4.6417643583345946e-07,-4.5835218314859457e-07,-6.811483662082483e-07,-4.533044674820087e-07,-1.7322943568389037e-06,-8.943696315456623e-08,1.2032953444889884e-07,8.584637266328825e-07,-4.1826253506431296e-08,1.0435013576318157e-07
-3.1116240813736507e-07,-2.632709987518246e-07,3.282812065233008e-07,-3.110267346207503e-07,-2.199535422178097e-06,-5.705430540725059e-07,6.066654559312443e-07,-1.9760329823878774e-08,4.809203899699371e-07,-4.4247707249429174e-07,-7.180482240132139e-07,-4.14606757203261e-07,-1.7137201714073816e-06,-1.6775917950711503e-07,7.291355344665009e-08,7.463128452017341e-07,-5.5834623152572186e-08,1.00385229180443e-07
-2.8861423237706957e-07,-2.6891314491632714e-07,3.2553747297091975e-07,-2.8722531203076095e-07,-2.271566925004676e-06,-5.752676839847423e-07,5.631735307474319e-07,8.176563597810044e-09,4.990574799790345e-07,-4.098427060816293e-07,-7.402620851914743e-07,-3.63699992785502e-07,-1.676908723137639e-06,-2.2877941467944494e-07,4.373924072764777e-08,6.368409564818378e-07,-6.595409627405342e-08,9.863809028692056e-08
-2.8408936325539967e-07,-2.719884111620081e-07,3.1367953294449143e-07,-2.7423200375354137e-07,-2.3179097372546273e-06,-5.687668277646133e-07,5.207389802721509e-07,3.880419168773943e-08,5.177533801684756e-07,-3.625194445132027e-07,-7.469092727312953e-07,-3.039090656480379e-07,-1.606087802002645e-06,-2.681262048122169e-07,3.112776399729487e-08,5.367908491108569e-07,-6.866172223017319e-08,1.0001853011714935e-07
-2.924312764252487e-07,-2.7037269271859647e-07,2.964190493817268e-07,-2.6971663185129587e-07,-2.3344847567671124e-06,-5.492601912792977e-07,4.812707235846466e-07,7.061397094862657e-08,5.350606509215861e-07,-3.0488600875695856e-07,-7.415621738012825e-07,-2.412359147377168e-07,-1.4954375900491422e-06,-2.841890385002607e-07,3.077002398618726e-08,4.5043880371900085e-07,-6.046573478270465e-08,1.0363427357560973e-07
-3.0601589166263494e-07,-2.6271848134015314e-07,2.7755234319247645e-07,-2.706403248826484e-07,-2.3241548131639534e-06,-5.192726803789054e-07,4.4402504193221275e-07,1.0065456297995596e-07,5.484904027211846e-07,-2.4324973473881215e-07,-7.318325982882754e-07,-1.8269521381980268e-07,-1.3518791596531734e-06,-2.7826000504577866e-07,3.710890890374964e-08,3.7917233500619914e-07,-3.8738878039439596e-08,1.0756088515838288e-07
-3.1564741540796907e-07,-2.49150126481208e-07,2.6002035329602815e-07,-2.735964155841652e-07,-2.2948268270065718e-06,-4.843485295741218e-07,4.072804455721745e-07,1.2534715214916307e-07,5.559729430331921e-07,-1.8544030163293323e-07,-7.289112226261036e-07,-1.3463890591309177e-07,-1.1946303711874646e-06,-2.5425131420498943e-07,4.478733303447713e-08,3.21619468207732e-07,-2.8302038955105236e-09,1.0878210425967886e-07
-3.057775772504214e-07,-2.3135758412153753e-07,2.45568909782505e-07,-2.766567029055864e-07,-2.2558959990134554e-06,-4.512376036694112e-07,3.699844694539313e-07,1.4227744536202656e-07,5.564340189024162e-07,-1.3801401140149636e-07,-7.435855509233225e-07,-1.0275400595356853e-07,-1.0479458382266391e-06,-2.1824237223442765e-07,5.0213872287461794e-08,2.745449686540414e-07,4.5359787108502484e-08,1.0407175381547362e-07
-2.8091422430817797e-07,-2.1162131282948526e-07,2.3422392103098052e-07,-2.819059616551887e-07,-2.216992738143272e-06,-4.257776004958164e-07,3.3299420340278515e-07,1.5202113742572612e-07,5.502726370911234e-07,-1.0659867226684811e-07,-7.842162914978822e-07,-9.033783061834661e-08,-9.372974729242519e-07,-1.7760760559516903e-07,5.306720890663868e-08,2.345185467123225e-07,1.0196480476270087e-07,9.15016689277485e-08
-2.4887186506854886e-07,-1.924806063585895e-07,2.2492791919623653e-07,-2.9184575509155925e-07,-2.183686753589672e-06,-4.1113707907290667e-07,2.99397862760523e-07,1.5731688932485177e-07,5.393372137359758e-07,-9.472139130012538e-08,-8.547891007711164e-07,-9.731270458585407e-08,-8.832183907945231e-07,-1.4053712500602125e-07,5.631893824173836e-08,1.987402758636964e-07,1.6180694581792453e-07,7.121368251520262e-08
-2.2585987594981829e-07,-1.7530465631741182e-07,2.1308956580369654e-07,-3.1125665808383783e-07,-2.1562062704619954e-06,-4.077927616705198e-07,2.7318913244652856e-07,1.613784844825043e-07,5.257145935953665e-07,-1.0429038481657828e-07,-9.56463004220505e-07,-1.2287241227082418e-07,-8.913843190605114e-07,-1.1549789798399217e-07,6.449702360943293e-08,1.6443084164274944e-07,2.1854403478327081e-07,4.4258182851358106e-08
-2.955367881800414e-07,-1.6028315342556492e-07,1.929622415864391e-07,-3.467678579774075e-07,-2.131032971325359e-06,-4.1489758737299876e-07,2.5745453886203683e-07,1.6580585630366192e-07,5.104372872302274e-07,-1.372658676047251e-07,-1.0891555997234575e-06,-1.6855900366052667e-07,-9.499241934485836e-07,-1.0840723904015859e-07,8.191830726727233e-08,1.2889932727369116e-07,2.6539361786567727e-07,1.2186847292993173e-08
-5.259899577664457e-07,-1.4694017657515683e-07,1.5923602531392433e-07,-4.0364471736084323e-07,-2.1028280557431937e-06,-4.3122989628585474e-07,2.538851991996957e-07,1.7089449755926809e-07,4.936594000599057e-07,-1.9221893955529545e-07,-1.250887382396554e-06,-2.3684781568391512e-07,-1.0278969183703037e-06,-1.1822825990322385e-07,1.1170598504371477e-07,9.112962937363748e-08,2.9668895132491315e-07,-2.3135570489613556e-08
-6.875883990616585e-07,-1.3482611416993848e-07,1.0974653178336527e-07,-4.856286402652619e-07,-2.066491157991206e-06,-4.5557373596774916e-07,2.627724573648438e-07,1.7657133816509602e-07,4.758178332184678e-07,-2.620202124449151e-07,-1.4351702998855943e-06,-3.277133438499648e-07,-1.083748389763246e-06,-1.3523215422243843e-07,1.548011769725932e-07,5.2947048426804966e-08,3.0922022138625763e-07,-6.018569591263e-08
-8.444578628986392e-07,-1.2399901341667583e-07,4.808970119870679e-08,-5.878505656112685e-07,-2.0198002130203736e-06,-4.86984261257395e-07,2.8258229546521585e-07,1.8279200012688322e-07,4.585231243550051e-07,-3.334204890353521e-07,-1.6347007928487403e-06,-4.382109631126902e-07,-1.081779952642639e-06,-1.4395477326133276e-07,2.0912676430038582e-07,1.8675906522950496e-08,3.0313726893000627e-07,-9.81845638511786e-08
-1.1921204376270167e-06,-1.1480054760469344e-07,-1.5881240263322366e-08,-7.016487378259531e-07,-1.9641437694393893e-06,-5.241459098845012e-07,3.0998365351731186e-07,1.8956619603261976e-07,4.448189121109831e-07,-3.9077041698846476e-07,-1.8306908483083394e-06,-5.587291728878254e-07,-1.0078255863141569e-06,-1.2916477117972162e-07,2.698795324989645e-07,-6.327988884681694e-09,2.8247352406797634e-07,-1.3695358626517976e-07
-1.4437780727880978e-06,-1.0740331343567158e-07,-7.027635443635085e-08,-8.111997990969539e-07,-1.9049983062822688e-06,-5.640760538334778e-07,3.4068875450567824e-07,1.9693447267791586e-07,4.382794770197643e-07,-4.19742608208068e-07,-2.002266293375144e-06,-6.739009738388848e-07,-8.750636492747219e-07,-8.266897190208271e-08,3.306245404901448e-07,-1.8311633211115714e-08,2.5420788267947876e-07,-1.7624922204394986e-07
-1.5715137845065114e-06,-1.0126375350536094e-07,-1.0508175673755121e-07,-8.783633096320019e-07,-1.849183488466033e-06,-6.022762071031958e-07,3.702582040436145e-07,2.0432476755635347e-07,4.405901966255606e-07,-4.136792403840146e-07,-2.135488948416309e-06,-7.866204535275096e-07,-7.177280239366938e-07,-7.99816866342788e-09,3.8457303663491336e-07,-1.808569306584926e-08,2.256132268639156e-07,-2.1503802937925384e-07
-1.6274575701982838e-06,-9.545916416590868e-08,-1.1655703648983587e-07,-9.199755205641019e-07,-1.8034697537681912e-06,-6.346177161217205e-07,3.9377971899816057e-07,2.0986942184503647e-07,4.4945594054251464e-07,-3.7768624680012657e-07,-2.21286489650597e-06,-8.688088751108022e-07,-5.764118033338549e-07,8.089029867037562e-08,4.2654133670277867e-07,-1.1562752152552972e-08,2.019220006204853e-07,-2.5203105711550997e-07
-1.6308175751619968e-06,-8.917444082827781e-08,-1.0864861114051795e-07,-9.740785238538004e-07,-1.7739116066549996e-06,-6.588114180030002e-07,4.062252646159838e-07,2.111835031083908e-07,4.5921555788253907e-07,-3.231634763946914e-07,-2.254142385695001e-06,-8.903336913997985e-07,-4.831316685646243e-07,1.665602280619831e-07,4.5512504892318736e-07,-7.0880641187457714e-09,1.8592165759582642e-07,-2.8524440695639504e-07
-1.6558165790380894e-06,-8.192928329188197e-08,-8.977902083133588e-08,-9.996307100450092e-07,-1.7639458846584046e-06,-6.746530035148525e-07,4.037471468469017e-07,2.0699287992523658e-07,4.635647131926435e-07,-2.622951118931351e-07,-2.269131013656989e-06,-8.781900791953187e-07,-4.536405190210364e-07,2.350426156567083e-07,4.730007200182257e-07,-1.2303303933005298e-08,1.7867584664334167e-07,-3.123024791845825e-07
-1.5051739390485714e-06,-7.38125185419952e-08,-6.95637515790961e-08,-9.988769313877663e-07,-1.7744398535021145e-06,-6.839055091957564e-07,3.844834891847943e-07,1.9705789477164366e-07,4.5794379262832684e-07,-2.0418332045131307e-07,-2.2602308695939688e-06,-8.621135519922166e-07,-4.850787430036882e-07,2.7914236472753867e-07,4.850745354316142e-07,-3.249777459864676e-08,1.8011464825032864e-07,-3.314727428592108e-07
-1.333476735981806e-06,-6.518748257157138e-08,-5.561934120553181e-08,-9.768771945264807e-07,-1.80393094392657e-06,-6.895566097290133e-07,3.488871866825474e-07,1.8220018714367528e-07,4.4076388950335294e-07,-1.536452268844817e-07,-2.240008768527816e-06,-8.436071819262953e-07,-5.573367143814742e-07,2.99532847717693e-07,4.966171316633916e-07,-6.966626761674351e-08,1.8941402557102106e-07,-3.4195968496713665e-07
-1.262058449729002e-06,-5.644590370380554e-08,-5.190490559645531e-08,-9.652634166449084e-07,-1.8485729788954845e-06,-6.941075215325566e-07,3.000030381121168e-07,1.6454365489867124e-07,4.1381965036312624e-07,-1.0966536292851835e-07,-2.21137964775399e-06,-8.08816382561893e-07,-6.386404486269126e-07,3.040809726578911e-07,5.120563385307527e-07,-1.220781444104156e-07,2.0519912530361987e-07,-3.4398786049785104e-07
-1.175820788514021e-06,-4.786001535781514e-08,-5.807291104506312e-08,-9.59900291168441e-07,-1.9023319670514225e-06,-6.986749122298727e-07,2.4282818675383666e-07,1.4660901472072142e-07,3.813834052197189e-07,-6.886701135485407e-08,-2.1775867874715896e-06,-7.674317574485525e-07,-6.96498599575204e-07,3.034674061682923e-07,5.333481517792111e-07,-1.8547722196418027e-07,2.253221147731315e-07,-3.390601421326997e-07
-1.145479610122177e-06,-3.923060617794561e-08,-7.16284710680151e-08,-9.575288392854034e-07,-1.9593771828887847e-06,-7.039498356307486e-07,1.8215576052753975e-07,1.2940389299750117e-07,3.4789878011011614e-07,-2.9102845243924537e-08,-2.1440566290288957e-06,-7.283495333861823e-07,-7.101850412218132e-07,3.051310850601447e-07,5.587648507729176e-07,-2.5517585357579095e-07,2.4672470441279425e-07,-3.300566748496384e-07
-1.1415409991289525e-06,-3.111973024892193e-08,-8.944810155642676e-08,-9.587451252318502e-07,-2.0159512098280893e-06,-7.111217737390356e-07,1.211657059723745e-07,1.114714942668533e-07,3.1606913821940366e-07,1.0073778251961097e-08,-2.118400948967605e-06,-6.957360146384104e-07,-6.768336870294877e-07,3.1084948875090636e-07,5.839784381737883e-07,-3.26797632389728e-07,2.660290550383199e-07,-3.20212053755532e-07
-1.1264234520269573e-06,-2.453843302056093e-08,-1.1093105902961638e-07,-9.639765457475777e-07,-2.0700310969637624e-06,-7.214745829255147e-07,6.205789383392278e-08,9.023213653244704e-08,2.866608147334636e-07,4.6364781672378874e-08,-2.100947284059125e-06,-6.743193272243381e-07,-6.086064564597183e-07,3.1853566443988527e-07,6.044566023916837e-07,-3.956350251646311e-07,2.801310620326238e-07,-3.121505269608085e-07
-1.1289383259515703e-06,-2.054511183273422e-08,-1.3450332941601054e-07,-9.720543701254653e-07,-2.120599213679306e-06,-7.361845345021743e-07,6.659233180910864e-09,6.308584734226918e-08,2.590828205924295e-07,7.5932032743834e-08,-2.0946769134276793e-06,-6.6816156563568e-07,-5.231568461966336e-07,3.244815006249202e-07,6.168506060763209e-07,-4.5632171944298604e-07,2.859752160907783e-07,-3.07607000904105e-07
-1.1227960638968765e-06,-2.030308628831399e-08,-1.5995639067188434e-07,-9.851806732149846e-07,-2.168077032656874e-06,-7.569850482403889e-07,-4.446123953682265e-08,2.7675715792215146e-08,2.318133494626329e-07,9.45724739899309e-08,-2.1018486833397174e-06,-6.801656931800301e-07,-4.381185562953269e-07,3.250864540490403e-07,6.195070258127401e-07,-5.033574688382613e-07,2.80581834544369e-07,-3.0740460072962303e-07
-1.117772406397785e-06,-2.393828154564912e-08,-1.876372279822977e-07,-1.0042786294241057e-06,-2.2143927190935843e-06,-7.857988365994043e-07,-9.270839127695111e-08,-1.7093377376403215e-08,2.0321145719971787e-07,9.912329703938348e-08,-2.1074155068807136e-06,-7.102826442926311e-07,-3.671411471875577e-07,3.191132216974713e-07,6.130792454675403e-07,-5.309534037253547e-07,2.6240226334851316e-07,-3.110420219857413e-07
-1.1227289684412763e-06,-3.10793947712817e-08,-2.1640148722915232e-07,-1.0208721877788684e-06,-2.2620682465715763e-06,-8.23063339483312e-07,-1.407340384497997e-07,-6.968212602473734e-08,1.7254865123575203e-07,8.919535855631568e-08,-2.1060202441301635e-06,-7.541301262639454e-07,-3.189799636893928e-07,3.083038789749228e-07,6.001830253028902e-07,-5.340592509499732e-07,2.325035057356659e-07,-3.1641863657624456e-07
-1.1334095524444225e-06,-4.1251981532369434e-08,-2.4439515526270594e-07,-1.032144680889607e-06,-2.3140999002747144e-06,-8.673146670342467e-07,-1.919147600380511e-07,-1.2652929569663838e-07,1.397797778765884e-07,6.746479137779066e-08,-2.0892804259548705e-06,-8.037406022677777e-07,-2.992911156613615e-07,2.942578418459259e-07,5.832807561205583e-07,-5.118330104817733e-07,1.9378648902557093e-07,-3.207153550586736e-07
-1.1438489395001396e-06,-5.40822041038878e-08,-2.624938635689848e-07,-1.0327672371480863e-06,-2.374759207374402e-06,-9.166925744968157e-07,-2.5081654905061784e-07,-1.855158750307068e-07,1.041108654446049e-07,3.889822855777587e-08,-2.045736405521445e-06,-8.495447338185911e-07,-3.111872622813006e-07,2.7516819750912235e-07,5.628650491902683e-07,-4.706879841231078e-07,1.4937218125317126e-07,-3.2170331067973554e-07
-1.1446144140990624e-06,-6.92325721008516e-08,-2.74283609473432e-07,-1.0161481735107647e-06,-2.4492942190928686e-06,-9.696381354565723e-07,-3.2230109881795355e-07,-2.428740788608946e-07,6.341373764102645e-08,1.0247693317787133e-08,-1.994996681733673e-06,-8.816609695369843e-07,-3.453038262621259e-07,2.469879672250842e-07,5.380252513999358e-07,-4.236451366045743e-07,1.0219852269726311e-07,-3.178983856067975e-07
-1.1269357949024037e-06,-8.518670784669017e-08,-2.8290363971708585e-07,-9.805305628601786e-07,-2.5412920971833193e-06,-1.023613625144683e-06,-4.0895067987026197e-07,-2.9914906172144666e-07,1.517375565866538e-08,-1.0687279873191893e-08,-1.902546419862476e-06,-8.912354185959122e-07,-3.8715538090137514e-07,2.0706278225917002e-07,5.080583587062995e-07,-3.8659728457273247e-07,5.5371517173416175e-08,-3.0799134228645986e-07
-1.086763675505981e-06,-9.925443346485644e-08,-2.9195770551819614e-07,-9.241318407563439e-07,-2.650576329881023e-06,-1.074255604130352e-06,-5.098313245096439e-07,-3.542896652230261e-07,-4.266107392873633e-08,-1.6437410175273333e-08,-1.7693099014693723e-06,-8.731793017288489e-07,-4.141573777770111e-07,1.5524385163375807e-07,4.727510349409124e-07,-3.747160886080189e-07,1.1783839498762295e-08,-2.9086003096034383e-07
-1.0285457212006563e-06,-1.0761144558627495e-07,-3.094676636703065e-07,-8.539131150087304e-07,-2.773260202660033e-06,-1.1164281792211995e-06,-6.219591722553765e-07,-4.1196316745007513e-07,-1.1158777669004888e-07,-1.9574707235921424e-09,-1.6193570532902795e-06,-8.285999589388651e-07,-3.982852438091562e-07,9.230681083134617e-08,4.317285989437073e-07,-3.993073325550674e-07,-2.652307070951537e-08,-2.661246345963049e-07
-9.666381721722043e-07,-1.0493936475382215e-07,-3.4009819020440994e-07,-7.716566149393933e-07,-2.9024287723745005e-06,-1.1455217764286898e-06,-7.417057196549366e-07,-4.695661798533572e-07,-1.9386409113464058e-07,3.410924370864031e-08,-1.4566193499719703e-06,-7.644671093008147e-07,-3.204328049236828e-07,1.889730400930511e-08,3.8450198560568016e-07,-4.639179632183403e-07,-5.818233255579734e-08,-2.3449656503782738e-07
-9.222990476574721e-07,-8.278865232604823e-08,-3.8677790884145434e-07,-6.816716238293375e-07,-3.028713952161486e-06,-1.1580787982925744e-06,-8.638977119692947e-07,-5.202511134558895e-07,-2.8566813638853243e-07,8.866887741191433e-08,-1.2998057978754556e-06,-6.913574110985449e-07,-1.7826980722671717e-07,-6.43410017768819e-08,3.308405044080302e-07,-5.611992449310618e-07,-8.239134664990392e-08,-1.978605149386306e-07
-9.168275127021714e-07,-4.0716997602347e-08,-4.462711899116649e-07,-5.899055197445144e-07,-3.141545823571578e-06,-1.1530884966109452e-06,-9.80574125212665e-07,-5.604948440349175e-07,-3.782001623853881e-07,1.5481291308840954e-07,-1.160267528970128e-06,-6.21487501805884e-07,1.1997680290074483e-08,-1.5685960865180567e-07,2.704728218195878e-07,-6.739480403925614e-07,-9.986445395803008e-08,-1.5953703119144063e-07
-9.636570289783484e-07,1.1259715867791867e-08,-5.204762733506775e-07,-5.003902846925048e-07,-3.2327410042323925e-06,-1.1336688034731239e-06,-1.0817269324729993e-06,-5.869003937909886e-07,-4.6063761982567635e-07,2.2367480946706743e-07,-1.0410554635988332e-06,-5.666378181202763e-07,2.2012295291158443e-07,-2.582290327962942e-07,2.0298606361202125e-07,-7.806363195153686e-07,-1.1339992929759227e-07,-1.2390268993526546e-07
-1.062444489775832e-06,7.783262937578908e-08,-5.973174117496514e-07,-4.160139283380795e-07,-3.2979898323343052e-06,-1.1064134794788616e-06,-1.15728327491073e-06,-6.006898905838268e-07,-4.897337500356927e-07,2.8485877119882305e-07,-9.384022586255677e-07,-5.361261437744922e-07,4.110980516664219e-07,-3.6723091495476185e-07,1.2863499183219908e-07,-8.624906029127536e-07,-1.2655831275741115e-07,-9.487427603385946e-08
-1.1975365124752438e-06,1.4449896237704845e-07,-6.481457831830692e-07,-3.3408149204828326e-07,-3.337307957970918e-06,-1.0780700054831955e-06,-1.1989822282640723e-06,-6.038606755542482e-07,-4.938197386957699e-07,3.30244538706831e-07,-8.590597331572911e-07,-5.317470955046119e-07,5.561307069366331e-07,-4.815502345937989e-07,4.84094479402242e-08,-9.09871763528652e-07,-1.418631608165599e-07,-7.447691736400953e-08
-1.3420630041769849e-06,1.8119894981631303e-07,-6.705671046589356e-07,-2.727814838437264e-07,-3.3540558535746005e-06,-1.0527321913244902e-06,-1.2024936455306147e-06,-5.9801722406617e-07,-4.96902463326676e-07,3.549962396488839e-07,-7.988902466595996e-07,-5.49738584437687e-07,6.306034655180068e-07,-5.994560612743664e-07,-3.7617955710397145e-08,-9.259661727791714e-07,-1.6041513484035254e-07,-6.281485764006217e-08
