0,1,2,3,4,5,6,7,8,9,10,11,12,13,14,15,16,17
-3.570294985288527e-07,-2.9535749077254346e-07,-1.7535023745954712e-07,-1.0188120792444236e-07,-2.2196880012543368e-07,2.396558260201583e-07,6.75464498170759e-07,-1.8244462896616862e-06,3.3556030763724957e-06,1.5240927159909865e-08,-3.0121868697758263e-07,-7.627026310452864e-07,-8.242674788152804e-07,-2.9484907265545044e-07,-4.002795494048828e-07,-1.95687745944005e-06,-1.0825878079271224e-06,-8.120263722688071e-07
-3.5958574606929564e-07,-2.798405333930806e-07,-1.1649945970939569e-07,-4.762822619760151e-08,-1.5770045207471692e-07,2.621354307825387e-07,6.616457894913556e-07,-1.4871174206266915e-06,2.8339977929440067e-06,1.1654040651158874e-08,-2.442831000995734e-07,-6.95388928515485e-07,-6.365623817832552e-07,-4.496219102978416e-07,-3.389005261920047e-07,-1.6840079362936577e-06,-8.761707416787608e-07,-8.183020723298219e-07
-3.2922554279652174e-07,-2.577546290562828e-07,-5.249713772629358e-08,6.222626508141989e-09,-1.0315522111956495e-07,2.5154631283620767e-07,6.160219678058654e-07,-1.1411203086109945e-06,2.250666350483029e-06,9.925024140850183e-09,-1.736084309247142e-07,-6.068755898590942e-07,-5.126660626394272e-07,-5.731438782911602e-07,-2.611316542948936e-07,-1.3639411865962615e-06,-7.584226263598618e-07,-8.893943092126685e-07
-2.58525074081118e-07,-2.208570349447939e-07,1.305234163175457e-08,5.876212644126464e-08,-5.962206451481426e-08,2.1269762988511234e-07,5.348027466478048e-07,-8.357749495364966e-07,1.6004629973141938e-06,9.044589578497355e-09,-8.604163845676263e-08,-4.95707884834968e-07,-4.1107859319260473e-07,-6.044463976953594e-07,-1.63574295297003e-07,-1.0242536979258605e-06,-6.795987316163546e-07,-9.769235724958513e-07
-1.9438117149820518e-07,-1.5858490071671107e-07,7.438652025851718e-08,1.0666890333845897e-07,-2.4685585485932707e-08,1.5352748886731893e-07,3.9902782792894347e-07,-6.224455952811494e-07,8.865031169253652e-07,7.72572298622346e-09,1.7596963519773027e-08,-3.6272919587724276e-07,-3.151561448779719e-07,-4.717367848910697e-07,-4.691879481189227e-08,-6.822588574171534e-07,-5.305067701849405e-07,-1.021196086498323e-06
-1.3016834434940218e-07,-6.73815440612714e-08,1.2399148969321241e-07,1.438014737527593e-07,6.133385848066764e-09,8.456266922939241e-08,2.7390078104233175e-07,-5.065328837196125e-07,1.457185716108382e-07,5.250887870250768e-09,1.1449220229873307e-07,-2.1269127900830358e-07,-2.0000336586220497e-07,-3.43418827106525e-07,7.835600414014793e-08,-3.5042342968936267e-07,-3.25528077825844e-07,-9.743540925730865e-07
-6.119431834510098e-08,4.862359718697749e-08,1.5423693780298667e-07,1.623529013912611e-07,3.539020708196691e-08,1.7688208864220258e-08,2.1937202941077184e-07,-4.4509292592099295e-07,-5.424755245577482e-07,1.5204064606263834e-09,1.7520773419026692e-07,-5.438070398904559e-08,-3.556121678466914e-08,-2.551173064969271e-07,1.6327121851750916e-07,-4.240217018303688e-08,-1.2158058703745171e-07,-8.164630145475543e-07
2.0022719805970252e-08,1.5585710149085775e-07,1.60391902433348e-07,1.5589593706820541e-07,6.16512540756632e-08,-3.572539999806962e-08,2.2933367992321626e-07,-3.6019283662071444e-07,-1.0764194294258723e-06,-3.278538379314434e-09,1.719402522221101e-07,1.0093118222614005e-07,7.258477822767843e-08,7.329775308268315e-09,2.1295822684513215e-07,2.279292288254119e-07,6.583400219688176e-08,-5.567835803925299e-07
1.0306642099704827e-07,2.0712581474679717e-07,1.4283857319653193e-07,1.2296520526951126e-07,8.092402437348112e-08,-6.901006256306327e-08,1.3743069590966385e-07,-1.5950112671083383e-07,-1.3786641968339126e-06,-8.76158076486201e-09,1.5974585600327197e-07,2.4113592789918344e-07,1.02426665489258e-07,2.7346106019324183e-07,1.9504305431515258e-07,4.5171110595988886e-07,2.4201195919663726e-07,-2.230539274604167e-07
1.606154666952592e-07,2.058604109901106e-07,1.063565793897203e-07,6.848617079766472e-08,8.948596047827011e-08,-8.345227941253996e-08,-6.934332276485509e-08,1.8416836699115168e-07,-1.4431021399375647e-06,-1.4225619336779167e-08,1.530193835234732e-07,3.543933637881623e-07,1.2220771283496738e-07,3.4578097663735567e-07,1.3957171953182924e-07,6.276044013904287e-07,3.651110591489354e-07,1.500961549565745e-07
1.9823999792293154e-07,1.8252153858396886e-07,5.7351241046348845e-08,2.3486052706997456e-09,8.604114847342924e-08,-8.863415857260249e-08,-3.1081043411276756e-07,6.244752932238883e-07,-1.3433776104629454e-06,-1.826809690308471e-08,1.6131705168801581e-07,4.3087598959460565e-07,2.2549672515595463e-07,3.765516840625965e-07,1.6199654475301447e-07,7.609140607074906e-07,4.465959474136423e-07,5.270257052123115e-07
2.2868841912164272e-07,1.703723680884318e-07,1.8109866890613995e-09,-6.351003204104057e-08,7.270267843717237e-08,-9.899223071431554e-08,-4.906725171395934e-07,1.062519551424747e-06,-1.1934924352318067e-06,-1.8934671170092555e-08,1.2674479666857726e-07,4.656546795835045e-07,3.298960359879566e-07,4.030724866304424e-07,1.9213083087811872e-07,8.617890741455706e-07,5.117507537586463e-07,8.73561177217145e-07
2.404139631875674e-07,1.6169034989628448e-07,-5.489660654202236e-08,-1.1821374888302241e-07,5.449990038613683e-08,-1.2631196083806455e-07,-5.8455211251682e-07,1.3866846786442303e-06,-1.0870400426992068e-06,-1.459235462688865e-08,6.005093036764702e-08,4.6114594401896367e-07,4.0638139693884115e-07,4.915629680771035e-07,1.3532179879062742e-07,9.423691435401807e-07,5.713147221123092e-07,1.1613480665138566e-06
2.489905681856392e-07,1.2527923881534027e-07,-1.072447815398704e-07,-1.5456292250160668e-07,3.722193751403888e-08,-1.7432596633755208e-07,-7.068385357664659e-07,1.518315448002808e-06,-1.0503758398082226e-06,-5.225483158026464e-09,-3.884263705657225e-08,4.2721221620755464e-07,5.086058991850442e-07,4.6385627748137954e-07,2.7596885820930236e-08,1.0123003845786933e-06,6.415591519358491e-07,1.3712525924730026e-06
2.559174818583125e-07,5.1859948502656045e-08,-1.4978371539899755e-07,-1.7084866923358862e-07,2.4810617779125717e-08,-2.3801460650077321e-07,-7.840428111688833e-07,1.4349372424917367e-06,-1.0314465856372569e-06,6.620017680642693e-09,-1.1858560048145766e-07,3.7856056993858876e-07,5.715693642036272e-07,3.4822307068873593e-07,-5.422839208376496e-08,1.0773676337531894e-06,7.256005546063193e-07,1.4914379712481066e-06
2.3415465789412504e-07,-2.941423535674191e-08,-1.781446337653543e-07,-1.7085914305666497e-07,1.8271008873109883e-08,-3.073469015479687e-07,-8.007402828613275e-07,1.171123755910612e-06,-9.265581010553944e-07,1.630472781088873e-08,-1.7753507648520498e-07,3.305663398727231e-07,5.961266659320868e-07,2.824958783552096e-07,-4.1213071508021886e-08,1.1421797046445316e-06,8.04617192261114e-07,1.5137753601580604e-06
1.7121413474045182e-07,-5.8279348567221364e-08,-1.8989948770455459e-07,-1.615155909583959e-07,1.9417635978211982e-08,-3.724114928436897e-07,-8.036530534639953e-07,8.017382555066158e-07,-6.370771505290982e-07,1.9309422482991845e-08,-2.013827903363781e-07,2.9500892245212866e-07,6.094327277752232e-07,2.2587688938458218e-07,-3.162238813420278e-08,1.2114833385821457e-06,8.61998118777541e-07,1.434632200504321e-06
1.0829436902686444e-07,-1.0182585927143506e-07,-1.8478061282747873e-07,-1.4959944114979905e-07,2.6420425285060416e-08,-4.28153779035041e-07,-8.177238148483225e-07,4.2732457867592734e-07,-1.3853415934305084e-07,1.3882914164821016e-08,-1.9798449503239504e-07,2.768934019369493e-07,5.49088362073738e-07,1.6778996442922084e-07,-4.755689953896485e-08,1.2870541452768545e-06,8.885141991128297e-07,1.2620353841707555e-06
5.2611975988323956e-08,-1.2072403916187834e-07,-1.646149477994468e-07,-1.4026240970799941e-07,3.632467364089891e-08,-4.7484412557130484e-07,-8.567673814574321e-07,1.3786634123808293e-07,4.7061753497155766e-07,2.526169929083265e-09,-1.846704166876331e-07,2.7340987141228e-07,4.9714902427159e-07,1.682701423844945e-07,1.8585855299121912e-08,1.3640424939524573e-06,8.849556098515587e-07,1.0233946996056893e-06
9.788227233033174e-09,-1.3397110439136528e-07,-1.339603229995551e-07,-1.3742181122073612e-07,5.189192559616944e-08,-5.157225265815566e-07,-9.257523440270319e-07,-1.765182389052184e-08,9.773314149284175e-07,-9.048081465109886e-09,-1.693580484016833e-07,2.759162581203239e-07,4.6868126955004126e-07,2.0276930984276807e-07,1.4281225906026802e-07,1.4327504699922725e-06,8.655666878931443e-07,7.668913978805931e-07
1.7265422935315974e-09,-8.416608817396028e-08,-1.003229002890245e-07,-1.4374469093859814e-07,7.50482780933384e-08,-5.543892995615572e-07,-1.0153079613980892e-06,-1.7366964576380564e-08,1.1377706923952822e-06,-1.4518722212089662e-08,-1.6255136788189364e-07,2.745579509933517e-07,4.4379015687219413e-07,2.655721323863609e-07,2.6091429490355925e-07,1.4852362255826977e-06,8.598202348255142e-07,5.528517020167687e-07
2.01514357389549e-08,-1.4473228834998468e-08,-7.238559233807298e-08,-1.5904540119739862e-07,1.0997218449903698e-07,-5.913714362913923e-07,-1.1312026797373684e-06,9.366950677389925e-08,7.96896477932391e-07,-9.411500540508153e-09,-1.6215592577092752e-07,2.63201448266593e-07,4.181115613546896e-07,3.5104432743741827e-07,3.149069881793393e-07,1.5205742395106342e-06,8.798692092889289e-07,4.369408515038051e-07
5.8633977502677145e-08,3.302470257747056e-08,-5.6421237086101414e-08,-1.7859114258467519e-07,1.579339984052881e-07,-6.226185731271568e-07,-1.2707180700472103e-06,2.496406839995027e-07,-3.6045073374602944e-08,7.82672818455506e-09,-1.633462396883181e-07,2.4175158366915786e-07,4.1696332712017094e-07,4.3759030111218874e-07,3.1896473431633707e-07,1.5446873310001977e-06,9.243237727191702e-07,4.5318926365544836e-07
1.1189641706932638e-07,8.18867523016913e-08,-5.398532393171226e-08,-1.9403979508840137e-07,2.1669758697685536e-07,-6.402575889325755e-07,-1.383310100340477e-06,3.872034104623279e-07,-1.1988542884841196e-06,3.612141195122151e-08,-1.632930588742063e-07,2.1448466201100997e-07,4.343651357378564e-07,5.203217705747145e-07,2.9561820659078806e-07,1.5651737231974753e-06,9.790132709433062e-07,6.033917088256172e-07
1.7427886929977398e-07,1.1305477056425652e-07,-6.323036543656911e-08,-1.9775661027168394e-07,2.551272115638543e-07,-6.361303371751623e-07,-1.394527146610751e-06,4.190389512258038e-07,-2.4460111644276566e-06,7.295840330942883e-08,-1.6164994780219067e-07,1.8683013020554655e-07,4.4140642209381803e-07,5.858532733873036e-07,2.575711578086926e-07,1.5773133911571063e-06,1.0127514880977491e-06,8.550328876906095e-07
2.443753951821632e-07,1.232352976566384e-07,-8.20466172024741e-08,-1.8759538609140285e-07,2.411971889100473e-07,-6.066850652707986e-07,-1.3398824054982528e-06,3.082752175291515e-07,-3.5221680958569105e-06,1.1588143324936696e-07,-1.6252294669509273e-07,1.576928697529941e-07,4.41138320399455e-07,6.109609719696312e-07,2.17103224104149e-07,1.5708018760500839e-06,9.917684097402954e-07,1.1493536944009713e-06
2.8733445530913376e-07,1.1737939594636565e-07,-1.0966458179733087e-07,-1.6877475776030222e-07,1.662770946938206e-07,-5.557111752789021e-07,-1.2391014012778904e-06,4.793707403812031e-08,-4.217065853574999e-06,1.6312293140075864e-07,-1.728264589339633e-07,1.2277212704207156e-07,3.9123300339218253e-07,5.768540331839543e-07,1.7735982956534818e-07,1.5275468784457003e-06,9.621311261295936e-07,1.418586609448469e-06
2.9128004473238836e-07,8.772920595918734e-08,-1.4583322994617706e-07,-1.5167618272804693e-07,1.0730204570578048e-07,-4.944092521201643e-07,-1.1871879835996413e-06,-3.3464398093374416e-07,-4.403881321861912e-06,2.130294743062559e-07,-1.9849032096787805e-07,7.599844195272646e-08,3.0674820253533393e-07,4.803595674594118e-07,1.33114323459205e-07,1.4140048953031042e-06,9.204843371854847e-07,1.6044005548959181e-06
2.808720071232001e-07,4.15699653496642e-08,-1.8928678601455225e-07,-1.4717676766289092e-07,1.0572704049190204e-07,-4.3713312147848874e-07,-1.132022401770346e-06,-7.703391858814905e-07,-4.0551782011675395e-06,2.630719475610763e-07,-2.4100781544621423e-07,1.2316870697645686e-08,1.7450108902786136e-07,3.410250988176403e-07,7.467363494553962e-08,1.210335439910548e-06,8.981118026457188e-07,1.6684211304984393e-06
2.702668877009784e-07,-1.704618327357659e-08,-2.3674331304888893e-07,-1.6162600706109545e-07,7.321222123978027e-08,-3.981629542073003e-07,-1.0130126597414958e-06,-1.182310888485857e-06,-3.231977454646108e-06,3.097774097685193e-07,-2.9610185099437194e-07,-6.927392058938047e-08,1.1912884801367459e-07,1.9732353751681473e-07,-6.618513681619213e-09,9.152144605263169e-07,6.878213283128955e-07,1.5949827522634451e-06
2.103339368874472e-07,-8.25535801596373e-08,-2.8233626096435486e-07,-1.931939810098274e-07,-3.075631389017669e-08,-3.8568219430983964e-07,-8.661267431864478e-07,-1.528005233044652e-06,-2.0650464361027527e-06,3.4998457745380467e-07,-3.547197149731102e-07,-1.6100343692184517e-07,-4.626900092695673e-09,9.198382427003226e-08,-1.1627884099230239e-07,5.581324683047955e-07,4.705237116154282e-07,1.3910918611782032e-06
1.4326448736435355e-07,-1.4533778685684817e-07,-3.180169263342367e-07,-2.3138976235516112e-07,-1.46393925832111e-07,-3.983880958378388e-07,-7.908953072627931e-07,-1.81644829132322e-06,-7.436535105090959e-07,3.8204905701296424e-07,-4.0575684872636924e-07,-2.4805528195693864e-07,-1.4999625876998463e-07,5.398501638804136e-08,-2.422625974420111e-07,1.8537468038828753e-07,3.761567662708878e-07,1.084949003757496e-06
1.0520268266773561e-07,-1.9643663317484678e-07,-3.355344336057717e-07,-2.607343758074629e-07,-2.2150564404570045e-07,-4.2661622699650103e-07,-7.336057071359535e-07,-2.0757585167455444e-06,5.089207773967196e-07,4.0660254342726376e-07,-4.3919390812223765e-07,-3.2812091683206576e-07,-2.0435192353511962e-07,8.868944885856164e-08,-3.672556791513207e-07,-1.0783036661713633e-07,3.7255587029733604e-07,7.220972545873551e-07
9.292916722283676e-08,-2.2959276861856613e-07,-3.292965481251949e-07,-2.674219936239321e-07,-2.3818375994077192e-07,-4.553959620466849e-07,-5.851482122364319e-07,-2.325964508057703e-06,1.4901511533115638e-06,4.251607738270345e-07,-4.48469546017316e-07,-3.552924059943887e-07,-2.3728903763163546e-07,1.8123958374512824e-07,-4.714424348413538e-07,-1.9445080326600715e-07,4.1954787682701956e-07,3.58801780294295e-07
1.0259721257303444e-07,-2.4290997182481527e-07,-2.982331354579854e-07,-2.4549688790997184e-07,-2.957797890524187e-07,-4.703840601478046e-07,-5.402861686612474e-07,-2.5470591877222184e-06,2.0813903900180293e-06,4.3900000279843497e-07,-4.316326857804857e-07,-3.1474440728533747e-07,-2.4382533002628627e-07,3.085256436869734e-07,-5.004280920929745e-07,-2.3030446511812122e-07,5.058847958566035e-07,5.2754279271834264e-08
1.2428433203674775e-07,-2.3891708968792194e-07,-2.458242106150302e-07,-1.9865996068865345e-07,-3.1714273443947977e-07,-4.622113260429275e-07,-5.629266221977278e-07,-2.693717615220772e-06,2.282525089492663e-06,4.4935184504897545e-07,-3.902565603159043e-07,-3.12561470675613e-07,-3.0551710085083196e-07,4.514656158202116e-07,-4.5755254469791664e-07,-3.435396579476927e-07,5.192663164759141e-07,-1.4862446769712322e-07
1.5346636573311904e-07,-2.2306351926671225e-07,-1.7909049945300615e-07,-1.3728433576315813e-07,-2.616004652692406e-07,-4.2875563359251847e-07,-5.604824888186645e-07,-2.7572151989379877e-06,2.2045347783823036e-06,4.56674952227749e-07,-3.269587313859694e-07,-2.42181399306078e-07,-3.3426479975227846e-07,6.021867312217826e-07,-4.7248512490730846e-07,-4.883261450340212e-07,5.59580124342573e-07,-2.1962419649376545e-07
1.8651066942092475e-07,-2.015612226462019e-07,-1.0726295509461388e-07,-7.380008440435026e-08,-1.5302039008585062e-07,-3.753078112837751e-07,-5.324574085246507e-07,-2.7525459048835875e-06,2.0207277549067383e-06,4.6070834930847933e-07,-2.49786345011459e-07,-1.4127386133605892e-07,-2.570491182323278e-07,7.627707849789653e-07,-3.8733376608772457e-07,-5.100086374166272e-07,6.712005357260423e-07,-1.6202965135055642e-07
2.1625118396697906e-07,-1.7959662490747397e-07,-3.995513065646775e-08,-1.891725596234521e-08,-6.17343998006592e-08,-3.1352581727405105e-07,-4.877430988479384e-07,-2.7276094971115652e-06,1.8899567441013288e-06,4.60513849772053e-07,-1.6839858434669127e-07,-2.035058631989761e-08,-1.5597679957859368e-07,9.357825322409292e-07,-2.393761279602113e-07,-3.207226102994524e-07,8.123443343012264e-07,-6.51184594432902e-10
2.3895959589602526e-07,-1.6039391543799847e-07,1.532687519985876e-08,2.1031222049817915e-08,1.6906930926214267e-08,-2.5885003037032044e-07,-4.348484337509192e-07,-2.7258320852750655e-06,1.891593306163756e-06,4.5545048868113857e-07,-9.124518274387277e-08,7.920346457261295e-08,-6.141939584935499e-08,1.1134202583565683e-06,-9.977777906894255e-08,-1.1177338836872907e-07,9.242141135285679e-07,2.2982775921149175e-07
2.5083522742756083e-07,-1.4514332793887433e-07,5.526623486885068e-08,4.5365815360245516e-08,8.357068474082835e-08,-2.2343325951142166e-07,-3.8580020368796103e-07,-2.7216952906121158e-06,2.014524508190304e-06,4.4678853504074565e-07,-2.575342849170842e-08,1.4193499261034473e-07,4.432575027242492e-08,1.2745406281178393e-06,1.4260413340061744e-08,1.6690955254453098e-07,1.0252246659272586e-06,4.958720381320221e-07
2.5243192383151184e-07,-1.3367517937415579e-07,8.090629888146843e-08,5.82038799700877e-08,1.261444559195405e-07,-2.134270264180765e-07,-3.429602003099947e-07,-2.665576022031695e-06,2.1993431461883648e-06,4.3797084879228053e-07,2.695427719084612e-08,1.936700823008318e-07,1.6266024773721475e-07,1.3914332288407522e-06,1.084428902764204e-07,4.998905013952154e-07,1.1247088764402115e-06,7.641227359138143e-07
2.4812015112338294e-07,-1.2554712103055507e-07,9.543950957573317e-08,6.552215788726162e-08,1.4203788867320896e-07,-2.2803957399387993e-07,-3.0503299624235157e-07,-2.485985282729848e-06,2.3862081530649212e-06,4.329037177384368e-07,6.791974165064587e-08,2.3052263694508385e-07,2.498950337507894e-07,1.4397655388542578e-06,1.7831271687337543e-07,7.487905858429892e-07,1.1709164477897686e-06,9.95012419386608e-07
2.4227752368193864e-07,-1.2083942476354662e-07,1.0113262348168262e-07,7.197104155745734e-08,1.3501997970923342e-07,-2.600891653419852e-07,-2.687768784983817e-07,-2.132387774914001e-06,2.5296354827244796e-06,4.3358465719922586e-07,9.786293508386326e-08,2.476622483559679e-07,3.2685331530014787e-07,1.4060962503189728e-06,2.3104007514720995e-07,9.276370797845748e-07,1.1966944775137247e-06,1.1461858630596478e-06
2.375986203992558e-07,-1.2006334272890693e-07,9.809555073627311e-08,7.964273187140889e-08,1.1438728686302383e-07,-2.987407793160376e-07,-2.3041989040364619e-07,-1.6281347889277386e-06,2.5826056106193766e-06,4.393297933194307e-07,1.175718185653335e-07,2.523872818416496e-07,3.9801133692154917e-07,1.2929210760358555e-06,2.7709262855601006e-07,1.0302292461624365e-06,1.2022606960100471e-06,1.187391645096646e-06
2.3509123835027418e-07,-1.2338762206393272e-07,8.57716826047434e-08,8.908542163742024e-08,9.283614339576038e-08,-3.3159709240402e-07,-1.872885215728844e-07,-1.0726021314451644e-06,2.478449141282087e-06,4.4820978819049034e-07,1.2709253629880612e-07,2.4203007457148705e-07,4.531805806328664e-07,1.1216834193461748e-06,3.269638120936861e-07,1.0506166786150807e-06,1.177454005477644e-06,1.1147656071653842e-06
2.3499617385780124e-07,-1.3004597676997899e-07,6.534988173158829e-08,1.010257118880176e-07,8.195875010096568e-08,-3.4810114732630756e-07,-1.382961431453768e-07,-5.962140666032742e-07,2.1419619962681543e-06,4.567020937259969e-07,1.2895229600465383e-07,2.2195244804073528e-07,4.987901946922359e-07,9.302742004353822e-07,3.907110884774424e-07,1.0200979550785067e-06,1.1361315725444154e-06,9.546457035541396e-07
2.3774959728551674e-07,-1.385364553532781e-07,4.0675906377896566e-08,1.1704402257943915e-07,8.693731613454633e-08,-3.4258614217123203e-07,-8.471759805543954e-08,-2.9813848101325764e-07,1.5370978775734677e-06,4.6128960593509623e-07,1.2614641605107553e-07,1.9776315084962268e-07,5.204787610129621e-07,7.626686922615091e-07,4.6925472223032655e-07,9.476984975998234e-07,1.0728349344439672e-06,7.552414487676211e-07
2.4257253694468613e-07,-1.4734156855084397e-07,1.7346314722977457e-08,1.3881605389897332e-07,1.0443665069038625e-07,-3.163246184928719e-07,-2.9261361416874345e-08,-2.134888947711497e-07,7.17504775032543e-07,4.5959197119189034e-07,1.2368567872488774e-07,1.7713487936932787e-07,5.132456709569092e-07,6.544309173669629e-07,5.54845166146392e-07,8.603840222345052e-07,9.930499440400219e-07,5.708034727821998e-07
2.476290406558727e-07,-1.5539699524127485e-07,1.060380408977166e-09,1.6674581387115392e-07,1.2586116795937396e-07,-2.7605211537935274e-07,2.5152370790640913e-08,-3.0037957360173097e-07,-1.6464968913462892e-07,4.533569436599817e-07,1.24565143291508e-07,1.6263152036701628e-07,4.869984514152889e-07,6.208771824332668e-07,6.357282400944856e-07,7.904010249370556e-07,9.111382882736806e-07,4.4498831248694477e-07
2.515952040482261e-07,-1.6206829544285564e-07,-4.148144049184541e-09,1.9898509682160818e-07,1.432805275397592e-07,-2.3066238473963705e-07,7.573142902166451e-08,-4.745386519175694e-07,-9.048596545461793e-07,4.4517677032502073e-07,1.3175574605213666e-07,1.5795335096693505e-07,4.4396737064035777e-07,6.526610164972593e-07,7.007798145118948e-07,7.564192214489273e-07,8.364376509067695e-07,3.9632160519800543e-07
2.5269607707097675e-07,-1.6715531983769508e-07,2.573959581425296e-09,2.3107700981200967e-07,1.5275889855800934e-07,-1.8886923356799673e-07,1.1951986457590684e-07,-6.477370413949202e-07,-1.3252123212455715e-06,4.3886115979750235e-07,1.4867481297135426e-07,1.6633282572617777e-07,3.962993625056177e-07,7.202099020635691e-07,7.446648155956827e-07,7.596752033476474e-07,7.739646918451244e-07,4.095844939960657e-07
2.4865823538818716e-07,-1.7112481946977688e-07,1.813735458214654e-08,2.568109413061438e-07,1.5277299079679606e-07,-1.5804862604968087e-07,1.54399180101434e-07,-7.494530364478149e-07,-1.348058411268686e-06,4.3681318675900507e-07,1.6547654649330848e-07,1.8659463620189635e-07,3.61062591969603e-07,7.857533535484404e-07,7.695617385740803e-07,7.820458822427974e-07,7.292670703983127e-07,4.4313268579337693e-07
2.37022346022839e-07,-1.7487771234591883e-07,3.650065904365512e-08,2.7084118777221307e-07,1.4072701327340946e-07,-1.419283670489026e-07,1.782819974644274e-07,-7.558863892597116e-07,-1.0264414165116593e-06,4.3551800485077735e-07,1.8818651233429843e-07,2.1506324684975414e-07,3.5595911662627275e-07,8.201268009116677e-07,7.792679620013243e-07,7.990113810307403e-07,6.989892084981172e-07,4.5581098777498314e-07
2.1601980081545367e-07,-1.7851893520966619e-07,5.122662782913134e-08,2.7164482905258826e-07,1.1223818186112098e-07,-1.4188029230817917e-07,1.9191837578614173e-07,-6.861918212619624e-07,-5.160899889092963e-07,4.350638025024854e-07,2.186886937920571e-07,2.4694128374230305e-07,4.0390162370547026e-07,8.177549578614639e-07,7.788495891599887e-07,7.804148768758257e-07,6.623073434275675e-07,4.2054095449461594e-07
1.8648881284872702e-07,-1.7985941814247582e-07,5.7917448338099725e-08,2.6245722944030646e-07,6.435349663484182e-08,-1.5331810783685793e-07,1.9133321531136759e-07,-5.900255707917463e-07,-8.808991728055659e-09,4.416749552333752e-07,2.5553264475012864e-07,2.8453323097405315e-07,5.027008366326125e-07,7.994249901914418e-07,7.74604278615942e-07,7.093502644416334e-07,6.122857032548866e-07,3.3010689908403346e-07
1.529596704716499e-07,-1.7421762506495342e-07,5.497066488718654e-08,2.4936726224657085e-07,-2.9825233800832027e-10,-1.6558746609304668e-07,1.8109420930109328e-07,-5.317064895286993e-07,3.4186109121198954e-07,4.891889452656741e-07,2.857286711831049e-07,3.078663719562037e-07,6.323549013180034e-07,7.989932243464429e-07,7.727794489948208e-07,5.826918128586776e-07,5.32152842162472e-07,1.8888907525096472e-07
1.229704799301436e-07,-1.5645100461879062e-07,4.243271358785062e-08,2.3764227455681822e-07,-7.204203495006468e-08,-1.6460806250460638e-07,1.6826534918867286e-07,-5.492789744721315e-07,4.798723208497086e-07,5.828621709314824e-07,2.7245463861847786e-07,3.1738884234513664e-07,7.281223920913551e-07,8.435953001071613e-07,7.729159245949211e-07,3.9756943639846007e-07,3.879274245845407e-07,2.7142121959353256e-09
1.0187641860960507e-07,-1.2435945354852902e-07,2.01920759588124e-08,2.282039216967238e-07,-1.3651299683828088e-07,-1.3631887959243645e-07,1.4960322553339487e-07,-6.447863012088487e-07,4.635519313392597e-07,6.799925285340072e-07,1.9880922265899725e-07,2.730307231980132e-07,7.307504285802321e-07,9.401711722019942e-07,7.691992803699979e-07,1.5534924704976704e-07,2.984154653986667e-07,-2.0859440412405203e-07
8.991775541279339e-08,-8.111785835282246e-08,-1.2510413648167386e-08,2.1685606577137963e-07,-1.7942160930132007e-07,-7.277686441767401e-08,1.264024026645965e-07,-7.917933415294737e-07,4.202866601081527e-07,7.565204602865264e-07,1.1841648689793537e-07,1.9663033618902486e-07,6.765549962115625e-07,1.0726903738841214e-06,7.50401546611232e-07,-9.110287479762457e-08,2.2040322307121798e-07,-4.140937040925801e-07
8.561930314328217e-08,-3.4750144214043277e-08,-5.531889762542303e-08,1.9731191185608702e-07,-1.9178185764856397e-07,1.470735255021866e-08,9.243807939671159e-08,-9.56749668966178e-07,4.6925456918529e-07,7.923734952843491e-07,6.402189797312223e-08,7.847547064253789e-08,5.803316407686461e-07,1.208527906131117e-06,7.121408450781142e-07,-3.217890039950969e-07,1.7162954513489307e-07,-5.808814049867517e-07
7.801131810105017e-08,4.300813229332202e-09,-1.0460578427954366e-07,1.6575924846427111e-07,-1.739633145695565e-07,1.1312517543973004e-07,4.6028229356479656e-08,-1.1184194489967172e-06,6.731514460425925e-07,7.937887272024653e-07,3.823033028265169e-08,-7.399171561780822e-09,5.653281182720506e-07,1.3121958723122036e-06,6.844051902505614e-07,-5.12895379071108e-07,3.850536700129058e-08,-6.856279945579995e-07
5.7962550344547125e-08,2.9429093372657133e-08,-1.5236529552537058e-07,1.2317286490083216e-07,-1.3659462042804456e-07,2.0292750620531627e-07,-2.2008328511505257e-08,-1.2649336854245105e-06,1.0365261754555417e-06,7.550678563953943e-07,2.8936529187047905e-08,-7.070694801490664e-08,4.676171613466535e-07,1.361923663800892e-06,6.640911608395668e-07,-5.177547009331828e-07,-4.033996404636312e-08,-7.195781094493788e-07
1.3753072142537143e-08,3.995293068403048e-08,-1.9138081126938008e-07,7.457758364160013e-08,-9.6858815979414e-08,2.680400888350386e-07,-7.9875396660839e-08,-1.3805915350325668e-06,1.5171634875719953e-06,7.336464419664265e-07,-2.1279853311958726e-08,-3.045792224206926e-08,3.112219558267265e-07,1.3597873218885132e-06,6.561972910502548e-07,-2.95718180100134e-07,-4.8697580882634075e-08,-6.804609679414484e-07
-5.23018211779787e-08,3.882288353222267e-08,-2.2225102036649693e-07,2.7633942634598714e-08,-7.136687578128411e-08,3.069095870636413e-07,-9.32532037672821e-08,-1.4432164959862966e-06,2.033721869343526e-06,7.263306516864148e-07,-9.252437469711994e-08,1.1538379765987093e-08,2.2975739002278013e-07,1.3277645427758453e-06,6.69219630665947e-07,-1.4797760399480586e-07,4.9058410928962255e-08,-5.649395904899088e-07
-1.250873435272131e-07,3.21133046693373e-08,-2.0868436572844695e-07,-8.619409691360429e-09,-6.962346642390202e-08,3.281018815959738e-07,-7.046101515691848e-09,-1.4392622159115514e-06,2.4921709113174502e-06,7.122518429216152e-07,-8.56961919661507e-08,7.957998732509451e-08,2.0508973370384889e-07,1.2905802618785397e-06,6.923768408842511e-07,-2.4894900724655632e-08,1.2923217017015858e-07,-3.7516813530677294e-07
-1.929190788220635e-07,2.4975798660588402e-08,-1.8327325439863612e-07,-2.659758029268153e-08,-9.187805271071679e-08,3.4800036375095817e-07,1.0180645608653444e-07,-1.3671386814774344e-06,2.8326361671611194e-06,6.913208192626582e-07,-4.556941047648606e-08,1.351480601666372e-07,2.0099326219800843e-07,1.2573195065064237e-06,7.29611109568805e-07,2.816476912609038e-08,2.399164934497762e-07,-1.3026874752850056e-07
-2.0448791804478604e-07,1.814653783174334e-08,-1.323095513088925e-07,-2.3978261405435025e-08,-1.3164918639322653e-07,3.8012694652554973e-07,1.3774065237075262e-07,-1.226548193222305e-06,3.050963411465886e-06,6.728649733612257e-07,1.3299314621545517e-08,1.5733777958163354e-07,1.6510243120744646e-07,1.217201450875175e-06,8.316906488250269e-07,1.3049715944140033e-07,3.897395384649693e-07,1.192550299015701e-07
-2.0884510163722144e-07,6.557634244657599e-09,-7.028302711034584e-08,-5.271073472575717e-09,-1.8035131401852048e-07,4.3339919834136244e-07,1.899785211283376e-07,-1.0091217570507439e-06,3.1743602642084056e-06,6.896951260590884e-07,5.716797116298526e-08,1.9376742072506855e-07,2.729093305446458e-07,1.1537002454186206e-06,9.816022959980303e-07,2.769326705559291e-07,4.092555731872858e-07,3.168116232808181e-07
-2.106461247826872e-07,-7.077624250125803e-09,-7.387197574512364e-09,2.054536844311451e-08,-2.316478549359752e-07,4.967982054268446e-07,3.5781368295740035e-07,-7.041007284306383e-07,3.238002547516557e-06,7.08063477010499e-07,1.1326310459450779e-07,2.3459233775148916e-07,3.854045332256774e-07,1.0636199300845707e-06,1.1140290433743147e-06,3.3309448996101886e-07,4.617810622903453e-07,3.971301533599242e-07
-2.1838254477379063e-07,-3.030733376969299e-08,5.039144353929779e-08,4.42800983628304e-08,-2.843125584295296e-07,5.570017437656834e-07,5.259659312018074e-07,-3.1853719708747705e-07,3.295492562619678e-06,7.151876159866976e-07,1.6411904438413007e-07,3.090379852057822e-07,4.4372732600683196e-07,9.63754370761133e-07,1.3068653072401973e-06,3.618134802942379e-07,5.838717315847821e-07,3.5865684484755366e-07
-1.693130803602091e-07,-7.562004676119171e-08,1.0077474414336954e-07,5.966602347040199e-08,-3.4272684373620454e-07,6.200040309932489e-07,7.030752394638491e-07,1.0588186708034498e-07,3.4213770419587477e-06,7.53727689498359e-07,1.8640334884475162e-07,3.749532342636906e-07,4.728031115654809e-07,8.81207415578948e-07,1.513014455181272e-06,4.117478441220809e-07,7.014198415618607e-07,2.4734054878341555e-07
-7.717595752544935e-08,-1.420967340675687e-07,1.4256060553641837e-07,6.414866352606405e-08,-4.1433593229072426e-07,6.804818371977395e-07,8.759755387327544e-07,4.934335754641047e-07,3.666854605344459e-06,7.773400982496779e-07,2.3117589143677773e-07,4.629070081589814e-07,5.432019099619458e-07,8.378396684360004e-07,1.558098168880462e-06,4.781321381704932e-07,7.900731109562421e-07,1.3489469242633539e-07
-6.809670490577078e-09,-2.472377884650181e-07,1.7444477727563295e-07,5.802214509132946e-08,-5.04565345152614e-07,6.77254863315044e-07,9.79394709078444e-07,7.568636380501591e-07,4.0087478993421645e-06,7.821335354853717e-07,2.6887059116805157e-07,5.372105583072259e-07,6.493185493573903e-07,8.397690262498189e-07,1.5951615477737374e-06,5.948151949630772e-07,9.114033915939327e-07,1.0437337376079746e-07
4.018582494025609e-08,-3.835537023784297e-07,1.9576567488736348e-07,4.284790351304337e-08,-6.11807409052885e-07,6.226525743412179e-07,1.0640261742456546e-06,8.315089154917698e-07,4.354621307800168e-06,8.252219361096707e-07,2.841654516283972e-07,5.710692284702268e-07,7.229383526110371e-07,8.749065494142268e-07,1.625096773203855e-06,7.456353709441267e-07,1.0028809408749582e-06,1.0932035555750459e-07
9.328392642743723e-08,-5.240565964002039e-07,2.0692317970789166e-07,1.981827078254075e-08,-7.257850865314847e-07,5.813676514653904e-07,1.1378357259508612e-06,7.013089539061814e-07,4.6032832476068605e-06,8.67240893263894e-07,3.6409197966004286e-07,5.787124019603774e-07,7.756679121282893e-07,9.173766311946717e-07,1.6429801478296631e-06,9.014931338929726e-07,1.0338107341327982e-06,1.3803951445995305e-07
9.694557439285906e-08,-6.475237081252327e-07,2.0856614609200121e-07,-1.0771063826321822e-08,-8.30392270868707e-07,5.498313919672207e-07,1.2032252135857047e-06,4.047579013834827e-07,4.707455253567675e-06,8.961881946342512e-07,4.2990435325479727e-07,5.283248831217303e-07,7.333867647423473e-07,9.35509605741045e-07,1.7645140029253394e-06,9.663996722493013e-07,1.090478649933638e-06,9.831546184423906e-08
9.44692587391194e-08,-7.088314029389694e-07,2.0089253281098835e-07,-4.838099136126834e-08,-9.094560028829817e-07,4.884247216915007e-07,1.2341523541748104e-06,2.085566385393e-08,4.697237888207284e-06,8.760942920181525e-07,4.3290741108412234e-07,4.7159984596181585e-07,5.9646139177685e-07,9.088967005110017e-07,1.865586131676613e-06,8.703099096118096e-07,1.143805995111327e-06,-6.993457852564856e-08
7.330073743962117e-08,-7.217904437679785e-07,1.8400479125329286e-07,-9.069595105621486e-08,-9.529165815955071e-07,4.317093365036669e-07,1.2258706573967186e-06,-3.58396582909582e-07,4.65802563816559e-06,8.494692013038078e-07,4.459384669143e-07,4.53863250320247e-07,5.098789423887156e-07,8.350464312053759e-07,1.8779790626106994e-06,8.812033077310929e-07,1.1805759690983403e-06,-1.4315755216005781e-08
-1.63844796857473e-08,-7.265339047922219e-07,1.5815611220224276e-07,-1.3367225428346633e-07,-9.608269872198046e-07,3.3230036316027115e-07,1.1356665347670886e-06,-6.579660097539754e-07,4.67520588313789e-06,8.251604318178615e-07,4.819319428819426e-07,4.857000346301002e-07,4.7677552800203827e-07,7.293515544943534e-07,1.8624813850108476e-06,1.0678823560259346e-06,1.2236353726349816e-06,1.9153420516821828e-07
-1.052311893552568e-07,-7.563048576905349e-07,1.2285570091629655e-07,-1.7341834903569838e-07,-9.432226808008424e-07,1.5300705000991125e-07,9.637421534350568e-07,-8.412609431375132e-07,4.769650475142438e-06,7.913298438351861e-07,4.913997123494402e-07,5.12104880773824e-07,4.18081480501461e-07,6.121795646237045e-07,1.8874416112677592e-06,1.2553835641100497e-06,1.2704642039453085e-06,3.52585604767665e-07
-1.514645930383504e-07,-7.859006771969611e-07,7.541572924291678e-08,-2.084143177426943e-07,-9.158767237049816e-07,9.882347528470973e-08,9.115497809832468e-07,-9.166119751947154e-07,4.8683057932906574e-06,7.504445426656594e-07,4.956102318408128e-07,5.3403866741278e-07,3.854000564173465e-07,5.000825548395582e-07,1.8977967620605973e-06,1.2258780474487664e-06,1.2987384617522762e-06,2.0807026355106522e-07
-1.7798581356609629e-07,-7.800773675753322e-07,1.0884248223963009e-08,-2.403098619664668e-07,-8.923999409296859e-07,6.550567187431914e-08,8.559799500128156e-07,-9.257413627694011e-07,4.847224345247913e-06,6.960115547525494e-07,4.902815105129734e-07,4.661080829634606e-07,2.554490983585039e-07,4.026200564367308e-07,1.913116349656272e-06,1.0610283587194436e-06,1.2349339069802875e-06,-1.5561818070711383e-07
-1.926453490779275e-07,-7.608209210785241e-07,-7.501096727455635e-08,-2.7237082467352955e-07,-8.829176399718878e-07,3.1337749155167914e-08,7.916604031995712e-07,-9.17835470191869e-07,4.6171443525901585e-06,6.131095286663567e-07,4.691420448148849e-07,3.2959957356925355e-07,1.0117357452967283e-07,3.226986182130168e-07,1.909095987888857e-06,8.241680562583085e-07,1.1727175178025099e-06,-3.466937766113283e-07
-2.2391156703542095e-07,-7.41938277784201e-07,-1.8131248517835127e-07,-3.0627824197774505e-07,-8.920542916361357e-07,1.0138428628473537e-08,7.600175149512132e-07,-9.226660337685277e-07,4.172158433239914e-06,5.423210036232584e-07,4.046526653626645e-07,2.02706319655238e-07,-4.3093809628151796e-08,2.6220923087229764e-07,1.8653252912191366e-06,5.94347854377455e-07,1.1549647382074614e-06,-3.705599115174059e-07
-3.1556288035866956e-07,-7.305119914654898e-07,-2.9931580087077313e-07,-3.3981608833177384e-07,-9.145458681868364e-07,-7.947214605136308e-08,6.774566431585265e-07,-9.386650850071446e-07,3.5685834115319613e-06,4.7422141187995575e-07,3.227600406292302e-07,1.06706002469984e-07,-1.212863670448811e-07,2.236390626383272e-07,1.7636668293760083e-06,3.526387261881782e-07,1.1065611330860252e-06,-5.812828408612832e-07
-4.303063357432545e-07,-7.242012551781141e-07,-4.1437591772993837e-07,-3.6731212344332e-07,-9.600943775474003e-07,-2.2171938449165693e-07,5.412174741978331e-07,-9.427839397690845e-07,2.873328777528184e-06,4.0987135185918224e-07,2.737775404259576e-07,2.4277159618744565e-08,-1.5444660321727668e-07,2.120277341986563e-07,1.7541692586571482e-06,2.765858585565036e-07,1.0190996942022923e-06,-9.615159939805373e-07
-5.3818990030287e-07,-7.285275965116625e-07,-5.106849807458603e-07,-3.8201351396893714e-07,-1.0295136928590195e-06,-3.073192251668144e-07,4.166239834698735e-07,-9.12492529466004e-07,2.1323276595301833e-06,3.51053572886707e-07,2.518259711774025e-07,-4.322596384046454e-08,-2.589581863263984e-07,2.3355850471532367e-07,1.7410048306476813e-06,2.2517628649600337e-07,9.256043637852524e-07,-1.1456087847921789e-06
-6.051684348979814e-07,-7.328200963324084e-07,-5.763330570249773e-07,-3.786839215456661e-07,-1.0281976868755898e-06,-4.0957587247483555e-07,3.034166188309502e-07,-8.383366844088244e-07,1.3772358993419252e-06,2.9299094716659637e-07,1.3999075824033784e-07,-1.5061447737760174e-07,-3.447917193882619e-07,2.871539610835679e-07,1.7363579398308656e-06,2.1027085262525988e-07,8.743034084745277e-07,-1.2687421962169954e-06
-6.354248455903846e-07,-7.223015626209688e-07,-6.073949722988079e-07,-3.557996429398303e-07,-1.009967926502538e-06,-5.874046023769962e-07,1.905456052904964e-07,-7.187469939106173e-07,6.492656358317399e-07,2.2241587968043118e-07,3.332833739530763e-08,-1.8750470033070512e-07,-4.1104377974824567e-07,3.6619194569205936e-07,1.7421294764941997e-06,2.4090888196840856e-07,8.889827672878448e-07,-1.2010127688800958e-06
-6.40575562607157e-07,-6.916357644771131e-07,-6.100463576161325e-07,-3.1645008850528994e-07,-1.0022651463344799e-06,-7.334021291264961e-07,1.4210468974266676e-08,-5.640856494092846e-07,2.4341249837415043e-09,1.6480430673577225e-07,-1.645433215942008e-08,-1.57634542806104e-07,-4.367395059326503e-07,4.507910040216518e-07,1.6277284361711048e-06,3.4641026820157347e-07,8.683859179049671e-07,-1.0185053124380849e-06
-6.664835792419612e-07,-6.344834096665003e-07,-5.986911047646034e-07,-2.6652037577337784e-07,-1.0012806185721583e-06,-8.73797466687037e-07,-1.5122555150638061e-07,-3.7822960627865e-07,-5.212504722048974e-07,1.1742250195996411e-07,-5.174081066894722e-08,-1.656400344825026e-07,-4.000282587665847e-07,5.123309152955789e-07,1.5096048601299177e-06,3.976288643664308e-07,7.964363467661168e-07,-8.094918091741553e-07
-7.063053085837169e-07,-5.53407677876056e-07,-5.891534478281991e-07,-2.1069134577260035e-07,-9.83988357551908e-07,-9.855194737908513e-07,-2.494288262080094e-07,-1.8354320467957818e-07,-9.179720088038047e-07,1.0132813770319483e-07,-1.0870600651885643e-07,-1.345191808168265e-07,-3.4834461061969656e-07,5.321168092761182e-07,1.4213325909507946e-06,3.4115646692335386e-07,8.531221049039659e-07,-6.811007394958793e-07
-7.106185638673589e-07,-4.5676713521845204e-07,-5.912570941420011e-07,-1.4953014416720466e-07,-9.622269992450442e-07,-1.0026236166000352e-06,-3.2887605429186865e-07,-3.347628884271513e-08,-1.2268323582339794e-06,8.858643316415414e-08,-1.8181312546711217e-07,-6.958853191976263e-08,-3.093967086803686e-07,4.732878820579777e-07,1.3275884840152444e-06,1.9841554672999644e-07,9.181269148691746e-07,-8.001234964046433e-07
-7.129905409081818e-07,-3.449766747329863e-07,-6.053628741421968e-07,-8.026400811155711e-08,-9.427863291571449e-07,-9.976544509308375e-07,-4.0376093331687985e-07,-2.3768204274564198e-08,-1.502792001636657e-06,1.0541023729822789e-07,-2.6762662390945827e-07,-4.532317421964836e-08,-2.720384936585272e-07,3.250213003802824e-07,1.3056446516638486e-06,-5.5174458210723595e-08,8.417947316642663e-07,-7.586568243239307e-07
-6.672277675174651e-07,-2.570341303111643e-07,-6.238841642829244e-07,-2.569436428854986e-10,-9.236713624612103e-07,-1.036895325111301e-06,-4.573617893245198e-07,-2.473250909919212e-07,-1.7653978806807642e-06,1.3864431784890141e-07,-3.5142878615780103e-07,-2.9081420280581367e-08,-2.7426008680588664e-07,9.672282285133572e-08,1.32483684434003e-06,-4.0290182067916936e-07,7.032144723044968e-07,-6.011223316966699e-07
-6.364276219227332e-07,-2.2572918565016542e-07,-6.356086565771501e-07,8.986197473412978e-08,-9.057973770131133e-07,-1.091636524780046e-06,-4.847757653944683e-07,-7.521733219051556e-07,-1.965549623963992e-06,1.6672580889731293e-07,-4.071747770257882e-07,-3.131940688387788e-08,-3.048995179601316e-07,-1.188698966769375e-07,1.3954838339411393e-06,-7.264514714602097e-07,5.894207676991306e-07,-6.612608913848149e-07
-6.337021469750109e-07,-2.3075921875449286e-07,-6.298845599523109e-07,1.8542986255318463e-07,-8.906988404449284e-07,-1.157574904811229e-06,-5.160954320626334e-07,-1.487305179571068e-06,-2.007053272646067e-06,1.8529279572667572e-07,-4.3666819783472935e-07,-5.668601621643996e-08,-3.4390214869600174e-07,-2.1530731891620065e-07,1.4745725126805974e-06,-9.259226692471879e-07,4.926784982463781e-07,-8.352744494714039e-07
-6.121289947308833e-07,-2.560435125365683e-07,-6.000658039789039e-07,2.790577876705969e-07,-8.791325649130827e-07,-1.228130888253597e-06,-5.219104816170287e-07,-2.2253574852642537e-06,-1.8038665146701857e-06,1.9422691314329247e-07,-4.3779104571995417e-07,-8.699393384684939e-08,-4.0152689241661906e-07,-1.230563337055872e-07,1.4775040565832128e-06,-9.119140294482467e-07,4.1257419863247874e-07,-1.0188472257405185e-06
-6.225446648638985e-07,-2.4569561729217916e-07,-5.460285219868608e-07,3.624564729982171e-07,-8.716126711956826e-07,-1.2767621084571716e-06,-5.115582059867164e-07,-2.8203383094276223e-06,-1.3287466417895221e-06,2.0024777861994992e-07,-4.126635445715239e-07,-1.2890640357378614e-07,-4.6100757067012614e-07,-6.568282320128976e-09,1.4311327687157403e-06,-8.98317763899829e-07,3.353751968014376e-07,-1.2747706967576708e-06
-6.362436442852815e-07,-2.3688361673842832e-07,-4.74951276865667e-07,4.279830478194094e-07,-8.706033327311318e-07,-1.2933753656501483e-06,-5.113882066586206e-07,-2.911843767972364e-06,-6.340297420620126e-07,2.011079287810636e-07,-3.849479066210378e-07,-1.8748753090974936e-07,-5.359438243462771e-07,2.36678196359817e-08,1.3456081932391928e-06,-1.0048660894022943e-06,2.4300197563408474e-07,-1.6295135939372827e-06
-7.202395855012834e-07,-2.8238916621572587e-07,-3.9952927879863524e-07,4.7003460992963414e-07,-8.807762048892731e-07,-1.2834756552679906e-06,-3.9205785241173617e-07,-2.6728898474136295e-06,1.5422715823404768e-07,2.1768953034957603e-07,-3.5690089938492306e-07,-2.5105066247275316e-07,-6.285262965811497e-07,1.1616174955830933e-08,1.2204658132067906e-06,-1.162891171990179e-06,1.3702138224880066e-07,-1.7156597435674106e-06
-8.12891050637022e-07,-3.439758242379436e-07,-3.3375228875919046e-07,4.862783540515714e-07,-9.051095655880557e-07,-1.2631280008763953e-06,-2.7955875661929383e-07,-2.561984821378394e-06,8.678845020959734e-07,2.2483248897917682e-07,-3.3367689635480095e-07,-3.161296954252523e-07,-7.32320565343055e-07,8.715020027545196e-08,1.0982306332503302e-06,-1.1315031084286069e-06,2.2216578423497704e-08,-1.8536478648067535e-06
-8.652305119552126e-07,-3.951280859204518e-07,-2.879734342973303e-07,4.783276985791781e-07,-9.402992800810617e-07,-1.1970558079385166e-06,-1.8996366678888218e-07,-2.6031896649178624e-06,1.3514419387090047e-06,2.2601029013794786e-07,-3.236461742330949e-07,-3.823526886127989e-07,-8.501020629594408e-07,2.3214346324288265e-07,9.648221381910598e-07,-1.1254455075064423e-06,-9.302656713226877e-08,-1.9782808670545815e-06
-8.964857889036375e-07,-4.414819588868837e-07,-2.660481136630718e-07,4.5153876530312816e-07,-9.7713109075008e-07,-1.1103400190519036e-06,-1.2100506321586924e-07,-2.2484567919391412e-06,1.522293739621078e-06,2.2613182201585478e-07,-3.2375979105956216e-07,-4.467035661874957e-07,-9.72444648185816e-07,4.046344286115679e-07,8.07569909813012e-07,-1.184509979671187e-06,-1.9652084451699215e-07,-1.8239357022239152e-06
-9.053043745359453e-07,-4.801429562603587e-07,-2.658803867642309e-07,4.1373203646363366e-07,-1.0058365906861273e-06,-1.0575862508473613e-06,-8.093553525210379e-08,-1.801141825113129e-06,1.4034429334772668e-06,2.1624901025289773e-07,-3.3907438757979734e-07,-5.117824326851729e-07,-1.0917570249357925e-06,5.337433579641016e-07,6.90079249305377e-07,-1.165057523906954e-06,-2.8044268613235927e-07,-1.5892978153545417e-06
-9.121458200696851e-07,-4.786733726907388e-07,-2.815912378157954e-07,3.732290268174497e-07,-1.020929767065033e-06,-1.025903928354053e-06,-8.054873414864136e-08,-1.5310006745429711e-06,1.1053325629513633e-06,2.0180663041312072e-07,-3.748182040299766e-07,-5.740101581920285e-07,-1.1973635184081684e-06,6.191735008103824e-07,6.367651112330024e-07,-1.179271693094253e-06,-3.4061010613819956e-07,-1.471354843704453e-06
-8.508477516575122e-07,-4.534542817368772e-07,-3.0533752802307057e-07,3.372294266377449e-07,-1.0223030982872132e-06,-1.0166667578920777e-06,-9.7695752667914e-08,-1.4821769704314723e-06,7.685756901259329e-07,1.815668996250699e-07,-4.294500063628386e-07,-6.274277493863096e-07,-1.2819833695490966e-06,6.25850121927392e-07,6.633035110307977e-07,-1.3362568077368305e-06,-3.7650944762443135e-07,-1.2835760691265478e-06
-7.730740794912504e-07,-4.1548202253292644e-07,-3.2947290161888233e-07,3.1086311748643625e-07,-1.014321423122633e-06,-1.0200452994176708e-06,-1.2200389940714954e-07,-1.5941169385291925e-06,5.028441138279778e-07,1.5555196357722576e-07,-4.950735998077731e-07,-6.661871856729917e-07,-1.337226395513311e-06,5.748281615318979e-07,6.942838826405384e-07,-1.5217981939559276e-06,-3.9421424387955464e-07,-1.1448560583332769e-06
-7.129007266623765e-07,-3.6939378644066473e-07,-3.4954750047675613e-07,2.9641218111041494e-07,-1.00485795736961e-06,-1.022613958396412e-06,-1.5026265653063906e-07,-1.9098148069885167e-06,3.5319218177799857e-07,1.2013770217625532e-07,-5.637791070213072e-07,-6.815562854702142e-07,-1.356976460173427e-06,5.469233809763633e-07,7.341177150271598e-07,-1.8308196889847382e-06,-3.993786169404815e-07,-1.2276803262293483e-06
-6.614606491210652e-07,-3.328007971229629e-07,-3.6675314386209954e-07,2.9296987497672743e-07,-1.003486470818696e-06,-1.0298026900353605e-06,-1.8429462403898385e-07,-2.309098490425555e-06,3.085694498900816e-07,8.248160323883833e-08,-6.263661784875292e-07,-6.73437327201964e-07,-1.3385935234502777e-06,5.370858181297677e-07,7.484377306121174e-07,-2.091136178815625e-06,-3.9371318331339775e-07,-1.1785539400241767e-06
-6.301922771120734e-07,-3.085528353293508e-07,-3.8669758526873557e-07,2.97485743968383e-07,-1.0177183232367289e-06,-1.0587928432924308e-06,-2.278992908090794e-07,-2.6529092889741665e-06,3.4018088031514923e-07,4.3766243379472776e-08,-6.756928038926985e-07,-6.450801443141928e-07,-1.286222005683618e-06,4.7519820094294995e-07,7.546741575139289e-07,-2.154412393482046e-06,-3.7570557629582145e-07,-1.3374031642808072e-06
-6.148644533566912e-07,-3.006893728403108e-07,-4.147351442994738e-07,3.0685603959152087e-07,-1.0488734396263327e-06,-1.1078472096221853e-06,-2.961731461858857e-07,-2.86992895616886e-06,4.284258933363122e-07,8.718090921885667e-09,-7.100053741090374e-07,-6.000352311684797e-07,-1.2106531626620708e-06,3.9965308690983227e-07,7.391734539896284e-07,-2.1822743898021635e-06,-3.384172691377558e-07,-1.7387003145088382e-06
-6.184773723388102e-07,-3.1043620495767987e-07,-4.525504059088867e-07,3.1948580401344044e-07,-1.0889551365165088e-06,-1.1604454238159245e-06,-3.8437144169472137e-07,-2.8922328278179956e-06,5.473154259392694e-07,-1.3592971472951734e-08,-7.2682808979434e-07,-5.366471096410212e-07,-1.1182363727676558e-06,2.9692041506364474e-07,8.048284165635681e-07,-2.2509212379257644e-06,-2.8234179521799867e-07,-2.1351115101973495e-06
-6.336393542334574e-07,-3.3247104324642463e-07,-4.949412945472189e-07,3.356209409570466e-07,-1.1270208383377959e-06,-1.212548471028802e-06,-4.736579716209522e-07,-2.7358694304498903e-06,6.315308701285438e-07,-1.9908764291170475e-08,-7.280993475031267e-07,-4.5882517520727585e-07,-1.017633770001488e-06,1.79018352641596e-07,9.156184449386804e-07,-2.3279925300357814e-06,-2.181119172604985e-07,-2.508275221458704e-06
-6.440668720103971e-07,-3.598632912512739e-07,-5.330971660391968e-07,3.568743238774381e-07,-1.1518287302060572e-06,-1.2562168281027343e-06,-5.514899173613369e-07,-2.4466951421923995e-06,5.810795696073217e-07,-7.802904105643064e-09,-7.168513266452084e-07,-3.696162647879341e-07,-9.207387185686885e-07,1.097376866958653e-07,1.0373782546901223e-06,-2.3559331370364567e-06,-1.619501191262332e-07,-2.78851533044397e-06
-6.483514843331638e-07,-3.864172803694795e-07,-5.592969097291778e-07,3.855022340458753e-07,-1.1571048310742293e-06,-1.28340452592591e-06,-6.048536372832447e-07,-2.0827926880783577e-06,3.1160123367423466e-07,1.9516081785075376e-08,-6.94015290945828e-07,-2.840086766693659e-07,-8.312990146710273e-07,7.300508687334624e-08,1.1324028328655724e-06,-2.2808003615171875e-06,-1.342682654022966e-07,-2.8423230976094895e-06
-6.279175761831703e-07,-4.10486368472553e-07,-5.674388449672278e-07,4.234854968575124e-07,-1.1406512855070963e-06,-1.2952356086210339e-06,-6.34979073232301e-07,-1.7209475882914744e-06,-1.9704835689076595e-07,5.609331732471181e-08,-6.662087174721651e-07,-2.3091209825460273e-07,-7.504698039632326e-07,4.4076420876019115e-08,1.1992897690306987e-06,-2.2265958381609065e-06,-1.404421383422987e-07,-2.723089089508688e-06
-5.910886658436192e-07,-4.2937175113886077e-07,-5.565229390976951e-07,4.7101024848026126e-07,-1.1051442497160411e-06,-1.2828373601678885e-06,-6.356816634788462e-07,-1.440517088977824e-06,-8.867596796120242e-07,9.602319367431467e-08,-6.387051597358403e-07,-2.1347401751327608e-07,-7.168817697168818e-07,2.2349828518827086e-08,1.2193979263686393e-06,-2.0880612489519697e-06,-1.751523716454502e-07,-2.4888782327777984e-06
-5.469139886518523e-07,-4.4106067330854193e-07,-5.287491337738742e-07,5.245961364370948e-07,-1.0570206214985375e-06,-1.256877028378203e-06,-6.55627002930755e-07,-1.3035380489895548e-06,-1.6331430269943833e-06,1.3357617077750148e-07,-6.148041046384951e-07,-2.580991660842831e-07,-7.045283863171842e-07,4.783222229048424e-10,1.1550907014852959e-06,-1.946950438310309e-06,-2.1856151077054888e-07,-2.217422107452147e-06
-4.989599965784498e-07,-4.4989291760239893e-07,-4.903661123701386e-07,5.765892751289516e-07,-1.002484368547445e-06,-1.2290667309648345e-06,-7.058193707555224e-07,-1.3344819957335412e-06,-2.272519948450963e-06,1.6407794993078282e-07,-6.000861636148163e-07,-3.8391317979116e-07,-7.228906480196665e-07,-1.6778851848260063e-08,1.095682667475509e-06,-1.830221494358296e-06,-2.658703929520507e-07,-2.007971997950276e-06
-4.706485238934387e-07,-4.6047582119811183e-07,-4.5071233817065284e-07,6.179390103554116e-07,-9.462459213935239e-07,-1.2161331426188815e-06,-8.156560495957385e-07,-1.5188408465917051e-06,-2.6398959211859155e-06,1.8485738852688957e-07,-5.958594689487461e-07,-4.637221429273001e-07,-7.891404134501723e-07,-1.8467071278138186e-08,1.106815005843916e-06,-1.7544953414357352e-06,-2.9995854477585185e-07,-1.8907476300099138e-06
-4.382098645152291e-07,-4.789719290253205e-07,-4.1330778553037825e-07,6.432363467297628e-07,-8.88062510537641e-07,-1.2316674498732147e-06,-9.138235003432663e-07,-1.8258711237533597e-06,-2.6059860882394342e-06,1.9532294454785325e-07,-5.973103117489048e-07,-5.4047908844448e-07,-7.672873125847199e-07,-8.488519248695762e-10,1.1300586379228957e-06,-1.6945803869293536e-06,-4.0077120884350293e-07,-1.834357683537099e-06
-3.959832114887967e-07,-5.030987933637766e-07,-3.8686675600702895e-07,6.530252714340878e-07,-8.231359551368514e-07,-1.2530152976384392e-06,-9.060636985890941e-07,-2.2327187751738915e-06,-2.110559439357316e-06,1.9540106436872325e-07,-6.011609723396654e-07,-6.147429090053483e-07,-7.865690963645242e-07,3.5202130697035114e-08,1.2249534808979326e-06,-1.6810792419575943e-06,-5.932039799356915e-07,-1.8071047108469044e-06
-3.331432660128461e-07,-5.264259528380479e-07,-3.686672920302983e-07,6.55440821765125e-07,-7.441761968523458e-07,-1.2768943189433642e-06,-9.406006528158243e-07,-2.7237198038574673e-06,-1.1966433285055708e-06,1.8490926777423025e-07,-6.034451545995349e-07,-7.034382225070795e-07,-8.244169912380877e-07,6.598160047313682e-08,1.2711666568753081e-06,-1.5551662318975199e-06,-7.218473979690619e-07,-1.6926078926222727e-06
-2.4284266540497567e-07,-5.16443032736877e-07,-3.333704760248195e-07,6.613676659284214e-07,-6.458813353601409e-07,-1.2305638322939058e-06,-9.201605912391994e-07,-3.266816745897179e-06,-2.2098882448184442e-08,1.634314886919867e-07,-5.935137971171643e-07,-7.933970821779397e-07,-7.752646648670777e-07,1.3973296904099138e-07,1.1532335775905225e-06,-1.3555970412562937e-06,-8.238655130738393e-07,-1.6260544332526206e-06
-2.0340425539332564e-07,-4.446861424397257e-07,-2.442144619747498e-07,6.770819100947713e-07,-5.283070731035788e-07,-1.117964150403549e-06,-8.083853308589302e-07,-3.796293813578332e-06,1.1849901753302485e-06,1.323788728453446e-07,-5.698575584954139e-07,-8.034802766966509e-07,-6.172181022772819e-07,2.6279135719774634e-07,1.007016830062827e-06,-1.2153470088781331e-06,-8.799849972705228e-07,-1.6514808287663843e-06
-1.6231097767391341e-07,-3.082110587008808e-07,-1.5107541393145798e-07,7.045394870178545e-07,-3.98023566341197e-07,-1.0080140908286693e-06,-7.136588516726582e-07,-4.222732636227294e-06,2.2119226053020737e-06,9.735031821273571e-08,-4.977091929283589e-07,-7.567998560459742e-07,-5.411233184189406e-07,4.0798208129136584e-07,9.202983806908203e-07,-1.1284634410228933e-06,-8.439303462815803e-07,-1.7540606546310502e-06
-1.2177122100322322e-07,-1.83428404353515e-07,-3.762262885910885e-08,7.398922287327517e-07,-2.6694214517585953e-07,-9.2599624628619e-07,-5.83272848125753e-07,-4.458492798851784e-06,2.9298777758680644e-06,6.770650381033033e-08,-4.031738711572574e-07,-7.079426167088773e-07,-4.415157619432625e-07,5.426209962315672e-07,8.190052640886566e-07,-1.3114644942233327e-06,-8.088273050646453e-07,-1.710026513303868e-06
-7.452928934139914e-08,-1.1739238627791584e-07,1.9623580688172548e-07,7.780054235077752e-07,-1.6421883112139556e-07,-8.262082100843407e-07,-4.292420143871248e-07,-4.438261456385532e-06,3.3115930992443896e-06,5.3451586476050094e-08,-2.773281941040495e-07,-6.491730503875808e-07,-3.369986329180771e-07,5.875315823216348e-07,7.390457205032264e-07,-1.4839878989904069e-06,-7.748944220429548e-07,-1.6038413217423194e-06
-2.384369154751717e-08,-2.29548919813263e-08,3.712939590482173e-07,8.14175000983975e-07,-9.660663269020668e-08,-7.371771041571441e-07,-3.123848402675856e-07,-4.1352733361026755e-06,3.41350172022515e-06,6.127581570213045e-08,-1.5493399348338995e-07,-5.680360836108234e-07,-2.6683573204759415e-07,4.813102915372164e-07,6.107952864581849e-07,-1.3338044139959478e-06,-7.472113544484183e-07,-1.441818650302155e-06
2.610335424409919e-08,1.1066310054062967e-07,4.197545622293775e-07,8.551674304924251e-07,-6.103344284058407e-08,-6.039692529580041e-07,-1.6915338228231432e-07,-3.5801703558570226e-06,3.344843239314811e-06,9.223080734966191e-08,-9.050351524508598e-08,-4.7178714873585675e-07,-1.6487811243658292e-07,4.091584158166489e-07,6.224829025693686e-07,-1.2248644971890156e-06,-6.945539009071515e-07,-1.4708246714998805e-06
8.43588345848691e-08,1.8008074348606748e-07,4.1136649556228726e-07,9.186442632999592e-07,-3.4486919274291536e-08,-3.9244064767196797e-07,-8.668264538154852e-10,-2.8690606893711103e-06,3.2298449953878172e-06,1.4186896377105503e-07,-6.246852041570448e-08,-3.952917468250447e-07,-1.030839558152718e-08,4.590625832208656e-07,6.743413170383483e-07,-1.2638861916483987e-06,-5.943438902141436e-07,-1.3868870992074656e-06
1.7213074940577882e-07,2.2183939243785129e-07,3.988530772923668e-07,9.695552395267822e-07,-6.6032024003360815e-09,-2.2432316043428964e-07,1.434672984826465e-07,-2.1393492461874574e-06,3.1757861801665707e-06,2.0168921311820017e-07,-6.637274644332568e-08,-2.9978518148199177e-07,1.0073343609751011e-07,5.607320046381975e-07,6.874034333682228e-07,-1.229415798937029e-06,-4.2261468653474074e-07,-1.1742414201804917e-06
2.463781221823422e-07,2.449847078271127e-07,4.521760482067505e-07,9.789620991766546e-07,2.3208181718245373e-08,-4.704953299314331e-08,2.7664748650576826e-07,-1.517700427950856e-06,3.2649065930213706e-06,2.6155199124691363e-07,-2.1301612504426368e-08,-2.2424742765243898e-07,1.5938287619803794e-07,5.632448383648946e-07,7.348303013375884e-07,-1.0583058003306145e-06,-2.7018781128034346e-07,-1.0943845068401063e-06
3.1143645307074635e-07,2.7451563386714076e-07,4.6356763068681804e-07,9.542675607490615e-07,4.9747241538276285e-08,9.455331026976374e-08,4.2297805070064386e-07,-1.07280026102401e-06,3.5554013633491888e-06,3.128294161602089e-07,-1.9033572198364654e-08,-1.6409195357927741e-07,2.1594746970561566e-07,5.489212658954073e-07,7.603264411726431e-07,-8.376385773209202e-07,-1.520625666789959e-07,-1.1230729265180872e-06
3.4381820915060064e-07,3.3377228293371753e-07,4.5529487145752944e-07,9.25895036125201e-07,6.099026752880223e-08,1.970840040349781e-07,5.453714868604517e-07,-8.025919034418131e-07,4.055386596224908e-06,3.5065147366573246e-07,-8.644501236789081e-08,-7.474683505324413e-08,2.697933913637188e-07,5.037011049790236e-07,7.650916705012541e-07,-6.462393780293395e-07,-4.44636742037479e-08,-1.2708052299499252e-06
4.063628836697288e-07,3.708519567808425e-07,4.0245116260624746e-07,9.119046587377482e-07,8.278716503629028e-08,3.3020062459686173e-07,6.16718904527714e-07,-6.578709571857581e-07,4.676888768993325e-06,3.7440235918427705e-07,-1.5899042721151666e-07,-1.945745867192427e-08,2.9826655213800207e-07,4.456300400532585e-07,7.64971269669931e-07,-4.7498660501408967e-07,2.7815481612159723e-09,-1.3294542253113037e-06
4.943531901664751e-07,3.876665129496204e-07,3.670891867029501e-07,8.809443684908743e-07,1.0704343261606601e-07,4.3198354375923827e-07,7.485526326869735e-07,-5.81347975654068e-07,5.229155713548816e-06,3.865262098963907e-07,-2.404914406168214e-07,-1.7746823918898055e-08,3.7948048918934477e-07,3.7159103647816625e-07,7.579540291829714e-07,-2.9063540391047276e-07,2.1542352154080615e-09,-1.4102928886991472e-06
5.514598485723566e-07,3.4362517129929927e-07,3.3336182811091026e-07,8.505850848238181e-07,1.234541744818426e-07,4.928337924111187e-07,8.705658896299817e-07,-5.366366354001343e-07,5.489594367279916e-06,3.909099994691745e-07,-3.27189093560847e-07,-1.2505954507295111e-08,4.3439008967453116e-07,3.1991690024140873e-07,7.612876159538529e-07,-1.6382675914134164e-07,-4.08311527495344e-08,-1.5253210427863487e-06
6.217908800568894e-07,2.866900227375082e-07,2.91532053323488e-07,8.246206779461383e-07,1.0335313005110696e-07,5.330393171778334e-07,9.602059794633352e-07,-5.150381884226455e-07,5.315649991237109e-06,3.919268210341625e-07,-3.801273345439092e-07,-6.861309903639504e-09,4.5206281625188916e-07,2.908964681115349e-07,7.706035370508844e-07,-9.911943344687003e-08,-1.0997965052395961e-07,-1.5178510938035984e-06
6.731308919751416e-07,2.256348983356561e-07,2.891250288538239e-07,7.849071242267856e-07,5.534565354880867e-08,5.442027888863553e-07,1.041843225184316e-06,-5.268683652752074e-07,4.7196100685926505e-06,3.937902809476426e-07,-4.3054137007917983e-07,-7.153815439112868e-09,4.388344868363849e-07,2.698238560312194e-07,7.748056637994387e-07,-9.863143702768189e-08,-1.8002615498305257e-07,-1.4421736113589277e-06
7.241241235885702e-07,1.5505716564970063e-07,3.014018938454335e-07,7.42609815701786e-07,-2.6049076115317377e-09,5.086747683371515e-07,1.0668516422994997e-06,-5.879017660365535e-07,3.858029296652599e-06,3.9954510246630113e-07,-4.6854642015879674e-07,2.1809508016101696e-08,4.0291790256844775e-07,2.6614231536935317e-07,7.794540698175534e-07,-1.6875284990760166e-07,-2.4555146412801774e-07,-1.2985282843022284e-06
7.614395555730454e-07,1.1339943097150819e-07,3.233213279124114e-07,7.032589828183511e-07,-3.326921543083896e-08,4.477920211081527e-07,1.0670094564365389e-06,-7.037766593941575e-07,2.9479584414838586e-06,4.1007077993835976e-07,-4.769808849710961e-07,6.213281408266764e-08,3.60290710549447e-07,2.575375308208388e-07,7.914472111360466e-07,-2.860363636496353e-07,-2.962395994155819e-07,-1.11464654418182e-06
7.889543349307226e-07,9.116140153028813e-08,3.593643370887458e-07,6.711741255906699e-07,-2.2726662723126592e-08,3.803119391395868e-07,1.0573104026546788e-06,-8.559312167460025e-07,2.163563318684929e-06,4.241465043290609e-07,-4.6974821181485936e-07,1.0983883391438507e-07,2.9936592996337696e-07,2.8019356616042326e-07,8.111716908887264e-07,-4.2913341254118155e-07,-3.3120644290899677e-07,-9.527415799005993e-07
8.094935993317745e-07,7.973778894227828e-08,4.0643564646862253e-07,6.544690715643225e-07,1.0005887916375065e-09,3.384641282911027e-07,1.0120297459095614e-06,-9.954934905212204e-07,1.5697306467821765e-06,4.3969934290471594e-07,-4.4376629851126165e-07,1.5013452806438498e-07,2.1915185081279173e-07,3.249396220792996e-07,8.374357018294249e-07,-6.026109493693396e-07,-3.5071817975601594e-07,-8.274056453030493e-07
8.152464475651047e-07,8.330800651799203e-08,4.581197672072221e-07,6.527783831177781e-07,5.00919635102298e-08,3.3514615265062665e-07,9.673809460409597e-07,-1.0499772474484424e-06,1.122893763560017e-06,4.552875810526745e-07,-4.014263186944521e-07,1.7266904584668762e-07,1.5141423758664615e-07,3.7060449763953116e-07,8.638028437326584e-07,-8.311481185422773e-07,-3.572130692165795e-07,-7.144175357882869e-07
8.106642572001202e-07,9.643189905208732e-08,5.165011938066848e-07,6.641766490571217e-07,6.5637498210338e-08,3.5694083945033284e-07,9.140487346705315e-07,-9.502449734589647e-07,7.356147764754254e-07,4.7071653716947854e-07,-3.5877818169274124e-07,1.82559453836461e-07,8.986517492021285e-08,4.1616037956440695e-07,8.837766076072005e-07,-1.0534629941741976e-06,-3.5216980549566874e-07,-6.197122382572747e-07
7.96936428913276e-07,1.2265891619778675e-07,5.829402816185167e-07,6.848185590115605e-07,4.1179540616469654e-08,3.6686823294946845e-07,8.4332483600174e-07,-6.723734004870417e-07,3.6779256328494984e-07,4.864814119900705e-07,-3.1640628690348286e-07,1.819079760858976e-07,3.2936993782523e-08,4.455909887604172e-07,8.933184526586418e-07,-1.2477760577177893e-06,-3.433594944213255e-07,-5.706848068356398e-07
7.762606257724245e-07,1.598233061857408e-07,6.498317500101488e-07,7.066944310179099e-07,4.632486414773501e-08,3.599829627165551e-07,7.652061150040916e-07,-2.6361898057433866e-07,7.875196134929935e-08,5.028509950378031e-07,-2.765169802829073e-07,1.756009638156884e-07,-1.2441174957477197e-08,4.6165380831291653e-07,8.906174445686805e-07,-1.4087773957971404e-06,-3.3315495434959634e-07,-5.916235090844703e-07
7.494452893771641e-07,1.9564435374461828e-07,7.111826512796008e-07,7.202022212099474e-07,1.2849805584749178e-07,3.5731536857342585e-07,6.780785633166394e-07,1.7082217189124402e-07,-1.0704228156333954e-08,5.193239133839334e-07,-2.450735486321289e-07,1.5825152103801282e-07,-6.095932748957719e-08,4.5752945057373497e-07,8.75914966091405e-07,-1.5246978379512107e-06,-3.2164260140704224e-07,-7.148618880891289e-07
7.355644158822298e-07,2.3227333544318805e-07,7.556609257544015e-07,7.182292394617292e-07,2.4380410156094773e-07,3.4541493325593637e-07,5.802816629085606e-07,5.108413147682347e-07,1.7977400988529428e-07,5.345024220062308e-07,-2.25964528070629e-07,1.2635686288632567e-07,-1.1366586041849653e-07,4.148019498799983e-07,8.506296136572853e-07,-1.556577790586082e-06,-3.107453392669548e-07,-9.467894096690739e-07
7.322250524839477e-07,2.5251703729691134e-07,7.734307586103815e-07,6.996551285217706e-07,3.514892765979753e-07,3.207222729293143e-07,4.762370168125322e-07,6.717119546438156e-07,6.09714710698041e-07,5.462067664391613e-07,-2.1893443067246067e-07,8.145329137047157e-08,-1.4504514395824038e-07,3.2666190039134817e-07,8.167172463865776e-07,-1.5521091803950168e-06,-2.999887301993019e-07,-1.2583527608408304e-06
7.212620706387981e-07,2.1824701629083852e-07,7.591184375330201e-07,6.70345035190883e-07,4.534976855377385e-07,2.806298804748618e-07,3.907231522019531e-07,6.401895542577642e-07,1.1149649428051101e-06,5.51676207835552e-07,-2.2009348844139883e-07,2.7051620602427852e-08,-1.4933469326188645e-07,1.7636416095439144e-07,7.762620715982012e-07,-1.5256164532424697e-06,-2.8932485880682164e-07,-1.5905911532473288e-06
6.844791750531357e-07,2.096751814581798e-07,7.207450824677733e-07,6.411505578373042e-07,5.073059359561464e-07,2.1660189817880376e-07,3.20937167026907e-07,4.779033391855805e-07,1.478297595715819e-06,5.483635666927631e-07,-2.2419998037899276e-07,-2.9005117377730308e-08,-1.20626159205739e-07,-2.4654616467070585e-08,7.313357094109535e-07,-1.4632436197513595e-06,-2.762583294618634e-07,-1.8722304350100232e-06
5.963805897776755e-07,1.7904913186324482e-07,6.694005469995721e-07,6.236522192545412e-07,5.118979903741721e-07,1.3968702575150802e-07,2.655246028046747e-07,2.8992252010577147e-07,1.5388377785073948e-06,5.354834105589024e-07,-2.2394097864151346e-07,-7.804530255540648e-08,-5.0724662771719745e-08,-2.407298799185458e-07,6.845891040488827e-07,-1.3952720980991816e-06,-2.5631910968878576e-07,-2.0374288581259297e-06
4.982218535233348e-07,5.338185991564927e-08,6.190298463531893e-07,6.255061992215233e-07,4.7609563524660075e-07,7.420357099971307e-08,2.288578943425437e-07,1.747324695864341e-07,1.2807846120378367e-06,5.152242467806112e-07,-2.1724774138864564e-07,-1.1327545422553427e-07,5.1908245328757236e-08,-3.9725806432362473e-07,6.40352818702739e-07,-1.3246709933041652e-06,-2.2756395019620755e-07,-2.0544410092533744e-06
4.0285334527057403e-07,-7.983433519703257e-08,5.848134474449664e-07,6.474062560800988e-07,4.0875581395627904e-07,2.909170242152355e-08,2.065312925538317e-07,1.7878066620529945e-07,8.370702156398565e-07,4.922048022622257e-07,-2.0374972477523694e-07,-1.309624063572185e-07,1.7114505530955656e-07,-4.372317304421993e-07,6.050067178871392e-07,-1.2573406338532397e-06,-1.9281001941112772e-07,-1.9358230896076982e-06
3.2264991576768116e-07,-1.7976704411257364e-07,5.748258152263181e-07,6.831079942251054e-07,3.343052200696029e-07,5.7016838689526464e-09,1.986193061202575e-07,2.800906206869318e-07,4.038834925463315e-07,4.711128684561701e-07,-1.836915645868746e-07,-1.3054488772960622e-07,2.859830744086299e-07,-3.1372536567425375e-07,5.857529381328808e-07,-1.2051959275551294e-06,-1.577010855623716e-07,-1.734108928459477e-06
2.6291790919661087e-07,-2.5156107154486266e-07,5.903435184857872e-07,7.229390010287006e-07,2.650765216060457e-07,8.17615781071905e-09,2.0312781338152609e-07,4.095612980292348e-07,1.348927595308605e-07,4.544387394528545e-07,-1.5908880434043449e-07,-1.1338082815584772e-07,3.6873057542859e-07,-1.6046236900775613e-07,5.882184563141374e-07,-1.1812956118515837e-06,-1.2721774257521238e-07,-1.518128202606174e-06
2.2062334378616355e-07,-3.037015028514939e-07,6.262701673740189e-07,7.587773181944753e-07,2.1312100155328708e-07,3.0301079888716335e-08,2.1799639728700306e-07,4.894727210594801e-07,8.091153115480453e-08,4.422535607699508e-07,-1.3142642130264119e-07,-8.142421984954091e-08,3.782085408049011e-07,-1.1140928925814862e-07,6.14247133547428e-07,-1.1731747990529834e-06,-1.044555791252861e-07,-1.3406257088677092e-06
1.9848870740368478e-07,-3.3375075911311774e-07,6.740546584862413e-07,7.86608551031455e-07,1.8405760795349262e-07,6.252567112716906e-08,2.3264788469477984e-07,4.627314140563843e-07,1.8707492600904967e-07,4.33726534618169e-07,-1.0175632366101195e-07,-3.723112335636531e-08,3.915312731644302e-07,-1.7101751069230787e-07,6.611339411762187e-07,-1.157934691836927e-06,-9.283159995091682e-08,-1.2186814638918896e-06
1.815467957462679e-07,-3.5679946409092727e-07,7.251202652244992e-07,8.048727740546707e-07,1.736661015799283e-07,9.57576806742413e-08,2.435748852886257e-07,3.0483220039847177e-07,3.333251437450942e-07,4.2831349695048175e-07,-7.100649670480399e-08,1.4871307210332366e-08,3.366875978063025e-07,-2.2713580958064243e-07,7.222870025258907e-07,-1.1357496680183511e-06,-9.674124214648816e-08,-1.1413420870023273e-06
1.6732993180877746e-07,-3.771349953525444e-07,7.718596003114919e-07,8.108646154128609e-07,1.7172765017050288e-07,1.1965100334908528e-07,2.5133609343064705e-07,2.4887985996800975e-08,4.0058513871416154e-07,4.254723211709438e-07,-4.087619550881618e-08,6.775303355056411e-08,2.736165527570566e-07,-2.763255200944753e-07,7.883603667195847e-07,-1.1090377649938666e-06,-1.1966690266145978e-07,-1.084890725881751e-06
1.5726319674629536e-07,-3.962644227887011e-07,8.073761997724035e-07,7.992346197974687e-07,1.6788794103978302e-07,1.2676558801486606e-07,2.5169178059283666e-07,-3.3908636289876034e-07,3.303519430251695e-07,4.2368070199619105e-07,-1.4895718486362122e-08,1.1150016305203855e-07,2.00925324096919e-07,-1.9194659062699688e-07,8.486874017057885e-07,-1.0854280017859664e-06,-1.6162745461787194e-07,-1.0383781733524172e-06
1.4711370026555044e-07,-4.193735167869691e-07,8.251930649581467e-07,7.636088657188304e-07,1.5821934730376942e-07,1.1319578247218432e-07,2.4074452224820306e-07,-7.32088199211468e-07,1.4496619712843622e-07,4.2022465756594156e-07,2.2008092867139588e-09,1.3552873792685026e-07,1.1792655275400219e-07,-5.696055800631379e-08,8.937619012835712e-07,-1.0735173635883588e-06,-2.1715195606129584e-07,-1.0216064165601167e-06
1.4036922244480738e-07,-4.4728151259686833e-07,8.19601454998184e-07,7.004986285418282e-07,1.440022975363693e-07,7.798277035364304e-08,2.1335097484822883e-07,-1.0982631629038571e-06,-6.957267406027499e-08,4.1220771987956134e-07,6.71942557732678e-09,1.3209902560094582e-07,2.0890542698133003e-08,3.5005349038451236e-08,9.183610547615241e-07,-1.0695951657189476e-06,-2.771214402335465e-07,-1.068750046720978e-06
1.298063772277749e-07,-4.819297385982696e-07,7.865067442777999e-07,6.088713654282493e-07,1.30195173766008e-07,2.3400059748678936e-08,1.6625407822438842e-07,-1.3918227034530193e-06,-1.953455861552902e-07,3.9756204661984805e-07,-1.9812660776040553e-09,9.941240600176395e-08,-9.065064493492642e-08,8.153005980877831e-08,9.232210077008496e-07,-1.0602564884195858e-06,-3.3160269963048577e-07,-1.2011862094144974e-06
1.1689193243172539e-07,-5.220274755728372e-07,7.246282110697387e-07,4.984562555479942e-07,1.215398340598882e-07,-4.5609149538035784e-08,1.0134138906013619e-07,-1.5824409363247564e-06,-1.2797332585552931e-07,3.7593004167934684e-07,-2.135577069277677e-08,4.2722650054944254e-08,-2.1029115401520193e-07,6.496034577086679e-08,9.140119769477137e-07,-1.0251388536428897e-06,-3.7205151756034316e-07,-1.4108605624058137e-06
1.0816307685929925e-07,-5.634855958575014e-07,6.370701179699547e-07,3.848660722030965e-07,1.1809650229786284e-07,-1.2229702497978607e-07,2.6998563176574578e-08,-1.660617286084428e-06,1.594259017019336e-07,3.4904697623902794e-07,-4.716183152660711e-08,-2.694931288441278e-08,-3.2662588490566674e-07,-1.5815465025167042e-08,8.987515424269022e-07,-9.509098490265151e-07,-3.927509889488631e-07,-1.6633026427200499e-06
9.864938791481226e-08,-6.027472181032139e-07,5.32786887498477e-07,2.839901167061537e-07,1.1603945149966854e-07,-1.9928788963491202e-07,-4.409235480481277e-08,-1.639649544614393e-06,5.713334926468163e-07,3.209105716502997e-07,-7.50807765855382e-08,-9.60325259348709e-08,-4.1794294143705796e-07,-6.492517817748783e-08,8.853751806046674e-07,-8.368776668451954e-07,-3.913643358780586e-07,-1.9098784217222325e-06
9.32282782473882e-08,-6.3779785395747e-07,4.260068311648155e-07,2.6041442206530236e-07,1.0854716668781912e-07,-2.69717796917116e-07,-9.970862596539673e-08,-1.5500160808321706e-06,9.161123834425486e-07,2.9752027355564145e-07,-1.0158911974690633e-07,-1.520003771530576e-07,-4.445989925095102e-07,-7.219744782174327e-08,8.799188792848765e-07,-7.032216981378199e-07,-3.683024751900638e-07,-2.1018911689648373e-06
9.445624655773615e-08,-6.683765912795555e-07,3.3221237979241307e-07,2.772587209368602e-07,8.772883138477626e-08,-3.281679396513081e-07,-1.2970797125056374e-07,-1.4285093388664852e-06,9.978649402024473e-07,2.8504485059371767e-07,-1.2430172391846689e-07,-1.86356835647382e-07,-4.6900492436315283e-07,-8.126867547820732e-08,8.85294397200434e-07,-5.858110857888433e-07,-3.2528341009945177e-07,-2.1996115653512624e-06
9.962803631580752e-08,-6.955216978905647e-07,2.6331763352695634e-07,2.7614273224385744e-07,4.622251032583462e-08,-3.7102629081263705e-07,-1.290768023119365e-07,-1.3081978710901237e-06,7.126745783684639e-07,2.866283248089103e-07,-1.4209321941991222e-07,-1.9615211773677826e-07,-4.0946242240434125e-07,-6.226384495482758e-08,9.012557472833076e-07,-5.179618811690571e-07,-2.65516160747293e-07,-2.1785923228634735e-06
1.0538727982443985e-07,-7.208128937143755e-07,2.2437003372406878e-07,2.5554662224834986e-07,-1.9802067553447608e-08,-3.9687502655279107e-07,-9.930871427563224e-08,-1.2163241909891502e-06,9.8387135660799e-08,2.997946436572341e-07,-1.5474620067227985e-07,-1.8326366660574187e-07,-3.277031503952124e-07,-2.9286240002458452e-08,9.258512441483566e-07,-5.160980628383199e-07,-1.9517441874646566e-07,-2.0381964496365173e-06
1.0404601948736062e-07,-7.453326159880045e-07,2.132954494354045e-07,3.342171021274376e-07,-1.0754886637439126e-07,-4.068082823087459e-07,-4.6756767906380696e-08,-1.1808244262651443e-06,-6.755030292792414e-07,3.1682616351050624e-07,-1.620359056894889e-07,-1.5205998321557125e-07,-2.3649856153473e-07,3.663286203312169e-08,9.573270978144322e-07,-5.708927866387275e-07,-1.2334955624905755e-07,-1.8084490721015271e-06
9.030922733023172e-08,-7.68629447655088e-07,2.231420591421911e-07,4.376224512119531e-07,-2.068253035880322e-07,-4.0473292803886894e-07,1.921625778559128e-08,-1.2345922982450829e-06,-1.3745800668444904e-06,3.2815418432038314e-07,-1.6304266241443515e-07,-1.0707121586802002e-07,-1.5674252023252107e-07,1.7110087110645965e-07,9.95002959448912e-07,-6.515887512457027e-07,-5.854979880498164e-08,-1.546707154935338e-06
6.343555480955763e-08,-7.885664855430238e-07,2.447995534832457e-07,5.086241018660529e-07,-3.001850595533901e-07,-3.9750660587757165e-07,8.871819141501405e-08,-1.4045847713425145e-06,-1.8047217859318129e-06,3.2654788920978093e-07,-1.5675967341065043e-07,-5.228755842829833e-08,-1.0091443676219155e-07,2.9424517666548e-07,1.0387302542614263e-06,-7.20736383930174e-07,-6.043508263363494e-09,-1.3182095905759758e-06
2.9329769153860896e-08,-8.026336483792772e-07,2.6852618246746526e-07,5.568693582602892e-07,-3.7237699030172445e-07,-3.93861334401681e-07,1.5277431470327715e-07,-1.688462127501708e-06,-1.9074830219973547e-06,3.094355183191553e-07,-1.4390890127448707e-07,7.874414434830559e-09,-7.238725186784567e-08,3.734134423957346e-07,1.0879550456780366e-06,-7.497526381724383e-07,3.20985499374263e-08,-1.1694299787833446e-06
-8.12838678815823e-09,-8.099359197388599e-07,2.843375577625923e-07,5.935929936740105e-07,-4.164636577395486e-07,-4.0260862723704463e-07,2.0401427491068645e-07,-2.0399260505929413e-06,-1.7843904467532432e-06,2.7859165300224577e-07,-1.2824683565606927e-07,6.763730766359988e-08,-6.913185172178814e-08,4.897623478249362e-07,1.1415936825686799e-06,-7.276993564112221e-07,5.470288193745795e-08,-1.1108647531147297e-06
-4.592184657743502e-08,-8.122018954574126e-07,2.8331811309571404e-07,6.177004975983217e-07,-4.3735197992772646e-07,-4.3014359042415753e-07,2.375980710694142e-07,-2.378973273589846e-06,-1.6223789051136078e-06,2.3852639036967767e-07,-1.1562844228361831e-07,1.2015600711714408e-07,-8.697678028632919e-08,4.735407323047644e-07,1.1986571169803643e-06,-6.609165242172954e-07,6.059465110008184e-08,-1.118433626617305e-06
-8.18806334765851e-08,-8.129908985743024e-07,2.6025432317633064e-07,6.304494177408054e-07,-4.513303323969574e-07,-4.781326601266266e-07,2.522765747526604e-07,-2.618907797326508e-06,-1.5600077623013871e-06,1.9484492950050444e-07,-1.1124963539044084e-07,1.5929087131332149e-07,-1.2030194569841578e-07,3.7685816009383965e-07,1.2583541722477564e-06,-5.664821704733087e-07,5.011736355669609e-08,-1.1500043482055689e-06
-1.1679684573062733e-07,-8.157605427114409e-07,2.155594665436107e-07,6.314087541940755e-07,-4.775547070233093e-07,-5.428502612281498e-07,2.504426418143809e-07,-2.6919478928502213e-06,-1.5887955046161842e-06,1.527356783282753e-07,-1.1745375901006697e-07,1.8121813650035734e-07,-1.6207115155310655e-07,2.8259238756846644e-07,1.3189194514083134e-06,-4.6486124175839783e-07,2.680170676572535e-08,-1.165636470151086e-06
-1.492360980053403e-07,-8.231452562630053e-07,1.5432660903146578e-07,6.194559569805362e-07,-5.304966971690905e-07,-6.169402463034759e-07,2.3824724189163056e-07,-2.56588903810439e-06,-1.570488655502956e-06,1.1560982429780989e-07,-1.338320476419698e-07,1.8469347313002379e-07,-2.0522840841284967e-07,2.2536094086829133e-07,1.3761842390985978e-06,-3.7583292457310256e-07,-2.8834981786058636e-09,-1.142106764147331e-06
-1.8079857126458724e-07,-8.36351158075966e-07,8.325343058158863e-08,5.945819836388018e-07,-6.147652314326759e-07,-6.923383018937153e-07,2.1976852754018835e-07,-2.251716384981219e-06,-1.3602717328808095e-06,8.423632098997016e-08,-1.589290092901731e-07,1.7049276253151249e-07,-2.447750647207664e-07,2.1049784643782673e-07,1.4235011081986493e-06,-3.1737703455744005e-07,-3.1911126323572814e-08,-1.0780644951772363e-06
-2.1442012039169402e-07,-8.554077262443021e-07,8.108875964319382e-09,5.592825198557776e-07,-7.273800768133943e-07,-7.625091301048394e-07,1.977564382930546e-07,-1.8010417856650835e-06,-9.314729022114866e-07,5.7788939359608135e-08,-1.9151508822218027e-07,1.4097100277629215e-07,-2.7877374018884797e-07,2.3309970377308678e-07,1.4532940460091292e-06,-3.0389373953498814e-07,-5.5205592830249016e-08,-9.891425229788222e-07
-2.5023706609331523e-07,-8.793544223201904e-07,-6.705075247808318e-08,5.185359862659052e-07,-8.472698008947798e-07,-8.232246250371425e-07,1.7480898988614596e-07,-1.294662749920519e-06,-4.0070339256655054e-07,3.5281876145785605e-08,-2.3046372801201528e-07,1.0016143602892288e-07,-3.080135178855586e-07,2.70197424202706e-07,1.459243456477501e-06,-3.4165603476164177e-07,-7.148489729219193e-08,-8.966291873753417e-07
-2.8757700844333893e-07,-9.077328576740897e-07,-1.3972706663071605e-07,4.781950668187799e-07,-9.593340760999364e-07,-8.723308930124637e-07,1.513669409011181e-07,-8.270979420129563e-07,4.4671989910845714e-08,1.6505757199237073e-08,-2.7421868314806286e-07,5.3343732323226196e-08,-3.3527538980050487e-07,2.958783596782873e-07,1.4380403882003945e-06,-4.2439612886254514e-07,-8.40799623638444e-08,-8.178153473561214e-07
-3.2492553572429675e-07,-9.382299772132299e-07,-2.0883416048511636e-07,4.428943763826631e-07,-1.0469045193249564e-06,-9.094486629454042e-07,1.3031260195137615e-07,-4.899324073885974e-07,2.4011918802259373e-07,1.8874014600603017e-09,-3.2104023787371367e-07,5.6103395653878426e-09,-3.646939445265335e-07,2.934454794322964e-07,1.3902203440255513e-06,-5.34295933530057e-07,-1.0098979768887777e-07,-7.635175759722605e-07
-3.5311568023738503e-07,-9.681120043925087e-07,-2.74852300768194e-07,4.146283229184956e-07,-1.0988224889096903e-06,-9.35968054472471e-07,1.1312880291629044e-07,-3.5455802339805196e-07,1.0844483258286009e-07,-9.00795997709984e-09,-3.6963310342030414e-07,-3.966743405450529e-08,-4.033523628790422e-07,2.6120092787017723e-07,1.3203529093984342e-06,-6.496352933103261e-07,-1.3311273289117855e-07,-7.413789086554299e-07
-3.736627285855053e-07,-9.987592694155781e-07,-3.3892164719530305e-07,3.929497776225085e-07,-1.1206580995455344e-06,-9.534603330855074e-07,9.890500250818653e-08,-4.575978261508859e-07,-3.0891029293789087e-07,-1.768052650885233e-08,-4.1880788026389604e-07,-8.089277350859059e-08,-4.540579464758879e-07,2.0901382487755667e-07,1.237031118724354e-06,-7.538416725990389e-07,-1.8931568302155576e-07,-7.593639019037697e-07
-3.953216843371393e-07,-1.0315446227463102e-06,-4.008527601438371e-07,3.754194532045145e-07,-1.1226226552945131e-06,-9.650318699857195e-07,8.647963974253253e-08,-7.931535407944209e-07,-8.552834851814745e-07,-2.60287434755195e-08,-4.661423103041734e-07,-1.1677483789033854e-07,-5.156108890053706e-07,1.5021922766239383e-07,1.1522335250538585e-06,-8.395241891384546e-07,-2.702537151931158e-07,-8.248377468692685e-07
-4.173214331324628e-07,-1.0666054786881942e-06,-4.5771426963618026e-07,3.622721558363125e-07,-1.1198127965912528e-06,-9.72940454294205e-07,7.59171042486913e-08,-1.3110408820870071e-06,-1.3061669625492412e-06,-3.5438164187161845e-08,-5.074398447294547e-07,-1.453346045005789e-07,-5.827065758036972e-07,9.409662942429943e-08,1.0790607366133402e-06,-9.06869707210525e-07,-3.6590721888031816e-07,-9.3957832809243e-07
-4.37612667880975e-07,-1.102457594818149e-06,-5.043332368987848e-07,3.5554515066163905e-07,-1.120172493091541e-06,-9.777512017830249e-07,6.877169165339826e-08,-1.9186941379153734e-06,-1.4611108344761272e-06,-4.635241893483392e-08,-5.383398507686964e-07,-1.6478492567453879e-07,-6.444272564928693e-07,4.447155189818963e-08,1.0279750053607117e-06,-9.602615757437424e-07,-4.591014434500031e-07,-1.0948488180921677e-06
-4.4891542648958865e-07,-1.1355481005776464e-06,-5.35586431261999e-07,3.5420830441738245e-07,-1.124406738011857e-06,-9.799797778053726e-07,6.584125490155469e-08,-2.4914805033400578e-06,-1.2499536370559907e-06,-5.858066908198234e-08,-5.569036722214396e-07,-1.7539741501400991e-07,-6.941585241505241e-07,3.527707745280295e-09,1.0035356426508344e-06,-1.005014690458479e-06,-5.324161444564562e-07,-1.2708547799163704e-06
-4.5799366450826846e-07,-1.1624472385780281e-06,-5.489845308706795e-07,3.5699304291309526e-07,-1.1260806796618332e-06,-9.802867531048236e-07,6.788451002818454e-08,-2.8992861055189866e-06,-7.885247915794006e-07,-7.160016636688083e-08,-5.647249024205703e-07,-1.8026789306738726e-07,-7.288089422775282e-07,-2.5065281325015952e-08,1.0038048464446678e-06,-1.0435836651632876e-06,-5.73399132289008e-07,-1.4426101580614884e-06
-4.648972194268124e-07,-1.1821861947718266e-06,-5.459607250081673e-07,3.6154205877755183e-07,-1.1184150825810392e-06,-9.796657597677955e-07,7.337103812100895e-08,-3.046874985869486e-06,-3.3402831860465385e-07,-8.438628912632307e-08,-5.655946609369705e-07,-1.8406979906359803e-07,-7.486487237491455e-07,-3.77962484367113e-08,1.0224869911912517e-06,-1.0724090664701225e-06,-5.768888490113772e-07,-1.589114195022458e-06
-4.701939620273531e-07,-1.1961065326266041e-06,-5.31263542652472e-07,3.657008208154671e-07,-1.1100625044755295e-06,-9.786762782562196e-07,7.910169093136323e-08,-2.912820589197605e-06,-1.5594714257007602e-07,-9.485152576064883e-08,-5.63256629531355e-07,-1.9118599155686222e-07,-7.578083185587386e-07,-4.012246894101578e-08,1.0518217853915005e-06,-1.0873374590637388e-06,-5.450474455283498e-07,-1.6993203338390598e-06
-4.780573293320872e-07,-1.2062395327018892e-06,-5.121211694319527e-07,3.69338491277801e-07,-1.0921785274147853e-06,-9.780053036964784e-07,8.40523373292706e-08,-2.5668218819076456e-06,-3.9203933071067013e-07,-1.0020503832790982e-07,-5.60428922949416e-07,-2.04784631027819e-07,-7.591003870974799e-07,-4.0802971270046404e-08,1.0846137468195633e-06,-1.0795980019072719e-06,-4.87585948720152e-07,-1.7720328455270334e-06
-4.83572659641235e-07,-1.2139270641434629e-06,-4.931356251040538e-07,3.724411870353103e-07,-1.0580916474284553e-06,-9.763643880623476e-07,7.366634663418178e-08,-2.14831258643108e-06,-9.708773092833538e-07,-9.829946873270028e-08,-5.594532531899921e-07,-2.2687783181180836e-07,-7.581769432512938e-07,-5.0671632020500335e-08,1.115444770825068e-06,-1.045084008566378e-06,-4.2006854568315075e-07,-1.8122648178658804e-06
-4.88416505053771e-07,-1.22259684098627e-06,-4.806402559304619e-07,3.719627506451614e-07,-1.0251038626158814e-06,-9.725816000526249e-07,4.958785254819755e-08,-1.809564914670651e-06,-1.6510352940257035e-06,-8.897759388410445e-08,-5.629416040641709e-07,-2.5826257718711346e-07,-7.604198693593921e-07,-8.62532028961e-08,1.1413682761525742e-06,-9.99285310755554e-07,-3.5990274797231187e-07,-1.8267382863910817e-06
-4.985674359102878e-07,-1.235598973562384e-06,-4.792474045943491e-07,3.6399428799921063e-07,-9.85286804518398e-07,-9.667902493177524e-07,1.8099065314724197e-08,-1.656335774605896e-06,-2.1507615332988946e-06,-7.440545127069728e-08,-5.729013592617618e-07,-2.975682642555459e-07,-7.723673211155694e-07,-1.5741420726099625e-07,1.1616148932489364e-06,-9.627079449758136e-07,-3.22162012440104e-07,-1.8187599160246352e-06
-4.966215520693119e-07,-1.2531458343841709e-06,-4.887041583751379e-07,3.451602951309527e-07,-9.686086088689758e-07,-9.595878866005123e-07,-1.146508341049186e-08,-1.7206690074038905e-06,-2.27303707585244e-06,-5.78150512216246e-08,-5.890609921024822e-07,-3.4072307110453347e-07,-7.959745519835128e-07,-2.6774025273366564e-07,1.1761285330056534e-06,-9.581857875364933e-07,-3.159905735402217e-07,-1.7832501128006463e-06
-4.906523246110049e-07,-1.259844987846684e-06,-5.041506019518604e-07,3.136847607699368e-07,-9.796461404870668e-07,-9.514878337771556e-07,-2.1843535703482582e-08,-1.970645441720817e-06,-1.952863566587458e-06,-4.206566257834472e-08,-6.086844610437582e-07,-3.818908924615182e-07,-8.291037180602863e-07,-4.155242928257672e-07,1.1835502495224307e-06,-9.992995737510213e-07,-3.4274683182603644e-07,-1.7063089399681623e-06
-4.825330539328433e-07,-1.2540307204262514e-06,-5.194919906827043e-07,2.75028165903334e-07,-1.0067760039256608e-06,-9.468833944494299e-07,-4.553817700854078e-08,-2.338014031856112e-06,-1.2418725187553242e-06,-2.924049289032173e-08,-6.287839824047915e-07,-4.1829930111177906e-07,-8.70534497846597e-07,-5.836813366780356e-07,1.1794029503282786e-06,-1.0789365007703727e-06,-3.9631824321508964e-07,-1.57429604309665e-06
-4.849289093231365e-07,-1.2505881176081865e-06,-5.249648861205908e-07,2.3465350837387242e-07,-1.0191289014074074e-06,-9.521537040118252e-07,-8.287266266041529e-08,-2.7446518648607774e-06,-2.809663149917165e-07,-2.0258918093312104e-08,-6.487736541013342e-07,-4.487998590794532e-07,-8.996548717349643e-07,-7.170656092529364e-07,1.1552929278735477e-06,-1.1415163983049865e-06,-4.658647018260811e-07,-1.3895307420165099e-06
-4.995152120933942e-07,-1.2418907386292944e-06,-5.128757248390064e-07,1.952289739011355e-07,-1.0008360131835545e-06,-9.756938756886604e-07,-2.0825157627412043e-07,-3.1213219361865074e-06,7.242759744341443e-07,-1.8643363070349564e-08,-6.707604145183515e-07,-4.758338682243981e-07,-9.227769028639219e-07,-8.077626413106001e-07,1.1000425782441068e-06,-1.1413301748967334e-06,-5.398193094960176e-07,-1.1803693353064455e-06
-5.072014596803636e-07,-1.2258912868252487e-06,-4.818895667800772e-07,1.8156893808974707e-07,-9.561160130742772e-07,-1.026158058684465e-06,-4.1103319237928667e-07,-3.4199364538298704e-06,1.5399353305929088e-06,-2.3748385647360126e-08,-6.969005508923092e-07,-5.083484031818509e-07,-9.5830652288444e-07,-8.300050665404491e-07,1.0030024057800874e-06,-1.1004487657526145e-06,-6.096232160860595e-07,-9.963193551005393e-07
-4.95250799659375e-07,-1.2004466692103964e-06,-4.3414155037927526e-07,1.7900104593893558e-07,-8.2962753272397e-07,-1.1095424666567282e-06,-5.613852764485177e-07,-3.617419120577186e-06,1.963763118602825e-06,-3.707287226114946e-08,-7.260761710336551e-07,-5.545732868502208e-07,-1.0130528449696288e-06,-7.670460178345415e-07,8.584966292590054e-07,-1.175974637266131e-06,-6.707843991156588e-07,-8.915975553468672e-07
-4.4447508969091397e-07,-1.1560827968841623e-06,-3.768772623389618e-07,1.1759102491617065e-07,-7.941162522887893e-07,-1.2226458946502786e-06,-6.607898015789796e-07,-3.7066285313159916e-06,1.896475138071729e-06,-5.926900573727655e-08,-7.527057129812352e-07,-6.217027475118922e-07,-1.0780565002026578e-06,-8.217313095155633e-07,6.65651304512755e-07,-1.4220516577089255e-06,-7.219117072848864e-07,-9.068499992765412e-07
-4.1566029066526174e-07,-1.08979053248601e-06,-3.136209122274121e-07,7.95855170313749e-08,-8.444443045679669e-07,-1.3477642819034785e-06,-7.54685203518321e-07,-3.679791054529825e-06,1.3822922974864593e-06,-8.906900038203051e-08,-7.685687718705914e-07,-7.094490969197244e-07,-1.1393345005080642e-06,-7.679225208340487e-07,4.3916526638771807e-07,-1.748123563529041e-06,-7.621469713921188e-07,-1.0546455309616007e-06
-3.8331938334539537e-07,-1.027930245958097e-06,-2.4874380294929705e-07,5.8983808673794585e-08,-9.008911594659335e-07,-1.4685688949220587e-06,-9.157678734422856e-07,-3.523196803804558e-06,5.84950168086374e-07,-1.2682694444690894e-07,-7.659570195941393e-07,-8.09160625309382e-07,-1.1380876688413605e-06,-5.839744716032843e-07,2.0361943444109456e-07,-1.8469419164921347e-06,-7.898500507902835e-07,-1.3107990735252442e-06
-3.5476315349391914e-07,-9.656378985215198e-07,-1.8241940467635358e-07,5.3361060074596573e-08,-9.034473694785152e-07,-1.5447144790293983e-06,-1.143444208013993e-06,-3.2345652707214806e-06,-2.876676565498187e-07,-1.6895996297267638e-07,-7.39709923770143e-07,-8.8882269076808e-07,-1.017231378882612e-06,-3.9055572854715706e-07,-1.3275450184413878e-08,-1.7165892023710949e-06,-8.024344757371654e-07,-1.6155856586056367e-06
-3.5101289782459133e-07,-8.715323834090636e-07,-1.0896187737821725e-07,1.315379572807654e-07,-8.46671061001432e-07,-1.529393672661027e-06,-1.290198958853522e-06,-2.8508338136731198e-06,-1.0608055042739827e-06,-2.160447902604552e-07,-6.876129293401919e-07,-9.148937840290765e-07,-9.636897234777137e-07,-2.777099895512513e-07,-1.2239506795765009e-07,-1.5403407258192686e-06,-7.967123826710038e-07,-1.8888779076313335e-06
-3.348473868651185e-07,-7.61711925165568e-07,-1.5046866868004907e-08,1.971117228434465e-07,-7.758430569675886e-07,-1.5229476023428988e-06,-1.411505226458204e-06,-2.454981285686651e-06,-1.6257309460131932e-06,-2.4370862120340335e-07,-6.107448893061571e-07,-8.728067805668041e-07,-9.429375956066745e-07,-1.8007891044685398e-07,-1.6875196337901109e-07,-1.3770370422967589e-06,-7.705835749930091e-07,-2.0566053914569206e-06
-3.0898526364117513e-07,-6.570196144777986e-07,8.652001786011843e-08,2.4714172064481354e-07,-7.042890066432153e-07,-1.5494389337271473e-06,-1.5356535486664906e-06,-2.1497851411032698e-06,-1.9240404163163585e-06,-2.445706075863129e-07,-5.147286025157136e-07,-8.305161527782201e-07,-9.154409201843575e-07,-8.522529561488219e-08,-2.249250918325422e-07,-1.2680284262536596e-06,-7.260316016018682e-07,-2.0791805371137306e-06
-2.4087507866057814e-07,-5.619165028350173e-07,2.012941856268744e-07,2.93555097157872e-07,-6.350621641615085e-07,-1.455428420530287e-06,-1.6235113575182218e-06,-2.011013864182538e-06,-1.9242101090897337e-06,-2.2453935846130883e-07,-4.104061521830683e-07,-8.302873040692983e-07,-8.984978000273636e-07,2.9300172103097594e-08,-2.961754153748643e-07,-1.1273711526801975e-06,-6.707314509378382e-07,-1.9693655468856914e-06
-2.0100381348505689e-07,-4.841933649866954e-07,3.351103242166376e-07,3.6615431651178204e-07,-5.468651190434173e-07,-1.3131979265568724e-06,-1.7157417712503117e-06,-2.0486375665100518e-06,-1.623739968602915e-06,-1.8696112289012302e-07,-3.1174959221943164e-07,-7.817453585705706e-07,-8.336515863580111e-07,6.025422231145623e-08,-2.4364337646438385e-07,-8.912905366858919e-07,-6.151661496470712e-07,-1.787870319793763e-06
-1.8306433509679856e-07,-4.288198169354557e-07,4.454366096645212e-07,4.978330989440348e-07,-4.1682562806081996e-07,-1.2021653940568837e-06,-1.8166796533147078e-06,-2.2057001641169563e-06,-1.0642388645043612e-06,-1.7193816201621845e-07,-2.3127079569354153e-07,-6.996338551722686e-07,-7.176448406109279e-07,-1.0633515162090646e-07,-1.6240431043967822e-07,-7.957039228891495e-07,-5.676316499356432e-07,-1.6157029515272275e-06
-1.7055519684087026e-07,-3.7357910887123377e-07,5.38623677114495e-07,6.04720405469442e-07,-3.3477335030294785e-07,-1.1299767584471237e-06,-1.8234017990846108e-06,-2.386995482830347e-06,-3.3250934925778635e-07,-1.0501775647663019e-07,-1.7613716296772325e-07,-6.156004517212235e-07,-6.653123450614177e-07,-2.492495993575579e-07,-1.2390161604659918e-07,-8.544104083761386e-07,-5.314805926440855e-07,-1.5176593486431566e-06
-1.708148275063463e-07,-3.292778896187273e-07,5.59042518739541e-07,6.489408869582592e-07,-3.2206474353510773e-07,-1.0897230744972905e-06,-1.7552536241885945e-06,-2.496556020395634e-06,4.549482875491946e-07,-2.9170639920951055e-08,-1.477478818664844e-07,-5.565123116377454e-07,-6.92710974552246e-07,-3.495232485365803e-07,-1.1782612663626597e-07,-8.43299302531937e-07,-5.0680238188177e-07,-1.5161012678805858e-06
-1.7073849319450046e-07,-3.0865879287856817e-07,5.027807838982314e-07,6.499677027606773e-07,-3.648996190066994e-07,-1.085212626289064e-06,-1.7031511155676322e-06,-2.4695864726049222e-06,1.1687462803435812e-06,1.5588470645377753e-08,-1.441436033781944e-07,-5.479921378632198e-07,-7.078132995568058e-07,-4.549213107304072e-07,-1.3457635576279318e-07,-9.157039440910518e-07,-4.940759486454728e-07,-1.5873332807190732e-06
-1.6815134409314325e-07,-3.0696391737089054e-07,4.561043007360186e-07,6.745604707434969e-07,-4.171552899498144e-07,-1.1106838498991661e-06,-1.6585593625220015e-06,-2.292392882152325e-06,1.6745168657587333e-06,5.8417555206226994e-08,-1.622362857703981e-07,-5.46040961938365e-07,-7.238194658446464e-07,-6.344549949929761e-07,-1.7989479840643054e-07,-1.0368993607835821e-06,-4.956186795327709e-07,-1.6800686683616692e-06
-1.485900249324426e-07,-3.0061244365133526e-07,5.014965014400884e-07,6.920422026240057e-07,-4.6282309071373743e-07,-1.1556495465640076e-06,-1.6212634277008055e-06,-2.0083697387549455e-06,1.8409627672410067e-06,5.77340292110114e-08,-1.9787211821328138e-07,-6.166999364303521e-07,-7.202575833755811e-07,-7.172976285011952e-07,-2.530364657353395e-07,-1.0341063213359425e-06,-5.137735534244699e-07,-1.7427814598189994e-06
-1.4074120561591353e-07,-2.917573403941273e-07,5.278993740886962e-07,6.850940609582538e-07,-4.990042787743343e-07,-1.2070519158643904e-06,-1.6100830278929927e-06,-1.7053900139964916e-06,1.5678377481093464e-06,5.710892274020591e-08,-2.447839589770349e-07,-7.030843954241542e-07,-7.341973481823858e-07,-6.595861019899599e-07,-3.48791571060021e-07,-1.1025430839486646e-06,-5.484523541383703e-07,-1.7451532515763252e-06
-1.0829432772837876e-07,-2.940866368342614e-07,5.46089031219997e-07,6.217715501780634e-07,-4.7139232846351037e-07,-1.2515043238195464e-06,-1.6008069624448274e-06,-1.4818723240865879e-06,8.357689335293524e-07,2.462443674950183e-08,-2.9498119788696156e-07,-7.976835919002237e-07,-7.523011114135065e-07,-5.629538420350504e-07,-4.5688188939322787e-07,-1.226923934970423e-06,-5.961458034321148e-07,-1.6858442111934915e-06
-7.582782542309634e-08,-3.019990183541617e-07,5.149611691050774e-07,5.198157241508338e-07,-3.91937946760882e-07,-1.2791871830687094e-06,-1.5766462657704862e-06,-1.4011027611498714e-06,-2.486087734537471e-07,-2.1868472056492796e-08,-3.4134400128047264e-07,-8.763351606722916e-07,-8.389493218098357e-07,-5.279442871952602e-07,-5.634236841202583e-07,-1.2916688995670337e-06,-6.507064787565247e-07,-1.5850200970207735e-06
-6.812879496227588e-08,-3.235697221601601e-07,4.827857954177695e-07,4.5783084748340485e-07,-3.1703767062949684e-07,-1.2878274269194932e-06,-1.5539209856262302e-06,-1.4645091643479543e-06,-1.4478287085768653e-06,-7.067731596513104e-08,-3.804163819211612e-07,-9.314538521620171e-07,-9.038163221846096e-07,-5.00846885652257e-07,-6.53844477458304e-07,-1.4362630275966612e-06,-7.044435700444975e-07,-1.4681117583726924e-06
-9.479461884979936e-08,-3.4420954502221447e-07,4.2322952980725215e-07,3.911920984974164e-07,-2.579720421820558e-07,-1.2831570870264445e-06,-1.5031222632801496e-06,-1.6241082021977663e-06,-2.4505837402653616e-06,-1.1611459846525471e-07,-4.129615495464011e-07,-9.62575142697041e-07,-9.773731709215986e-07,-4.7143199285648716e-07,-7.160532476152131e-07,-1.7183100306933402e-06,-7.491868900181333e-07,-1.352701941843239e-06
-1.3406300230816515e-07,-3.817757667747558e-07,3.3146901076177913e-07,3.165309025807996e-07,-2.4211204999836423e-07,-1.2750729433972496e-06,-1.4281742521561413e-06,-1.8283706621901892e-06,-2.9796434421517642e-06,-1.5248963695366123e-07,-4.4189536480329944e-07,-9.736429770468746e-07,-1.0458857672043795e-06,-5.147921759694466e-07,-7.430165119527719e-07,-1.8415326067673644e-06,-7.782276936795622e-07,-1.2441651086817778e-06
-1.8097129820351082e-07,-4.287122279300587e-07,2.710449185982556e-07,3.205739440166211e-07,-3.235852303136384e-07,-1.272344128879194e-06,-1.3432627549314744e-06,-2.0596497758834376e-06,-2.8990800166022424e-06,-1.7412204204572937e-07,-4.6951687807984587e-07,-9.722235579119682e-07,-1.0061771675990739e-06,-6.445414967976913e-07,-7.34169023176556e-07,-1.8432246329351741e-06,-7.882218985664322e-07,-1.1380578699709915e-06
-2.4719727026497275e-07,-4.926003773677398e-07,1.9854029598418237e-07,3.498114481726978e-07,-4.333443111006883e-07,-1.2801274470954627e-06,-1.2508481577993906e-06,-2.323077701270777e-06,-2.259275878607667e-06,-1.8057919393978669e-07,-4.963244421131621e-07,-9.655470009629339e-07,-9.696785536886181e-07,-7.565574427637983e-07,-6.952665910817755e-07,-1.857809358831896e-06,-7.802082203873409e-07,-1.0274894411900308e-06
-3.0901771722737655e-07,-5.700232634057955e-07,1.2017031661114703e-07,3.6878883153327617e-07,-5.427111151757645e-07,-1.2991795442028154e-06,-1.1673534395729138e-06,-2.59976433467285e-06,-1.264486552287402e-06,-1.7530748532762581e-07,-5.218073526685764e-07,-9.586838025781679e-07,-1.0059170990072577e-06,-8.024280295645135e-07,-6.366982602025576e-07,-1.8942693783214968e-06,-7.587640494968371e-07,-9.132416438577649e-07
-3.6303112122677897e-07,-6.368309115804327e-07,4.747731055354464e-08,3.9825324321555265e-07,-6.31413981696984e-07,-1.3270729816170856e-06,-1.104034382272758e-06,-2.815659196347739e-06,-1.9777633430389631e-07,-1.6475170355499248e-07,-5.454634174262069e-07,-9.537604117580303e-07,-1.0624072335658532e-06,-7.943471204012135e-07,-5.704617742401382e-07,-1.935672660628969e-06,-7.295355484697084e-07,-8.096685656685183e-07
-4.168980237873226e-07,-6.954908352429962e-07,-2.974143755599613e-08,4.1933667828801493e-07,-6.58086987385859e-07,-1.3596813474351323e-06,-1.0672217641690874e-06,-2.8629155312324875e-06,6.644539629646294e-07,-1.560065615446128e-07,-5.663999480804707e-07,-9.493102414350157e-07,-1.1362145189208023e-06,-7.403671479796148e-07,-5.063917684396028e-07,-1.9648958132748414e-06,-6.969596386533911e-07,-7.394122774503681e-07
-4.628346990378661e-07,-7.436756399558816e-07,-1.046065975681669e-07,4.2795379468944137e-07,-6.0969610602212e-07,-1.3921639645387825e-06,-1.0556314170894006e-06,-2.661805203895508e-06,1.1307934786634831e-06,-1.5432991619584915e-07,-5.822299886303742e-07,-9.406951857522095e-07,-1.213727926117762e-06,-6.603648693631008e-07,-4.4941460295625866e-07,-1.9619733735338432e-06,-6.640925709640976e-07,-7.188120174028732e-07
-5.063821192282455e-07,-7.886560695535106e-07,-1.3752893744495413e-07,4.280249045318322e-07,-5.64254105149672e-07,-1.4193261532276986e-06,-1.0706357953291004e-06,-2.217299352521908e-06,1.1369349237051924e-06,-1.6186625853849795e-07,-5.894096735172367e-07,-9.226327531133995e-07,-1.2674657242899261e-06,-5.770255757912161e-07,-3.9972912660450814e-07,-1.9210628353339975e-06,-6.338681348922827e-07,-7.447785918558425e-07
-5.474880703864314e-07,-8.099385384211109e-07,-1.3553590610921943e-07,4.206547069423962e-07,-5.991549939942433e-07,-1.4382233411276696e-06,-1.1054565480189132e-06,-1.6328030768669765e-06,7.36692434392869e-07,-1.780297933041374e-07,-5.85494625586231e-07,-8.926432690845547e-07,-1.2984077544654811e-06,-5.052735942190001e-07,-3.5558805861673874e-07,-1.8425784466418976e-06,-6.086167613712748e-07,-7.929797260495775e-07
-5.830624669570814e-07,-8.143125390115085e-07,-1.161559797747888e-07,4.129492070502071e-07,-6.502766473784851e-07,-1.449239326438059e-06,-1.1500556880712151e-06,-1.0726060495126626e-06,6.916446552074912e-08,-2.0071259555223329e-07,-5.712172093615058e-07,-8.528916967186533e-07,-1.2905027231277599e-06,-4.4913054028374254e-07,-3.1617632883373504e-07,-1.7351951202928642e-06,-5.874175653643481e-07,-8.282724391144014e-07
-6.045708260119035e-07,-8.069119775628093e-07,-7.862154192066353e-08,4.0623905953154837e-07,-7.041729589159758e-07,-1.455247496507764e-06,-1.1974745214818264e-06,-6.907173576332783e-07,-6.755002803841374e-07,-2.27065990744487e-07,-5.502772352286367e-07,-8.092467215248093e-07,-1.250822561071739e-06,-4.055164266131724e-07,-2.8255876380760793e-07,-1.6134830842217985e-06,-5.647383503419219e-07,-8.200853656843009e-07
-6.143314296147386e-07,-7.895549591038875e-07,-4.570669274866866e-08,3.979907861724644e-07,-7.327447203410749e-07,-1.4599759365727556e-06,-1.240210590199716e-06,-5.688236028906912e-07,-1.3072621052808137e-06,-2.535470522730018e-07,-5.273450492045056e-07,-7.688352245448233e-07,-1.1974139556898267e-06,-3.7127071071746814e-07,-2.5704161477136734e-07,-1.4939838475236277e-06,-5.337078134268514e-07,-7.536123499362307e-07
-6.253333566910332e-07,-7.761640827771104e-07,-2.719615977523536e-08,3.8887097955363425e-07,-7.413118836362966e-07,-1.4660527422468476e-06,-1.2740051761502322e-06,-7.020125318335839e-07,-1.7106301645831724e-06,-2.7610082848956464e-07,-5.065680246486212e-07,-7.381189457130042e-07,-1.1445075922993199e-06,-3.477071659735281e-07,-2.424160297623902e-07,-1.39317311020081e-06,-4.926827901418566e-07,-6.338933747546131e-07
-6.374468239109206e-07,-7.670410599038431e-07,-2.3693685776116433e-08,3.806388908368417e-07,-7.381769688841648e-07,-1.474764697311939e-06,-1.297732343479206e-06,-1.0260537686158338e-06,-1.898654867282745e-06,-2.9107227294222734e-07,-4.916295206654484e-07,-7.22253784599594e-07,-1.11266196402924e-06,-3.3977587006318436e-07,-2.4137172127539994e-07,-1.3273781166490782e-06,-4.503345660773205e-07,-4.86928488394386e-07
-6.485769469841226e-07,-7.632034118971656e-07,-3.464157616129823e-08,3.7029812709752235e-07,-7.244885602075274e-07,-1.4866579839471796e-06,-1.3131589255916592e-06,-1.4463746121999653e-06,-1.994420593028109e-06,-2.965847935829532e-07,-4.861163522221212e-07,-7.250054807475648e-07,-1.1095680307754246e-06,-3.5253192818008164e-07,-2.556665552453232e-07,-1.3096836089809916e-06,-4.239619455614115e-07,-3.578980083987944e-07
-6.61010396139127e-07,-7.649083041170705e-07,-6.457875964928488e-08,3.562184736936542e-07,-7.56412082944204e-07,-1.5021931224740081e-06,-1.323391830955549e-06,-1.8578557588546804e-06,-2.1475250572008107e-06,-2.929771529641916e-07,-4.926973016174794e-07,-7.482350982214546e-07,-1.1364095473802719e-06,-3.8953555345277066e-07,-2.856591698930885e-07,-1.34258395569089e-06,-4.3122269240114415e-07,-2.983435566191488e-07
-6.724658371794004e-07,-7.790584558334008e-07,-1.0552532638824686e-07,3.3790638514169014e-07,-8.069335628027336e-07,-1.5213034882947367e-06,-1.3317882132524756e-06,-2.16230511811842e-06,-2.4459263029577254e-06,-2.8205111669560467e-07,-5.11566148294891e-07,-7.911732976895855e-07,-1.1882978493936432e-06,-4.5376751101852767e-07,-3.309144804713199e-07,-1.4133437702675549e-06,-4.805287028832471e-07,-3.422614167990067e-07
-6.829717067520758e-07,-8.039581504909798e-07,-1.48976041804603e-07,3.152624725810855e-07,-8.676334056807984e-07,-1.5449045105129884e-06,-1.3405297692206705e-06,-2.2935394453055e-06,-2.872825114519241e-06,-2.6599466247643675e-07,-5.399636296299378e-07,-8.502553119397637e-07,-1.2508320035764403e-06,-5.474194986773143e-07,-3.908893565581922e-07,-1.4986218822106909e-06,-5.65861787917014e-07,-4.885962450434463e-07
-6.956544735436574e-07,-8.350687730228771e-07,-1.9205709402255022e-07,2.9001142355768656e-07,-9.443944686056665e-07,-1.5712218283629073e-06,-1.3492947644065313e-06,-2.243733900694379e-06,-3.319644262858432e-06,-2.4694745731529426e-07,-5.734928639784272e-07,-9.198106725221514e-07,-1.3079392300993892e-06,-6.683083142213834e-07,-4.64073635698751e-07,-1.5758178417654627e-06,-6.688956386146671e-07,-7.045463580277392e-07
-7.011464765739959e-07,-8.689934253199612e-07,-2.3105937837263592e-07,2.6450787781701527e-07,-1.020990929715076e-06,-1.5982394459986659e-06,-1.3563526544710397e-06,-2.071835642893576e-06,-3.6400505695065463e-06,-2.2714324087445496e-07,-6.079989711720723e-07,-9.930448730500998e-07,-1.3459613577749502e-06,-8.057943237130364e-07,-5.458589508779701e-07,-1.6329526246047379e-06,-7.665612448870069e-07,-9.414626936458168e-07
-6.989099680755943e-07,-8.988871768900599e-07,-2.6666946767613036e-07,2.4297343350126713e-07,-1.1039427809068952e-06,-1.62570290660118e-06,-1.3597695517458179e-06,-1.8842524078787024e-06,-3.712987370587712e-06,-2.0880138319872637e-07,-6.404672526236032e-07,-1.0626332606916604e-06,-1.3583254073813649e-06,-9.407576991403663e-07,-6.27259459107568e-07,-1.6720637114471028e-06,-8.391327204098218e-07,-1.1471011596649034e-06
-6.912622494036201e-07,-9.199064183342446e-07,-2.9986740769310495e-07,2.2938713661270682e-07,-1.1646591512696688e-06,-1.6527607865689075e-06,-1.3580016832434705e-06,-1.791145031022144e-06,-3.4815961307112828e-06,-1.934355835667033e-07,-6.68756587069827e-07,-1.1211293948199258e-06,-1.3483959041734474e-06,-1.0505546491935158e-06,-6.959247881054568e-07,-1.7063464765295778e-06,-8.750324820303189e-07,-1.2732192839661214e-06
-6.791292417126463e-07,-9.277235354080826e-07,-3.3105430391939924e-07,2.2696395709717704e-07,-1.189075572662558e-06,-1.6786960342500953e-06,-1.3496842616439601e-06,-1.8608925193254452e-06,-2.9602892173517033e-06,-1.8165991139321752e-07,-6.911621736915317e-07,-1.1617270390805232e-06,-1.3276705277537314e-06,-1.1177583110302981e-06,-7.390462455222811e-07,-1.7534950724408435e-06,-8.720895943800924e-07,-1.288171723992824e-06
-6.641118816367423e-07,-9.183878154020439e-07,-3.61568392841453e-07,2.3706660472538754e-07,-1.1747770696894225e-06,-1.7029349005733784e-06,-1.3351713032987931e-06,-2.0960630372118436e-06,-2.224059439647346e-06,-1.7428965264555432e-07,-7.065095577424491e-07,-1.179594134944239e-06,-1.3102449379430115e-06,-1.1367564681331378e-06,-7.469321626991562e-07,-1.8283802697647785e-06,-8.364723945936494e-07,-1.1937427736181254e-06
-6.463253194455419e-07,-8.904416509474573e-07,-3.921271386563848e-07,2.578289095861677e-07,-1.1250137046566305e-06,-1.7251758164817406e-06,-1.3161403957152428e-06,-2.439810117253798e-06,-1.3856438353989265e-06,-1.73025301115159e-07,-7.142808312202758e-07,-1.1732724512565446e-06,-1.3060694449725522e-06,-1.1129889065395373e-06,-7.157545148284964e-07,-1.9380523256476938e-06,-7.805058503833088e-07,-1.0309588701302735e-06
-6.264941790727466e-07,-8.456177247188936e-07,-4.2131795695972847e-07,2.8559348463792004e-07,-1.057331625172217e-06,-1.7457767330712914e-06,-1.2954923017356748e-06,-2.8002981116707338e-06,-5.571346992046183e-07,-1.795900935351741e-07,-7.139439694470704e-07,-1.1452703132246554e-06,-1.317225716359053e-06,-1.0594696830523934e-06,-6.481041409400494e-07,-2.080075278074379e-06,-7.197292476707011e-07,-8.644257562315945e-07
-6.040036403189635e-07,-7.88923628004774e-07,-4.4450195327786983e-07,3.166449927113251e-07,-9.869744469925328e-07,-1.764755824499023e-06,-1.2758073781461977e-06,-3.0788847636652107e-06,1.843444180534041e-07,-1.9364639353122982e-07,-7.040051411797084e-07,-1.1013997736662796e-06,-1.3388141409849319e-06,-9.889445855844703e-07,-5.516608560788851e-07,-2.2431884331210442e-06,-6.689504142378139e-07,-7.544953924757267e-07
-5.830944491007527e-07,-7.277615052717151e-07,-4.549750030635162e-07,3.4737360753167054e-07,-9.281819704243253e-07,-1.7800261808967135e-06,-1.2564899688512046e-06,-3.1998139777096057e-06,7.904169920348989e-07,-2.1115653747891632e-07,-6.825607187994887e-07,-1.04946709620891e-06,-1.3634089329845574e-06,-9.089842146499204e-07,-4.379726088847894e-07,-2.409496012316882e-06,-6.381259499492462e-07,-7.357649793511102e-07
-5.628788330838468e-07,-6.720044951361889e-07,-4.4758167389123766e-07,3.7597994281859997e-07,-8.833289308137696e-07,-1.7872203435385239e-06,-1.2337144808705264e-06,-3.1361321541785244e-06,1.201139435143171e-06,-2.2487690128572012e-07,-6.498643599995005e-07,-9.983072945468451e-07,-1.3862868775318015e-06,-8.237399632336626e-07,-3.222124149915096e-07,-2.5590314721998017e-06,-6.303841354067559e-07,-8.107817840756226e-07
-5.450057728982127e-07,-6.290687716856019e-07,-4.230885641835525e-07,4.008611294928902e-07,-8.605791444385704e-07,-1.7819357890234297e-06,-1.2024714763609298e-06,-2.9203488194171256e-06,1.330073855699972e-06,-2.2691458905748864e-07,-6.106481037589843e-07,-9.56779866011326e-07,-1.4080543095465415e-06,-7.382474941183336e-07,-2.2199822976944688e-07,-2.676810953331255e-06,-6.43425540398206e-07,-9.563673644055446e-07
-5.334679093463272e-07,-5.985695701999875e-07,-3.873198862394184e-07,4.190874412676885e-07,-8.617756415991208e-07,-1.7624008625747159e-06,-1.1601274418877587e-06,-2.6340267920163718e-06,1.1096504677887992e-06,-2.1284491692334118e-07,-5.733076441274317e-07,-9.330334800485292e-07,-1.4328726901406762e-06,-6.609173518809921e-07,-1.5316628101351907e-07,-2.75828743980233e-06,-6.727540191385468e-07,-1.137051169755286e-06
-5.293591148218802e-07,-6.016121369395752e-07,-3.4676536485103353e-07,4.283693413573803e-07,-8.818789238148838e-07,-1.7308863356473347e-06,-1.1089188580022566e-06,-2.377813485347591e-06,5.589115602725179e-07,-1.8261705885810557e-07,-5.459141248331716e-07,-9.306189030021465e-07,-1.463414236704597e-06,-6.034666843014481e-07,-1.23952249985759e-07,-2.8078192262757216e-06,-7.135840208603683e-07,-1.3190965327211638e-06
-5.320473518505558e-07,-6.102622711832481e-07,-3.062666865889549e-07,4.2819658367570045e-07,-9.123861533835232e-07,-1.6935729424381431e-06,-1.0562831117620052e-06,-2.2288525215827167e-06,-1.9477373318418608e-07,-1.4087302043752048e-07,-5.322179142669824e-07,-9.475448484132054e-07,-1.497488418246569e-06,-5.784119077145517e-07,-1.3206496683864e-07,-2.831183574535446e-06,-7.602695284714454e-07,-1.4786430887437582e-06
-5.364812369040759e-07,-6.285126816520825e-07,-2.6723293001958063e-07,4.1973899642627027e-07,-9.396865980006626e-07,-1.6579516146876938e-06,-1.013029166050991e-06,-2.203907883022049e-06,-9.668395663308082e-07,-9.459824892337916e-08,-5.307382608261012e-07,-9.77323630576691e-07,-1.528254962099643e-06,-5.933146011561838e-07,-1.6717959362942648e-07,-2.829389698297983e-06,-8.052703285830121e-07,-1.6032987216501506e-06
-5.379856725027969e-07,-6.44347247903182e-07,-2.2855607490063214e-07,4.056859556792469e-07,-9.52274958990122e-07,-1.631761589674282e-06,-9.89572252575715e-07,-2.2517539670570805e-06,-1.5947399317255077e-06,-5.1671941886339656e-08,-5.368815289973487e-07,-1.0109197036411054e-06,-1.5485775892322973e-06,-6.486711650352249e-07,-2.163936739869464e-07,-2.799376311041662e-06,-8.400853619861485e-07,-1.6915543161693493e-06
-5.312708550380515e-07,-6.508649435283527e-07,-1.8850599640507801e-07,3.881721395710679e-07,-9.438840645166085e-07,-1.6203121460647156e-06,-9.92770413550846e-07,-2.2818285419445705e-06,-1.9811227831374643e-06,-1.8186181370565635e-08,-5.453681454587558e-07,-1.0404796275547106e-06,-1.553819253546756e-06,-7.353405966875503e-07,-2.6838685301331425e-07,-2.740949052232901e-06,-8.575890942022145e-07,-1.7525270853225218e-06
-5.1202164029032e-07,-6.444281875600204e-07,-1.4497177313814804e-07,3.69339022889597e-07,-9.10422431767916e-07,-1.6244949098515933e-06,-1.024356420326738e-06,-2.2113523585181486e-06,-2.0893684974617827e-06,3.5742691761946577e-09,-5.509701613303828e-07,-1.057799012731993e-06,-1.5432481483604643e-06,-8.356715492844389e-07,-3.148839852730233e-07,-2.6642192262249215e-06,-8.540317694663365e-07,-1.804554674675209e-06
-4.784953900816169e-07,-6.241240849208476e-07,-9.51182592531803e-08,3.5286197509038484e-07,-8.54117555853845e-07,-1.6422202540490738e-06,-1.080432698908011e-06,-2.0036441989476492e-06,-1.924616045688734e-06,1.512319555875226e-08,-5.483566893276876e-07,-1.0599800787574352e-06,-1.5204119476002881e-06,-9.28540609312391e-07,-3.5072471479420573e-07,-2.5906879793069556e-06,-8.298484554876883e-07,-1.8694800062397622e-06
-4.302432785224411e-07,-5.905908721225446e-07,-3.6285927854530206e-08,3.4290513879713327e-07,-7.760662940713526e-07,-1.668238159224548e-06,-1.1515457882925613e-06,-1.682091319373566e-06,-1.5256839482051832e-06,2.109120252509124e-08,-5.32956313598472e-07,-1.0478352871938132e-06,-1.4903861295514122e-06,-9.935697463422814e-07,-3.7357525579903146e-07,-2.5455422764157933e-06,-7.89920606266028e-07,-1.9617437936541014e-06
-3.6955596878044294e-07,-5.457047807931372e-07,3.486840978398026e-08,3.428472253360106e-07,-6.822646866851857e-07,-1.6955565940603382e-06,-1.2256471789584495e-06,-1.3213682441321233e-06,-9.656395401279674e-07,2.643520976934113e-08,-5.030677759595428e-07,-1.0252177000483942e-06,-1.457200138285155e-06,-1.0170413250060165e-06,-3.8330935195610303e-07,-2.5457204026260168e-06,-7.431190032774176e-07,-2.0772826807426512e-06
-3.003060245387401e-07,-4.928332923190747e-07,1.1539856303113343e-07,3.540510481791092e-07,-5.865582875884664e-07,-1.7182954201434243e-06,-1.2904183784646983e-06,-1.02185236770109e-06,-3.4617967668188316e-07,3.4450309069181525e-08,-4.6135631317125854e-07,-9.99356385639792e-07,-1.42463305827996e-06,-9.972998037612844e-07,-3.8110826047380534e-07,-2.591951622719451e-06,-7.005892477611933e-07,-2.190619324639909e-06
-2.2844563979359292e-07,-4.363265928070034e-07,1.9785308998041205e-07,3.755220052027739e-07,-5.034155988732361e-07,-1.7323192840866587e-06,-1.3361470131793653e-06,-8.714986503985605e-07,2.152627512817698e-07,4.625046016882733e-08,-4.138022518232191e-07,-9.772248304594358e-07,-1.3959415847810363e-06,-9.444459937884895e-07,-3.688793747707938e-07,-2.6705269043765793e-06,-6.729482570442911e-07,-2.2640430999145944e-06
-1.5866622329770896e-07,-3.800084925220942e-07,2.768644344780623e-07,4.052259057119081e-07,-4.442369490226595e-07,-1.7334321424218547e-06,-1.357041337479406e-06,-9.081716468430361e-07,5.967539577996322e-07,6.190485276243978e-08,-3.664811714663447e-07,-9.641422335488454e-07,-1.3722772383539041e-06,-8.765414683634613e-07,-3.497299420602333e-07,-2.7624168083579417e-06,-6.677215651649329e-07,-2.2646100869501328e-06
-9.219111628001854e-08,-3.2567404980002675e-07,3.4804209991248046e-07,4.4188095781269515e-07,-4.106491924169185e-07,-1.7184545926190754e-06,-1.3505278662268988e-06,-1.1055187427163921e-06,6.921710726711163e-07,8.132070423186675e-08,-3.228480428883217e-07,-9.629294498772124e-07,-1.354314896605124e-06,-8.152169677178788e-07,-3.292066099929917e-07,-2.850985519905235e-06,-6.870619127678356e-07,-2.1785233114653853e-06
-2.8971961552311334e-08,-2.728491761149501e-07,4.0865592199022374e-07,4.838382697283091e-07,-3.9469872385363836e-07,-1.6850535232155549e-06,-1.3174142553160469e-06,-1.3911826500306017e-06,4.5837571928101815e-07,1.0422205260305331e-07,-2.836012005832124e-07,-9.750503505876987e-07,-1.3414735485001759e-06,-7.815700299975637e-07,-3.1573687356257544e-07,-2.9234859468895156e-06,-7.281401280948944e-07,-2.0152935928646856e-06
3.172010236705034e-08,-2.2076824746011397e-07,4.5840689554998617e-07,5.27602445576664e-07,-3.8150673786609336e-07,-1.6320094506966952e-06,-1.2617697099504778e-06,-1.6817426053881543e-06,-3.2364980600408206e-08,1.296276266630556e-07,-2.4837369952309374e-07,-1.0017685703297093e-06,-1.3283527903458867e-06,-7.900672051590865e-07,-3.1892744016278257e-07,-2.96994171776933e-06,-7.854937738106202e-07,-1.8021870982349782e-06
8.969339175086201e-08,-1.7032035771002646e-07,4.97607938302072e-07,5.678418786700712e-07,-3.582588069108107e-07,-1.5610540213575103e-06,-1.191576972051188e-06,-1.9173583300901665e-06,-5.933170918928398e-07,1.5557993324485477e-07,-2.1687058297948283e-07,-1.0399702143488683e-06,-1.3133713184808876e-06,-8.416394992374088e-07,-3.4593163666534415e-07,-2.983726384021656e-06,-8.520665706592811e-07,-1.5752292602599233e-06
1.4322778287356757e-07,-1.2464579389940037e-07,5.258156847178893e-07,5.989921642485038e-07,-3.184249969630733e-07,-1.4772156551573162e-06,-1.1160268621261001e-06,-2.082455870888233e-06,-1.005552767690431e-06,1.7928227936397147e-07,-1.883938625091643e-07,-1.0858130447533934e-06,-1.2956973291439754e-06,-9.221021595630621e-07,-3.9773447467774937e-07,-2.963251305684848e-06,-9.18473540328748e-07,-1.3727372076982368e-06
1.9003630306637044e-07,-8.822511469398315e-08,5.443189314454623e-07,6.180071334074012e-07,-2.7718035552193626e-07,-1.3883061814011126e-06,-1.043326162199534e-06,-2.202149009258644e-06,-1.1319922745517995e-06,1.9803284488530425e-07,-1.6111356086211624e-07,-1.1336456185154229e-06,-1.2670356855450075e-06,-1.000789404572328e-06,-4.678490767563424e-07,-2.912620280247853e-06,-9.728932554792799e-07,-1.232280938931356e-06
2.282524694247721e-07,-6.515858877018821e-08,5.550470336804392e-07,6.25290365225527e-07,-2.3772775681545552e-07,-1.3041234388542772e-06,-9.798660611306097e-07,-2.3154558270796034e-06,-9.789532840029924e-07,2.0951893717524672e-07,-1.3287909791601064e-07,-1.1756518238283631e-06,-1.221201222357401e-06,-1.0444307180342578e-06,-5.447635800680209e-07,-2.841314531846505e-06,-1.0041301284132615e-06,-1.183936862752609e-06
2.5686907418282674e-07,-5.82283776812821e-08,5.585527210691172e-07,6.232861672828868e-07,-2.0624144399261453e-07,-1.2351369505963076e-06,-9.309911405099111e-07,-2.4464428240373473e-06,-6.650984954358858e-07,2.1255889804687689e-07,-1.0337534014273768e-07,-1.2077555340664256e-06,-1.152581784176519e-06,-1.0385267218814233e-06,-6.144689128382248e-07,-2.7636133095721055e-06,-1.0062459655323367e-06,-1.2370690287148667e-06
2.739587762231753e-07,-6.849090382227062e-08,5.53115504242312e-07,6.152587744603822e-07,-1.8001976359278995e-07,-1.1904453536315003e-06,-9.012943077922014e-07,-2.5843373052601027e-06,-3.273569540284517e-07,2.0743384856991895e-07,-7.551998011952181e-08,-1.2292097173697608e-06,-1.0695431803964072e-06,-9.923013573184297e-07,-6.725782942134696e-07,-2.697298876766316e-06,-9.818778204852595e-07,-1.3740123387763006e-06
2.7950833128405226e-07,-9.432750915152704e-08,5.36411176976885e-07,6.043204952471151e-07,-1.6651979332728668e-07,-1.175137568448082e-06,-8.929121860147884e-07,-2.6780072344765537e-06,-2.9584575403409238e-08,1.961518125125554e-07,-5.452709858363337e-08,-1.2437413561363271e-06,-9.855548736397733e-07,-9.361531722528785e-07,-7.203735464997256e-07,-2.6609601191209934e-06,-9.427170762421335e-07,-1.5608419386521815e-06
2.757937916397194e-07,-1.3218431579032207e-07,5.069023061262368e-07,5.939092411113787e-07,-1.7312768693550796e-07,-1.1881883639467039e-06,-9.043371294098602e-07,-2.6524785911162667e-06,2.6714631446684827e-07,1.8237603043426547e-07,-4.550881880891116e-08,-1.2565795977036548e-06,-9.482240967905281e-07,-9.078005437018639e-07,-7.5593550035406e-07,-2.6695328162727396e-06,-9.062692627265012e-07,-1.7640556593678086e-06
2.6540707960438653e-07,-1.7610203959437213e-07,4.648443875583452e-07,5.868645413562318e-07,-1.9683169161767447e-07,-1.2225386072687527e-06,-9.308805645112926e-07,-2.4483459436627684e-06,6.5208272852632e-07,1.7023202050603276e-07,-5.184428017813977e-08,-1.2734574346857673e-06,-9.960264859711958e-07,-9.268652285882276e-07,-7.86989703119794e-07,-2.728799855497278e-06,-8.912294546399274e-07,-1.959807046430138e-06
2.518206952075932e-07,-2.2003440443145651e-07,4.1128489239298424e-07,5.837456995045246e-07,-2.3733108096844334e-07,-1.2681189705405266e-06,-9.664116179500998e-07,-2.067108087450331e-06,1.1645816547877347e-06,1.6245557561799924e-07,-7.521464241004037e-08,-1.2992030574076972e-06,-1.1094842096530805e-06,-9.82551192262066e-07,-8.191177169770625e-07,-2.832056726926689e-06,-9.119736531009369e-07,-2.1367646040966418e-06
2.3606043942223112e-07,-2.595134044390096e-07,3.47205711530604e-07,5.816625405808003e-07,-2.620895957727392e-07,-1.3155991649120593e-06,-1.005828312503135e-06,-1.5926153987965917e-06,1.7151997830330693e-06,1.590147096561225e-07,-1.1612187666342041e-07,-1.336796287973546e-06,-1.2004840908130609e-06,-1.0537590445697892e-06,-8.553049418585047e-07,-2.9626903067958753e-06,-9.74641247755175e-07,-2.297036645598224e-06
2.1672518967975027e-07,-2.9366131092620595e-07,2.728196452103049e-07,5.754242449326699e-07,-2.7981038492422944e-07,-1.358727419135078e-06,-1.0456375628864211e-06,-1.1687269050340041e-06,2.0863751411423612e-06,1.5646397031224577e-07,-1.734993979086809e-07,-1.385899715758024e-06,-1.2373964951854993e-06,-1.11242668021572e-06,-8.992473563674688e-07,-3.102124736992369e-06,-1.0761615870789594e-06,-2.4521512643539995e-06
1.8993018723547473e-07,-3.239067914378841e-07,1.8909012775032997e-07,5.596593226051639e-07,-3.0036384090778885e-07,-1.3926309534182043e-06,-1.0845440105788066e-06,-9.368746917187584e-07,2.0246256071248597e-06,1.5048812228104673e-07,-2.437106871778721e-07,-1.4441420464313896e-06,-1.309143162601022e-06,-1.1401702627777315e-06,-9.46234721660656e-07,-3.244509608806401e-06,-1.2079582436214507e-06,-2.611631284159189e-06
1.5594329188740183e-07,-3.503075073317856e-07,9.912998246710365e-08,5.323131180624681e-07,-3.475687618824713e-07,-1.4181699671023108e-06,-1.121280649965739e-06,-9.712914656288298e-07,1.3742099687264585e-06,1.3789532112919318e-07,-3.204579981513656e-07,-1.5029486759631244e-06,-1.4302277019872e-06,-1.1424969581195325e-06,-9.606484272652646e-07,-3.377766547656482e-06,-1.3461174522441487e-06,-2.771033606612463e-06
