0,1,2,3,4,5,6,7,8,9,10,11,12,13,14,15,16,17
-9.952372337320583e-08,2.388965001408249e-07,1.6913264414228247e-08,2.8087401172952406e-08,6.29729306917177e-08,1.9264192841666664e-08,3.428771408830094e-07,4.434311978778614e-08,7.043487297165693e-08,1.2755558045125883e-07,5.754536840259276e-09,-1.4656873132357156e-07,-7.505396001475139e-08,6.708046503479223e-08,6.804842150562224e-08,2.709680889694488e-07,1.8592638576446906e-07,4.80380197099631e-08
-1.1283098881746056e-07,2.1502816982370396e-07,-4.9401569970519055e-09,8.597941686159427e-09,9.216995755583878e-08,6.6403898739581594e-09,3.242823846684447e-07,9.627915775126303e-08,5.389368087881259e-08,9.921206297056742e-08,8.038545933240414e-09,-1.5164866387529632e-07,-3.2399252585831e-08,7.082939682689827e-08,1.8153393087655774e-08,1.9546735896721383e-07,1.891459010771565e-07,4.690148103056189e-08
-8.633942330468507e-08,2.0311508215379435e-07,-1.8773687030150438e-08,1.2855827357090324e-08,9.819394036126138e-08,1.901619773824082e-09,3.3106587312133035e-07,1.1747065511418311e-07,3.5616043075344894e-08,6.399667445906845e-08,7.985997408564216e-10,-1.3597055387974116e-07,3.639032619958864e-08,2.763931274923563e-08,-1.953999121153999e-08,9.892779942456612e-08,1.7861512079316298e-07,3.670240770027267e-08
-5.7852749241264654e-08,1.591593216335071e-07,-2.485570142117093e-08,2.3260580894315806e-08,8.382549314394347e-08,1.6710649080829357e-09,2.5978091506159004e-07,1.2602476329726212e-07,1.802770993539406e-08,2.7467563560153868e-08,-1.179370294504711e-08,-1.0476905565083753e-07,-1.7967986068821104e-08,-2.763009290185446e-08,-4.299406828004243e-08,2.886057971709205e-08,1.364025438606434e-07,2.1085416970945113e-08
-3.454597141795763e-08,9.230039674248376e-08,-2.4486116428210435e-08,2.436036621247879e-08,5.546671959570905e-08,2.142012870658057e-09,1.3195076692825482e-07,5.216098229293467e-08,3.368809548416965e-09,-4.771467965317323e-09,-2.503296192626208e-08,-6.537190693381945e-08,-9.430110654398847e-08,-6.000233478709865e-08,-5.388220183276241e-08,-2.018669624307056e-08,8.467509732934924e-08,4.253387771694481e-09
-1.1383198618864288e-08,2.3923262912921323e-08,-1.9045209783749594e-08,1.933533871658695e-08,2.079275410203457e-08,1.4622709978104666e-09,2.3351828009888283e-08,-3.4555227610608115e-08,-6.933771672217408e-09,-2.8801179017125347e-08,-3.44877920124846e-08,-2.4698723385546133e-08,-1.097699472725558e-07,-7.139848154726477e-08,-5.5225056407868e-08,-5.3353027469644465e-08,3.5041566341807246e-08,-1.0059714692650473e-08
8.694807178971207e-09,-2.2852416881545548e-08,-1.0231741858667946e-08,1.8654436037476043e-08,-1.3098279024055692e-08,-2.676742371894165e-10,-5.193432147836585e-08,-9.077396373582471e-08,-1.2934781556476641e-08,-4.240845733036586e-08,-3.708401314674344e-08,1.179522766968726e-08,-1.2981429768001482e-07,-6.456798513480042e-08,-4.984682792261631e-08,-6.773611895917486e-08,-1.3219085396116915e-08,-1.968790625352901e-08
2.181068756482678e-08,-5.199360495628092e-08,-2.0642913190025155e-10,1.881848722151391e-08,-3.976265074745563e-08,-1.8566559116557714e-09,-1.0592145787199726e-07,-1.1905765734423676e-07,-1.5896707589267953e-08,-4.613589694667923e-08,-3.208765234382221e-08,4.078357743334812e-08,-1.239593939506089e-07,-4.286763979559949e-08,-3.9529867650017965e-08,-6.78535108058799e-08,-4.652152736853448e-08,-2.410380392891765e-08
3.066215458155865e-08,-7.017925414863484e-08,9.045076798958451e-09,1.6981131833746875e-08,-5.610664574195636e-08,-1.9846124707004668e-09,-1.3758653702215308e-07,-1.27125430569978e-07,-1.7228238187083284e-08,-4.2158886723303493e-08,-2.0672696651743994e-08,6.124343661567787e-08,-8.848270606660626e-08,-1.4304857430920341e-08,-2.511622712930633e-08,-5.9273007349718546e-08,-6.939301004954322e-08,-2.4008334344950644e-08
3.7601794148544607e-08,-8.042446412178807e-08,1.6745168072788118e-08,1.2966538926297739e-08,-6.143873798235043e-08,-2.0688896471865989e-10,-1.5274170876881002e-07,-1.1404032425156692e-07,-1.7904198728367658e-08,-3.389154303111108e-08,-5.4144729152333564e-09,7.365119926981275e-08,-5.2891205918253724e-08,1.2334574468274463e-08,-7.69271731552383e-09,-4.74178805534991e-08,-8.376091329260976e-08,-2.1180505267218275e-08
4.368601205707888e-08,-8.794853262323412e-08,2.1264017900936807e-08,5.785536292310495e-09,-5.7640847512652775e-08,2.7238918995953056e-09,-1.5815413316641279e-07,-8.537739485040902e-08,-1.8580973440791586e-08,-2.4855047733213323e-08,1.0059869897200141e-08,7.908530083221215e-08,-1.851955609112223e-09,2.960403685034223e-08,1.0496971300087711e-08,-3.76467830689353e-08,-9.124427653323095e-08,-1.783605583409734e-08
4.851583601946926e-08,-9.73072428917059e-08,2.1221088355862447e-08,-5.431177739559287e-09,-4.924598654426416e-08,4.0348642687598805e-09,-1.6004261666663204e-07,-4.788040602517813e-08,-1.9542726844407215e-08,-1.8554692703848742e-08,2.241439461821158e-08,7.913726583319559e-08,5.1362657920747374e-08,3.38381390426648e-08,2.6696412746183102e-08,-3.407887411838412e-08,-9.79048025724764e-08,-1.5171988547623094e-08
5.1669386349666035e-08,-1.102704828837245e-07,1.6552877919634424e-08,-2.04631989525675e-08,-4.0641602741231795e-08,1.4723256479761706e-09,-1.6235701803060083e-07,-8.246842287999636e-09,-2.0427234185784187e-08,-1.6586519600095993e-08,2.990819928566407e-08,7.605612524643315e-08,9.884178336836495e-08,2.6576104685204992e-08,3.885541026990062e-08,-3.736696447292853e-08,-1.0283120784479985e-07,-1.2695979399574611e-08
5.337427363893712e-08,-1.2528833935028996e-07,8.785187270674195e-09,-3.772478243694277e-08,-3.450526871979565e-08,-4.760088535020208e-09,-1.6520577712713744e-07,2.9048811724363876e-08,-2.0379922359256276e-08,-1.807584010843934e-08,3.245849398327277e-08,7.205653634269058e-08,1.44362939272417e-07,1.3357687623554827e-08,4.574158942443245e-08,-4.583398936839612e-08,-1.0468728066074878e-07,-9.297168967183467e-09
5.3746436738121666e-08,-1.3896932781505716e-07,-1.2908088784875155e-10,-5.5172689306024795e-08,-3.134764636064115e-08,-1.287053284019258e-08,-1.6488118205048568e-07,6.326459642942346e-08,-1.8389938231907173e-08,-2.0798969360464393e-08,3.0806081236701154e-08,6.862897585906747e-08,1.831641919439962e-07,1.3889885362489054e-09,4.628823047035451e-08,-5.664471589652806e-08,-1.0319003584120823e-07,-4.495576139017469e-09
5.2714666496263884e-08,-1.4718906773497431e-07,-7.858557194332624e-09,-7.091173791583398e-08,-2.963413007610163e-08,-1.936618012285303e-08,-1.5448415648992225e-07,9.846516027858503e-08,-1.3122623614065786e-08,-2.1193380921084034e-08,2.63345704059307e-08,6.658998994668661e-08,2.1236991300542947e-07,-1.8773142196780065e-09,3.9546528945440784e-08,-6.683225877215953e-08,-9.705447560732e-08,1.556320191324679e-09
5.1409426774826556e-08,-1.451648543352714e-07,-1.1849305337275798e-08,-8.266503650789787e-08,-2.5150614750146527e-08,-1.946195637746196e-08,-1.255390029091765e-07,1.428678189196965e-07,-2.721997571239607e-09,-1.4855121340506026e-08,2.1074133401926504e-08,6.332987187331001e-08,2.3228134313761507e-07,9.690149458606124e-09,2.5139955764764774e-08,-7.366508300219308e-08,-8.443627744113018e-08,8.448352385505741e-09
5.294579100148605e-08,-1.287141370140251e-07,-1.0066620601062075e-08,-8.737294446327494e-08,-1.2438747435796392e-08,-8.305651847782095e-09,-7.161942669567222e-08,2.0481382218155388e-07,1.443207594185994e-08,1.319642680702556e-09,1.7073541057965708e-08,5.785605271295334e-08,2.422796737298141e-07,3.8001313736681595e-08,3.39113453061572e-09,-7.578796646276157e-08,-6.477162897149419e-08,1.5345996946536074e-08
6.158539644443997e-08,-9.70103950072641e-08,-2.525130176864476e-10,-8.101536714227707e-08,1.2964979868453842e-08,1.740815061503587e-08,5.729963127189578e-09,2.8828984193361163e-07,3.834102495784465e-08,2.8124709845511145e-08,1.5784134863921263e-08,4.9445836964910015e-08,2.417973588803042e-07,7.892412818855913e-08,-2.4513534939708272e-08,-7.434934204684232e-08,-4.043104304974759e-08,2.1057916140893444e-08
8.17934615265305e-08,-5.39194627640601e-08,1.7103635149591648e-08,-6.091990758047933e-08,5.21594117292686e-08,5.8911096831411325e-08,9.529110865449971e-08,3.898160419399532e-07,6.662778149517928e-08,6.277988776825592e-08,1.8332498968898583e-08,3.210147264901721e-08,2.3089617796921796e-07,1.2407786907121375e-07,-5.584960044440636e-08,-7.130898508314194e-08,-1.646898225826056e-08,2.466989999568052e-08
1.176973663999287e-07,-6.591492929076347e-09,3.706258241421514e-08,-2.8103304533308475e-08,1.0428868864631824e-07,1.1480512730774593e-07,1.8010925193324764e-07,4.992560901330833e-07,9.483666228869173e-08,1.0054243803381448e-07,2.611552286465206e-08,1.3906380352643368e-09,2.1054383760502507e-07,1.6477675983433653e-07,-8.615785767762757e-08,-6.789703066020156e-08,7.976444842030596e-10,2.5634319558144826e-08
1.7158376934171513e-07,3.681687015101847e-08,6.08026409453248e-08,1.6660537605373687e-08,1.6570789801195676e-07,1.815598155345191e-07,2.4214931428627674e-07,6.012801644127422e-07,1.1752237523999678e-07,1.3651678123011008e-07,4.0672754150051904e-08,-4.804497951838401e-08,1.79855738193676e-07,1.9559832566399595e-07,-1.1019007975507187e-07,-6.400929412264072e-08,5.547248137654967e-09,2.334816907478869e-08
2.418660430006422e-07,6.925906512207346e-08,8.803123609788666e-08,7.048178772821435e-08,2.3064492072193596e-07,2.547355158291815e-07,2.6874196956109565e-07,6.827588237306862e-07,1.301592772688244e-07,1.6739624741357302e-07,6.347758029585388e-08,-1.1478524755538431e-07,1.446405319156743e-07,2.1720353286588506e-07,-1.227570506366944e-07,-5.7471162460872404e-08,-6.376128038923167e-09,1.7880168416431386e-08
3.2221873439286727e-07,8.745479571379044e-08,1.1731618021579195e-07,1.2986455090135504e-07,2.9329506150851707e-07,3.3012911499436307e-07,2.5755205698755944e-07,7.360306959825729e-07,1.3141924863038367e-07,1.9328579235431525e-07,9.631748841236523e-08,-1.9268113585143619e-07,1.1297840097231316e-07,2.3754913635015727e-07,-1.1871090514410325e-07,-3.895262285029259e-08,-3.048287283340081e-08,1.1727827759078759e-08
4.0544296465642244e-07,9.395153498499529e-08,1.7554773195003941e-07,1.9140576616137474e-07,3.493074589163062e-07,4.053548105901379e-07,2.1713296662454667e-07,7.622310295222188e-07,1.241540836334915e-07,2.174161441700104e-07,1.4104347949877172e-07,-2.4212396892339757e-07,9.237269356748529e-08,2.691476556910085e-07,-9.344194861852292e-08,-6.577024684597599e-10,-5.965104271468064e-08,1.0103570787987032e-08
4.852145738640541e-07,9.599787403594528e-08,2.397443565835466e-07,2.4997119982493086e-07,3.958227583824152e-07,4.759309980066988e-07,1.6346616745982633e-07,7.701539360425562e-07,1.1410678363000763e-07,2.436638479558954e-07,1.9787758472744862e-07,-2.0961535462113855e-07,1.1815022279441827e-07,3.2295744585157413e-07,-4.4708276907120116e-08,6.399795386663607e-08,-8.336496526664286e-08,1.882904226666999e-08
5.535693748582159e-07,1.0157964781789616e-07,2.8720672156509994e-07,2.952289446439513e-07,4.3084289892430495e-07,5.386521319524779e-07,1.1486371219122598e-07,7.703146184609254e-07,1.0759030950041733e-07,2.736312734726862e-07,2.6392303664214515e-07,-1.5480374134620675e-07,1.9083568523246628e-07,4.0328028821843633e-07,2.575294699808826e-08,1.5778130862682488e-07,-6.877464933876056e-08,4.1841247672554146e-08
6.112977051006017e-07,1.1583979011401605e-07,3.129317487823827e-07,3.162518583677032e-07,4.535786966658523e-07,5.899487287833348e-07,8.739659776598729e-08,7.721536478494386e-07,1.0969778331778102e-07,3.0627740740854313e-07,3.334636009953577e-07,-8.67238360861583e-08,2.1789011574433126e-07,5.063080225688591e-07,1.1223657434717231e-07,2.643847998022645e-07,-4.771753909609504e-08,8.032951039964245e-08
6.594647354914103e-07,1.3949880063571984e-07,3.1451933179845333e-07,3.0664394043472425e-07,4.6419757214456673e-07,6.267865184500683e-07,9.107282913511782e-08,7.820551552793609e-07,1.2301855965196175e-07,3.382776019878869e-07,3.9939267234151716e-07,-6.756430633571993e-08,3.1593568912539993e-07,6.2099131829578e-07,2.0618020910825936e-07,3.770111954573027e-07,-3.586767727449858e-08,1.311539288066189e-07
6.621063468741405e-07,1.686696767938845e-07,3.0709937040838776e-07,3.1252977750796507e-07,4.641216568265839e-07,6.473655310486597e-07,1.2711207467977675e-07,8.027696095363333e-07,1.4707396261698698e-07,3.645929809999196e-07,4.547863628793868e-07,-1.9782071462266832e-08,4.553793561603301e-07,7.313576318797105e-07,2.977219515937281e-07,4.848983339205596e-07,8.15740204926607e-09,1.8718147085361095e-07
6.308695671213106e-07,1.9627584495018678e-07,3.0586930159384265e-07,3.29639150433246e-07,4.5568453010705314e-07,6.52309258205084e-07,1.874540650578581e-07,8.306953806243505e-07,1.7758623201954863e-07,3.803107695830307e-07,4.947499547568392e-07,8.57376444232728e-08,5.796451018834916e-07,8.213889689772383e-07,3.7786912347642345e-07,5.838703935912831e-07,7.163553228657167e-08,2.402612851615668e-07
6.076862479934245e-07,2.1542935074842139e-07,3.0764407556379363e-07,3.3295106221005037e-07,4.4195919935285675e-07,6.459090859384486e-07,2.585979432760001e-07,8.606322161490739e-07,2.0888113908738395e-07,3.8306482880975813e-07,5.180646425721111e-07,1.9633423493642305e-07,6.706754621589959e-07,8.809582261977174e-07,4.4055823619851993e-07,6.63270240130349e-07,1.2519228373628775e-07,2.8278021095206203e-07
5.855220492772148e-07,2.2264255308071182e-07,3.0846488610241993e-07,3.094967682114786e-07,4.264889258732175e-07,6.343510328895891e-07,3.27611002024362e-07,8.887317120405576e-07,2.361086159891444e-07,3.7401234448937496e-07,5.270537182405023e-07,3.0226334137801556e-07,7.303794425031923e-07,9.083132654994106e-07,4.830144267634533e-07,7.128273879489205e-07,1.6233963401215914e-07,3.093720477296438e-07
5.592921782808483e-07,2.1852729813043657e-07,3.079226542342177e-07,2.836838593009584e-07,4.1191018854698967e-07,6.241570549758793e-07,3.8601356660605606e-07,9.126930281878653e-07,2.5590226142457696e-07,3.561298729904179e-07,5.255330863222406e-07,4.0068818034835605e-07,7.546687193098582e-07,9.078941577114862e-07,5.044853030916469e-07,7.349114457283478e-07,1.864791584095847e-07,3.176901375107558e-07
5.365070443442897e-07,2.0680394881438922e-07,2.9524384069063874e-07,2.5272165443764013e-07,3.987190683287008e-07,6.181913001745291e-07,4.313420077259529e-07,9.326998738726641e-07,2.6635837342030165e-07,3.332936422765456e-07,5.168527336034566e-07,4.5661139617710855e-07,7.472954898012076e-07,8.869048319381002e-07,5.052329276762957e-07,7.309523466638286e-07,1.9640993642704082e-07,3.086354115227932e-07
5.204772732011675e-07,1.933047388730622e-07,2.824938412018494e-07,2.0936285128838415e-07,3.8597885145338903e-07,6.157038969914807e-07,4.6629143543709795e-07,9.501653119036126e-07,2.679005526423192e-07,3.084411261738477e-07,5.03332502899241e-07,4.891390949487371e-07,7.168709284155304e-07,8.52954604699239e-07,4.867184668804713e-07,7.087907705862847e-07,1.9495725293604325e-07,2.866934472822131e-07
5.082416753641794e-07,1.8450646627241376e-07,2.6311934111031983e-07,1.8246593287693748e-07,3.723378867868646e-07,6.138224100463379e-07,4.953566457092305e-07,9.659784389035627e-07,2.6212092186885434e-07,2.835184259715745e-07,4.864917096562032e-07,5.076033728867588e-07,6.748142139130155e-07,8.123844194359682e-07,4.5230755453341304e-07,6.728686000627816e-07,1.863352428209816e-07,2.5934179811806364e-07
4.969981825132427e-07,1.8531775183573084e-07,2.344933375485753e-07,1.6823133855918145e-07,3.573575219890987e-07,6.076562524079809e-07,5.210924515889417e-07,9.792203833413147e-07,2.5099052438138696e-07,2.5975460236039796e-07,4.6748271326373074e-07,5.193969188514821e-07,6.333137686321227e-07,7.696818361271758e-07,4.0791329241738785e-07,6.250606796010863e-07,1.7503344721584187e-07,2.3546642438506862e-07
4.849240111696324e-07,1.9785596563323365e-07,2.140249410166907e-07,1.628329862213174e-07,3.418780660895492e-07,5.952825309300769e-07,5.423085329433764e-07,9.84330713506947e-07,2.3737737493526173e-07,2.3768602725612036e-07,4.475716694078438e-07,5.403355766015662e-07,6.042001179080533e-07,7.286080540001922e-07,3.6206043994329973e-07,5.667905865275598e-07,1.6544008107752838e-07,2.2351214087586801e-07
4.722423519627618e-07,2.2177806780702368e-07,1.9861098110768233e-07,1.679306465105981e-07,3.2563527886547144e-07,5.777336512146769e-07,5.557359986216098e-07,9.799845723031678e-07,2.251671524610469e-07,2.177892229727614e-07,4.2790583060204427e-07,5.668820904256261e-07,5.957115540539094e-07,6.931689211358181e-07,3.242153846319304e-07,4.967524393300123e-07,1.6121382220127712e-07,2.2947979961522324e-07
4.6018326433525153e-07,2.540315944334679e-07,1.877164953852995e-07,1.7517963342869248e-07,3.115561316487722e-07,5.533467683321823e-07,5.589666322319829e-07,9.661661499975245e-07,2.1781401025511267e-07,1.9965494704498345e-07,4.084200526803219e-07,5.928949120838612e-07,6.10167842334779e-07,6.667336340821111e-07,3.0137923929907564e-07,4.2427329905350763e-07,1.641225965957631e-07,2.541621230043789e-07
4.4840323337144554e-07,2.896807284457044e-07,1.696016696212807e-07,1.8365742782010188e-07,3.014545530309417e-07,5.421710598622676e-07,5.521414034685872e-07,9.433019135665351e-07,2.1760565675384155e-07,1.813359818763101e-07,3.87483744161902e-07,6.139694714432539e-07,6.42476652820393e-07,6.507501215367163e-07,2.9529030536980277e-07,3.541410130956884e-07,1.738773634356864e-07,2.921911846107352e-07
4.3372319734924423e-07,3.248636206425164e-07,1.4115665037777934e-07,1.9221324318176253e-07,2.9417586554841295e-07,5.424123780420261e-07,5.383882263236804e-07,9.150824734920036e-07,2.2543197968641131e-07,1.599436043211017e-07,3.6324158389929704e-07,6.265970851863591e-07,6.813938584242856e-07,6.443209236193123e-07,3.0217539897772045e-07,2.858330533015122e-07,1.8933531290383036e-07,3.3419288525194665e-07
4.114836307675696e-07,3.4335585821324275e-07,1.0397307807792882e-07,1.9755426520791666e-07,2.8687382407535817e-07,5.466486395845342e-07,5.232759648483475e-07,8.862410537514359e-07,2.4055214569254363e-07,1.3312444140483456e-07,3.3509137328598577e-07,6.306832882468077e-07,7.142826458629199e-07,6.433909343893391e-07,3.1432096862383197e-07,2.397813578802913e-07,2.09262767392391e-07,3.699190211284485e-07
3.779581273077287e-07,3.531789759399985e-07,6.51580468365496e-08,1.9732891000524075e-07,2.740908190876857e-07,5.506465810085071e-07,5.129195058165736e-07,8.616607732476618e-07,2.612380094138217e-07,9.952925613652524e-08,3.038249692702359e-07,6.285193955720231e-07,7.297745230562372e-07,6.398342994570785e-07,3.2220436811099946e-07,1.9943680084848034e-07,2.3198867533517738e-07,3.9141692419771105e-07
3.3233165570702616e-07,3.4611903008671125e-07,2.357721126014028e-08,1.9035705998501598e-07,2.494784811893054e-07,5.742474250819554e-07,5.11516291097733e-07,8.439276136646278e-07,2.8514774031781093e-07,5.9128333185164594e-08,2.712576797556536e-07,6.226694343405156e-07,7.20104754803705e-07,6.234561355309404e-07,3.173345003373293e-07,1.461360013369135e-07,2.5536829254056096e-07,3.954420482762166e-07
2.779265153038435e-07,3.2365681178261636e-07,-2.3134865091859944e-08,1.7764023862201521e-07,2.0808112232991712e-07,6.205040615792045e-07,5.199196179578344e-07,8.336747041382096e-07,3.1067767085042546e-07,1.4751148035934504e-08,2.4024420549781184e-07,6.147150840054205e-07,6.838683615643629e-07,5.869948794430459e-07,2.955053458483568e-07,5.0001936849967684e-08,2.774149155118691e-07,3.8447728620257255e-07
2.2192180704701002e-07,2.8763198112477063e-07,-7.249867046712889e-08,1.6288040350413847e-07,1.4898005712252313e-07,7.054208612673551e-07,5.350069887035917e-07,8.2725309702434e-07,3.376428749559273e-07,-2.851008092390056e-08,2.1424883784340428e-07,6.047821384323499e-07,6.263407233210102e-07,5.297766096336858e-07,2.5855956150101396e-07,-8.93667753091339e-08,2.9643868249134037e-07,3.6583002751909676e-07
1.7305177784956856e-07,2.410281357849749e-07,-1.2337010921527054e-07,1.51531931592742e-07,7.497366076533101e-08,8.597850493658966e-07,5.498615026023887e-07,8.181078036354732e-07,3.670311822919745e-07,-6.531888897213166e-08,1.9594575391735495e-07,5.915469529870361e-07,5.566046128935583e-07,4.5733069371713293e-07,2.1339140648796975e-07,-2.5238297437347004e-07,3.1079778842437004e-07,3.482304768086331e-07
1.387525438639105e-07,1.876701079148756e-07,-1.6885675507128105e-07,1.4912563175607944e-07,-7.090030320423613e-09,9.375770934855097e-07,5.563039134317261e-07,7.994094837728723e-07,4.000729278139255e-07,-9.181853090554164e-08,1.8592481936293093e-07,5.730662810157866e-07,4.839375630628999e-07,3.785229140250647e-07,1.6895838084116814e-07,-4.3000619684531065e-07,3.193324418651582e-07,3.3830257253074694e-07
1.233770908038293e-07,1.3269309440753718e-07,-2.0561317332889622e-07,1.5993273820341174e-07,-8.756649823837499e-08,9.62207213144305e-07,5.493056163329243e-07,7.664996000280451e-07,4.375520601814165e-07,-1.06854833307871e-07,1.8233654684969596e-07,5.478972215821031e-07,4.149601160643816e-07,3.021590880206969e-07,1.3282726432045134e-07,-6.043305563046559e-07,3.2204871964095445e-07,3.385143587378962e-07
1.2720554704539989e-07,8.217402061574094e-08,-2.3170532896622215e-07,1.857775653879193e-07,-1.5518565223496395e-07,1.0417628251263702e-06,5.298942018229725e-07,7.191215774017679e-07,4.790203515998946e-07,-1.1174397298576803e-07,1.8125570035703835e-07,5.156235311856204e-07,3.5168688049247756e-07,2.3408191299245097e-07,1.0870865094446425e-07,-7.71433201576984e-07,3.2006363149127796e-07,3.46823980681336e-07
1.4605108594565996e-07,4.1257896126649476e-08,-2.4807595229486235e-07,2.249802830217668e-07,-2.0413348889161583e-07,1.1741143659798505e-06,5.046064962834676e-07,6.600569125846896e-07,5.226149808270788e-07,-1.0979310777897303e-07,1.778263630271971e-07,4.771106866982032e-07,2.924940806159977e-07,1.7651981311120897e-07,9.631790591245363e-08,-9.258713368942324e-07,3.153232612672702e-07,3.5841925913768744e-07
1.725934087173112e-07,1.2815586475947e-08,-2.5558803449168223e-07,2.725435150846483e-07,-2.3359551146938137e-07,1.3107780751165911e-06,4.829625037021902e-07,5.963158994955311e-07,5.656706472946803e-07,-1.0488375058917364e-07,1.682304985002275e-07,4.3509615337033534e-07,2.3549403610169655e-07,1.3011241390339014e-07,9.34560846311191e-08,-1.0612911068055796e-06,3.1059322912113444e-07,3.688222627529862e-07
1.9935499568879307e-07,-2.2812721427531424e-09,-2.558096648392856e-07,3.21897028850512e-07,-2.464710926686175e-07,1.396062564743204e-06,4.744763667631948e-07,5.319203235051275e-07,6.056904465599895e-07,-1.0030882716070662e-07,1.512572128510186e-07,3.942820802438101e-07,1.8132612804581462e-07,9.569325987220697e-08,9.819497391792914e-08,-1.1698430231105373e-06,3.0871798344316194e-07,3.7592804506535035e-07
2.2116086937376073e-07,-4.861501517462966e-09,-2.518870697235619e-07,3.668826978951233e-07,-2.480438706378752e-07,1.464254883111184e-06,4.854846958688262e-07,4.6907593411885464e-07,6.407816873753229e-07,-9.861864350804323e-08,1.282524863877319e-07,3.6007866468501524e-07,1.3285379225713455e-07,7.384164212169651e-08,1.0947255767416095e-07,-1.245622422844446e-06,3.1097205103273773e-07,3.7965394971075145e-07
2.3571547492722679e-07,2.2332507468911977e-09,-2.46523930690661e-07,4.0304372611184155e-07,-2.441623746610939e-07,1.4750643856657054e-06,5.171349886695973e-07,4.090877276432206e-07,6.702593941733711e-07,-1.0167692544114594e-07,1.020049450126681e-07,3.3683165818538895e-07,9.464351726296001e-08,6.432070597454444e-08,1.2661921087689573e-07,-1.2948754051568706e-06,3.1635165963374257e-07,3.808681581203972e-07
2.428585914066227e-07,1.4833079712999023e-08,-2.4249212123528745e-07,4.283838220906365e-07,-2.3940468048980455e-07,1.5121054001465142e-06,5.661588324376897e-07,3.522026565053065e-07,6.947709678261302e-07,-1.1024666865072015e-07,7.569666639715199e-08,3.2669916714400415e-07,7.104346959184475e-08,6.70014876191571e-08,1.488519990406621e-07,-1.3206191809468825e-06,3.2258793342359276e-07,3.808419493242621e-07
2.431943522050476e-07,2.9372162194244512e-08,-2.4116811055149644e-07,4.434069730568892e-07,-2.3570470119494527e-07,1.5685017029544485e-06,6.273294330760226e-07,3.0061921660167754e-07,7.158287416809055e-07,-1.2377244566203108e-07,5.1968246371445757e-08,3.292568484493086e-07,6.33814696285425e-08,8.2030774291304e-08,1.7482469911050744e-07,-1.3263910971857225e-06,3.2733586054304826e-07,3.80864865905788e-07
2.3662946144769654e-07,4.41522065169975e-08,-2.4259097199023073e-07,4.501339221462551e-07,-2.3324883506317747e-07,1.6081593279691625e-06,6.951545218708346e-07,2.5741221522019396e-07,7.349830797741071e-07,-1.4120454646433319e-07,3.2100140390057674e-08,3.417820618935134e-07,7.066604300023143e-08,1.0797888197400658e-07,2.0253320604282856e-07,-1.3350551249714447e-06,3.287872480254591e-07,3.778135506142475e-07
2.2212199465721992e-07,5.9241206654504046e-08,-2.46256032748329e-07,4.5107410177477826e-07,-2.307022683551107e-07,1.6318790386253085e-06,7.64454466063968e-07,2.25049667775637e-07,7.531792183746515e-07,-1.6120092084048368e-07,1.6122987362888526e-08,3.60556723540656e-07,9.111820270375089e-08,1.407146275461533e-07,2.3033504134385678e-07,-1.3449135654603207e-06,3.265671433703748e-07,3.7391092650042533e-07
1.99260252816054e-07,7.590732017395861e-08,-2.510503977096878e-07,4.4918979989313994e-07,-2.2773465067629826e-07,1.6029763825571849e-06,8.306053624543727e-07,2.0390505791469483e-07,7.672827868902012e-07,-1.8133993803625586e-07,3.887723684947438e-09,3.8255066780421393e-07,1.2418429016194994e-07,1.7472717561398433e-07,2.58534432423487e-07,-1.3542107887033351e-06,3.2254846491097687e-07,3.765775511472593e-07
1.7001216752753307e-07,9.554716918554551e-08,-2.5535968993887653e-07,4.4809840506716223e-07,-2.25878952571637e-07,1.560897481022558e-06,8.890403017306215e-07,1.9371864138508374e-07,7.79944353146781e-07,-1.9816967677057152e-07,-4.265529192109116e-09,4.060446126353754e-07,1.7100941168276782e-07,2.0500303074223986e-07,2.8987347617376854e-07,-1.3494859808818715e-06,3.202611759772485e-07,3.870357405856391e-07
1.3875756176354483e-07,1.1796805033787492e-07,-2.5777684788155734e-07,4.5147198806285664e-07,-2.280008386765884e-07,1.5228759419505837e-06,9.341880394515245e-07,1.9163134186804272e-07,7.940054145131187e-07,-2.0801961611361127e-07,-7.850592765627719e-09,4.300575423140311e-07,2.324716561963597e-07,2.2840964607399919e-07,3.285418426571146e-07,-1.333887508853022e-06,3.2351305632682013e-07,4.0747747823163376e-07
1.1089270173271713e-07,1.4071344940851887e-07,-2.574440217112926e-07,4.6228242314141785e-07,-2.3721372332077844e-07,1.5370266043850334e-06,9.599489883206023e-07,1.9226678479077217e-07,8.115461590835408e-07,-2.0764227473474546e-07,-6.672751466401348e-09,4.5369824912219524e-07,3.073305485236621e-07,2.4538311923592226e-07,3.787036023389647e-07,-1.319231794113672e-06,3.3564321462276283e-07,4.38925829575528e-07
9.106968266371521e-08,1.6048758920850906e-07,-2.536359204210289e-07,4.826649033392453e-07,-2.553565400885927e-07,1.5714806913115303e-06,9.622356183601884e-07,1.902940401760374e-07,8.357452077534622e-07,-1.9463557911684698e-07,-9.810952877884976e-10,4.7568709755267915e-07,3.9158666197538204e-07,2.6060380526958584e-07,4.428225872983877e-07,-1.3040129782445795e-06,3.5874543209337395e-07,4.788829999859522e-07
8.114777699101038e-08,1.7483902991598227e-07,-2.4586492094148396e-07,5.135505314141198e-07,-2.820780288250493e-07,1.5915180718457577e-06,9.408722757580736e-07,1.8076638129512872e-07,8.715482802855884e-07,-1.6750306964725356e-07,8.005759520904509e-09,4.936979698245313e-07,4.786477951179399e-07,2.8038822216660243e-07,5.195443781266347e-07,-1.292340640121487e-06,3.919233985139571e-07,5.233932380874037e-07
7.845144710475037e-08,1.8249285683881344e-07,-2.349627163438326e-07,5.53455655275932e-07,-3.154318357994197e-07,1.6695834284144855e-06,8.992517964004707e-07,1.5904882882297358e-07,9.163463569824434e-07,-1.3156332183543995e-07,1.745470677182861e-08,5.042628818920971e-07,5.578120028984358e-07,3.083420871065385e-07,6.023310636425299e-07,-1.2814430184395306e-06,4.302190078915849e-07,5.674348375433685e-07
7.628285687813883e-08,1.834730048222837e-07,-2.2354146295626688e-07,5.977733899766888e-07,-3.5124645307589116e-07,1.7886475894986121e-06,8.434430118476169e-07,1.218597683084884e-07,9.6506629330163e-07,-9.357357728600455e-08,2.3312090936005288e-08,5.040132124157321e-07,6.173641973758579e-07,3.43083408040526e-07,6.806362309966232e-07,-1.2741242781228935e-06,4.660660899504974e-07,6.003486732798498e-07
6.726382984639434e-08,1.7987694844090067e-07,-2.1486498928144229e-07,6.398609356665662e-07,-3.840868310833504e-07,1.890988679466834e-06,7.816742114721188e-07,6.895871181869825e-08,1.0129429587789258e-06,-6.179956220119249e-08,2.1764309545487013e-08,4.91213150801458e-07,6.503102780522425e-07,3.7898246409200177e-07,7.434317319381655e-07,-1.2749403507762247e-06,4.921359698899943e-07,5.96658608841249e-07
4.7224422814200225e-08,1.757454465739973e-07,-2.113460661153401e-07,6.732333129836751e-07,-4.084556333715225e-07,1.930798563785267e-06,7.22630460185182e-07,8.13588664086314e-09,1.0514069517822215e-06,-6.242037984902972e-08,1.0746682497786911e-08,4.661021861063518e-07,6.55858743041001e-07,4.086089264760547e-07,7.832283746669843e-07,-1.2876817164918713e-06,5.035535664131782e-07,5.816591091057214e-07
1.722606299272183e-08,1.7524333518169145e-07,-2.1383891776403375e-07,6.936053351208353e-07,-4.184467376909897e-07,1.9367052877633476e-06,6.725466007104863e-07,-5.201982677878164e-08,1.0742177547066002e-06,-7.457944298204397e-08,-8.940523697504465e-09,4.305826209141663e-07,6.40349939643464e-07,4.263699924081736e-07,7.990692544249712e-07,-1.3094839944708585e-06,4.993662617949367e-07,5.493975225437123e-07
-1.666586122634422e-08,1.8097911184648209e-07,-2.2143304962109248e-07,7.003369922308789e-07,-4.127131284830676e-07,1.9322560267048102e-06,6.336469676508422e-07,-1.0137388425293348e-07,1.078611052795057e-06,-7.111575360590741e-08,-3.315480127566497e-08,3.8797760623645206e-07,6.153517312374546e-07,4.318949064269817e-07,7.972798567326554e-07,-1.3299070793791132e-06,4.832358616657714e-07,4.854260409370274e-07
-4.550794228771871e-08,1.9360784218612602e-07,-2.315617973551163e-07,6.967375162286264e-07,-3.919635587664732e-07,1.9383351739199474e-06,6.049523885454181e-07,-1.2928780490573015e-07,1.0660766354127675e-06,-9.716637083855873e-08,-5.553783557980934e-08,3.4241578186247596e-07,5.926598643181526e-07,4.2981431941271136e-07,7.887384111816008e-07,-1.3415901106400896e-06,4.620243752460008e-07,4.229058042551462e-07
-6.116424947553473e-08,2.116598444103212e-07,-2.408473688778162e-07,6.885212530163992e-07,-3.5784858042513635e-07,1.8772666021392467e-06,5.839986180847778e-07,-1.2960246149059145e-07,1.0390718631319822e-06,-1.4130254211316147e-07,-7.034829155264925e-08,2.9756377627224196e-07,5.788323684679618e-07,4.255547024245503e-07,7.833623962970476e-07,-1.3406959826195419e-06,4.4247450327908364e-07,3.648708407751229e-07
-5.98865665894979e-08,2.3142052420914843e-07,-2.46223383557293e-07,6.811427131897421e-07,-3.1366352053331076e-07,1.8068440424607682e-06,5.684567143665455e-07,-1.0089929703006623e-07,1.004562449447082e-06,-1.7866965404357483e-07,-7.500645669022672e-08,2.5562616010636956e-07,5.721004318035188e-07,4.215908767904694e-07,7.852466963750894e-07,-1.3260247045340993e-06,4.2864603112395143e-07,3.231833716471618e-07
-4.339292342761604e-08,2.4821213372538433e-07,-2.4539471439708915e-07,6.778196031300271e-07,-2.630520264817947e-07,1.759479724851933e-06,5.573266985084915e-07,-4.662922750809895e-08,9.67086076781475e-07,-2.0495360345331603e-07,-7.046008275808388e-08,2.1733880142937265e-07,5.639723744547831e-07,4.1728197563444034e-07,7.915105648676227e-07,-1.3089361335165287e-06,4.215120615084484e-07,2.939667590340323e-07
-1.7033991712771832e-08,2.58644494297309e-07,-2.3696445339270153e-07,6.789579345559387e-07,-2.0998249176625733e-07,1.7321319533932351e-06,5.507016760371495e-07,2.6549170508518867e-08,9.362032246432877e-07,-2.2402651201555619e-07,-5.983623570105951e-08,1.8222795498894268e-07,5.443427769571191e-07,4.104958388177636e-07,7.947683146937772e-07,-1.301996267637918e-06,4.194591074310344e-07,2.618619250844664e-07
1.320401037507675e-08,2.6163756114855137e-07,-2.2100334401142628e-07,6.825105386512003e-07,-1.5801780282844378e-07,1.716719031803822e-06,5.481301330110075e-07,1.0865059928493808e-07,9.110151078495744e-07,-2.3526034539756713e-07,-4.68920791693138e-08,1.4912967591271739e-07,5.039770990617937e-07,3.9883186727774716e-07,7.871494527537221e-07,-1.3191770540463558e-06,4.189469626173402e-07,2.2584940856836747e-07
4.3204238217862364e-08,2.579000406573776e-07,-1.9948730524153704e-07,6.851190891817683e-07,-1.1230584988548542e-07,1.710197522800033e-06,5.478913724768959e-07,1.8938811319475015e-07,8.891775183279366e-07,-2.4171000115763586e-07,-3.4856234716352075e-08,1.1739792085724473e-07,4.384432675999121e-07,3.807606079668279e-07,7.638422294193422e-07,-1.365396712204833e-06,4.16018074423156e-07,1.842156788536951e-07
7.178108419475462e-08,2.4937024035726557e-07,-1.7571564000833706e-07,6.839168391574855e-07,-7.761021843291249e-08,1.7072689449126807e-06,5.484821766173244e-07,2.601469478114487e-07,8.724560717224587e-07,-2.469610928270557e-07,-2.57780127302667e-08,8.798141863903245e-08,3.4859508348519634e-07,3.563732764775099e-07,7.246213993678027e-07,-1.4369159672183936e-06,4.081893233955124e-07,1.3745966674509478e-07
9.946318268572306e-08,2.388426853560284e-07,-1.531914533216945e-07,6.779762180208946e-07,-5.598929720072773e-08,1.7035088813384903e-06,5.501800427419194e-07,3.1554106217094143e-07,8.615882836997003e-07,-2.535481435852085e-07,-2.0601297741802212e-08,6.295964314998513e-08,2.4039805376076316e-07,3.262728441427184e-07,6.729069622957468e-07,-1.5284183179803817e-06,3.9521507305649083e-07,9.008044415825689e-08
1.2680237528420013e-07,2.2915692301058395e-07,-1.347689709050433e-07,6.68597801720525e-07,-4.846397243270949e-08,1.6972588056572702e-06,5.543651884262196e-07,3.5409104121620657e-07,8.516568085493582e-07,-2.623032262712193e-07,-1.956088778014899e-08,4.378048509932292e-08,1.1649149560183017e-07,2.896045798356672e-07,6.136907476273468e-07,-1.6310305051307355e-06,3.786647239365453e-07,4.316812939128143e-08
1.5298412896574406e-07,2.2255515410518262e-07,-1.2194843744264753e-07,6.588099397159312e-07,-5.475295843750196e-08,1.687433034709262e-06,5.613309933882714e-07,3.7721149741176734e-07,8.468838150027039e-07,-2.7236963720690294e-07,-2.2264774682373655e-08,2.9737815159580493e-08,-1.1698378134785042e-08,2.438656948609488e-07,5.520587184975559e-07,-1.737890030585907e-06,3.610962216710757e-07,-4.34530359726781e-09
1.7678892648340578e-07,2.2061319933629775e-07,-1.143954757753857e-07,6.523862512261177e-07,-6.935866649969818e-08,1.6739177350701676e-06,5.685034766455122e-07,3.8864337239671187e-07,8.474103239280623e-07,-2.8188137237607615e-07,-2.782665897938889e-08,1.7244966055515415e-08,-1.291521999240914e-07,1.8646211879658943e-07,4.925335379740538e-07,-1.841474241803271e-06,3.446825367494331e-07,-5.026623972602756e-08
1.9712369617697056e-07,2.236551835559971e-07,-1.1043929220370028e-07,6.521828543178115e-07,-8.786483460606288e-08,1.6579674046890702e-06,5.698473305862282e-07,3.9068037027448703e-07,8.472313150480021e-07,-2.891938170495381e-07,-3.5502387790934084e-08,-6.273200978622087e-12,-2.3841366719259098e-07,1.1627397686034057e-07,4.3867384755150117e-07,-1.9348180660556308e-06,3.2969479243521374e-07,-9.150320330072025e-08
2.1277116937968784e-07,2.296458661472066e-07,-1.0833276853946605e-07,6.585366502443024e-07,-1.1194763288639399e-07,1.6401694731917286e-06,5.570091373548307e-07,3.8749831422906086e-07,8.431102331267977e-07,-2.936782771084272e-07,-4.504679320735939e-08,-2.92349239817336e-08,-3.3215006157248466e-07,3.516932473838911e-08,3.930652803279921e-07,-2.011694807696045e-06,3.1459481579294646e-07,-1.3060982852812275e-07
2.2193344971390228e-07,2.3452870303669363e-07,-1.0701132945405819e-07,6.690926347467273e-07,-1.4239360723498237e-07,1.620580094407584e-06,5.226075837856834e-07,3.846896792687534e-07,8.283268524054053e-07,-2.953091417213977e-07,-5.6218714696542354e-08,-7.52808405673262e-08,-4.1312926728781426e-07,-5.0754077909651413e-08,3.5774711722227945e-07,-2.0673474494781782e-06,2.97816037326665e-07,-1.7015617135002834e-07
2.2241806562485152e-07,2.343365389743749e-07,-1.0612595405704415e-07,6.799576207507503e-07,-1.6961562873898717e-07,1.5985202994729176e-06,4.6393238710715007e-07,3.8804384076876295e-07,7.968681793822761e-07,-2.941617159543259e-07,-6.840963602702184e-08,-1.3792476910838368e-07,-4.6600346396576376e-07,-1.3233074181140156e-07,3.341615585462775e-07,-2.0980547996802156e-06,2.78865423090597e-07,-2.1204595962263402e-07
2.1240713576924432e-07,2.2674668139184876e-07,-1.0620080462405784e-07,6.86904195812113e-07,-1.533269407771723e-07,1.5703007982532003e-06,3.84204424787965e-07,4.038825672381887e-07,7.476796932458802e-07,-2.9096883485392395e-07,-8.102639659247453e-08,-2.113968010794562e-07,-4.629881947220464e-07,-2.009492361287409e-07,3.2239655610239477e-07,-2.1015589828624396e-06,2.5783361545798707e-07,-2.575295094502119e-07
1.9045408149856518e-07,2.1102697398803588e-07,-1.0882471770791745e-07,6.863040122227043e-07,-1.1762869614532881e-07,1.5306391177144517e-06,2.9104452268577776e-07,4.3563637228538427e-07,6.904179248285615e-07,-2.8704931634114413e-07,-9.357702560179731e-08,-2.8550953961048993e-07,-4.2137722229769414e-07,-2.511224679999676e-07,3.210540739834956e-07,-2.079844840326861e-06,2.3493526798956114e-07,-3.048547795349384e-07
1.55965810839064e-07,1.8772551326532405e-07,-1.1611812915166525e-07,6.761207164748764e-07,-3.344891056608141e-08,1.4737193389962366e-06,1.9397598127571492e-07,4.825896466890859e-07,6.172382323270859e-07,-2.831271348248049e-07,-1.0495368023577554e-07,-3.4789432133784934e-07,-3.6076331881469786e-07,-2.8040626017970476e-07,3.2825356398630083e-07,-2.0382034865748537e-06,2.1062194327490533e-07,-3.56488184791835e-07
1.0984726739698119e-07,1.5853016632181563e-07,-1.2996162017740042e-07,6.562562815493113e-07,9.355008746863092e-09,1.395782668561065e-06,1.0179321182214369e-07,5.394095951740067e-07,5.48224484408817e-07,-2.790271142706336e-07,-1.1325309018305822e-07,-3.8757949029784546e-07,-2.9712349869103583e-07,-2.891804824595638e-07,3.423134969588106e-07,-1.984730732215403e-06,1.8508944358107772e-07,-4.056720738258158e-07
5.46851117806447e-08,1.2539428813221994e-07,-1.5189209290460923e-07,6.275649076376737e-07,3.640934094725788e-08,1.2956376275990091e-06,2.004318490528115e-08,5.95565065923688e-07,4.846174687986964e-07,-2.7487671171581263e-07,-1.1680445431314399e-07,-3.9849599024933943e-07,-2.3789117055634016e-07,-2.815559751867943e-07,3.612936441145645e-07,-1.930255560234317e-06,1.5751607129735696e-07,-4.400184129143545e-07
-5.570789908826985e-09,8.9526283860427e-08,-1.830651634975143e-07,5.907151155112458e-07,2.239355005215089e-08,1.177447919951405e-06,-4.982227804519933e-08,6.370313298230723e-07,4.519442915316827e-07,-2.718234404399216e-07,-1.1509725547670945e-07,-3.8067097584914626e-07,-1.8440558799605032e-07,-2.6526740122552034e-07,3.824311028294038e-07,-1.886241160739995e-06,1.2665100381225118e-07,-4.5994329802398085e-07
-6.579304890842298e-08,5.1645175109063304e-08,-2.2347945404407694e-07,5.463045954298951e-07,-2.952783474861548e-08,1.0572876944245893e-06,-1.0887594441059658e-07,6.516205847160901e-07,4.5340156991622966e-07,-2.714115737630574e-07,-1.0877781287098117e-07,-3.3916373522826513e-07,-1.3862507348303974e-07,-2.4970356528867733e-07,4.0215351002267424e-07,-1.862004837171982e-06,9.228204790222658e-08,-4.66171064312403e-07
-1.2046951727526833e-07,1.2881059564862017e-08,-2.713172585939018e-07,4.955869985700212e-07,-5.572384933500387e-08,9.447280653669212e-07,-1.587919229695055e-07,6.337503156562139e-07,4.51811373561681e-07,-2.7494096724016435e-07,-9.950959684488642e-08,-2.8264232735298925e-07,-9.392981066789193e-08,-2.437767345590901e-07,4.162757580034363e-07,-1.8632651932199245e-06,5.563591399475037e-08,-4.6208743919187314e-07
-1.6556064789533423e-07,-2.5043808976333712e-08,-3.2332935115419885e-07,4.406205507289779e-07,-7.855350630057444e-08,8.425175309771151e-07,-2.0122660518440768e-07,5.851574991343392e-07,4.4808978991331594e-07,-2.8338224358664477e-07,-9.013293939056339e-08,-2.221685422955039e-07,-5.999193174824891e-08,-2.5409661652362056e-07,4.204599088786445e-07,-1.89181248194281e-06,1.8638806717049068e-08,-4.554869148293609e-07
-1.998954651080642e-07,-5.992297366761129e-08,-3.756064221742787e-07,3.8410016634649336e-07,-1.0608569365044887e-07,7.613965029994659e-07,-2.372962869834742e-07,5.143245886122762e-07,4.31301848117296e-07,-2.9716473618909944e-07,-8.452326995700354e-08,-1.6934991728023546e-07,-5.642442806926188e-08,-2.829704548045184e-07,4.112463999645929e-07,-1.944950416676516e-06,-1.671288659669491e-08,-4.5200801233889605e-07
-2.2470954729954606e-07,-8.887678327433016e-08,-4.2408319098511944e-07,3.2931478218513505e-07,-1.4576485646345798e-07,7.046571489253895e-07,-2.6641599606370467e-07,4.3514505454369116e-07,4.3075532147182975e-07,-3.1579461238094867e-07,-8.69532124081456e-08,-1.3397520189725538e-07,-8.21670772224023e-08,-3.2777387392233486e-07,3.8692880657482853e-07,-2.015605263823397e-06,-4.883553612024264e-08,-4.545739913097062e-07
-2.429153097064495e-07,-1.0889278960098676e-07,-4.6524997219798973e-07,2.7972881683112193e-07,-2.3059579907452794e-07,6.701569042499123e-07,-2.8639144514117245e-07,3.632903204930931e-07,4.6259576749592315e-07,-3.3801836058830174e-07,-1.0115518294499393e-07,-1.2211485965170963e-07,-1.259545781078701e-07,-3.8302825472840575e-07,3.4759242732086473e-07,-2.094441265205644e-06,-7.716557872099145e-08,-4.6688267468637115e-07
-2.5857221335045183e-07,-1.1839541534823432e-07,-4.97069351461255e-07,2.382192988117765e-07,-3.065557362362628e-07,6.535957381113571e-07,-2.9573057203223895e-07,3.1185179542541227e-07,5.298199771649374e-07,-3.620971796969442e-07,-1.2879976795659376e-07,-1.3503371792430495e-07,-1.8243305755201698e-07,-4.4321399187133356e-07,2.949650399051565e-07,-2.1725865840247713e-06,-1.0209259710713452e-07,-4.915500006456451e-07
-2.756261519681461e-07,-1.1817705731311233e-07,-5.192349303617039e-07,2.0682770508549664e-07,-3.5785513936556756e-07,6.479979725460358e-07,-2.961762567202485e-07,2.854937632666175e-07,5.972019390796358e-07,-3.856610830699439e-07,-1.6776765755160035e-07,-1.690073621334011e-07,-2.412152475742233e-07,-5.041784612412332e-07,2.3259611646072684e-07,-2.2433026122382805e-06,-1.2425019012227034e-07,-5.24990815510853e-07
-2.9566251905580393e-07,-1.109684084957197e-07,-5.327887208490846e-07,1.868986135871111e-07,-4.116471675388004e-07,6.436971135621481e-07,-2.934567131557678e-07,2.814988393967782e-07,6.487827146360529e-07,-4.061605259820321e-07,-2.1199713062697494e-07,-2.1667642248308517e-07,-2.937229681775031e-07,-5.638708429965163e-07,1.655827053850905e-07,-2.303189908905583e-06,-1.4458561480211593e-07,-5.615321016754329e-07
-3.166445317581904e-07,-1.0084451218166729e-07,-5.397746916270623e-07,1.7878927991008402e-07,-4.5252520171649283e-07,6.378726611839721e-07,-2.9584641097284894e-07,2.90766601622213e-07,6.906392534431198e-07,-4.219429615431342e-07,-2.5368898046544275e-07,-2.696164802165618e-07,-3.382722123283211e-07,-6.227844577754584e-07,9.945216470914121e-08,-2.3530118741928057e-06,-1.650868302521814e-07,-5.93735852787005e-07
-3.33831266282053e-07,-9.271355645127268e-08,-5.426434402848284e-07,1.8159167811846346e-07,-4.4661249454502176e-07,6.346078009838855e-07,-3.106305595806848e-07,3.011257238353054e-07,7.041945429175341e-07,-4.3273772884683115e-07,-2.8620087815700403e-07,-3.20401794097771e-07,-3.7537369731085603e-07,-6.824701444796995e-07,3.917632547995598e-08,-2.396444465504111e-06,-1.8836669078511653e-07,-6.168935746228397e-07
-3.415661534883224e-07,-9.09203970501857e-08,-5.430396478451865e-07,1.9373985039275872e-07,-4.26198579546979e-07,6.37079626872466e-07,-3.3992122197394625e-07,3.0374073235315276e-07,7.15563650257023e-07,-4.387342223814768e-07,-3.0555040956309144e-07,-3.6327806102979726e-07,-4.0696073834095614e-07,-7.426769980743577e-07,-1.1208099537489024e-08,-2.4370570142592912e-06,-2.1616242757367645e-07,-6.287444743613232e-07
-3.3519613300231434e-07,-9.757071756698046e-08,-5.410178493087369e-07,2.1385009122252406e-07,-4.1131751141796944e-07,6.544933673477004e-07,-3.790838081218148e-07,2.9573553438791687e-07,7.242122522828581e-07,-4.3994053914825025e-07,-3.1120446078802483e-07,-3.9438472603883615e-07,-4.395763893111941e-07,-8.003889469439977e-07,-4.914145627985584e-08,-2.476410367456126e-06,-2.486327876819828e-07,-6.274568785292093e-07
-3.1282085607977833e-07,-1.121944280342547e-07,-5.35629509588408e-07,2.4079525481901995e-07,-4.034486984202703e-07,6.894146557038575e-07,-4.1910265322922837e-07,2.7936669085211054e-07,7.33908499226011e-07,-4.3673574925259795e-07,-3.061870268602518e-07,-4.121930186916043e-07,-4.805312126824977e-07,-8.51423491104869e-07,-7.431275454406731e-08,-2.5141686967968915e-06,-2.846684614392703e-07,-6.173117234035013e-07
-2.7608953521217343e-07,-1.3251752380065063e-07,-5.260095312291643e-07,2.734878277383034e-07,-3.962555466727969e-07,7.407056208019778e-07,-4.502593652630048e-07,2.595444670367501e-07,7.597415791142451e-07,-4.300518220321328e-07,-2.958523477830355e-07,-4.1734111280643335e-07,-5.310585905993737e-07,-8.92160052917846e-07,-8.862822079481302e-08,-2.5485162946683296e-06,-3.220182186749049e-07,-6.03287233782518e-07
-2.2940637603394688e-07,-1.5515425288989702e-07,-5.118371029994406e-07,3.1100721516613486e-07,-3.868437522731939e-07,8.06243601704996e-07,-4.6461996451707255e-07,2.419160730050798e-07,7.92000343257209e-07,-4.2094611604473346e-07,-2.856787076849871e-07,-4.116906112228816e-07,-5.902481003890993e-07,-9.205034787032468e-07,-9.522876823446424e-08,-2.576559561995933e-06,-3.574826372931472e-07,-5.88454900993173e-07
-1.7851650179569174e-07,-1.7643426194538017e-07,-4.934851727716846e-07,3.525061687430798e-07,-3.724665918770037e-07,8.626190002536818e-07,-4.5785265236319415e-07,2.3008576621182606e-07,8.208083092436546e-07,-4.1020308004577033e-07,-2.7939345446236236e-07,-3.9739148574847206e-07,-6.544428871368738e-07,-9.366631161171854e-07,-9.738429110899964e-08,-2.595544297903165e-06,-3.8791099737528504e-07,-5.764201447739837e-07
-1.2925489150690425e-07,-1.9359071353294749e-07,-4.722975290285317e-07,3.9667978667951015e-07,-3.5236706142617367e-07,9.045896595247562e-07,-4.308597533887783e-07,2.2401956380563587e-07,8.533664651112683e-07,-3.9840345773103074e-07,-2.7815446306256485e-07,-3.7602338239690893e-07,-7.17179263111559e-07,-9.428500906467312e-07,-9.740856468624751e-08,-2.603749301170452e-06,-4.1095947874634427e-07,-5.692715933650992e-07
-8.38984845155148e-08,-2.0503526595498726e-07,-4.5041720746433585e-07,4.417574848962411e-07,-3.286045516388291e-07,9.455108382853957e-07,-3.896631782601481e-07,2.2101976117743263e-07,8.823680961112367e-07,-3.855785363383268e-07,-2.8021948253204673e-07,-3.4761494275064886e-07,-7.715414314007976e-07,-9.41439841922522e-07,-9.553814544757331e-08,-2.599876789239504e-06,-4.247777703203933e-07,-5.645972352749132e-07
-4.415366316588863e-08,-2.094551348786963e-07,-4.3002002469900676e-07,4.861978824348501e-07,-3.048548202726317e-07,9.742977895573782e-07,-3.430046976432056e-07,2.1793079960946417e-07,8.979243567082027e-07,-3.709110225673569e-07,-2.8183714817724034e-07,-3.105256379703865e-07,-8.106667943318979e-07,-9.338087784322898e-07,-8.973895315738432e-08,-2.582646621783138e-06,-4.279863194740284e-07,-5.603728184052109e-07
-8.909736747638647e-09,-2.0566529999881594e-07,-4.12833849107378e-07,5.289676574061828e-07,-2.838059381793627e-07,9.909222750759803e-07,-2.9954129930157374e-07,2.123825559464095e-07,9.065262858581715e-07,-3.53504011989246e-07,-2.7864232721540274e-07,-2.628977477123447e-07,-8.298989257891252e-07,-9.210360707627671e-07,-7.699128274509412e-08,-2.5519568255243243e-06,-4.206970293339104e-07,-5.521422932245082e-07
2.2378804320885695e-08,-1.938593611140975e-07,-3.996516014197775e-07,5.692417594515444e-07,-2.70651950539296e-07,9.992812143572977e-07,-2.659793955140031e-07,2.0275527879931934e-07,9.015939707652606e-07,-3.3307479643296246e-07,-2.659428952680718e-07,-2.0439496247211406e-07,-8.28204858326242e-07,-9.041875423581024e-07,-5.472573032470212e-08,-2.5096201804259814e-06,-4.0491082905712955e-07,-5.371112196587313e-07
5.147914839238596e-08,-1.762728731436e-07,-3.9104843949033615e-07,6.065995395732007e-07,-2.6680087334060637e-07,9.961464349437175e-07,-2.4596176416544735e-07,1.892025661096401e-07,8.845387630052902e-07,-3.0946088963955304e-07,-2.4230797642497604e-07,-1.3663247944112737e-07,-8.068827280718347e-07,-8.829722337897427e-07,-2.101623473354682e-08,-2.4580970758650213e-06,-3.8346745325750215e-07,-5.126767897365201e-07
8.017657443965217e-08,-1.563109098257808e-07,-3.863754503948139e-07,6.416696044020484e-07,-2.6972261449226687e-07,9.90811942822003e-07,-2.399869333672424e-07,1.7264518305814807e-07,8.680420013450538e-07,-2.818437854824972e-07,-2.0855295882462737e-07,-6.268028434958082e-08,-7.676528238437408e-07,-8.536410075177819e-07,2.5969458412694615e-08,-2.3989639683937966e-06,-3.5919727094421265e-07,-4.7537646145778736e-07
1.0935501287345967e-07,-1.3752929831562632e-07,-3.839435215445356e-07,6.760688812928376e-07,-2.790066422740218e-07,1.0007476947777082e-06,-2.4663987852035185e-07,1.5367560733479007e-07,8.750498248087629e-07,-2.4908754153059747e-07,-1.6333673386451972e-07,1.5092886766355228e-08,-7.118461111470695e-07,-8.145661190878551e-07,8.811503073474397e-08,-2.3326323429880903e-06,-3.351450481246717e-07,-4.2241275541924284e-07
1.4014392909274936e-07,-1.2310464422239773e-07,-3.821913235658344e-07,7.116209235155319e-07,-2.9187314242769065e-07,1.030366643188061e-06,-2.636349300405663e-07,1.3187692266254562e-07,8.979516673959398e-07,-2.1046944664833554e-07,-1.0625255393519546e-07,9.193050450096549e-08,-6.408275791649332e-07,-7.657763423908258e-07,1.669198321594287e-07,-2.2584144181961074e-06,-3.146554999949882e-07,-3.629729118830538e-07
1.7179781359054877e-07,-1.1511166068371961e-07,-3.8022585482181207e-07,7.496806781749583e-07,-3.0670190905253203e-07,1.0796703196007505e-06,-2.8729943178512483e-07,1.0603042959489712e-07,9.266516088111094e-07,-1.6589515761398737e-07,-3.790189125230133e-08,1.632342005241263e-07,-5.563777410565962e-07,-7.094703557717272e-07,2.62593075345622e-07,-2.174580967438859e-06,-3.007915989219988e-07,-2.8908004097366705e-07
2.0279274218651287e-07,-1.1391693131426493e-07,-3.7707219263502546e-07,7.905443791323951e-07,-3.211961989034629e-07,1.1575551104408975e-06,-3.1167096156623075e-07,7.572640748928127e-08,9.502788566070287e-07,-1.1620313001543148e-07,4.132756243373975e-08,2.2407140567546418e-07,-4.61398351856759e-07,-6.471223172469593e-07,3.7260599753170533e-07,-2.0793812106747153e-06,-2.9577109794736603e-07,-2.0272038351765023e-07
2.2955759680877206e-07,-1.183062532810483e-07,-3.7229349249765485e-07,8.329323483359686e-07,-3.3816528850870774e-07,1.2547422686059534e-06,-3.2876921906731257e-07,4.230166526014283e-08,9.67473339688899e-07,-6.348618749553559e-08,1.2527633044467477e-07,2.7217879160783487e-07,-3.612890559602843e-07,-5.806618022600111e-07,4.904443579967556e-07,-1.9725947718105455e-06,-3.0029128236274063e-07,-1.310936173261362e-07
2.4723456982814546e-07,-1.2552293232196402e-07,-3.6569130256414496e-07,8.744940005382551e-07,-3.3513931852965826e-07,1.3485894548385007e-06,-3.296439699177433e-07,9.885067639798016e-09,9.83884643492135e-07,-1.0602050642156986e-08,1.9183279106095456e-07,3.0699376029008714e-07,-2.638610943766585e-07,-5.132476096254172e-07,6.058360707939451e-07,-1.8563157504418364e-06,-3.125526417263766e-07,-6.546931896113137e-08
2.5110053919368273e-07,-1.3086952360210469e-07,-3.558552505945962e-07,9.133635670129014e-07,-2.9381654596601496e-07,1.4309009663347564e-06,-3.0584478601290427e-07,-1.3316126200099191e-08,9.790066487061318e-07,3.965064130390458e-08,2.3523338572908866e-07,3.2868402290166894e-07,-1.7819857096118561e-07,-4.481506979525167e-07,7.058553348362259e-07,-1.7352983167826986e-06,-3.2828716387134556e-07,-4.866519771197863e-08
2.38873191593567e-07,-1.285128193996139e-07,-3.40675131396289e-07,9.490713278394776e-07,-2.4369594411306735e-07,1.4787265926731894e-06,-2.5213424506350996e-07,-1.9733844744533225e-08,9.880149473097407e-07,8.460802230906161e-08,2.3932318056147246e-07,3.383987279870639e-07,-1.1313483610725118e-07,-3.9055158628679926e-07,7.804268772669771e-07,-1.6171269382539992e-06,-3.424623959602176e-07,-7.328636899287636e-08
2.1128224382310962e-07,-1.1415569827831226e-07,-3.186079409183169e-07,9.819928046263944e-07,-1.7689611453026689e-07,1.475188330860018e-06,-1.697648122072824e-07,-1.054800920458215e-08,9.910148414618924e-07,1.2150281778138675e-07,2.2265562855875215e-07,3.35915883033685e-07,-7.453127370738139e-08,-3.4514174945180306e-07,8.298819473372297e-07,-1.5103904294959114e-06,-3.5103973729122237e-07,-8.259389745173629e-08
1.709524597176599e-07,-8.73576278972596e-08,-2.8982947714898203e-07,1.012502215491528e-06,-1.3033463444524952e-07,1.4774006574514285e-06,-6.774239040323452e-08,3.6200339850591735e-08,1.003183465537683e-06,1.481690209197409e-07,2.48396228146432e-07,3.1959747252263316e-07,-6.199853870983012e-08,-3.1345039029255044e-07,8.332291104982958e-07,-1.4205134231013482e-06,-3.5155098533153094e-07,-6.389187512541219e-08
1.1771965635338288e-07,-5.160098287646744e-08,-2.563768899376889e-07,1.0406133473289724e-06,-6.268231574162042e-08,1.526448540166812e-06,3.909775091144299e-08,8.994806662096833e-08,1.0016269403759333e-06,1.6392895501371959e-07,2.8449030808562665e-07,2.902950725044335e-07,-6.81917611042775e-08,-2.9164661181381844e-07,8.244977160568857e-07,-1.346839833063707e-06,-3.432731468523928e-07,-4.532657850153698e-08
5.672049118188807e-08,-1.2842983224965786e-08,-2.2171976143417136e-07,1.0656689651310205e-06,3.918112825905685e-08,1.5397947788479807e-06,1.3410979823104733e-07,1.5670213601532316e-07,9.902244785501531e-07,1.6943420920864483e-07,2.7194136403296606e-07,2.5043229972382584e-07,-8.203785363040131e-08,-2.722632104323783e-07,8.016851911361666e-07,-1.2835719062046597e-06,-3.272951862318627e-07,-4.094715779455643e-08
-7.87284429948001e-09,2.234731237818562e-08,-1.8966486259055825e-07,1.0862471150436506e-06,1.174458402907451e-07,1.5262718236891872e-06,2.036548442672723e-07,2.2562520580293468e-07,9.711328289567798e-07,1.6623521784457867e-07,2.386665297212232e-07,2.0649120898298764e-07,-9.312275932633075e-08,-2.4643764657013784e-07,7.794856199711236e-07,-1.2226547461264139e-06,-3.055136841792778e-07,-6.657109525835122e-08
-7.005845871992978e-08,4.8927446330798575e-08,-1.6328995269574914e-07,1.1009471937526552e-06,1.9594255933333008e-07,1.4842803996388963e-06,2.413696160947538e-07,2.921958138290734e-07,9.602432471933973e-07,1.56992294931109e-07,2.0607947172670905e-07,1.65771186756146e-07,-9.4815479509026e-08,-2.059723707503481e-07,7.667131007648363e-07,-1.1565192781952925e-06,-2.791021910092402e-07,-1.3738606596622981e-07
-1.2804145731244061e-07,6.49155898865988e-08,-1.4387053091663457e-07,1.1094724972997493e-06,2.773195123704804e-07,1.416882766388857e-06,2.4970877672551123e-07,3.552767404427756e-07,9.55111431720533e-07,1.4537506253105792e-07,1.7352099756384288e-07,1.3927719837867382e-07,-8.5917542272278e-08,-1.465668676947058e-07,7.681645641101068e-07,-1.0811428632495967e-06,-2.483732280160513e-07,-2.013202587299987e-07
-1.8111708193632215e-07,7.121922551472934e-08,-1.309323168966635e-07,1.1129933311502232e-06,3.2891860391726963e-07,1.3586421596105822e-06,2.3777617680103382e-07,4.1478463635342624e-07,9.315786323204041e-07,1.3486102541441086e-07,1.6394131900663607e-07,1.3603637933256254e-07,-7.066241584057882e-08,-8.552302044493215e-08,7.840327779151824e-07,-9.9868529969427e-07,-2.1387179899565944e-07,-2.515856499913687e-07
-2.267503894091327e-07,7.063459024482724e-08,-1.2275846818904637e-07,1.114014698681142e-06,3.731420198984555e-07,1.2942334737384806e-06,2.173984238898091e-07,4.6953562570419743e-07,9.245125675422932e-07,1.2757934036005848e-07,1.7028331880476148e-07,1.4309444833659266e-07,-5.6434801883671286e-08,-2.776619154334235e-08,8.102871289906772e-07,-9.170987088723651e-07,-1.767903162439075e-07,-2.840545582448362e-07
-2.629666857438639e-07,6.737056480278059e-08,-1.1633934776724486e-07,1.1161177549812015e-06,4.072121196336518e-07,1.2470410908829766e-06,1.9984408536615838e-07,5.178938288661736e-07,9.106141473767355e-07,1.2429614776754893e-07,1.887472274474246e-07,1.6689208674382122e-07,-5.0168616683873055e-08,2.0349897537473418e-08,8.401710248963063e-07,-8.467730037005951e-07,-1.3853849095199732e-07,-3.002800981889458e-07
-2.8542735429068674e-07,6.647119209578722e-08,-1.1000564599098415e-07,1.1221019918270408e-06,4.29929258744846e-07,1.2285235041314653e-06,1.935680845224263e-07,5.592082413202011e-07,9.075096761626294e-07,1.2447303771719233e-07,2.1562134905589384e-07,2.049315648401683e-07,-5.61654315224432e-08,6.168365914321516e-08,8.659419709078243e-07,-7.96955884609451e-07,-1.005936428710605e-07,-3.0445051178823415e-07
-2.9224998426275373e-07,7.243237526756834e-08,-1.0054696029614468e-07,1.1340295221940135e-06,4.5233807030212323e-07,1.2250740120497235e-06,2.0295807105689124e-07,5.941502334132915e-07,8.813787353481283e-07,1.268290038583506e-07,2.393002092075835e-07,2.5831280252510435e-07,-7.572389226306411e-08,8.765809866091108e-08,8.80387308897285e-07,-7.73079112362636e-07,-6.43138184274411e-08,-3.052378046012056e-07
-2.8728923786177896e-07,8.822756410929755e-08,-8.771066282104638e-08,1.151545591685772e-06,4.719709682022016e-07,1.2299976577684922e-06,2.2893554584591372e-07,6.255511360270805e-07,8.775705417986536e-07,1.274251268536637e-07,2.58193072287786e-07,2.8604410601428453e-07,-1.0702481022698142e-07,8.695635593927096e-08,8.781238531504712e-07,-7.748521423392543e-07,-3.018073658537684e-08,-3.111226923292095e-07
-2.773650049142043e-07,1.1537958120447058e-07,-7.244446010719507e-08,1.1724860960466573e-06,4.916365628616977e-07,1.2169502737200071e-06,2.710138462425382e-07,6.592650892860675e-07,9.072543792315688e-07,1.2358715686473182e-07,2.707420909681397e-07,2.4561225620033416e-07,-1.4570225801983537e-07,5.850734357635871e-08,8.54253555303835e-07,-7.964856783185745e-07,2.26182899067365e-09,-3.0950164798076913e-07
-2.70197538319926e-07,1.5364185692607137e-07,-5.5062799464005e-08,1.1927153278690436e-06,5.173023465144853e-07,1.1851918220825377e-06,3.285427924683727e-07,7.030166417080217e-07,9.14130160039675e-07,1.1301078659045504e-07,2.7418423706704525e-07,1.1521791616354269e-07,-1.869141722086443e-07,9.86970503691773e-10,8.10706894876183e-07,-8.297495286296197e-07,3.3113286322688205e-08,-3.190514652827708e-07
-2.740806738721895e-07,1.9991125777269022e-07,-3.649402498351369e-08,1.2080866522297803e-06,5.528671306429504e-07,1.1246603103119002e-06,4.000035684890079e-07,7.635199468297504e-07,8.856636965652127e-07,9.120834707749782e-08,2.666234715113413e-07,-2.9210036154810206e-08,-2.2793425117633952e-07,-5.1176068885694644e-08,7.458287717539202e-07,-8.673059565515283e-07,6.129509651589216e-08,-3.44113150184911e-07
-2.9565362266087754e-07,2.482938190359467e-07,-1.860711061164345e-08,1.214514863226731e-06,5.997007238818168e-07,1.0323920993139344e-06,4.81569285281221e-07,8.442977906446716e-07,8.522640046743682e-07,5.584582292177799e-08,2.4799530720487225e-07,-1.086036840252892e-07,-2.696408282019866e-07,-9.804201957571666e-08,6.602287569107535e-07,-9.038863216359874e-07,8.536501021611702e-08,-3.788781755000357e-07
-3.327045528384034e-07,2.919699372508735e-07,-4.049777011905814e-09,1.2110268493470557e-06,6.556355038695027e-07,9.21856708708804e-07,5.661762532702015e-07,9.447351229544445e-07,8.198842466166472e-07,5.464841076910044e-09,2.2048284904570938e-07,-1.124271688302207e-07,-3.165041296610987e-07,-1.463195929366466e-07,5.567028909427198e-07,-9.361605708154195e-07,1.0446192279616564e-07,-4.1742455682290574e-07
-3.723021309206223e-07,3.250131116028641e-07,1.9386906352775237e-08,1.2093497339557023e-06,7.155960697666493e-07,8.250218115152598e-07,6.435325913960542e-07,1.059846868043086e-06,7.906871480849702e-07,-5.629616009358982e-08,1.8733309346527707e-07,-1.1292140202774317e-07,-3.7484857604224595e-07,-2.248967973184037e-07,4.4037870547089356e-07,-9.62403671752228e-07,1.1836623361829179e-07,-4.493529285251396e-07
-4.090472734310362e-07,3.432977790404242e-07,4.3951889722568884e-08,1.2089500374171528e-06,7.73441228585864e-07,7.688245766855166e-07,7.018879800710153e-07,1.1840794173481928e-06,7.777898512443407e-07,-1.2712102570416623e-07,1.564682190396894e-07,-1.4307639377768273e-07,-4.489058066981263e-07,-3.299443320118899e-07,3.2037159923342987e-07,-9.810482097543306e-07,1.2774842462458075e-07,-4.6834680533622844e-07
-3.957366384415953e-07,3.454948001160518e-07,8.801247793958039e-08,1.2391278792484192e-06,8.244881161318591e-07,7.766941387888496e-07,7.316553647191371e-07,1.3059673899725984e-06,7.473061794848744e-07,-1.8942833615249353e-07,1.292448064430881e-07,-2.470704210395296e-07,-5.362756182654401e-07,-4.32835625285431e-07,2.0775502432887193e-07,-9.88518415366221e-07,1.3476206253039029e-07,-4.762594060124209e-07
-3.4800049260962203e-07,3.339091343984384e-07,1.6002317170336283e-07,1.3021980941349464e-06,8.672031316376214e-07,7.970006713549695e-07,7.283008206862471e-07,1.4182209566743378e-06,7.205993370957358e-07,-2.179620985412771e-07,1.1469523300843264e-07,-3.5073689286012673e-07,-6.263143850658951e-07,-5.261685173548957e-07,1.4634438402757176e-07,-9.79228040438591e-07,1.4248711441336302e-07,-4.791215024588155e-07
-2.974655650258202e-07,3.136572962573191e-07,2.095008926181825e-07,1.3575712448572975e-06,9.027194812904685e-07,8.040771692652202e-07,6.931316963443269e-07,1.5143103519176476e-06,6.934309518113605e-07,-2.232404937424503e-07,1.3371392350653448e-07,-3.88354151035647e-07,-7.030531446119296e-07,-5.571414043487457e-07,1.308635240283435e-07,-9.484273036581672e-07,1.5336531554744367e-07,-4.584811884935972e-07
-2.3094057098027407e-07,2.9067003767315336e-07,2.5611371860399317e-07,1.3906246037462516e-06,9.329435561492311e-07,8.156713821411172e-07,6.31907252269357e-07,1.5640953378805626e-06,6.509404666227398e-07,-2.139388853414518e-07,1.501525133745428e-07,-3.8351297203880703e-07,-7.505937079090375e-07,-5.430364791824489e-07,1.1864310709402544e-07,-8.948364565945901e-07,1.6862205414502972e-07,-4.002795746797843e-07
-1.1946934212930614e-07,2.704705159560491e-07,3.2467792796002017e-07,1.4353946441680313e-06,9.590876528072018e-07,8.424023956045226e-07,5.54368403545353e-07,1.5895185576739473e-06,6.110149565571353e-07,-2.3060439171831433e-07,1.9553065026912527e-07,-3.822072023404299e-07,-7.583198646171169e-07,-5.591292915760059e-07,1.0291896107284653e-07,-8.212417712154656e-07,1.8887840174955034e-07,-2.9647349762473957e-07
-3.114212999088423e-08,2.577174518785604e-07,3.779711174160297e-07,1.4839583792120496e-06,9.81274090985563e-07,9.072557465830201e-07,4.7408283340955803e-07,1.6289714443359872e-06,5.662130663619645e-07,-2.3754175769345657e-07,2.6158303603398174e-07,-4.113195600045011e-07,-7.246732261080666e-07,-6.351705515727356e-07,1.1483823480227075e-07,-7.342889034525887e-07,2.141338165722837e-07,-2.1582441104268823e-07
-8.30716229205053e-09,2.55243527009773e-07,4.149991234991467e-07,1.503522623704297e-06,9.989470110487618e-07,9.499052821171886e-07,4.053590149282498e-07,1.6295345339365119e-06,5.178536117684437e-07,-2.1674019316867955e-07,3.4256293415049416e-07,-4.39793122999737e-07,-6.580698430041748e-07,-6.793014409018357e-07,1.8452509849782554e-07,-6.436826189069444e-07,2.428768175461367e-07,-1.540871334140737e-07
1.0028340242538148e-09,2.6314879520898954e-07,4.4343868146146226e-07,1.519729040265973e-06,1.0120003826995488e-06,9.551425688245444e-07,3.596510649654891e-07,1.5786397551467433e-06,4.577083054670138e-07,-1.9640290146717845e-07,3.980717101145863e-07,-4.831859933986696e-07,-5.736728109365579e-07,-6.876274468426182e-07,2.746226712143646e-07,-5.59538812648869e-07,2.7192026196445565e-07,-1.0148968841291425e-07
-1.4363783470216513e-09,2.791010492912335e-07,4.5392236576175847e-07,1.542793954151044e-06,1.0219335469103716e-06,9.484549012412752e-07,3.420367768971693e-07,1.5323979222845313e-06,4.0552805567763863e-07,-1.7536507356397067e-07,4.2725563291713934e-07,-4.671064591896523e-07,-4.876527209259841e-07,-6.225490478068355e-07,3.353854046612859e-07,-4.892476015085788e-07,2.972317927373045e-07,-7.740767618876e-08
-3.389694055300475e-08,2.9892750794411065e-07,4.743196369977718e-07,1.562520697669079e-06,1.031371081905455e-06,9.341605037201602e-07,3.4851423609795047e-07,1.5017168537267822e-06,4.015104984527134e-07,-1.5475791729014897e-07,4.372538499496399e-07,-4.2474376397008123e-07,-4.126185984591732e-07,-5.464178759786732e-07,4.024558615310032e-07,-4.3682317952375277e-07,3.1472595099307015e-07,-6.925524735784726e-08
-1.1262756512572264e-07,3.1658981426673456e-07,4.4797700458052134e-07,1.5785823863842682e-06,1.0416189396600044e-06,8.705083788211284e-07,3.6593341896933366e-07,1.4794139770434655e-06,4.194475077098493e-07,-1.498664184057896e-07,4.285621716957572e-07,-3.635910985116022e-07,-3.5575102682023437e-07,-4.878942266187862e-07,4.3312772557675735e-07,-4.0428028308788945e-07,3.211299797952683e-07,-6.745049185706929e-08
-1.7635463063628784e-07,3.250758723723978e-07,4.1277364406253554e-07,1.5658714215579712e-06,1.0507395935550703e-06,7.93937572207209e-07,3.7694415178581524e-07,1.4655068710008951e-06,4.033686825293111e-07,-1.555581056661777e-07,4.1199700283067257e-07,-3.1198475322444695e-07,-3.185354316499684e-07,-4.266392320131727e-07,4.449272871196347e-07,-3.9217379864935437e-07,3.153393357520936e-07,-6.821823728327247e-08
-2.0182379060407248e-07,3.191864193422043e-07,3.902851928256379e-07,1.5192489360716927e-06,1.054420537796237e-06,7.400239909066545e-07,3.687100057429207e-07,1.4548284559481556e-06,3.8346419597950667e-07,-1.7347262236446108e-07,3.9029677240699037e-07,-2.9020506023275304e-07,-2.976642127416902e-07,-4.0778993975815925e-07,4.4781592567254377e-07,-3.993324478143901e-07,2.9896921419353553e-07,-6.472976269278888e-08
-1.9906801637786248e-07,2.979066351215405e-07,3.6600471367629283e-07,1.483570548130701e-06,1.0486357884860078e-06,7.269797385249719e-07,3.390750035745648e-07,1.4437650279580569e-06,3.8269255202405683e-07,-2.025443073023901e-07,3.625218419055255e-07,-2.2684239089898232e-07,-2.875883803722375e-07,-4.2136316771918985e-07,4.2843818674508557e-07,-4.2382856993623764e-07,2.7502621934599733e-07,-6.235238857835554e-08
-1.8920343592769364e-07,2.641725328536565e-07,3.481046402322709e-07,1.4423704793185067e-06,1.0317598503096988e-06,7.296542697906794e-07,2.961328473711993e-07,1.4315028208040505e-06,3.372056301854596e-07,-2.3727253288875348e-07,3.2818420295599734e-07,-2.001134042406398e-07,-2.8348082463245623e-07,-4.55406454945388e-07,3.9898768900963864e-07,-4.6442331584539937e-07,2.462354630236195e-07,-6.811687843648041e-08
-1.9021581298408655e-07,2.2323388868672457e-07,3.4173695096770384e-07,1.4020688038780717e-06,1.0052948421789366e-06,7.221275545613642e-07,2.527415238813416e-07,1.4195014967867975e-06,2.6508168772926966e-07,-2.779005541995587e-07,2.847319536414171e-07,-2.1404345274791985e-07,-2.824217826393678e-07,-5.084615594904463e-07,3.5316922851915643e-07,-5.202883894358766e-07,2.1479100167863648e-07,-8.721544736500812e-08
-2.1749079571869893e-07,1.8133524701281926e-07,3.338591073104546e-07,1.3593034866331213e-06,9.732220922482594e-07,6.518216377887943e-07,2.2047702825905057e-07,1.4101962707221666e-06,2.0017634816532672e-07,-3.2358625334699167e-07,2.338584515648948e-07,-2.367774036240569e-07,-2.8285020180198997e-07,-5.647600001143677e-07,2.894217766729421e-07,-5.898291003998422e-07,1.8265282065993364e-07,-1.2204388336692525e-07
-2.760723096208911e-07,1.4410303699196966e-07,3.306384052447842e-07,1.3028998409681406e-06,9.400440048624708e-07,5.579492266679775e-07,2.0535500986612553e-07,1.4046019625465372e-06,1.3843929741220224e-07,-3.7190718118089955e-07,1.7953200060485243e-07,-2.3299603296713427e-07,-2.839221622386519e-07,-6.24387335531027e-07,2.1337524624454078e-07,-6.706320204099154e-07,1.510483354724433e-07,-1.6942053902128407e-07
-3.6265735577968804e-07,1.1438494427627312e-07,3.276029986215189e-07,1.237256168876688e-06,9.087594449590083e-07,4.963417178214828e-07,2.0641777299020019e-07,1.4006261957629315e-06,9.125438460094292e-08,-4.212697034902e-07,1.2571251562893837e-07,-2.2353305375701166e-07,-2.851040425372466e-07,-6.887365758532416e-07,1.3085015190631562e-07,-7.597594009076462e-07,1.200790019611584e-07,-2.2337920646548776e-07
-4.689834627395551e-07,9.156390872563613e-08,3.222819771447209e-07,1.160900973660348e-06,8.805706884364415e-07,3.8889549278821763e-07,2.185170181683907e-07,1.3946659289991321e-06,4.521302055953685e-08,-4.7099161297726514e-07,7.52273195881929e-08,-2.0907577264145597e-07,-2.855951488872073e-07,-7.580539616228597e-07,4.884902946487958e-08,-8.531381800027643e-07,8.938420879543457e-08,-2.7674825340045923e-07
-5.84504921767077e-07,7.312338298895376e-08,3.204502290854276e-07,1.080179684303803e-06,8.560599848372993e-07,2.5667549309164833e-07,2.3662709016334448e-07,1.384792915763873e-06,5.5977266710993405e-09,-5.206886931080631e-07,2.858986643948168e-08,-1.8588731407097525e-07,-2.8449847172340896e-07,-8.317632222847934e-07,-2.631286110969629e-08,-9.457906072140418e-07,5.854713472157171e-08,-3.2296655606342724e-07
-6.990764978825704e-07,5.616387249401318e-08,3.098921327661282e-07,1.0020514187775492e-06,8.357282566733922e-07,1.468444420413371e-07,2.5749492809967894e-07,1.371254709675914e-06,-2.2810070440808512e-08,-5.70307345463462e-07,-1.6380363279096547e-08,-1.6868915502044273e-07,-2.824401397293644e-07,-9.083280941221379e-07,-9.113683295200142e-08,-1.034325340069223e-06,2.6308268429724874e-08,-3.588258500323646e-07
-8.044432142835427e-07,3.756644661040575e-08,2.9021718714765253e-07,9.299427305377075e-07,8.192143687522558e-07,6.400072720990348e-08,2.784274212785798e-07,1.35419081185693e-06,-4.499627607135764e-08,-6.206634060257704e-07,-6.431568090479379e-08,-1.6152108860145407e-07,-2.828894663619887e-07,-9.874425909726604e-07,-1.4640729208245376e-07,-1.1189572228772689e-06,-9.669417734096863e-09,-3.8483267419051724e-07
-8.962266241099504e-07,1.4577242451287809e-08,2.599709917330525e-07,8.659841443811851e-07,8.047780147651523e-07,-3.224383657737034e-10,2.9607510361753595e-07,1.3324032198480761e-06,-5.938883126356129e-08,-6.730573079780287e-07,-1.2056625029189094e-07,-1.7655882075409453e-07,-2.9124865610673416e-07,-1.0693296284859119e-06,-1.9640319927798483e-07,-1.2022048535796425e-06,-5.1210054264655e-08,-4.046740202762421e-07
-9.728163755668385e-07,-1.3429268220625223e-08,2.2275127038401714e-07,8.115857073673983e-07,7.900748685701481e-07,-4.2948340230029754e-08,3.0723561026225294e-07,1.3043360891377473e-06,-7.084173132605151e-08,-7.280221569195239e-07,-1.8853827740833427e-07,-2.2374378294698294e-07,-3.1264231682934765e-07,-1.1535912171937766e-06,-2.465247473155597e-07,-1.2861434872089456e-06,-9.804609170219591e-08,-4.230700790790323e-07
-1.0339559406328692e-06,-4.4331338747104384e-08,1.8268639328811711e-07,7.682947011321586e-07,7.733389697221322e-07,-7.326535309926262e-08,3.0982390862631437e-07,1.2689001079551998e-06,-8.321345226002174e-08,-7.846356811863867e-07,-2.695492298318624e-07,-3.0276758069807046e-07,-3.5032868059458893e-07,-1.2395376351358336e-06,-3.011882680738956e-07,-1.3712647352932038e-06,-1.4798527690181169e-07,-4.4358785175891235e-07
-1.0799332198805413e-06,-7.496759206344024e-08,1.4185773234953755e-07,7.374413058755928e-07,7.540170199850976e-07,-9.138634337078941e-08,3.0264464400751787e-07,1.2254234486086e-06,-1.0023080972866921e-07,-8.40458262979006e-07,-3.59321912883781e-07,-4.0591789008758045e-07,-4.046264402224076e-07,-1.326306225130496e-06,-3.623608251013498e-07,-1.4562897515974682e-06,-1.976665169413313e-07,-4.693868488720893e-07
-1.1115408588453586e-06,-1.0293125537464933e-07,1.0309766729123421e-07,7.194843186207993e-07,7.328592952512544e-07,-9.929941009611794e-08,2.850842770146059e-07,1.174173710417853e-06,-1.202509581287947e-07,-8.920469560647186e-07,-4.48987644062256e-07,-5.220470914582392e-07,-4.7177746792700766e-07,-1.4113271721004643e-06,-4.284271827518821e-07,-1.5374764286931965e-06,-2.4271717883953234e-07,-5.008862030861935e-07
-1.1296261803903603e-06,-1.2671799997180885e-07,6.659500509098485e-08,7.13840303699048e-07,7.114677304720716e-07,-9.822590440549989e-08,2.573179676320077e-07,1.1172520225704357e-06,-1.4420267044988522e-07,-9.352632120142161e-07,-5.317987418855659e-07,-6.391601549516165e-07,-5.438896618150868e-07,-1.4894013023750365e-06,-4.942553279729957e-07,-1.6087838525390003e-06,-2.78327604263286e-07,-5.352629490023347e-07
-1.1348140379959425e-06,-1.453342902304362e-07,4.3406129728678334e-08,7.187235663762057e-07,6.912386528432489e-07,-8.686144010891664e-08,2.2025858921475743e-07,1.058467234386701e-06,-1.7051807159309772e-07,-9.664699013896226e-07,-5.855070803562332e-07,-7.401611802283004e-07,-6.10778385570852e-07,-1.553806726561787e-06,-5.530614742279042e-07,-1.663861726489298e-06,-3.0071861461420986e-07,-5.680185420884021e-07
-1.1282342272930188e-06,-1.5829564543601104e-07,3.141431590529298e-08,7.309755597617228e-07,6.725099203878703e-07,-6.585713497195253e-08,1.7522336786647594e-07,1.002546300618564e-06,-1.9487498585362363e-07,-9.835660316516747e-07,-5.975039576035337e-07,-7.72199166131102e-07,-6.62465478090575e-07,-1.5978970413917152e-06,-5.988197476247574e-07,-1.697939025057596e-06,-3.0804937252856805e-07,-5.938179032281213e-07
-1.111848445594097e-06,-1.6533873180269683e-07,2.7758705683281963e-08,7.465741351147867e-07,6.548888338001504e-07,-3.715956387679557e-08,1.244348117616156e-07,9.545461696931296e-07,-2.143893713663933e-07,-9.858218255527303e-07,-6.412002257402557e-07,-7.894225886391777e-07,-6.913564307634562e-07,-1.6161763674290036e-06,-6.27970311193357e-07,-1.7085883104745773e-06,-3.0034675017352135e-07,-6.08035069355325e-07
-1.08871246713227e-06,-1.6599780838402432e-07,3.064383828024785e-08,7.615498642330798e-07,6.382549529372771e-07,-2.9095108911513865e-09,7.200138154391373e-08,9.187934841994718e-07,-2.2569226799234846e-07,-9.740608428313249e-07,-6.679650305794684e-07,-8.204746939773198e-07,-6.945092539346593e-07,-1.6065118282584098e-06,-6.405575950625874e-07,-1.6968274283983522e-06,-2.797452362653165e-07,-6.084590032525078e-07
-1.0633069729280418e-06,-1.6010249971261448e-07,2.9261215381558484e-08,7.725486214067154e-07,6.231324511379268e-07,3.172607882056581e-08,2.4092819761752196e-08,8.972703094167371e-07,-2.2699374154318334e-07,-9.513551720109883e-07,-6.566568788318927e-07,-7.909440282626234e-07,-6.751565321582139e-07,-1.5728701924338586e-06,-6.404873406849783e-07,-1.668218633992386e-06,-2.5088131062131716e-07,-5.964804906651574e-07
-1.0410247958120415e-06,-1.4862852289634169e-07,2.5074038608931862e-08,7.773983015051732e-07,6.10364627753402e-07,6.745729008254523e-08,-1.2275952630227223e-08,8.891766187056152e-07,-2.2223729743730982e-07,-9.227046164523261e-07,-6.229444619175713e-07,-7.20609241222149e-07,-6.412839514490968e-07,-1.524715481795392e-06,-6.338047114684772e-07,-1.6314166338316682e-06,-2.1991610639363938e-07,-5.755865761035727e-07
-1.0262013975884705e-06,-1.335657358181661e-07,2.0108531532992098e-08,7.760224482503236e-07,6.008187661703111e-07,8.826659781708263e-08,-3.135920277096722e-08,8.918551829579085e-07,-2.1494910090658717e-07,-8.931607719319466e-07,-6.003956380191398e-07,-6.594454766570374e-07,-6.017187817046908e-07,-1.4735037534277878e-06,-6.256874233023973e-07,-1.5947155855067422e-06,-1.9266519176991215e-07,-5.491983331571097e-07
-1.0203429314295651e-06,-1.1740604897713769e-07,1.4511102144597487e-08,7.706008842113772e-07,5.949624786538962e-07,9.860183875427055e-08,-3.205536852728184e-08,9.008587382515557e-07,-2.058577324159333e-07,-8.665564823623178e-07,-5.857580107298291e-07,-6.187769663427324e-07,-5.630661793266907e-07,-1.4296356129900035e-06,-6.185695876186504e-07,-1.5640837834185267e-06,-1.7364115555355148e-07,-5.193488727065977e-07
-1.0221413844631634e-06,-1.0334022530601526e-07,7.322270936761918e-09,7.642989333553992e-07,5.920642533942255e-07,1.065537990877527e-07,-2.109910949069894e-08,9.090393572910031e-07,-1.984141287507733e-07,-8.455453333151179e-07,-5.74157576175245e-07,-5.93530920916109e-07,-5.29051759057596e-07,-1.401127916283342e-06,-6.122835838389087e-07,-1.543228515977778e-06,-1.6578014644871556e-07,-4.867812337609862e-07
-1.028562860187701e-06,-9.513169134317587e-08,3.774649178519304e-09,7.598061248112216e-07,5.900109162759678e-07,1.0637327021190951e-07,-1.2245541944594618e-08,9.074460253925857e-07,-1.9549524793608924e-07,-8.317578491055245e-07,-5.661190274780819e-07,-5.874311501251383e-07,-5.010031218575831e-07,-1.3923959390537972e-06,-6.051302679735775e-07,-1.5334587492384495e-06,-1.6972029938894558e-07,-4.518812272418884e-07
-1.0356567448596066e-06,-9.55937044782165e-08,8.961903972931918e-10,7.587147779758313e-07,5.864020116177273e-07,9.936143300479582e-08,-2.0943120243518177e-08,8.885407647681859e-07,-1.9903702907954665e-07,-8.255895712207405e-07,-5.601712858868132e-07,-5.979811567767836e-07,-4.786391170266134e-07,-1.403111072713599e-06,-5.951688358573288e-07,-1.5333130598202102e-06,-1.8343371152805838e-07,-4.155490075140586e-07
-1.0395695085374391e-06,-1.0506314197933724e-07,-4.195546753568858e-09,7.611782108050751e-07,5.797565695627814e-07,7.359397023600896e-08,-5.768472044745955e-08,8.490346709946881e-07,-2.106938446822525e-07,-8.26179792834815e-07,-5.554066693953393e-07,-6.20384522252188e-07,-4.611500835981626e-07,-1.4284427067871133e-06,-5.814688030718296e-07,-1.5392315161335883e-06,-2.0316123946623388e-07,-3.799235658355275e-07
-1.0380132968020758e-06,-1.2130800198480973e-07,-9.021564096065705e-09,7.656878707580785e-07,5.697464502624281e-07,3.18825227959129e-08,-1.238766718976128e-07,7.910110000480812e-07,-2.3060723777655436e-07,-8.314497888371571e-07,-5.516569030802347e-07,-6.487241566253528e-07,-4.476202512973898e-07,-1.4599281881042608e-06,-5.643749596558205e-07,-1.5463390942107406e-06,-2.245107842020413e-07,-3.4781890227471247e-07
-1.0306757535125339e-06,-1.4015611856484628e-07,-1.5287309686297546e-08,7.698560650280976e-07,5.569909057958299e-07,-2.232614181186281e-08,-2.115496472247645e-07,7.217896579670959e-07,-2.53965213426643e-07,-8.378076710127655e-07,-5.484925948059872e-07,-6.76228744353938e-07,-4.362695532683886e-07,-1.4864148713727634e-06,-5.444535335203646e-07,-1.5484643374042103e-06,-2.42877240029421e-07,-3.208818144388654e-07
-1.018283233876464e-06,-1.5628728802855228e-07,-2.144969653276393e-08,7.719225642697879e-07,5.42907113345144e-07,-8.71339796485511e-08,-3.067488996925814e-07,6.519195079586719e-07,-2.794925617474918e-07,-8.403592881219303e-07,-5.442017832099634e-07,-6.956817186935929e-07,-4.239233270547959e-07,-1.49639290017251e-06,-5.214482103299459e-07,-1.5390279026100922e-06,-2.5426886149109664e-07,-2.984157201467961e-07
-1.0017466160974958e-06,-1.6490090618308292e-07,-2.4570193425242118e-08,7.714955279994319e-07,5.291272436077152e-07,-1.5922155114476008e-07,-3.952499547466335e-07,5.911918008544901e-07,-3.0590646392614513e-07,-8.345800574084075e-07,-5.360099409730408e-07,-7.008629394432589e-07,-4.0675179410698466e-07,-1.4820438680179519e-06,-4.942398806931601e-07,-1.5134660058930019e-06,-2.5677981550876776e-07,-2.778399014195167e-07
-9.819632712317293e-07,-1.637948075341873e-07,-2.343560525809795e-08,7.692944932899774e-07,5.165045017888338e-07,-2.3681770490442118e-07,-4.674615792194723e-07,5.451678627106881e-07,-3.2948733970593695e-07,-8.178855165785211e-07,-5.210881162184765e-07,-6.88314674990486e-07,-3.814396173806059e-07,-1.4422966594003264e-06,-4.6126314521887254e-07,-1.4710678226123732e-06,-2.511563370307326e-07,-2.5583562814511037e-07
-9.596310617383379e-07,-1.5423525893180084e-07,-1.8805874077092554e-08,7.668041036344114e-07,5.045496264034347e-07,-3.128082909925224e-07,-5.20439877730378e-07,5.140913526975393e-07,-3.469333483773737e-07,-7.900538591869364e-07,-4.974599394034172e-07,-6.585886671752621e-07,-3.462405830476858e-07,-1.383139724640169e-06,-4.2098712468074557e-07,-1.415147185841917e-06,-2.4002895931775546e-07,-2.2951286250651692e-07
-9.352202777774686e-07,-1.404826797443166e-07,-1.0547081433738174e-08,7.659340264497717e-07,4.915645992654286e-07,-3.7964138237064543e-07,-5.576704839039169e-07,4.932783156919172e-07,-3.5381107625106337e-07,-7.532550625470673e-07,-4.6480482029825194e-07,-6.167266394194168e-07,-3.022608354524445e-07,-1.3157249549134292e-06,-3.727945715272449e-07,-1.3524964205328895e-06,-2.2687120954969276e-07,-1.9760634882272058e-07
-9.093592333644312e-07,-1.286857293500726e-07,1.5426659783064096e-10,7.684946526281909e-07,4.7517825903774943e-07,-4.2845196219052304e-07,-5.876272587612477e-07,4.744142776854386e-07,-3.467429803011749e-07,-7.117497635408425e-07,-4.2487978110508246e-07,-5.712721683335713e-07,-2.5407916940867017e-07,-1.2527085606930932e-06,-3.178347564845197e-07,-1.2918935737949033e-06,-2.1487024170208106e-07,-1.609736363161289e-07
-8.829695233821861e-07,-1.24804039346956e-07,1.2794121493112053e-08,7.760515752980093e-07,4.533097209376561e-07,-4.433906311101909e-07,-6.205317280182158e-07,4.484702350075053e-07,-3.250576072881059e-07,-6.706417710214233e-07,-3.8101230670739374e-07,-5.314658398800244e-07,-2.0840963747617244e-07,-1.2036181738063766e-06,-2.590178944137228e-07,-1.2411346917946006e-06,-2.0565882252015657e-07,-1.2193242934099498e-07
-8.569080147023121e-07,-1.3197983763415333e-07,2.5775416436492467e-08,7.900283922642087e-07,4.2524667203789877e-07,-4.325260634453445e-07,-6.640313687141877e-07,4.0910990379095456e-07,-2.912651034508564e-07,-6.342827265910247e-07,-3.370239934721135e-07,-5.041187725063043e-07,-1.717730985076723e-07,-1.1720803574677271e-06,-2.0048187211974824e-07,-1.2046120334598353e-06,-1.9915684665428852e-07,-8.35466165334122e-08
-8.321422858049081e-07,-1.496450301671191e-07,3.7629144549508064e-08,8.108671366336426e-07,3.9179211914239534e-07,-3.8625069127396314e-07,-7.206390925710237e-07,3.542901537797133e-07,-2.488902594243958e-07,-6.056192062554026e-07,-2.9656676809658737e-07,-4.920028794623373e-07,-1.4899418943665138e-07,-1.1563971773635504e-06,-1.4712870448806147e-07,-1.1832041466058204e-06,-1.948671365868765e-07,-4.956892132891552e-08
-8.104913284067226e-07,-1.7500679196418473e-07,4.744439810675741e-08,8.365138849418811e-07,3.5436597393603575e-07,-3.182487329054503e-07,-7.875372472957891e-07,2.863191771220227e-07,-2.0168011853106864e-07,-5.86222116842136e-07,-2.6280259162267994e-07,-4.935352447135841e-07,-1.4244201020243329e-07,-1.1515956065062105e-06,-1.0374716326140125e-07,-1.174945894700758e-06,-1.9265670586835683e-07,-2.399294819569501e-08
-7.944577753338708e-07,-2.0454468671597044e-07,5.360677663352394e-08,8.621859314674437e-07,3.144120451359314e-07,-2.489265579519949e-07,-8.570913623984902e-07,2.118309869939724e-07,-1.5470894015284048e-07,-5.755893992071381e-07,-2.3777883730563e-07,-5.033863460862357e-07,-1.5159067554636315e-07,-1.150983560354125e-06,-7.359444887124349e-08,-1.1752044072580202e-06,-1.9206121976120518e-07,-9.747583795551296e-09
-7.859756856223754e-07,-2.3424396413023252e-07,5.384219032721363e-08,8.819662661278969e-07,2.7378781051813277e-07,-1.8735647419727956e-07,-9.18054802766543e-07,1.4078189671089693e-07,-1.1110222571602512e-07,-5.715249027021397e-07,-2.2233785850690097e-07,-5.145615937381022e-07,-1.7387084459475615e-07,-1.1479694909808505e-06,-5.7704874338270766e-08,-1.1779836121094278e-06,-1.918450768832955e-07,-7.823449953800965e-09
-7.856865616694908e-07,-2.600075585694751e-07,4.884941746591785e-08,8.908409757902127e-07,2.3521398313647161e-07,-1.4315559359093298e-07,-9.586435018825179e-07,8.33503103623568e-08,-7.208164068628802e-08,-5.713798745470401e-07,-2.1677873152175333e-07,-5.216518303545228e-07,-2.0681482504603822e-07,-1.1384518225679217e-06,-5.5538648627646225e-08,-1.1788965863574805e-06,-1.9079080688625898e-07,-1.750600464911034e-08
-7.930508341950679e-07,-2.7886818634871673e-07,4.0198731727317365e-08,8.863272137133036e-07,2.019416661787825e-07,-1.0651219020290941e-07,-9.70809937549084e-07,4.649240765506398e-08,-3.789120963856863e-08,-5.729858739590498e-07,-2.2119713799977632e-07,-5.232831918684293e-07,-2.493684453210591e-07,-1.1217361372837614e-06,-6.5850076125718e-08,-1.177243283699451e-06,-1.8840845978514978e-07,-3.6885369496503097e-08
-8.061893414689375e-07,-2.8976515657218154e-07,2.9610895682683518e-08,8.695458896775566e-07,1.7676619677465182e-07,-9.55270923850634e-08,-9.5326760134262e-07,3.2114440186359266e-08,-7.307763332035978e-09,-5.749195666772802e-07,-2.3491480148036215e-07,-5.222381528383646e-07,-3.013449613510705e-07,-1.099628197219299e-06,-8.703885687535467e-08,-1.1757459266436616e-06,-1.8492730693059942e-07,-6.330226091667929e-08
-8.216818823352288e-07,-2.9356516832603055e-07,2.05786945402033e-08,8.449407340139272e-07,1.6086289782845995e-07,-8.661419368094331e-08,-9.120535338955643e-07,3.654242000995176e-08,2.053375512365776e-08,-5.766786789784195e-07,-2.560640314432777e-07,-5.240137968836028e-07,-3.624060615112119e-07,-1.0757534926043226e-06,-1.1753449518575465e-07,-1.1791820773385324e-06,-1.813291033714805e-07,-9.408927691132779e-08
-8.353372327033658e-07,-2.928963166919264e-07,1.543166182033152e-08,8.183216141601264e-07,1.5327146502635026e-07,-7.502055911854783e-08,-8.585587578135446e-07,5.120916464227568e-08,4.6866071304908604e-08,-5.789907608951429e-07,-2.820727059832534e-07,-5.345016607542541e-07,-4.3138446257691147e-07,-1.0552977284724941e-06,-1.5618899669603517e-07,-1.192401273398225e-06,-1.792558425080943e-07,-1.2708108688444e-07
-8.434721036796283e-07,-2.912084303579716e-07,1.4827538884245325e-08,7.946858280230861e-07,1.5194780023547987e-07,-6.257985788551612e-08,-8.051743366597937e-07,6.560593352677358e-08,7.1167662662627e-08,-5.833740622590698e-07,-3.101618467354537e-07,-5.57162619848548e-07,-5.054373273732166e-07,-1.0434290748741463e-06,-2.0186309957293685e-07,-1.2174286429135093e-06,-1.8016712549909103e-07,-1.602592898678016e-07
-8.436126769561884e-07,-2.907636620918607e-07,1.8497717064259113e-08,7.771895448409798e-07,1.557464370316011e-07,-4.161849294853302e-08,-7.605000757496234e-07,7.142075983005379e-08,9.171104778764843e-08,-5.909514352557951e-07,-3.37442329573453e-07,-5.910399911719302e-07,-5.795152905050342e-07,-1.0430932529072332e-06,-2.525059489138664e-07,-1.2514974693511329e-06,-1.8462709463303288e-07,-1.9134139726995772e-07
-8.348419784490694e-07,-2.9136751751613676e-07,2.582662287981081e-08,7.668616661800274e-07,1.6520745547321493e-07,-2.0517588451411505e-08,-7.272584237019713e-07,6.485455167711458e-08,1.0606168097422785e-07,-6.017209380375676e-07,-3.6118160480110015e-07,-6.310084783617273e-07,-6.470882069625888e-07,-1.0542291520681987e-06,-3.0482928226462077e-07,-1.2879314471915877e-06,-1.9250728390198073e-07,-2.1809360594647887e-07
-8.18182716436859e-07,-2.910216529322649e-07,3.525090970929961e-08,7.624556493796252e-07,1.8148100293772632e-07,-5.93685047408939e-09,-7.034180367761597e-07,4.6563297235758555e-08,1.1152106241875178e-07,-6.148670617869045e-07,-3.793815815799835e-07,-6.696227509679206e-07,-7.013679217565812e-07,-1.0735957242319692e-06,-3.546201471863755e-07,-1.318377390698551e-06,-2.0299251001129692e-07,-2.386044782370474e-07
-7.963060043533606e-07,-2.869376098568428e-07,4.504133616517742e-08,7.609612099826834e-07,2.0511367021394513e-07,-1.544776788129283e-08,-6.839980325602299e-07,2.1081681340976115e-08,1.072395827958708e-07,-6.291020962702234e-07,-3.9107909603241683e-07,-6.988734874822024e-07,-7.361330498692868e-07,-1.094334614724631e-06,-3.9726122817708897e-07,-1.3343154278225014e-06,-2.1385709377817526e-07,-2.5107640453196636e-07
-7.725331562660533e-07,-2.7579813975860037e-07,5.37584826493723e-08,7.588595780536671e-07,2.3587217188588642e-07,-2.6304680400047944e-08,-6.622130022935026e-07,-4.146306783030226e-09,9.519970737905487e-08,-6.42982987147586e-07,-3.966703922753625e-07,-7.117335664201536e-07,-7.470012156130626e-07,-1.1072298576835043e-06,-4.2883558735783103e-07,-1.328723697645625e-06,-2.2170508420078289e-07,-2.541783484502925e-07
-7.502461081913253e-07,-2.545920254470142e-07,5.986711851951704e-08,7.530530013835439e-07,2.7284916982189784e-07,-6.485310525029415e-08,-6.311482963316752e-07,-2.1146388262994017e-08,8.009189287802044e-08,-6.556199545512192e-07,-3.9850271279211193e-07,-7.039411740246946e-07,-7.333635369998805e-07,-1.1045637724760806e-06,-4.47772631605225e-07,-1.2986599359869206e-06,-2.2384557847929334e-07,-2.481332537041283e-07
-7.328921300986151e-07,-2.2242719262387396e-07,6.16326063361894e-08,7.411059264688195e-07,3.1426737265048744e-07,-1.278007504077529e-07,-5.856371840046846e-07,-2.392044999359914e-08,6.762602173938908e-08,-6.669252053804641e-07,-4.0074805833997714e-07,-6.753087506389284e-07,-6.991607986431251e-07,-1.0834154056049566e-06,-4.556877323156899e-07,-1.2466979329679494e-06,-2.1978432747976007e-07,-2.3500057466562972e-07
-7.2342697105012e-07,-1.8136120060261324e-07,5.729221203566756e-08,7.215304009738934e-07,3.57438957477694e-07,-1.9218734539423865e-07,-5.232702111038308e-07,-9.320069724420394e-09,6.197474436756272e-08,-6.768492931779703e-07,-4.079395617446255e-07,-6.298850487397891e-07,-6.517790705135267e-07,-1.04633533121385e-06,-4.567217385944481e-07,-1.1799975501194684e-06,-2.11126097967408e-07,-2.1770792620037523e-07
-7.231688165615627e-07,-1.3549254040146842e-07,4.597225865812569e-08,6.941952795613497e-07,3.990364454335124e-07,-2.5815680774153133e-07,-4.4453501864559963e-07,2.281268237831728e-08,6.580336418481009e-08,-6.851174715533666e-07,-4.2332280527576827e-07,-5.754351709375436e-07,-6.006237173622201e-07,-1.0008939685012145e-06,-4.5637206042220914e-07,-1.1087332856826912e-06,-2.0102848032054764e-07,-1.9921873124029733e-07
-7.312461801824914e-07,-8.975105782205147e-08,2.83189431045446e-08,6.603498859408815e-07,4.3551218856470126e-07,-3.052397779940977e-07,-3.525994695676997e-07,6.925051774249313e-08,7.911313708466843e-08,-6.918060813252987e-07,-4.481692536683096e-07,-5.224507801137885e-07,-5.559605921204371e-07,-9.583884578882186e-07,-4.6052044069249486e-07,-1.0446918596006177e-06,-1.9366067289733744e-07,-1.823845119779453e-07
-7.449430155839921e-07,-4.8858475018854724e-08,6.539800317557463e-09,6.225117976022887e-07,4.640350241103916e-07,-3.3220585818928014e-07,-2.528236200035576e-07,1.2416219503516525e-07,9.929386572831072e-08,-6.976067561479363e-07,-4.817683351931508e-07,-4.819699772269388e-07,-5.269339064319045e-07,-9.304520078565776e-07,-4.742083067752532e-07,-9.986982871534816e-07,-1.9280790099797202e-07,-1.6972555525364745e-07
-7.604309502875787e-07,-1.588263647093594e-08,-1.5754372455638368e-08,5.845072427332129e-07,4.838457526742455e-07,-3.3695173717969503e-07,-1.5120180137897265e-07,1.816340324191463e-07,1.230213303992058e-07,-7.03159856236768e-07,-5.216706802875985e-07,-4.6253877432413316e-07,-5.191330012960366e-07,-9.245928465649419e-07,-5.002742815583878e-07,-9.773078116358911e-07,-2.0011302644069227e-07,-1.6307989647278017e-07
-7.740063711276041e-07,8.745921834228167e-09,-3.426674110269619e-08,5.509883661593337e-07,4.966413017195771e-07,-3.474069884876522e-07,-5.305491303798985e-08,2.3763898836443178e-07,1.4708772029654885e-07,-7.08506517142351e-07,-5.644116926073639e-07,-4.6801417655384983e-07,-5.334918460873358e-07,-9.418677812190507e-07,-5.387770080928377e-07,-9.812244960136274e-07,-2.1439408070602081e-07,-1.6348405417409404e-07
-7.836170082843021e-07,2.67079687027641e-08,-4.539121516269205e-08,5.261428945980354e-07,5.052840785844031e-07,-3.471812640177632e-07,3.679073552281983e-08,2.899635146435487e-07,1.6775204083274005e-07,-7.132487246569966e-07,-6.063622376676394e-07,-4.968935573290579e-07,-5.665855798166624e-07,-9.774390273736423e-07,-5.872025663945889e-07,-1.0059050283706311e-06,-2.3196074276349756e-07,-1.7072105054537744e-07
-7.891397123829688e-07,4.075971939517631e-08,-4.73164804448343e-08,5.12578696567298e-07,5.121964780799587e-07,-3.353179159952781e-07,1.1322968228926506e-07,3.3720571242615604e-07,1.826223900491032e-07,-7.166410973013594e-07,-6.439208321043234e-07,-5.428001283195728e-07,-6.112376584617186e-07,-1.0224289170739599e-06,-6.407588050012171e-07,-1.0430275449543128e-06,-2.473437760086976e-07,-1.8238291249743926e-07
-7.90940130588739e-07,5.413216887552275e-08,-4.0298999575289034e-08,5.109524624558339e-07,5.186975213308728e-07,-3.2247572082822416e-07,1.7059419543435978e-07,3.7770635825142604e-07,1.9034590325779672e-07,-7.175982577834642e-07,-6.735230391221529e-07,-5.961774568414113e-07,-6.578086188420703e-07,-1.0667196624414306e-06,-6.929672665776435e-07,-1.0828010837710486e-06,-2.549687480865866e-07,-1.9384514501377373e-07
-7.885583198528069e-07,6.950852252456915e-08,-2.654305533173237e-08,5.198035382434507e-07,5.248324923826325e-07,-3.012990254536424e-07,2.0304749890136655e-07,4.084135503326369e-07,1.9058078541507335e-07,-7.152345607444206e-07,-6.923363121554212e-07,-6.470537200043807e-07,-6.966512772996485e-07,-1.10234231911238e-06,-7.369945855405747e-07,-1.1169925302716382e-06,-2.5181135331451875e-07,-1.9980690873869775e-07
-7.808808412898249e-07,8.7578962600845e-08,-9.706152934298904e-09,5.35662432813431e-07,5.292670063342878e-07,-2.7962644194369055e-07,2.0598501322245433e-07,4.24852423935313e-07,1.8518286457345738e-07,-7.093444514249273e-07,-6.990828503040806e-07,-6.873782978513724e-07,-7.203076470597417e-07,-1.1253394342591948e-06,-7.670634475342783e-07,-1.1405043816530804e-06,-2.3841694653762084e-07,-1.9595316411733e-07
-7.669326469777677e-07,1.0695412687980844e-07,6.394633770112103e-09,5.541884119660732e-07,5.297679475013599e-07,-2.569940649951894e-07,1.7862166066798276e-07,4.230379756013553e-07,1.7790145548433604e-07,-7.000146546161251e-07,-6.940598882850349e-07,-7.11798602712722e-07,-7.243932062731481e-07,-1.1348978733847759e-06,-7.793375363968313e-07,-1.1506701340049333e-06,-2.1749452711772782e-07,-1.7972505443525078e-07
-7.463829815930655e-07,1.2559299007633458e-07,1.9190222659376093e-08,5.717980767948771e-07,5.241943607478181e-07,-2.3104302276766934e-07,1.2573553778453205e-07,4.014557194367775e-07,1.7374167594604872e-07,-6.872410359476501e-07,-6.787873185675099e-07,-7.176865071673e-07,-7.081975904122691e-07,-1.1320186062589666e-06,-7.727156863332291e-07,-1.1466348616200039e-06,-1.9259662086537215e-07,-1.5088760104123132e-07
-7.198482122940384e-07,1.417972053822871e-07,2.7766041003822635e-08,5.864162823477545e-07,5.111905852305597e-07,-1.8918191731817784e-07,5.6625371314184255e-08,3.6140877337160744e-07,1.773106821376443e-07,-6.711438739559805e-07,-6.557526371294249e-07,-7.051770802806331e-07,-6.752438262741419e-07,-1.1192512129880657e-06,-7.493705664224544e-07,-1.1298336842345313e-06,-1.6757060244483362e-07,-1.119481764275852e-07
-6.88653563290966e-07,1.5435949963651675e-07,3.2635102025794086e-08,5.974054582197623e-07,4.906362627758571e-07,-1.3679964076704665e-07,-1.7528644342557253e-08,3.0699526116918154e-07,1.915242011508038e-07,-6.517526813509489e-07,-6.27684291708624e-07,-6.765982469144557e-07,-6.320773471409499e-07,-1.0997415833615929e-06,-7.138126993330469e-07,-1.1033871804358569e-06,-1.45929503365612e-07,-6.727972173511344e-08
-6.536984009087045e-07,1.6304495095696815e-07,3.574257460159461e-08,6.055564957363313e-07,4.643755833585478e-07,-8.149543477814835e-08,-8.587633950594822e-08,2.455010172473156e-07,2.170906003969278e-07,-6.282213427321906e-07,-5.964165310318055e-07,-6.352377993491438e-07,-5.852839142852722e-07,-1.075310537432823e-06,-6.707390863356096e-07,-1.0700275644174229e-06,-1.30084584346969e-07,-2.1263643907461773e-08
-6.14734921452312e-07,1.6890632460651506e-07,4.011187465838315e-08,6.128022473625756e-07,4.365735777164594e-07,-1.96142318772167e-08,-1.3959074384663616e-07,1.8621579717477501e-07,2.536010192142177e-07,-5.991311359710361e-07,-5.627243953333828e-07,-5.848387205945333e-07,-5.395593327660706e-07,-1.0461388678134838e-06,-6.238216017932199e-07,-1.0313492975396917e-06,-1.2148606164171604e-07,2.2626912509159584e-08
-5.714914775440955e-07,1.731804407060287e-07,4.842877517025867e-08,6.209996033343142e-07,4.126787396359109e-07,4.6766663573958425e-08,-1.7347386565330235e-07,1.3721147549220084e-07,2.994954045947128e-07,-5.643276657094497e-07,-5.275540636811616e-07,-5.300490209944444e-07,-4.981073565928625e-07,-1.0128221326298756e-06,-5.762772617037599e-07,-9.89084408594301e-07,-1.2134253159153911e-07,6.136760974778518e-08
-5.256268547212412e-07,1.7598438001705186e-07,6.169770197753857e-08,6.306661791907694e-07,3.975127560323937e-07,1.1547976340610006e-07,-1.863183955072927e-07,1.0316037149438883e-07,3.5169114091394485e-07,-5.25835802975819e-07,-4.929244841100455e-07,-4.764605867471155e-07,-4.6345587127834254e-07,-9.781749927650856e-07,-5.317597027524305e-07,-9.458898040758568e-07,-1.3044728637469313e-07,9.194329340479473e-08
-4.814836360483655e-07,1.7669411347768258e-07,7.925691937071985e-08,6.408482013735683e-07,3.938607988851264e-07,1.8533991620416385e-07,-1.794279575736692e-07,8.590043063998185e-08,4.0594001240987806e-07,-4.870179082835927e-07,-4.6217216718812336e-07,-4.298442480995279e-07,-4.373653290418725e-07,-9.469031025960739e-07,-4.944258366475059e-07,-9.047696584484244e-07,-1.483076903617438e-07,1.1156888239119808e-07
-4.45363189965563e-07,1.750681576314617e-07,9.95246121425092e-08,6.497719641007597e-07,4.019822093878083e-07,2.5152254231509147e-07,-1.5547383590364465e-07,8.56763631129818e-08,4.567558008203754e-07,-4.513765133454891e-07,-4.3899899331828237e-07,-3.955151914072039e-07,-4.205043331046276e-07,-9.237840545568218e-07,-4.682707745089498e-07,-8.685121294460015e-07,-1.727846832735534e-07,1.1825818463530464e-07
-4.238681516573622e-07,1.7136455397419477e-07,1.2048558968680772e-07,6.555842510094389e-07,4.198169763840087e-07,3.0709443086241666e-07,-1.1919134307440128e-07,1.013111015616718e-07,4.987422387344128e-07,-4.21751930458539e-07,-4.2626978914838476e-07,-3.7809277587141625e-07,-4.120093958439068e-07,-9.112271064187465e-07,-4.5571411637765297e-07,-8.390584698387991e-07,-2.0030323536796336e-07,1.1186422765096294e-07
-4.212297998966233e-07,1.6604898510374497e-07,1.4021922435712641e-07,6.573265092291096e-07,4.439669737789575e-07,3.477208313104785e-07,-7.835989956083441e-08,1.3002330138994692e-07,5.246082752213226e-07,-3.996070428026267e-07,-4.2456880794743897e-07,-3.8108894744342135e-07,-4.086120206546078e-07,-9.072493462231363e-07,-4.5574847462244937e-07,-8.160652126582736e-07,-2.2617013253435833e-07,9.518208810933448e-08
-4.3667805568244635e-07,1.6000023258743916e-07,1.575773686604988e-07,6.557088934455083e-07,4.711441624652367e-07,3.734005079465532e-07,-4.295271098941059e-08,1.6739296648672173e-07,5.211079564907915e-07,-3.846302232797474e-07,-4.31258440412419e-07,-4.064952642169285e-07,-4.045794600605723e-07,-9.05840182320188e-07,-4.6332805717223335e-07,-7.962075867224519e-07,-2.457934824830646e-07,7.347716763856565e-08
-4.6437354474857544e-07,1.542470036944394e-07,1.7209564116434464e-07,6.523901249188836e-07,4.989803294780642e-07,3.849035387571178e-07,-2.253993172421455e-08,2.0719367173659596e-07,5.178897731755035e-07,-3.758067865391766e-07,-4.4154728820776515e-07,-4.561346452538843e-07,-3.934780075181462e-07,-8.998736966291862e-07,-4.7111494628688644e-07,-7.745685739779505e-07,-2.567807701820473e-07,5.2153256537277226e-08
-4.963722026931685e-07,1.489562398720351e-07,1.8313349920247795e-07,6.480408055183484e-07,5.257294509322405e-07,3.8532447338561533e-07,-2.3359227697907576e-08,2.421205083140985e-07,4.825176155516794e-07,-3.7268439142811387e-07,-4.504951645945166e-07,-5.26770673535733e-07,-3.703866296142299e-07,-8.837339383923465e-07,-4.7217085453577576e-07,-7.463729690742836e-07,-2.596174410286028e-07,3.478647746992181e-08
-5.25983811180443e-07,1.4339411860770972e-07,1.8955976840135716e-07,6.413208834491039e-07,5.496858034595416e-07,3.7847405832622466e-07,-4.619472754820175e-08,2.6634317319684846e-07,4.3948115062019933e-07,-3.753857763334316e-07,-4.546300681858514e-07,-6.081269249478663e-07,-3.332573573422254e-07,-8.541958180210351e-07,-4.617172624090268e-07,-7.076434489498945e-07,-2.561448906142913e-07,2.2983333026305076e-08
-5.494359916353478e-07,1.372421040282892e-07,1.9034172343229396e-07,6.297389688117297e-07,5.689776748614411e-07,3.66332880992938e-07,-8.61956423465083e-08,2.779790420519317e-07,3.910485938211625e-07,-3.8393045300798326e-07,-4.520511769366867e-07,-6.886866330004108e-07,-2.841024098949873e-07,-8.11682303368315e-07,-4.380476379544047e-07,-6.563163636177946e-07,-2.4794669993800194e-07,1.6937954104556636e-08
-5.659682263815352e-07,1.3128353187133148e-07,1.851191995989486e-07,6.1128460374104e-07,5.815951940327257e-07,3.495340528957895e-07,-1.3509088204400288e-07,2.7912953771062337e-07,3.4333127303799457e-07,-3.9782839686893205e-07,-4.435679573995226e-07,-7.365869865128063e-07,-2.2990610020461268e-07,-7.621663139343279e-07,-4.030980175302229e-07,-5.943541190095073e-07,-2.3606363601926986e-07,1.5750999678141e-08
-5.767975132279927e-07,1.2673285370592006e-07,1.745248908035736e-07,5.85823807086005e-07,5.85763618568345e-07,3.2907208944356196e-07,-1.8435394969830697e-07,2.740825641327342e-07,3.016595310775269e-07,-4.156869003029438e-07,-4.320472385258431e-07,-7.248037765198986e-07,-1.8194505655695166e-07,-7.163504754249258e-07,-3.6197053415167066e-07,-5.282587704705628e-07,-2.2128129518989398e-07,1.8130318069430768e-08
-5.831647958004114e-07,1.2459171262497531e-07,1.6053270684755828e-07,5.559043676191991e-07,5.80891265713849e-07,3.0646599171133936e-07,-2.272635363772979e-07,2.673112732784193e-07,2.7018900368649066e-07,-4.34744217932414e-07,-4.206773531273692e-07,-7.236179940796943e-07,-1.4979270052317543e-07,-6.854601707311467e-07,-3.212862695651935e-07,-4.6689888315640294e-07,-2.0435739097487427e-07,2.3300832646622335e-08
-5.849317722778627e-07,1.2537139645773944e-07,1.462203354406229e-07,5.261993575629807e-07,5.68315049348691e-07,2.8534762553349323e-07,-2.5988713474523913e-07,2.614723224715651e-07,2.5155864646536294e-07,-4.516289221572141e-07,-4.1210261633947646e-07,-7.173175616928092e-07,-1.3452978850794332e-07,-6.773903389471676e-07,-2.876761775443921e-07,-4.1900876376759783e-07,-1.8678651723390027e-07,3.085025764575332e-08
-5.810160806250205e-07,1.2840575717870493e-07,1.345562052201637e-07,5.013853254279291e-07,5.50932489332308e-07,2.6786931731806213e-07,-2.818053741957872e-07,2.5602673684032886e-07,2.4598408852446686e-07,-4.6411698640409393e-07,-4.0804576889913697e-07,-6.414728047123542e-07,-1.5728296700066355e-07,-6.956504852483366e-07,-2.66831051520293e-07,-3.915795844674445e-07,-1.7154540095002e-07,3.9779637595776356e-08
-5.706294200086461e-07,1.3151155827861543e-07,1.274438647407949e-07,4.841229035209802e-07,5.321813892858663e-07,2.5564104924434484e-07,-2.9611715095176785e-07,2.481799006243603e-07,2.5078913371151293e-07,-4.716687024154454e-07,-4.089888357778025e-07,-5.486665002513692e-07,-1.9325726342736433e-07,-7.394301749491644e-07,-2.622094181108053e-07,-3.879595891494243e-07,-1.6235726125117856e-07,4.833873049585467e-08
-5.53734587921285e-07,1.3210108786312178e-07,1.2598948537144996e-07,4.747356168751223e-07,5.151935520675965e-07,2.4763599482582873e-07,-3.0816212273205796e-07,2.3563486724363672e-07,2.621455585890336e-07,-4.742941264867175e-07,-4.135207598721245e-07,-4.832013591377835e-07,-2.472071272728657e-07,-8.03661937272892e-07,-2.7368278742903944e-07,-4.0617888988513217e-07,-1.6202741464476446e-07,5.469519455403078e-08
-5.312836389131316e-07,1.2850758306001686e-07,1.3087952814958573e-07,4.719320940959446e-07,5.019509652607449e-07,2.436261668600562e-07,-3.2367329667100005e-07,2.1821164962464306e-07,2.7578501416737146e-07,-4.718355534250317e-07,-4.1876280305523065e-07,-4.4819025079977274e-07,-3.062872323282836e-07,-8.802060371604579e-07,-2.9758481166840294e-07,-4.3955202005841087e-07,-1.7163173346912236e-07,5.731557079313478e-08
-5.059612798602026e-07,1.2003492147625378e-07,1.418257984827811e-07,4.7330450184156477e-07,4.924340980549209e-07,2.424242671956082e-07,-3.4729966191923984e-07,1.9745206649915873e-07,2.8728474081106534e-07,-4.645991311296601e-07,-4.2185862550382963e-07,-4.4003893390331417e-07,-3.6015224877612396e-07,-9.600734601565175e-07,-3.281544927831479e-07,-4.789556367563469e-07,-1.9052365979379214e-07,5.524504143529655e-08
-4.820495294075415e-07,1.0681062365944675e-07,1.571721362589616e-07,4.75913017297046e-07,4.847637248216399e-07,2.419303815403769e-07,-3.8108794192478536e-07,1.7621089264542737e-07,2.927596744395987e-07,-4.536934506277243e-07,-4.2116247195983594e-07,-4.565175272821607e-07,-4.0030123424298996e-07,-1.035134286568509e-06,-3.5892951929297737e-07,-5.145180540123366e-07,-2.160903117878066e-07,4.9017508623645595e-08
-4.6351698804289564e-07,9.054342902712045e-08,1.747031192650525e-07,4.774970981940105e-07,4.7664098892836044e-07,2.406544339780526e-07,-4.2308577839122233e-07,1.5872032943770132e-07,2.8996715324287764e-07,-4.402839653015273e-07,-4.161506329783161e-07,-4.879920926654682e-07,-4.209056267627962e-07,-1.0991228322691278e-06,-3.836095042799291e-07,-5.368674852318359e-07,-2.437573983891526e-07,4.137011277346953e-08
-4.5206684380394955e-07,7.476690165490505e-08,1.9263905403812505e-07,4.774320410552647e-07,4.668549256305564e-07,2.367980315257173e-07,-4.67644445489e-07,1.494982157720485e-07,2.7922706732674534e-07,-4.2498804135044483e-07,-4.068734323311012e-07,-5.228761782385352e-07,-4.1959760437175706e-07,-1.1486120923035302e-06,-3.968549610534438e-07,-5.39100494726321e-07,-2.679694492699861e-07,3.669106142349285e-08
-4.467455108201336e-07,6.359655951987555e-08,2.0985421719410984e-07,4.766786707196262e-07,4.5584474281450564e-07,2.3050321174327137e-07,-5.077904849178113e-07,1.5145350012997428e-07,2.6328294658118764e-07,-4.077862203381104e-07,-3.934937284787002e-07,-5.513725950504475e-07,-3.977075853728114e-07,-1.1829664606958967e-06,-3.948564074779308e-07,-5.182652146557822e-07,-2.8323579678546343e-07,3.98646685284211e-08
-4.443355244090772e-07,6.057121806890639e-08,2.259785016395315e-07,4.774035808144135e-07,4.4545414494986826e-07,2.2279690124031309e-07,-5.379026683473132e-07,1.6535048680101915e-07,2.467146157132643e-07,-3.8789712258471337e-07,-3.756765781002104e-07,-5.674807719871383e-07,-3.591977402489996e-07,-1.202643855272656e-06,-3.7546815072537564e-07,-4.749722544359248e-07,-2.8454321844206666e-07,5.539959053279859e-08
-4.3992212291355574e-07,6.838999512033951e-08,2.416635137576956e-07,4.826662193707762e-07,4.3809547595012806e-07,2.1630995496577993e-07,-5.553333074378975e-07,1.9041101860744085e-07,2.3474220042512606e-07,-3.63940965543068e-07,-3.524694883738749e-07,-5.69419820300541e-07,-3.094850957895842e-07,-1.2079495496067316e-06,-3.3864374344838186e-07,-4.125482748797831e-07,-2.6834135950604537e-07,8.637122686807612e-08
-4.285402926883912e-07,8.807948092162783e-08,2.5812741314150324e-07,4.954765898563441e-07,4.354033890353437e-07,2.1415607911947932e-07,-5.61101687929317e-07,2.241283651720832e-07,2.3192412067343512e-07,-3.349116432779412e-07,-3.233578674911755e-07,-5.593704641123569e-07,-2.55165100716129e-07,-1.1999089584162015e-06,-2.873457362573645e-07,-3.3707677483097336e-07,-2.3434868049963907e-07,1.3306957367108922e-07
-4.0761517654781286e-07,1.1744603964526574e-07,2.760858095316866e-07,5.173825557709612e-07,4.3721691691191787e-07,2.1967298148392646e-07,-5.595541979008334e-07,2.617134957039006e-07,2.41151163846665e-07,-3.0099878694691253e-07,-2.8875432221185644e-07,-5.423250775311949e-07,-2.034783801640198e-07,-1.1814435504112792e-06,-2.2754562724736715e-07,-2.569022478570948e-07,-1.862447318739257e-07,1.9255803276132225e-07
-3.781162443202389e-07,1.5093154048075244e-07,2.953175683709296e-07,5.478801778354541e-07,4.4178797800880074e-07,2.354882669565073e-07,-5.56842720056409e-07,2.9687783369412997e-07,2.63283200518896e-07,-2.6339532894729977e-07,-2.496975827540222e-07,-5.240824599136307e-07,-1.6078986615384235e-07,-1.1570438283016471e-06,-1.6656241834017432e-07,-1.8073132437460386e-07,-1.3060946482048637e-07,2.5948851632624715e-07
-3.43824257422753e-07,1.814169278777166e-07,3.149860600610576e-07,5.848752763267768e-07,4.4661116685735367e-07,2.633738691041343e-07,-5.593360908109707e-07,3.234408278181517e-07,2.9721885421555896e-07,-2.2400207786145653e-07,-2.075437681478724e-07,-5.097207204384675e-07,-1.3152373154488924e-07,-1.1320956244409136e-06,-1.1104300749979981e-07,-1.161778846241722e-07,-7.544531568050299e-08,3.2698219692791766e-07
-3.1000651347430797e-07,2.0224269326491135e-07,3.338950618258554e-07,6.253048911060843e-07,4.487087055458609e-07,3.0593282621013285e-07,-5.728235464162738e-07,3.365244400766027e-07,3.396837201356048e-07,-1.8563383407903684e-07,-1.642662942057437e-07,-5.031648397479201e-07,-1.1828598653833643e-07,-1.1126689227757374e-06,-6.586158887925696e-08,-6.95400901559181e-08,-2.8885256535797056e-08,3.8714992063812947e-07
-2.819957841039203e-07,2.0874945864272673e-07,3.507992960178332e-07,6.65760949716414e-07,4.44715185116393e-07,3.621661320818979e-07,-6.0156940367487e-07,3.338082535943972e-07,3.85587590024653e-07,-1.5162678093645105e-07,-1.229431397071205e-07,-5.069558117034325e-07,-1.2180768145952888e-07,-1.1045691471416792e-06,-3.371894244275053e-08,-4.5064522949397144e-08,2.525589036863215e-09,4.3205702141124695e-07
-2.6353419621430786e-07,1.9968830509651938e-07,3.6509009083420797e-07,7.033148758523461e-07,4.317693158446293e-07,4.291358068563475e-07,-6.465975165881627e-07,3.167704566779089e-07,4.293446627684041e-07,-1.2476854106709e-07,-8.666602007833446e-08,-5.217563122892763e-07,-1.4032698526468002e-07,-1.1115443751022064e-06,-1.5169010021065443e-08,-4.347312547916867e-08,1.5402574702307163e-08,4.5520112368429563e-07
-2.559151139661903e-07,1.7755072077150259e-07,3.7700318669258016e-07,7.358785009196075e-07,4.0873517109503254e-07,5.026374430203846e-07,-7.048664653950636e-07,2.901105897522388e-07,4.6571741788183935e-07,-1.0664922076985972e-07,-5.8204603360086597e-08,-5.462290719717338e-07,-1.6988130274807504e-07,-1.1344064201181508e-06,-9.338676101451007e-09,-6.173394816055212e-08,9.66429360939897e-09,4.52885819532898e-07
-2.5854888354034717e-07,1.4712999750968718e-07,3.869124724394065e-07,7.617966026272175e-07,3.764932432551913e-07,5.743191011133236e-07,-7.707064027282606e-07,2.5929959940156363e-07,4.904754113755797e-07,-9.795846190790676e-08,-3.9432363741273894e-08,-5.772299812734093e-07,-2.0568902884527626e-07,-1.1713014249003397e-06,-1.4765450555813694e-08,-9.422983698386064e-08,-1.223714123001009e-08,4.2566604690581055e-07
-2.6956092839451837e-07,1.140158730866274e-07,3.949193408836584e-07,7.79144034102971e-07,3.37309820021565e-07,6.344234358309567e-07,-8.381228449879669e-07,2.2864052452723636e-07,5.003429048773041e-07,-9.845673026190576e-08,-3.0366135144797644e-08,-6.097778663431604e-07,-2.4319793684825277e-07,-1.2179424291820849e-06,-2.9336353412712372e-08,-1.337714611690518e-07,-4.5733202094319046e-08,3.797780537803927e-07
-2.8552231649375564e-07,8.431607519096305e-08,4.0137801499009073e-07,7.876784369768599e-07,2.9416589652842916e-07,6.740665557946687e-07,-9.021772179194833e-07,2.007526976586346e-07,4.945072729513789e-07,-1.0639767687075827e-07,-2.863698177847662e-08,-6.376015487452617e-07,-2.786037497468566e-07,-1.2682586269716432e-06,-4.98204668644536e-08,-1.726779150345169e-07,-8.45967138441531e-08,3.2677958857273134e-07
-3.016455180618076e-07,6.417893647040627e-08,4.07156857879653e-07,7.885493238972121e-07,2.5024413587054104e-07,6.874234545428357e-07,-9.593511651023716e-07,1.764379334872848e-07,4.755707974619556e-07,-1.1879189294629261e-07,-3.0204402070401116e-08,-6.550916477818424e-07,-3.0954428539295434e-07,-1.3163176603081774e-06,-7.227295229683747e-08,-2.0472799207643925e-07,-1.223030066761517e-07,2.8021787039997823e-07
-3.1328278066725035e-07,5.813022099794111e-08,4.129810698366848e-07,7.833008849283196e-07,2.0848640304886494e-07,6.750113518518656e-07,-1.007203744238462e-06,1.550277745248202e-07,4.490528503279983e-07,-1.3256953711145624e-07,-3.1382058731016255e-08,-6.595765956916056e-07,-3.3542415179116423e-07,-1.3581154319167907e-06,-9.315348895549534e-08,-2.265827033223201e-07,-1.534933331185883e-07,2.511211079155476e-07
-3.173727706298925e-07,6.780404870533186e-08,4.189299031181654e-07,7.739556427064329e-07,1.7153568719386973e-07,6.402321453220098e-07,-1.0434782233830428e-06,1.357508251778091e-07,4.2230425211798834e-07,-1.454376550488492e-07,-3.0325422507018726e-08,-6.522584673109693e-07,-3.567849587985043e-07,-1.3917900797294026e-06,-1.1018871638515906e-07,-2.3751295474589661e-07,-1.7474317079298515e-07,2.449073637063627e-07
-3.1286267197280126e-07,9.206877001831541e-08,4.246744264459799e-07,7.611431000993984e-07,1.417216521339992e-07,5.890440366197536e-07,-1.065747766773796e-06,1.185766741513615e-07,4.0232850583214254e-07,-1.5629166953670548e-07,-2.7595607444351825e-08,-6.377398682397118e-07,-3.7473411464787805e-07,-1.4173305070217827e-06,-1.2287114560688837e-07,-2.3889813570718057e-07,-1.8534056119362674e-07,2.603758543055422e-07
-3.007377323550452e-07,1.2738469972828472e-07,4.2975203305617603e-07,7.452532350258398e-07,1.202033469276487e-07,5.275971189673762e-07,-1.0725690905986232e-06,1.0326072693970108e-07,3.9452094107846166e-07,-1.6549984372071054e-07,-2.5531983794283796e-08,-6.227046127971447e-07,-3.910572379503075e-07,-1.4369495648599074e-06,-1.3256378384461623e-07,-2.34386021932077e-07,-1.879485559132104e-07,2.905739509271327e-07
-2.8367379646689796e-07,1.6804279607981392e-07,4.337628129492823e-07,7.269114338744485e-07,1.0587150123966649e-07,4.6075841942643687e-07,-1.0651220199238566e-06,8.845997377657404e-08,3.9955394602383246e-07,-1.7424105116512516e-07,-2.6826574920841806e-08,-6.138476710994369e-07,-4.0790652156063066e-07,-1.454763757807971e-06,-1.4153704556051922e-07,-2.291025214827334e-07,-1.8767460838260401e-07,3.2553742359385e-07
-2.645428190638148e-07,2.0738998223289104e-07,4.369862159495131e-07,7.074061348518236e-07,9.56532331321007e-08,3.9329741514684846e-07,-1.047780011255222e-06,7.264849350005383e-08,4.149384622768856e-07,-1.8291388522905878e-07,-3.221556493888219e-08,-6.15875615517742e-07,-4.266788284066932e-07,-1.4751676860852631e-06,-1.5125968659145523e-07,-2.2753115439844756e-07,-1.8973959459998633e-07,3.5573731697706117e-07
-2.445631449842499e-07,2.3962585628082725e-07,4.4080721212462977e-07,6.894241716086959e-07,8.61646258404452e-08,3.2973597062920247e-07,-1.0258694007921263e-06,5.516065645016585e-08,4.365056206261005e-07,-1.9052246671364256e-07,-3.952460503641265e-08,-6.309379076746301e-07,-4.4743768222441397e-07,-1.5014847935147501e-06,-1.6161020474826335e-07,-2.322666704373302e-07,-1.9772955352456814e-07,3.7419607813444776e-07
-2.2285404800288873e-07,2.6056875956815413e-07,4.4705418430355613e-07,6.763626616294491e-07,7.510117256355163e-08,2.7422172829295026e-07,-1.0086027238595695e-06,3.582266382836041e-08,4.588880655382315e-07,-1.9574544171588178e-07,-4.483558848316785e-08,-6.592559643322183e-07,-4.692467767742939e-07,-1.5355114861400579e-06,-1.7157016047612984e-07,-2.4430424020784025e-07,-2.130605277344199e-07,3.7691621157807514e-07
-1.974057587307224e-07,2.677002112152345e-07,4.569021546433711e-07,6.708239960741592e-07,6.162336062744763e-08,2.2840390101649064e-07,-1.0046276233821364e-06,1.4781967008274207e-08,4.772333610119323e-07,-1.980863276476044e-07,-4.419427149706393e-08,-6.993783027568859e-07,-4.902824328496714e-07,-1.5770453761089676e-06,-1.802019193415833e-07,-2.63141515549022e-07,-2.347981647191504e-07,3.628162288161405e-07
-1.6637391288314072e-07,2.606962707043214e-07,4.7036165495834843e-07,6.723880119292244e-07,4.599610649883501e-08,1.9066251944607446e-07,-1.0183545073527353e-06,-6.3903544135775015e-09,4.859139298574526e-07,-1.980082546215925e-07,-3.4869847117118896e-08,-7.478784906927804e-07,-5.079198096427998e-07,-1.6237861697288296e-06,-1.8721264257870545e-07,-2.8658992537117007e-07,-2.600199027354252e-07,3.334363508530476e-07
-1.2948166532593295e-07,2.416875540523481e-07,4.849992018922425e-07,6.790620969530506e-07,2.858321482609577e-08,1.590276028326452e-07,-1.0512300492270856e-06,-2.4237641217568542e-08,4.848601978626988e-07,-1.9680697649268022e-07,-1.6543249515853912e-08,-7.997941393095688e-07,-5.200354226471884e-07,-1.673012195354938e-06,-1.9344189099743311e-07,-3.1182674873300057e-07,-2.8523080671100124e-07,2.919812513705758e-07
-8.926128517023189e-08,2.142669651864399e-07,4.983299148348999e-07,6.862468103476862e-07,8.661622595682439e-09,1.2968472530823928e-07,-1.0974474444914384e-06,-3.475647549351014e-08,4.766926279294377e-07,-1.9674153656071692e-07,8.021164272945067e-09,-8.500389109098862e-07,-5.26805635554372e-07,-1.7235937440846242e-06,-2.0109452053876732e-07,-3.3718836108087804e-07,-3.0768133998448506e-07,2.4237960012131117e-07
-5.0880334278300864e-08,1.8248822365029284e-07,5.065791563558374e-07,6.876848102486933e-07,-1.5849338129268908e-08,1.0805223539076629e-07,-1.149137636057195e-06,-3.5061134249980633e-08,4.62275263660361e-07,-2.006085572567432e-07,3.3447238047123154e-08,-8.948107457296738e-07,-5.311548125167123e-07,-1.7760947672073185e-06,-2.1326403757544499e-07,-3.63021369430804e-07,-3.255210005856147e-07,1.8912132160280112e-07
-2.0337341364814733e-08,1.508008368781821e-07,5.062315151235389e-07,6.838465023038799e-07,-4.7513266098634706e-08,8.996754356980466e-08,-1.1992856869246157e-06,-2.4511884894552823e-08,4.436966109455113e-07,-2.108521664947514e-07,5.3273134155005216e-08,-9.325427636786642e-07,-5.3786906999188e-07,-1.8315334229221898e-06,-2.331698109641863e-07,-3.9182155792966075e-07,-3.3772883240315326e-07,1.3718044023442978e-07
-2.527725965826793e-09,1.2355944751134813e-07,4.971831359978258e-07,6.726633796008722e-07,-8.837740486704233e-08,6.759668517886725e-08,-1.2426555888846059e-06,-5.8047492225143715e-09,4.224029899263922e-07,-2.2897391937817347e-07,6.199276615470545e-08,-9.642248448115496e-07,-5.523345311072248e-07,-1.8905309551178093e-06,-2.6348737932770297e-07,-4.281767817702771e-07,-3.445876395974977e-07,9.140706419028775e-08
6.597098651202875e-11,1.0355275366689795e-07,4.79762318894218e-07,6.526460694280892e-07,-1.394861723961024e-07,4.197949140147828e-08,-1.2771553568857795e-06,1.4778446204560791e-08,3.9971058319231324e-07,-2.549613553107865e-07,5.716222594309579e-08,-9.925120846011395e-07,-5.787255294315382e-07,-1.9525827836789787e-06,-3.052354073046129e-07,-4.772791815800984e-07,-3.476334467609107e-07,5.605089848825178e-08
-1.1443986571665298e-08,9.131038630235761e-08,4.554411306167745e-07,6.276921567133602e-07,-2.005202291897589e-07,4.505212431671364e-09,-1.3032774369043042e-06,2.9120354269876978e-08,3.7958440454408643e-07,-2.865705983172535e-07,4.0957756021343275e-08,-1.0198759212455843e-06,-6.178939733377687e-07,-2.0151223008654927e-06,-3.563526368026323e-07,-5.420086341948756e-07,-3.487150201058717e-07,3.4569439753222395e-08
-3.179230831258131e-08,8.576955974334391e-08,4.2840534440479324e-07,6.048623020214165e-07,-2.6943064141074565e-07,-1.7612882349921257e-08,-1.3221049089609113e-06,2.989620260484771e-08,3.824838350927226e-07,-3.1970633603023753e-07,1.9578225989076125e-08,-1.0473884006071977e-06,-6.667660184346692e-07,-2.0741225547702194e-06,-4.11530001366775e-07,-6.21269515183668e-07,-3.496053436231777e-07,2.8812392166212454e-08
-5.294152871885752e-08,8.47479157765039e-08,4.125143772393139e-07,5.931677594582041e-07,-3.4264096491221854e-07,9.946566971680453e-09,-1.3329059662048463e-06,1.2630969108197338e-08,4.229229926750081e-07,-3.502739272784231e-07,3.2868643365021864e-10,-1.0748066080111505e-06,-7.198140706926811e-07,-2.1262820776411306e-06,-4.6390396219035593e-07,-7.106621336133063e-07,-3.52342170836031e-07,3.7926198273710566e-08
-6.690394653021435e-08,8.507728279740916e-08,4.069425259519e-07,6.087184760871511e-07,-4.157986094661244e-07,9.34674708347004e-08,-1.333771631025038e-06,-2.2374552349816987e-08,4.928305683821521e-07,-3.755725671461e-07,-1.1411749324135275e-08,-1.1008235162634462e-06,-7.707396485924331e-07,-2.1700272450169246e-06,-5.070148422878518e-07,-8.033821901340977e-07,-3.588589759304349e-07,5.8587403206170744e-08
-6.797050113269617e-08,8.386039490678343e-08,4.210978260275376e-07,6.611677137220415e-07,-4.842945352965715e-07,1.5898000816725024e-07,-1.3212560463946091e-06,-6.856981927452387e-08,5.49790654612982e-07,-3.94029919718203e-07,-1.3254463653170696e-08,-1.1229124696570533e-06,-8.132610807327578e-07,-2.204170919717201e-06,-5.357228146440989e-07,-8.904762849889433e-07,-3.6969750918984613e-07,8.651230058559532e-08
