0,1,2,3,4,5,6,7,8,9,10,11,12,13,14,15,16,17
6.473489682685032e-08,-1.346893709590217e-07,1.07595112396436e-07,-5.399301165809984e-08,-4.83612659606137e-07,-1.6567693348563266e-07,5.2914173243407847e-08,-1.647383075389482e-07,2.3435783339015692e-08,-1.5188780755090023e-08,-1.2524624630076926e-08,2.2095383834922626e-08,-7.832197718525132e-09,6.925606616264383e-08,-4.5191016777539836e-07,-7.842146321653243e-07,-6.572297237100807e-08,1.6626485214808334e-07
-3.867372338461762e-08,-2.4542241522986643e-07,6.925915627969397e-09,-1.5032317427383248e-07,-3.7307018733069117e-07,-1.5610175230280489e-07,-3.726480679503547e-08,-2.239143994635854e-07,-4.8100146295791145e-08,-1.0807476090507214e-07,-1.1259139812455285e-07,-8.023471970657781e-08,-7.568209772468658e-08,8.667944123507903e-10,-4.508514101244911e-07,-7.220601315133025e-07,-1.2895730034711612e-07,2.4054235189201157e-08
-1.2919668534477985e-07,-2.7326024629489827e-07,-7.683041896835717e-08,-2.274553269191709e-07,-1.5287578033326932e-07,-1.3014703549161356e-07,-1.1294199047643864e-07,-2.3784169767874458e-07,-1.0584021246657688e-07,-1.3173176433214263e-07,-1.355844531934977e-07,-1.1712674904675375e-07,-1.1945341013663945e-07,-6.050955769798915e-08,-3.7681835614265266e-07,-5.837307152856386e-07,-1.2907879146399125e-07,-9.670120658532544e-08
-1.9060069013928127e-07,-2.476342317482132e-07,-9.314186295867242e-08,-2.499718857312567e-07,1.1338519004975525e-07,-9.414875589131971e-08,-1.6397979041784336e-07,-2.1774849646935408e-07,-1.1087997764252771e-07,-1.2580480926015715e-07,-1.2198385488248214e-07,-1.382952998567749e-07,-1.337483530242873e-07,-8.536322324792029e-08,-3.391641238072441e-07,-3.059311528971645e-07,-1.3545498808800365e-07,-1.7736537992403631e-07
-2.1258368364306597e-07,-2.327376699013023e-07,-1.138286090484022e-07,-2.7126448177719557e-07,3.531689138063382e-07,-5.698139974870115e-08,-1.840936572029432e-07,-1.7896019006539514e-07,-1.19436428251917e-07,-1.4137232812220642e-07,-9.184269835466442e-08,-1.746880375874741e-07,-1.2024853341339163e-07,-6.426055193368456e-08,-2.566630953584636e-07,9.608017225263958e-08,-1.4857381832203742e-07,-2.125625120024818e-07
-1.9527297617412692e-07,-2.386976082633087e-07,-1.1681876365568545e-07,-2.1966239331354213e-07,5.062525783264548e-07,-2.50857883660196e-08,-1.7302060226219657e-07,-1.3634562063928353e-07,-1.1498550549769358e-07,-1.6630937173289346e-07,-1.2179319144560271e-07,-1.4940105935593376e-07,-8.78225840156354e-08,-3.895692638256777e-08,-1.1007429508770427e-07,5.366844274291184e-07,-1.1682537318991989e-07,-2.0750712751721652e-07
-1.4913929968475252e-07,-1.4215944806761108e-07,-9.538394108091915e-08,-1.4684083100879065e-07,5.409251950090044e-07,5.248576877098031e-09,-1.3647913154008852e-07,-1.0181553192697856e-07,-9.13049172208096e-08,-1.5744942957060207e-07,-1.2996274647498256e-07,-8.409248791585278e-08,-4.920881175423921e-08,-1.8027068199243214e-08,2.8858833085348956e-08,8.975150241572332e-07,-5.343488879215312e-08,-1.7305181553292867e-07
-8.970467938691686e-08,-2.289334860007407e-08,-3.6821804622597685e-08,-6.085316569242897e-08,4.6230823268527957e-07,2.9508335176966755e-08,-8.365543236732256e-08,-7.232311824307474e-08,-3.79761151694664e-08,-1.4714681008215437e-07,-1.225937110820703e-07,-2.7084615231930247e-08,-1.5316802440514123e-08,2.807629655000333e-09,1.234278182767848e-07,1.08165255352965e-06,1.2865147762790551e-08,-1.2098877929474432e-07
-3.0386365676896313e-08,5.551323430792991e-08,7.774967246890769e-09,2.259072535597886e-08,3.0911226799906833e-07,4.7261564995289015e-08,-2.39622923996309e-08,-4.399740207090617e-08,5.171314184635012e-09,-7.979431195532044e-08,-8.293062818390964e-08,1.384718791739454e-08,9.187673069542286e-09,1.826537546334319e-08,2.2124696299662489e-07,1.0464650460382153e-06,5.3255754199818876e-08,-6.0904465714646e-08
2.1894310035621822e-08,1.0550941622482795e-07,3.4164398250780597e-08,9.292143768840645e-08,1.3660634158351832e-07,6.231709089213901e-08,3.497439535426545e-08,-6.13807757126586e-09,3.4949537594930154e-08,-8.905277269279396e-09,-2.3385775492244885e-08,4.8759290120047974e-08,2.6168075661152937e-08,2.397469356812277e-08,2.7344694140272406e-07,8.066614227226088e-07,7.6323113267972e-08,5.483920038183503e-10
6.631502529769267e-08,1.4566228713790076e-07,5.380641848126279e-08,1.462180122419825e-07,-9.73900721718616e-09,6.903191258172006e-08,8.763339060466491e-08,5.3351279756845067e-08,6.018622706312043e-08,5.5832088786240196e-08,4.4411340121571915e-08,7.730841106502593e-08,4.0723804492778985e-08,2.4320503066905194e-08,2.8611453472315024e-07,4.289183370886111e-07,9.205687729793346e-08,5.809101703362871e-08
1.047821642307124e-07,1.796656514816681e-07,6.627383013257042e-08,1.8393158428951166e-07,-1.1451563463405778e-07,7.055925425345048e-08,1.2973122921398244e-07,1.3388867130918205e-07,8.004250319379949e-08,1.3408329487880638e-07,1.1992467360867718e-07,1.0060570307796866e-07,5.721409396461677e-08,2.262806749249672e-08,2.78508270272741e-07,2.3601843455293644e-09,1.0174826648613199e-07,1.0658189978766877e-07
1.393091763980853e-07,2.1253073789624645e-07,7.198036809223077e-08,2.1017269245573944e-07,-1.9215875311136236e-07,8.263962763973773e-08,1.5725303888967123e-07,2.236047673209475e-07,9.457859287920506e-08,1.8180132139388192e-07,1.7283880789376102e-07,1.1760652892789276e-07,7.737030417751783e-08,2.067468593152717e-08,2.448589954965971e-07,-3.7964118479529584e-07,1.0667930097172091e-07,1.427024585094717e-07
1.7238317069667343e-07,2.453637278674426e-07,7.04211736701963e-08,2.2894555701945995e-07,-2.689500827475594e-07,1.0125218493483084e-07,1.6668132546524772e-07,2.9765964854889495e-07,1.0389805983051717e-07,2.1145844481339204e-07,2.0045829195164925e-07,1.271321758471956e-07,1.0134114713153983e-07,2.0102542087416987e-08,2.067686982415518e-07,-6.431601839578159e-07,1.0806227118723442e-07,1.6737115776304165e-07
2.0901093704257966e-07,2.787055183065872e-07,6.245343166943937e-08,2.426646721838502e-07,-3.61926007016222e-07,9.295999529489509e-08,1.5663259980148433e-07,3.392475941186066e-07,1.0985352915690154e-07,2.3746290457121126e-07,2.1092824315825326e-07,1.3065829843003413e-07,1.3018094802409043e-07,2.455850715394489e-08,1.7367709932819664e-07,-7.548019615905535e-07,1.0956219671943808e-07,1.8469578869600586e-07
2.571284229062212e-07,3.145437658416919e-07,5.142978476685767e-08,2.5291958913938833e-07,-4.649106074629344e-07,6.736312263996505e-08,1.2957755088877556e-07,3.360708806130602e-07,1.1640775530265709e-07,2.6113958954138626e-07,2.0663172513017152e-07,1.3290998948081513e-07,1.6712674370667957e-07,3.9662462467653054e-08,1.4857329447223384e-07,-7.227972053585099e-07,1.174952046811892e-07,1.9877148544045905e-07
3.2453721972130535e-07,3.5653463729343044e-07,4.211936057491148e-08,2.627582424166179e-07,-5.468445842319502e-07,-3.415865760420727e-09,9.200567798381699e-08,2.960118613653612e-07,1.2798709264196797e-07,2.9662824867287824e-07,1.9800701368117315e-07,1.3956652049337816e-07,2.160209150804732e-07,7.045337703236725e-08,1.3223671045559335e-07,-5.878261856805287e-07,1.378332852479346e-07,2.1288809301261435e-07
4.137817744796881e-07,4.053383832945967e-07,3.825360259612848e-08,2.7731188526383805e-07,-5.641389012381874e-07,-1.0963727463269066e-07,5.2687937523682366e-08,2.1794511484863752e-07,1.469795755218161e-07,3.424236722958879e-07,1.8664982539505838e-07,1.5409212027439017e-07,2.7802089743526844e-07,1.1853903590577943e-07,1.1814230785286808e-07,-4.0494722888008866e-07,1.7242057703767256e-07,2.310981535733939e-07
5.18750457078604e-07,4.5747770228929597e-07,4.319444135349935e-08,3.0068800180426025e-07,-4.827845897108565e-07,-1.9036953095016325e-07,2.0436342666670365e-08,1.1659694597034421e-07,1.7236106482170043e-07,3.936233539335142e-07,1.767288488064258e-07,1.7863800340747708e-07,3.497348491649238e-07,1.813093830208088e-07,1.0043799016038853e-07,-2.2816579182432655e-07,2.1768249221718482e-07,2.5853892883295427e-07
6.264320673405814e-07,5.108553383037835e-07,5.719419866040703e-08,3.325459157995166e-07,-3.0052921122218347e-07,-2.462053128886744e-07,3.0590968737418866e-09,9.010301442130518e-09,2.0232276842974212e-07,4.4367728864287754e-07,1.7181067074313326e-07,2.0884294821334442e-07,4.247253580772765e-07,2.5367049195918805e-07,7.479738548205815e-08,-9.728381342106283e-08,2.672616368793473e-07,2.995274239299528e-07
7.235934248074888e-07,5.61763834500398e-07,8.052832419665776e-08,3.688000668965396e-07,-5.4352267753834096e-08,-2.570883317829201e-07,7.550301163557898e-09,-9.465029421062206e-08,2.31874047571617e-07,4.862526605643207e-07,1.7730603297077715e-07,2.4400938697952226e-07,4.97256302860246e-07,3.306105582746426e-07,4.4185422409128974e-08,-3.36383216914435e-08,3.163220099477501e-07,3.553275853562204e-07
8.03787046044176e-07,6.093983124622935e-07,1.1879087361433514e-07,4.056388168850288e-07,1.9689010310801085e-07,-2.400750950566008e-07,3.9891402154365904e-08,-1.4393405330842881e-07,2.608808698810242e-07,5.252577461391163e-07,1.975289710345547e-07,2.862812046505173e-07,5.654463191495431e-07,4.0860550244234394e-07,2.5585523152247626e-08,-3.563400186676147e-08,3.637095093335821e-07,4.230149278619883e-07
8.695054102635717e-07,6.619026519648588e-07,1.7683133274046182e-07,4.4292808563260745e-07,4.047595880388261e-07,-2.2732265369410262e-07,1.0352985232622936e-07,-1.5600112826167975e-07,2.9277320126555035e-07,5.680730376737213e-07,2.3752808171803725e-07,3.371002558063915e-07,6.316483826635294e-07,4.853441053085527e-07,3.829850891179286e-08,-7.948360982515529e-08,4.113052493313186e-07,4.95516285113007e-07
9.283033426507929e-07,7.104094272377586e-07,2.5791876126607473e-07,4.842415054378108e-07,5.534280170871973e-07,-2.1890602760306457e-07,1.9738743714984867e-07,-1.1596717600732862e-07,3.3084746564657317e-07,6.207377724724252e-07,3.01543919235173e-07,3.9735246011549937e-07,6.998405450104413e-07,5.585398977204522e-07,9.526192643742848e-08,-1.3325896417511624e-07,4.606473808882106e-07,5.631545373393539e-07
9.864259941345987e-07,7.765400662099384e-07,3.5587032047233317e-07,5.366837796435298e-07,6.576460467575793e-07,-1.7232822256277045e-07,3.1478170793145753e-07,-2.5727525057114837e-08,3.775676495080318e-07,6.86960990659322e-07,3.8342141686915885e-07,4.655256033174724e-07,7.717572411807945e-07,6.249454857911326e-07,1.988790457208458e-07,-1.739053997792704e-07,5.102481587128507e-07,6.17559823573979e-07
1.0446688286732016e-06,8.578649842491455e-07,4.589415144343374e-07,5.977016883361807e-07,7.456012782386184e-07,-6.649228009635579e-08,4.4402276350360073e-07,7.719919623982201e-08,4.3099746163628796e-07,7.590892844150682e-07,4.728667711546036e-07,5.311392487324267e-07,8.441270202537603e-07,6.803515474080614e-07,3.263704596251166e-07,-1.9538557043892927e-07,5.555801108168603e-07,6.563984234656971e-07
1.0982077403626104e-06,9.328729169592396e-07,5.366860390392355e-07,6.609521591863529e-07,8.429914067353925e-07,1.8699853130311703e-08,5.704889112986911e-07,2.428762842535604e-07,4.84977737883751e-07,8.00323432739341e-07,5.351954836888813e-07,5.658505253854152e-07,9.083506612086294e-07,7.203686729355855e-07,4.2510311790541887e-07,-2.0733522814938078e-07,5.901007572321652e-07,6.845791682293774e-07
1.1386266332138641e-06,9.66805349040828e-07,5.58301091089525e-07,7.130471189367653e-07,9.636981629219925e-07,7.605197447314264e-08,6.792397467891403e-07,4.2277319029600683e-07,5.165395147822805e-07,8.071113051056851e-07,5.463867186115771e-07,5.845517461279258e-07,9.52560553963559e-07,7.410983620407127e-07,4.67454387560808e-07,-2.2676643587313633e-07,6.066686122661678e-07,7.097620519495583e-07
1.156150235622163e-06,9.506069911815352e-07,5.235090545143377e-07,7.111347832226792e-07,1.104307798332319e-06,1.1601516951571724e-07,7.573575137002998e-07,5.596486038376363e-07,5.345264336397127e-07,7.70409465269484e-07,4.871466668676828e-07,5.591446096953559e-07,9.653598753472718e-07,7.394361149654883e-07,4.112578489176423e-07,-2.6266940673453297e-07,5.990259269018983e-07,7.368858962903061e-07
1.1421256810015119e-06,8.80246461343821e-07,5.004468283825751e-07,6.710089791650716e-07,1.2430795199198896e-06,1.0388700666446981e-07,7.95959106962834e-07,6.560936371750128e-07,5.320988682063911e-07,6.639273997664591e-07,4.496935673256641e-07,5.037234610793164e-07,9.401870062759674e-07,7.137761560720703e-07,3.434686911124686e-07,-2.983688560095395e-07,5.634391065298372e-07,7.650846405036592e-07
1.0903805098537396e-06,7.769363507878599e-07,5.066598483687819e-07,6.288160897288734e-07,1.3474084081185173e-06,7.935148793491442e-08,7.918646285396686e-07,6.254237675692612e-07,5.02154668352435e-07,6.52912187474769e-07,4.338950704373151e-07,4.951273134877558e-07,8.78747257415541e-07,6.655822637209007e-07,2.8310820037514134e-07,-2.90819328441416e-07,5.00720353299603e-07,7.880050774329846e-07
1.0045557151426027e-06,7.693240844126625e-07,4.835025510522333e-07,5.33461064410489e-07,1.3874786120231458e-06,5.11099741594368e-08,7.485673303257659e-07,4.6762419307502204e-07,4.7639975622550814e-07,6.442062069465834e-07,4.1807945558972284e-07,4.4104113227104426e-07,7.918670099787148e-07,6.0074554714755e-07,2.122416957121148e-07,-1.9867720711138675e-07,4.174268153022999e-07,7.97123589334267e-07
9.01599813152715e-07,7.455627193326049e-07,4.069526736816483e-07,3.7756168168984757e-07,1.3462787550372604e-06,6.17650718567047e-09,6.762831472097979e-07,2.494213773672718e-07,4.2831539562083337e-07,5.535215356025848e-07,3.508626791135917e-07,3.362825623722015e-07,6.969834781492134e-07,5.291343691752679e-07,5.9572691547353396e-08,-2.4225359159430605e-08,3.249602696695456e-07,7.864029551887706e-07
7.998878222137009e-07,6.330964608224645e-07,3.1544383812508567e-07,2.334307200680702e-07,1.2210448138800129e-06,-3.605258106318548e-08,5.909321180799751e-07,-2.0911440613739304e-08,3.686162233210234e-07,4.307704566650054e-07,2.5674684726282095e-07,2.5051159202795885e-07,6.130114425476355e-07,4.6229855786962465e-07,-7.107820940468607e-08,1.835541929193733e-07,2.3683945252877574e-07,7.554450138951431e-07
7.417754066008405e-07,5.340794211871351e-07,2.833183510310666e-07,1.7361133922938504e-07,1.0224089911581784e-06,-7.17108884838655e-08,5.115454544790465e-07,-2.6380263242875573e-07,3.2119281462700277e-07,3.344416644007069e-07,1.4590138686868936e-07,1.6657573122418868e-07,5.545440251851601e-07,4.107481011745081e-07,-1.7938592749285937e-07,3.5524627364757266e-07,1.653061641205521e-07,7.082906270455704e-07
7.62201514657585e-07,4.292562018540479e-07,2.7785438452490275e-07,1.2553101337251877e-07,7.76056306340493e-07,-8.747120422186689e-08,4.558444824592392e-07,-4.1511832450084834e-07,3.0554090569311803e-07,2.852796066762952e-07,9.110827042781395e-08,1.1940021036952656e-07,5.275577628863606e-07,3.816549860966871e-07,-2.61125710999152e-07,4.450450259319e-07,1.1804535089937296e-07,6.496020280577012e-07
7.520250359331089e-07,3.34115368163292e-07,2.613951342135263e-07,6.058790553313639e-08,5.21269607549387e-07,-7.840725598595492e-08,4.3517981918162953e-07,-4.5721662594724356e-07,3.0556065273835584e-07,2.434632560694908e-07,4.013868182278062e-08,1.1030361331133558e-07,5.28233108461696e-07,3.7689295952090697e-07,-2.6684587677419696e-07,4.397400499401467e-07,9.593048033155276e-08,5.828487693871253e-07
7.628421821578012e-07,2.9892859029256456e-07,2.733819506840807e-07,7.32559828539618e-08,3.0162117874637204e-07,-4.9207289860570904e-08,4.511347890089781e-07,-3.888783181472701e-07,2.9979122159258806e-07,2.0392325938557975e-07,-2.234924549557221e-08,1.2042235385626982e-07,5.453992821431208e-07,3.9214208736031566e-07,-2.2450059653956975e-07,3.472889455389996e-07,9.30221300052116e-08,5.127336350445302e-07
8.25374077487036e-07,2.9615289360848886e-07,3.421692518051888e-07,1.3501101313119125e-07,1.5228680968613376e-07,-8.673356344945812e-09,4.957820735045628e-07,-2.4965430170145297e-07,3.320433656903906e-07,2.449350129220314e-07,-1.5275334714313787e-08,1.471648442892187e-07,5.655788206965017e-07,4.1849333568138015e-07,-1.5468286694650042e-07,1.8132978605736791e-07,9.911256655555238e-08,4.4894604488443035e-07
9.12445330003655e-07,2.8877423201092096e-07,4.328309957199221e-07,1.77619540599098e-07,8.98694307605594e-08,2.853980115061856e-08,5.557232875018226e-07,-9.325985318109245e-08,3.934823790881888e-07,3.040948525330077e-07,2.657749360845342e-08,1.697814263536199e-07,5.78319027638223e-07,4.4631523394688157e-07,-7.618517768649836e-08,-4.687102908766232e-08,1.04297649725794e-07,4.06646622901677e-07
9.572191097266838e-07,2.964036188883963e-07,4.821121681081999e-07,1.78693228416196e-07,1.0819275483340382e-07,5.4406781979514636e-08,6.176290449657858e-07,3.011433653418211e-08,4.392546760984211e-07,3.324355685542283e-07,5.953736083525658e-08,1.8283680474221793e-07,5.792156468153517e-07,4.689154722649706e-07,-1.530517614175395e-08,-3.196475521301154e-07,1.0271094900641543e-07,4.0123664165094493e-07
9.621667128703516e-07,2.992418986982404e-07,4.99501525802427e-07,1.4402775405070237e-07,1.839152840346273e-07,6.379810564034438e-08,6.721339425543602e-07,1.0802216731878193e-07,4.637390497905023e-07,3.3788188852921223e-07,7.014538322475499e-08,1.8865711720153838e-07,5.69161794243431e-07,4.836510171319519e-07,2.313258662291521e-08,-6.021221125567868e-07,9.294328339145838e-08,4.395765079527999e-07
9.408144395488785e-07,2.897196206285852e-07,4.974649815373115e-07,8.038559593385126e-08,2.893343926724659e-07,5.813294186195697e-08,7.145294080046255e-07,1.4474511833648447e-07,4.764124189147021e-07,3.309546094370208e-07,7.030905269014156e-08,1.8822192278938125e-07,5.50735395396273e-07,4.90424059353679e-07,3.6630246606575563e-08,-8.318908491791083e-07,7.568546158020874e-08,5.139837290809451e-07
8.9772395452005e-07,2.772174317825365e-07,4.78236892146576e-07,7.359702515552677e-09,3.9995400322806933e-07,4.349960060413703e-08,7.431280910705506e-07,1.5374093179795653e-07,4.7615019476338765e-07,3.1149673878041934e-07,6.052474936266355e-08,1.816862889399888e-07,5.248006811920184e-07,4.895490084780641e-07,2.1463514647170147e-08,-9.371871387760493e-07,5.0933618944053254e-08,6.040822676505243e-07
8.406247373943522e-07,2.4992511806398576e-07,4.4671157183118003e-07,-5.708768053351574e-08,4.910826721336861e-07,3.169838451653971e-08,7.573362879825557e-07,1.5276275173176757e-07,4.6443115472974783e-07,2.8053408516872354e-07,4.035043540511149e-08,1.6705425475349222e-07,4.901541154664997e-07,4.80937414294195e-07,-2.307070284288054e-08,-8.776779625098693e-07,1.741435598664803e-08,6.850204628449076e-07
7.756985177873608e-07,2.0409758918241466e-07,4.0661634071944674e-07,-1.0370159441478504e-07,5.337564477576394e-07,3.3306576209074855e-08,7.569916268601057e-07,1.4882815633352348e-07,4.429067063472583e-07,2.38988284138621e-07,1.0453804260390772e-08,1.422046882663242e-07,4.460960312373203e-07,4.6473520204853486e-07,-9.433180989755181e-08,-6.883398636540608e-07,-2.5248476022651165e-08,7.365556829459522e-07
7.086532812130965e-07,1.3963236074127053e-07,3.626537284641247e-07,-1.3049924892978813e-07,5.008426487018685e-07,5.281119521178774e-08,7.430888396700287e-07,1.444288423235863e-07,4.144530656672083e-07,1.9021595246206677e-07,-2.6303130243266707e-08,1.0752606681690182e-07,3.9504150180663076e-07,4.4197986416367035e-07,-1.8444952408049847e-07,-4.5409142876274174e-07,-7.412534691769958e-08,7.485768440308837e-07
6.462000470419194e-07,6.476043420345037e-08,3.2135288373159737e-07,-1.3722289194107392e-07,3.810251382078276e-07,8.827493678719425e-08,7.186177365413009e-07,1.3795886160793825e-07,3.835817377806127e-07,1.4052691637920234e-07,-6.436988679244461e-08,6.665250238563167e-08,3.426422443177688e-07,4.1406801899677727e-07,-2.797027775433669e-07,-2.744836768140785e-07,-1.230841404255819e-07,7.222533221914412e-07
5.954305950688485e-07,-2.1191804591610346e-08,2.8951150213013576e-07,-1.2256263144015368e-07,1.9025405279866213e-07,1.3170402777486253e-07,6.881388343646669e-07,1.2293256263151773e-07,3.551265407701924e-07,9.712730975649508e-08,-9.731205629605774e-08,2.4617704767262078e-08,2.953693597506189e-07,3.814084113698312e-07,-3.629729925077848e-07,-2.1066123983690762e-07,-1.6552343268254097e-07,6.672379034357503e-07
5.61075948630827e-07,-1.0712769866101347e-07,2.7127096476673324e-07,-8.597165451226055e-08,-2.7791441623356638e-08,1.7331773288796044e-07,6.559897942836313e-07,9.19191077776358e-08,3.321347600478844e-07,6.437709259929832e-08,-1.208896803374784e-07,-1.5178294062439536e-08,2.5717141981867686e-07,3.4271278595198586e-07,-4.2100457692017e-07,-3.141983478253886e-07,-1.9761410631234832e-07,5.95413614164106e-07
5.428486475261117e-07,-1.806459883600687e-07,2.6569611832813797e-07,-3.032520680587618e-08,-2.15183348281249e-07,2.0603948484120038e-07,6.243532588168879e-07,3.577632672407761e-08,3.1481444158197613e-07,4.135493118089575e-08,-1.350992654847479e-07,-5.283539601678571e-08,2.2721049428973829e-07,2.95901452681297e-07,-4.494239261123075e-07,-5.998118111777263e-07,-2.1983348860937448e-07,5.145284629631968e-07
5.352652896657571e-07,-2.3780208112305785e-07,2.6723791162612977e-07,3.769762374822119e-08,-3.221954702339179e-07,2.2605606543326047e-07,5.927936946543177e-07,-5.259302305025166e-08,3.0144095329641293e-07,2.2758557586081518e-08,-1.4344588135726282e-07,-9.104014522328134e-08,2.0027421136088697e-07,2.4031208374933564e-07,-4.543254642923132e-07,-1.0422239467510827e-06,-2.3612940514674808e-07,4.2658101192084733e-07
5.303018118153257e-07,-2.739346648806309e-07,2.6901049573679176e-07,1.0852142739828393e-07,-3.26843443558114e-07,2.3152560687272074e-07,5.599126327548482e-07,-1.7163537062612163e-07,2.903976310200475e-07,2.9417362807254554e-09,-1.4993485981998117e-07,-1.3205232719196466e-07,1.6979682594450915e-07,1.7874984513956668e-07,-4.4539639648191543e-07,-1.534140260478393e-06,-2.515515009300272e-07,3.317641041196711e-07
5.208043424664803e-07,-2.8864457178258076e-07,2.660446554975993e-07,1.711643162969278e-07,-2.404177387552511e-07,2.2377778846189448e-07,5.256948876259228e-07,-3.076116658454082e-07,2.815497399437059e-07,-2.0400342389511053e-08,-1.561903888847681e-07,-1.751315152519292e-07,1.315424176518641e-07,1.1767194505408165e-07,-4.2923912259691713e-07,-1.8623084915967905e-06,-2.6981588422250673e-07,2.337439494482094e-07
5.023968046758105e-07,-2.8323933604786426e-07,2.5682875068585996e-07,2.1603809570424762e-07,-9.727939727269322e-08,2.051278981101188e-07,4.936071056762726e-07,-4.3423566718676447e-07,2.757691117973443e-07,-4.5518494958989146e-08,-1.6085445858425515e-07,-2.1647330844897835e-07,8.565462726434593e-08,6.499687060547718e-08,-4.086433090689957e-07,-1.7746030743916624e-06,-2.9233179667327354e-07,1.4134272758006797e-07
4.7355384542915133e-07,-2.6020832594873935e-07,2.4265986003921974e-07,2.3979138352065876e-07,6.234508625745533e-08,1.7475826296488816e-07,4.6795461160575376e-07,-5.178847930361996e-07,2.7320647507484417e-07,-6.881265932589879e-08,-1.613684188041153e-07,-2.5155701304172847e-07,3.586038740700205e-08,2.6720791227436513e-08,-3.8566071330477116e-07,-1.5329305469587755e-06,-3.1861603653088197e-07,6.906797241245885e-08
4.3501166725676707e-07,-2.250674341800068e-07,2.2581179112780318e-07,2.470265174497695e-07,2.0614152026490217e-07,1.3999992557211033e-07,4.508825028789706e-07,-5.278138629232282e-07,2.7220513392651804e-07,-8.77581578076724e-08,-1.5629251342990113e-07,-2.777831047178543e-07,-1.3351277009422352e-08,4.316599511914618e-09,-3.649997354831827e-07,-1.4668838494289604e-06,-3.4720392711533665e-07,3.054156640019302e-08
3.896474228385144e-07,-1.8580368593899112e-07,2.084159473173339e-07,2.47938550414893e-07,3.154024897284376e-07,1.0583911603766181e-07,4.4107077758893616e-07,-4.489072223575638e-07,2.7019624358174503e-07,-1.0168972918753286e-07,-1.4606703067360055e-07,-2.950784901174037e-07,-5.893632250297402e-08,-5.5437898405900594e-09,-3.536458086409134e-07,-1.5503883000898028e-06,-3.7601689722237693e-07,3.1220069674396485e-08
3.4296589932528946e-07,-1.50385757158009e-07,1.9253149310545362e-07,2.5356493011474156e-07,3.8323758206832284e-07,7.784830563158966e-08,4.3511696406972e-07,-2.9040413714605837e-07,2.6603116397806465e-07,-1.100530919744641e-07,-1.3178817125037765e-07,-3.0427351061481244e-07,-9.914832055803099e-08,-8.802489689566156e-09,-3.5817105739917545e-07,-1.546031461405016e-06,-4.0213712621549453e-07,6.650660121830457e-08
3.0312117964653794e-07,-1.231203880566561e-07,1.8083434138744283e-07,2.718974002181208e-07,4.0826797516155915e-07,6.870240174553278e-08,4.311563151519517e-07,-8.727582647793089e-08,2.618107029156184e-07,-1.1070189993939922e-07,-1.1357879894496734e-07,-3.052712704283008e-07,-1.3222256808611546e-07,-1.0840215992086025e-08,-3.771658061764937e-07,-1.260860458133369e-06,-4.222116216171062e-07,1.2228608583877449e-07
2.7905495453424964e-07,-1.0252666916038356e-07,1.7606963053953396e-07,3.044527716019391e-07,3.8885288754778016e-07,8.6566642879076e-08,4.3052955472014016e-07,1.0815525408647578e-07,2.6249096895860273e-07,-1.0039149448875884e-07,-9.046971819075955e-08,-2.969141509904411e-07,-1.5600225434797531e-07,-1.4375891358168515e-08,-4.0088683906484927e-07,-9.669256944676666e-07,-4.3384376313626094e-07,1.8374718765449828e-07
2.7703906669409506e-07,-8.330680964453367e-08,1.7946519470919725e-07,3.4446133656418035e-07,3.318043851155507e-07,1.3348342585625087e-07,4.3629046161532494e-07,2.425884048917933e-07,2.7312468398987483e-07,-7.779460176790751e-08,-6.215615806282942e-08,-2.7866110851504254e-07,-1.688401934924966e-07,-1.9463206134760718e-08,-4.177594461054757e-07,-5.762778840434313e-07,-4.370182868324517e-07,2.434219596836258e-07
2.974650112631205e-07,-6.170005523348552e-08,1.889265771095755e-07,3.787307169499461e-07,2.5577475516238713e-07,2.0390290934542817e-07,4.494605614686594e-07,2.7985134156641226e-07,2.955624325261259e-07,-4.6181475998299205e-08,-3.101131525430119e-08,-2.5251277249901276e-07,-1.7059791556195402e-07,-2.492232604879802e-08,-4.1781880683222536e-07,-1.2319276885078296e-07,-4.3434891266357587e-07,3.041584313133763e-07
3.3479845706546783e-07,-3.919149620930099e-08,1.9974499028723574e-07,3.9256412990180883e-07,1.9088980734567645e-07,2.850692605250726e-07,4.6702164242236163e-07,2.1210511801846176e-07,3.2722145015744363e-07,-1.2700604072318464e-08,-2.095845842362058e-09,-2.2315387161713587e-07,-1.6260486305089334e-07,-2.9766482642943593e-08,-3.983830618762777e-07,1.421066259320824e-07,-4.296418055888353e-07,3.752559838786781e-07
3.8114362184484346e-07,-2.070007792582028e-08,2.0772980289576457e-07,3.761430926747921e-07,1.6370766410752768e-07,3.6130152829281794e-07,4.834635833549896e-07,5.979607488516008e-08,3.6288418778260087e-07,1.569227976584808e-08,1.9483157708800794e-08,-1.9575022106267964e-07,-1.463912369497474e-07,-3.3617269894226604e-08,-3.6623293236994986e-07,2.8316567048928586e-07,-4.2563815826893045e-07,4.6336159792837247e-07
4.3059425116538674e-07,-9.12227115853529e-09,2.120256986962099e-07,3.289606278707265e-07,1.8496736834786233e-07,4.238720874004187e-07,4.952258303116762e-07,-1.3680250399157754e-07,3.9775872914099766e-07,3.6371912466741413e-08,3.196104452951115e-08,-1.731990752337394e-07,-1.2238695278498496e-07,-3.6103584975598185e-08,-3.3234024738077495e-07,2.8865820720378877e-07,-4.2266049837126445e-07,5.634284541790383e-07
4.811559704642458e-07,-2.1255261775358854e-09,2.153963753855147e-07,2.611041421788286e-07,2.4608807750009584e-07,4.7245612938648903e-07,5.041869106523438e-07,-3.311814550163381e-07,4.2914550884094327e-07,5.164040698118848e-08,3.8228371352468276e-08,-1.5531835996642512e-07,-9.038090841243497e-08,-3.611903853874174e-08,-3.0439675510745755e-07,1.8584182345357177e-07,-4.193046436739502e-07,6.56287299097518e-07
5.328715877585341e-07,5.573423034964136e-09,2.2152889227200438e-07,1.907960656666004e-07,3.244895521451712e-07,5.100264859119919e-07,5.165499654680646e-07,-4.838783854080465e-07,4.5569078136159027e-07,6.540553320485034e-08,4.377336577035574e-08,-1.406866280223457e-07,-5.203916474198205e-08,-3.203472852633968e-08,-2.8175921533844013e-07,5.6663745567018425e-08,-4.146411833193839e-07,7.133817617000397e-07
5.84175144953316e-07,1.691069456252526e-08,2.313919955637994e-07,1.3801543027923392e-07,3.966649971385406e-07,5.396106035409632e-07,5.379287915271038e-07,-5.715852227980857e-07,4.7538921115693315e-07,7.873562955900969e-08,5.2616460795300616e-08,-1.294025679763503e-07,-1.3268341373933484e-08,-2.3095759963706147e-08,-2.5665906516517547e-07,-9.537028790781685e-09,-4.100962256527096e-07,7.093105667571207e-07
6.295343606425691e-07,2.895867292702776e-08,2.4159043165558144e-07,1.160349240528655e-07,4.4578646416509107e-07,5.588315468255019e-07,5.683742319560964e-07,-5.898143529010863e-07,4.844451387221238e-07,8.816632960945161e-08,6.40992446949244e-08,-1.2414382086852396e-07,1.654323748420852e-08,-1.0703807524728357e-08,-2.2110740963357199e-07,5.5153123002006635e-08,-4.0928841247858753e-07,6.355085379863674e-07
6.612182879531817e-07,3.440223582321724e-08,2.463625766351744e-07,1.2615274015723924e-07,4.6646672272247674e-07,5.621172288712768e-07,6.009163963391702e-07,-5.507604095308551e-07,4.784123108841691e-07,8.82254200492642e-08,7.406665714347184e-08,-1.2841158316370118e-07,2.8941998102660765e-08,1.985725339812066e-09,-1.7292690290064964e-07,2.3781599264636228e-07,-4.1559791851979093e-07,5.110873247319352e-07
6.745905091641076e-07,2.6441592568908536e-08,2.4192547077108885e-07,1.5843924662205832e-07,4.6256865010430837e-07,5.505721992295571e-07,6.255163119345668e-07,-4.774894934439009e-07,4.5504632277038355e-07,7.596322013970967e-08,7.791263148682327e-08,-1.4341688312535925e-07,2.1491195840394614e-08,1.2067171376817188e-08,-1.2006807849941645e-07,4.656095067519053e-07,-4.293674894099703e-07,3.6145414191403715e-07
6.72551614028268e-07,3.1581152683572707e-09,2.3030182216416918e-07,1.9690251186930954e-07,4.4138498093968656e-07,5.247495585505083e-07,6.347587548552135e-07,-3.9430428006213695e-07,4.165333298824999e-07,5.372281468447734e-08,7.368737513044388e-08,-1.6625927345507164e-07,-2.1718857207661769e-10,1.87391917640295e-08,-7.495163703123675e-08,6.06667488014302e-07,-4.4690582040683045e-07,2.188520280543149e-07
6.653045456981269e-07,-3.167706432719688e-08,2.178893949147606e-07,2.2515476009084985e-07,4.061837369723187e-07,4.93848731805054e-07,6.273689169122837e-07,-3.1789223149508334e-07,3.6916967186608503e-07,2.800993696229039e-08,6.288703222278169e-08,-1.9088500076724197e-07,-2.4910918489455366e-08,2.3365121624552517e-08,-4.993778556453644e-08,5.764430895896724e-07,-4.622227256279591e-07,1.1383420861008101e-07
6.653044720826326e-07,-7.114435691798089e-08,2.1174250484812262e-07,2.308884380358971e-07,3.5236548955431617e-07,4.6919456106956614e-07,6.075712232817145e-07,-2.535192906018694e-07,3.2076480122716356e-07,5.301574842108847e-09,4.8278350727553686e-08,-2.1109061781050252e-07,-4.100006065496037e-08,2.7656778630198147e-08,-5.219329321329362e-08,3.6585182183816647e-07,-4.706835191350821e-07,5.498698934589027e-08
6.807355256892035e-07,-1.0883118977683602e-07,2.1500894213451552e-07,2.0843628273720784e-07,2.6902385964042163e-07,4.542920857968158e-07,5.812032703753985e-07,-1.9794289596160993e-07,2.7770339436279536e-07,-1.1441972429123443e-08,3.142383877546249e-08,-2.2335690018740677e-07,-4.2114586828274394e-08,3.151234200209886e-08,-8.105657264562505e-08,4.246118916880784e-08,-4.720052482361811e-07,5.0691493229526555e-08
7.116180098212155e-07,-1.4124492818722988e-07,2.2504986840235658e-07,1.5974451359564787e-07,1.6411403423320456e-07,4.4915456915820895e-07,5.523016474941871e-07,-1.4682904866346821e-07,2.4346060610577177e-07,-2.4062825913984856e-08,1.2173936224835224e-08,-2.2748003886685717e-07,-2.964275498886904e-08,3.2611692518031555e-08,-1.2902530240481488e-07,-3.048683818508257e-07,-4.700101435905851e-07,9.727036292689694e-08
7.509090696889476e-07,-1.676326299963408e-07,2.3613246064996993e-07,9.465570110100786e-08,2.4957312958649043e-08,4.541045430693462e-07,5.227368028766672e-07,-1.0082173260302173e-07,2.1890400363261275e-07,-3.646721523926523e-08,-1.0212530269227982e-08,-2.2481152391988994e-07,-1.0828273500413599e-08,2.8711478586601257e-08,-1.8203324197881857e-07,-5.957461900562791e-07,-4.6922687271412343e-07,1.8179036995501128e-07
7.893837539715579e-07,-1.8840770298665358e-07,2.4321722061872385e-07,2.988053391845646e-08,-1.4930275243912769e-07,4.683918435147253e-07,4.944218619401787e-07,-6.613849612145029e-08,2.033815483577898e-07,-5.109480251149854e-08,-3.450550802216844e-08,-2.1599030171133805e-07,5.889324263300474e-09,2.096471940138373e-08,-2.23684601234575e-07,-7.759703898120462e-07,-4.714941896534472e-07,2.7449688760593694e-07
8.202414473406585e-07,-2.042237431171951e-07,2.447125593394622e-07,-1.3904329630376735e-08,-3.5073357542600745e-07,4.912550058836282e-07,4.7112455619645787e-07,-5.1353634571138415e-08,1.954656658943824e-07,-6.83417272192135e-08,-5.667058297864132e-08,-2.0030267652466542e-07,1.4891464906821588e-08,1.492474986418874e-08,-2.3774950727637307e-07,-8.318417063343446e-07,-4.755938040590483e-07,3.657009971354305e-07
8.4038470565946e-07,-2.1634016911985333e-07,2.4271723784974163e-07,-2.0737973377654713e-08,-5.378964412157749e-07,5.240446179646885e-07,4.5918039987238245e-07,-6.501782565819651e-08,1.929469475989573e-07,-8.722249652953651e-08,-7.192007798770922e-08,-1.7718159237081314e-07,1.4456343318706225e-08,1.763664626702592e-08,-2.1607126477015082e-07,-7.767322707616273e-07,-4.797909491187958e-07,4.518175148961774e-07
8.486106726408333e-07,-2.2753929891808065e-07,2.3757392810115004e-07,1.0896398265809535e-08,-6.596496086121068e-07,5.622278981296232e-07,4.6297128533383895e-07,-1.1438039272866845e-07,1.9244986869198227e-07,-1.0854121734408878e-07,-7.773807817638974e-08,-1.4853773877033198e-07,5.178098760359778e-09,3.294437895290321e-08,-1.613180127459231e-07,-6.501079032818056e-07,-4.846589182121569e-07,5.288797736696095e-07
8.434773203747654e-07,-2.4250107848994726e-07,2.2707006106698402e-07,6.411785497369311e-08,-6.832318393922551e-07,5.876152626587242e-07,4.825192722439604e-07,-2.016618691684382e-07,1.8961606683053354e-07,-1.3541323317782194e-07,-7.593967595297447e-08,-1.1976808377815466e-07,-1.2188509941472128e-08,5.869340896783458e-08,-8.488822376350563e-08,-5.112337546491251e-07,-4.936702828219334e-07,6.039343650344953e-07
8.234476716081278e-07,-2.666645555976428e-07,2.0769715800107168e-07,1.0964348968737687e-07,-5.951120147079478e-07,5.900190597390541e-07,5.126045902538523e-07,-3.1748786850028377e-07,1.806361790750491e-07,-1.7051160147815179e-07,-7.182534536074472e-08,-9.803393469054094e-08,-3.751752435943545e-08,8.770011964647182e-08,1.5612521345309186e-09,-4.1664262858111644e-07,-5.112389065335403e-07,6.6448042472878e-07
7.889969144592939e-07,-3.036909956103708e-07,1.7701722661762763e-07,1.2031886223648803e-07,-4.52854937784826e-07,5.670666561573781e-07,5.442293585044642e-07,-4.371685906785925e-07,1.6453273883222928e-07,-2.150325181167271e-07,-7.091182737364979e-08,-8.867233600366112e-08,-7.038316909977677e-08,1.116958649201088e-07,8.680295572113207e-08,-3.897012174720132e-07,-5.398819747612891e-07,7.074218356707206e-07
7.442108920761793e-07,-3.531666805495986e-07,1.3686203494252778e-07,8.528779796595332e-08,-2.724866416487454e-07,5.223707380967878e-07,5.699557352669853e-07,-5.257060488867921e-07,1.44251465810402e-07,-2.6636766730230694e-07,-7.556957455014112e-08,-9.244877856801483e-08,-1.0867858653351885e-07,1.2562086270404985e-07,1.61316562083308e-07,-4.0742530614100193e-07,-5.785842807466089e-07,7.259037811612265e-07
6.958402230148645e-07,-4.1022563418275454e-07,9.252391584434915e-08,1.626261982979711e-08,-6.909645478266845e-08,4.708667321275765e-07,5.840296783427275e-07,-5.508942896856701e-07,1.250647982952961e-07,-3.167537052023392e-07,-8.47448620779564e-08,-1.056977611885305e-07,-1.4831711888547784e-07,1.2925428972512968e-07,2.178725124645153e-07,-4.2177204550004225e-07,-6.236005573777989e-07,7.273197637704354e-07
6.502232079601848e-07,-4.674277590041171e-07,4.9561927436456176e-08,-6.305211835397677e-08,1.5895096708146238e-07,4.316103338297522e-07,5.871916459570569e-07,-4.984691040130127e-07,1.1049026641538516e-07,-3.5953021588108984e-07,-9.600404680801691e-08,-1.2293533964102103e-07,-1.843910697234088e-07,1.252479394790583e-07,2.518930253113298e-07,-3.991165803927185e-07,-6.704454190630283e-07,7.113271193650982e-07
6.104336683416436e-07,-5.181419561776682e-07,1.0451201071123418e-08,-1.2937217765506946e-07,3.751687104631377e-07,4.030106659201227e-07,5.821687777120471e-07,-3.8093795226158845e-07,9.997832383909755e-08,-3.9247917976890963e-07,-1.0806312656288456e-07,-1.397411228740013e-07,-2.129002034776709e-07,1.1585470328532773e-07,2.5957100619427345e-07,-3.469618898681281e-07,-7.153939988358087e-07,6.73983792887787e-07
5.759077439892336e-07,-5.593005071020028e-07,-2.4994294248753698e-08,-1.6888045851835045e-07,5.36739895429124e-07,3.908958900259473e-07,5.711377309952675e-07,-2.3372002758580894e-07,8.871429150043468e-08,-4.17361407154277e-07,-1.2218715209584223e-07,-1.540216552665029e-07,-2.3192804846796882e-07,1.013820904646135e-07,2.3585301793406386e-07,-3.103464655892817e-07,-7.556918213449344e-07,6.166046214443632e-07
5.447522855707493e-07,-5.914544916345075e-07,-5.7713744525333666e-08,-1.780986593583117e-07,6.252757427645561e-07,3.922298397929595e-07,5.518532249415257e-07,-9.908419862538142e-08,7.148412207287267e-08,-4.3813817957595635e-07,-1.3804221757394498e-07,-1.6561725609561474e-07,-2.4192503762481633e-07,8.098545390952058e-08,1.8458233052355505e-07,-3.4573861507632135e-07,-7.890262232930822e-07,5.520268081388789e-07
5.164094911767185e-07,-6.156561657235565e-07,-8.725601479223714e-08,-1.585448158420223e-07,6.242792722738952e-07,3.920313688019413e-07,5.222049620509648e-07,-7.4286683281711164e-09,4.613611663391045e-08,-4.57949274432822e-07,-1.559940382647413e-07,-1.7563227513976736e-07,-2.4562634554903494e-07,5.393070411198549e-08,1.1042085367628421e-07,-4.786147712490248e-07,-8.137540699401117e-07,4.921826856994239e-07
4.926396634498854e-07,-6.348374130342959e-07,-1.1039445348275714e-07,-1.143436292804999e-07,5.701546361674464e-07,3.8620441824594887e-07,4.805288320441803e-07,3.0729748598544646e-08,1.4840198877753558e-08,-4.777883594273035e-07,-1.753586643038544e-07,-1.8641171902064841e-07,-2.4808815874622706e-07,1.9349641789132957e-08,1.851256085813029e-08,-6.911526055062028e-07,-8.299839361735221e-07,4.3866561451175356e-07
4.7354423856898756e-07,-6.544220724141464e-07,-1.2461171774540015e-07,-5.3347199699698066e-08,4.671820534662923e-07,3.6709808816422624e-07,4.2843429667121935e-07,1.943021883516638e-08,-1.7731964425079003e-08,-4.977344261636167e-07,-1.9584194431588534e-07,-2.0151478322950098e-07,-2.564222277802942e-07,-2.531534524275974e-08,-7.813926852375602e-08,-9.349536882233135e-07,-8.401249733787187e-07,3.993796639336143e-07
4.575673006588374e-07,-6.80101302760954e-07,-1.3089402581920142e-07,7.893775236357115e-09,3.237873000050427e-07,3.29611072480747e-07,3.7083009538213793e-07,-3.174168831920324e-08,-4.73722922477995e-08,-5.198051363633465e-07,-2.1617335240189839e-07,-2.2439130795480173e-07,-2.783094166288835e-07,-8.462304154663617e-08,-1.739802274203291e-07,-1.1506617065246396e-06,-8.479251251396558e-07,3.6256730475000856e-07
4.3905890185076095e-07,-7.174191180739511e-07,-1.3393164506537783e-07,5.145649758694548e-08,1.430164689005825e-07,2.832144231108522e-07,3.15908938674265e-07,-1.1058249711209665e-07,-7.120652545378467e-08,-5.458279092683257e-07,-2.3415588040537955e-07,-2.558201423409782e-07,-3.1928148724999275e-07,-1.6209149313707707e-07,-2.599229586656798e-07,-1.2859478899676433e-06,-8.56578991048631e-07,3.0743493083934664e-07
4.1213760017386e-07,-7.652556050569703e-07,-1.404709059696331e-07,6.096203154080679e-08,-3.8747871319262976e-08,2.3964993795784316e-07,2.685300891190673e-07,-2.0024641608551934e-07,-8.720350959519251e-08,-5.745979294113111e-07,-2.47532220375117e-07,-2.921629773478024e-07,-3.801306337316369e-07,-2.5529379487852675e-07,-3.3657911259230475e-07,-1.3076136994714865e-06,-8.674070516365032e-07,2.3613227570204143e-07
3.743047349111607e-07,-8.159946062688457e-07,-1.5548870808136206e-07,2.6798473028365064e-08,-1.759561818155676e-07,2.0227837409435909e-07,2.4213944682719784e-07,-2.8054752511776487e-07,-9.287852379463627e-08,-6.025140940740443e-07,-2.5251764030179165e-07,-3.2652246218473733e-07,-4.55971452613983e-07,-3.533209069993099e-07,-3.9554785675639145e-07,-1.1962827926848811e-06,-8.799130801327572e-07,1.7888649961184884e-07
3.2692129009119293e-07,-8.556410274294626e-07,-1.8107980042926353e-07,-5.5246309364323316e-08,-2.4009631554955843e-07,1.8921164369703042e-07,2.476063993332367e-07,-3.3483935667969555e-07,-8.386960572443718e-08,-6.252628257829473e-07,-2.470686732000296e-07,-3.5244366038131087e-07,-5.374729936468117e-07,-4.392928719389041e-07,-4.3095370958774027e-07,-9.594306192317045e-07,-8.928544760227432e-07,1.1848283814045883e-07
2.7479693556486525e-07,-8.722499668333918e-07,-2.1728493631531827e-07,-1.8103009118347526e-07,-2.113774833636194e-07,1.9282960787359004e-07,2.9068439853065394e-07,-3.5713485432051203e-07,-5.8995292053281714e-08,-6.40730774888411e-07,-2.31677019746881e-07,-3.673067107695568e-07,-6.135264704052892e-07,-4.965418142321023e-07,-4.4663031436655726e-07,-6.338408158034541e-07,-9.053905532628551e-07,7.856756987373335e-08
2.2258563742386856e-07,-8.626224644010644e-07,-2.6373596935781117e-07,-3.419299181217835e-07,-1.0870253377199095e-07,1.8203793147492e-07,3.6308373455958367e-07,-3.527712550070548e-07,-2.062647887329187e-08,-6.496353587519784e-07,-2.1031633670898637e-07,-3.728149210188038e-07,-6.737686237128788e-07,-5.147364382040771e-07,-4.463916300435954e-07,-2.8442037531511387e-07,-9.173905268931943e-07,7.587252212748041e-08
1.7325811260633259e-07,-8.314738516589721e-07,-3.200324989394789e-07,-5.153225755633166e-07,4.1623376911226413e-08,1.527074169675238e-07,4.3857697141018367e-07,-3.3265809321730565e-07,2.7109721487384005e-08,-6.537187184424628e-07,-1.8128665209998494e-07,-3.724717464790771e-07,-7.098081609625692e-07,-4.929927533335065e-07,-4.537031335154252e-07,1.0383767372649416e-08,-9.273811041756955e-07,7.195290819710665e-08
1.2784502301895942e-07,-7.879986646654493e-07,-3.843721881078654e-07,-6.510244417045873e-07,2.051142281548104e-07,7.323065838906453e-08,4.862404318650535e-07,-3.0588433483150846e-07,8.111012638033088e-08,-6.536603082961961e-07,-1.4638179550284208e-07,-3.6695842356827376e-07,-7.156197560570536e-07,-4.3921784515109803e-07,-4.7195917470183484e-07,1.9657749214594059e-07,-9.338113673594968e-07,1.1893668082013569e-07
8.718420079049438e-08,-7.394447354517407e-07,-4.526360692188141e-07,-7.375015952784785e-07,3.468843751395958e-07,-2.663578499377472e-08,4.3954054193261047e-07,-2.7563034154096824e-07,1.4363826381154174e-07,-6.467564434998407e-07,-1.0355996311384155e-07,-3.5385317895824996e-07,-6.884614433522246e-07,-3.66872947336082e-07,-5.522683197906961e-07,2.090166535479358e-07,-9.338805079821799e-07,2.1934015178780408e-07
5.3445626435957304e-08,-6.897582996893946e-07,-5.19361279813756e-07,-7.402274445627954e-07,4.3022543016475315e-07,-1.1423589054535466e-07,3.508612783429411e-07,-2.410565798796323e-07,2.1575728143256501e-07,-6.313608048791881e-07,-4.547851922609493e-08,-3.3710424555300586e-07,-6.306501523330067e-07,-2.8972007375417244e-07,-7.282812223718684e-07,7.765805686302796e-08,-9.24687431142568e-07,3.297614522160605e-07
2.2783324784671004e-08,-6.413836765127173e-07,-5.798041681192941e-07,-6.540560535615977e-07,4.3398547624844804e-07,-1.8934625454254245e-07,2.530910170818438e-07,-2.027436648350283e-07,2.9435321451714363e-07,-6.125161983937037e-07,3.5559559261912133e-08,-3.12424346866963e-07,-5.509514871757557e-07,-2.271185190529165e-07,-8.340476947580754e-07,-2.1666976330572922e-07,-9.070319019029728e-07,4.509411416938097e-07
-8.480544674880325e-09,-5.990339927667751e-07,-6.309737917389437e-07,-6.445279213187884e-07,3.6563950784328795e-07,-2.84285615284008e-07,2.0171209251756412e-07,-1.660968808992918e-07,3.535035651113772e-07,-5.958443619088e-07,1.316440922037698e-07,-2.7642081784934655e-07,-4.660616943030066e-07,-1.8667676043129856e-07,-9.020332442100687e-07,-6.519554343098239e-07,-8.856115716444913e-07,5.284343367269192e-07
-4.403674989373456e-08,-5.696944332317987e-07,-6.706096540358357e-07,-6.722455399514265e-07,2.529464633136583e-07,-3.521496010552352e-07,1.4910608064251495e-07,-1.39196396686398e-07,3.8802424863971963e-07,-5.880491028299568e-07,2.4382588851303387e-07,-2.5362947577814913e-07,-3.9006220485296513e-07,-1.728097933713038e-07,-9.560040127410835e-07,-9.064831207237624e-07,-8.645229999572762e-07,5.497467109326005e-07
-9.072454908190273e-08,-5.577357194066574e-07,-6.963378385001809e-07,-6.121313481319659e-07,1.3567819550620851e-07,-3.770359231134897e-07,1.1474949632669147e-07,-1.2756904171692333e-07,3.8235341945641253e-07,-5.918948107194161e-07,3.7280039289347025e-07,-2.510998305902344e-07,-3.3780669985964656e-07,-2.155713326868672e-07,-9.41966459931764e-07,-1.0011303496365862e-06,-8.4713334522432e-07,5.429317183564002e-07
-1.3760209447514794e-07,-5.609315741588983e-07,-7.074116047973706e-07,-5.24890867626273e-07,5.166485524582766e-08,-4.427387734780957e-07,3.222323302491694e-08,-1.3072464757391746e-07,3.2995829463525166e-07,-6.078807351334963e-07,4.965112286336549e-07,-2.5092413930209706e-07,-3.3977957012066494e-07,-2.6478863153570026e-07,-1.0345310590204475e-06,-1.1394631167757736e-06,-8.354108575467949e-07,5.109655707501977e-07
-1.8101883538120021e-07,-5.707672789519803e-07,-7.03562233948168e-07,-4.870134041538693e-07,2.648856179233364e-08,-4.996453605661302e-07,-8.334560465081835e-08,-1.4869511857962383e-07,3.5044436637887875e-07,-6.289950560268171e-07,5.901813535059657e-07,-2.639366971080505e-07,-3.759142702382947e-07,-3.067015032675191e-07,-1.1601017936971244e-06,-1.3344587179260147e-06,-8.287275275651832e-07,4.7167104066915487e-07
-2.082591017744265e-07,-5.770204943704392e-07,-6.885161896880003e-07,-5.201784663580404e-07,7.111953383574585e-08,-5.175612277544586e-07,-1.1429072258083614e-07,-1.834326464333497e-07,3.729425290862494e-07,-6.452781438651543e-07,6.045448450876957e-07,-3.056521538066976e-07,-4.052468259360003e-07,-4.107755628372042e-07,-1.1877163723225277e-06,-1.4165314855671026e-06,-8.253600122309611e-07,4.2138672569109643e-07
-2.133809462948002e-07,-5.743965586830243e-07,-6.703146163689647e-07,-5.24155595265093e-07,1.791700415641008e-07,-5.364261805696806e-07,-1.3772109773004219e-07,-2.3623139003654355e-07,3.5320527348585156e-07,-6.621093876699602e-07,5.913232742639804e-07,-3.820130864032361e-07,-4.702775334892582e-07,-5.13383364545442e-07,-1.2020875705249462e-06,-1.4357928547401698e-06,-8.218124844360078e-07,3.686263342564078e-07
-1.9908213412956117e-07,-5.636060560586307e-07,-6.570958929626925e-07,-4.910522116260791e-07,3.2483017179034396e-07,-5.514367661326895e-07,-1.6044932211840087e-07,-2.986513614372075e-07,2.950890888575657e-07,-6.821490572554914e-07,5.825725446603369e-07,-4.721733680324519e-07,-5.477388501284138e-07,-5.341872273542809e-07,-1.2492524543979697e-06,-1.493312156588801e-06,-8.101324863063587e-07,3.312825078780209e-07
-1.6616509790862787e-07,-5.489760854273937e-07,-6.542933414981551e-07,-4.5314034611818945e-07,4.6776073576680905e-07,-5.647208472283325e-07,-1.6718510612174197e-07,-3.5106810646285146e-07,2.2930091804212717e-07,-6.982288159877771e-07,5.972683671296152e-07,-5.415474115106018e-07,-5.277342106686716e-07,-4.70354941980792e-07,-1.2558144050396432e-06,-1.5802002863023875e-06,-7.82205687677625e-07,3.228126717592136e-07
-1.148868165966583e-07,-5.338191154697078e-07,-6.589790580773669e-07,-5.189728767725055e-07,5.632608570293873e-07,-5.765714412600476e-07,-1.9810062426411302e-07,-3.7120384854819975e-07,1.5932024828313286e-07,-6.83873155291111e-07,6.207455115710485e-07,-5.677772272094249e-07,-4.538284071992176e-07,-4.385157896955901e-07,-1.3148513137630731e-06,-1.667217360688954e-06,-7.315902878766996e-07,3.546189549378275e-07
-3.567816678265429e-08,-5.184793659873791e-07,-6.641306581530497e-07,-5.040599181493783e-07,5.766424868513148e-07,-5.485072973708289e-07,-1.8576671317922205e-07,-3.4469416633145757e-07,9.263632506636881e-08,-6.285293477662712e-07,6.265438952858795e-07,-5.451024969680468e-07,-3.684996431650377e-07,-3.757209695244774e-07,-1.3371570780636423e-06,-1.6756035698212055e-06,-6.563975221591999e-07,4.189130895495508e-07
5.895794659325127e-08,-5.018348154521485e-07,-6.607215037147933e-07,-4.486658435804344e-07,4.967223828827582e-07,-5.411733113000001e-07,-1.2503667278752095e-07,-2.732458106078641e-07,4.217226325494771e-08,-5.513853216243256e-07,5.501424110644842e-07,-4.95599331625407e-07,-3.42003564612765e-07,-3.399372505631786e-07,-1.313172417997354e-06,-1.551384772796807e-06,-5.728369547677884e-07,4.935948493838768e-07
1.765709014755663e-07,-4.831710657357257e-07,-6.445715441545358e-07,-4.1767712419865555e-07,3.409374453123866e-07,-5.199459396861966e-07,-8.890473644590539e-08,-1.7108900634096049e-07,4.080515411999641e-09,-4.5942041252929536e-07,4.5441270576523854e-07,-4.3025901329968747e-07,-2.830888150055921e-07,-2.690877615564421e-07,-1.2325063288675446e-06,-1.3053794331837992e-06,-4.923745108876267e-07,5.558681223833939e-07
2.9740952189340024e-07,-4.636288058873813e-07,-6.142557337453795e-07,-4.2308809248013716e-07,1.473733041770149e-07,-4.481229949896998e-07,-5.218132417107812e-09,-5.67539986906744e-08,-2.093907124340444e-08,-3.834094353351174e-07,3.753847328460557e-07,-3.6740506486290954e-07,-1.6910275018581544e-07,-1.8041455616833183e-07,-1.1738712755568322e-06,-1.2173848524892918e-06,-4.22106531887818e-07,5.824892977796002e-07
3.931263477115467e-07,-4.452844226164433e-07,-5.710286075312503e-07,-4.365297032076206e-07,-3.9432022550266595e-08,-3.9562381709984805e-07,9.367937855630487e-08,5.368063288540607e-08,-3.514750185447157e-08,-3.325638801428784e-07,2.9724741242755044e-07,-3.133880022270245e-07,-6.004733044133982e-08,-1.1794762651512164e-07,-1.1293087777886833e-06,-1.2440196400610967e-06,-3.7370300033688326e-07,5.782086701640613e-07
4.849663626365855e-07,-4.2958193491235686e-07,-5.18318022973307e-07,-3.9900170432775913e-07,-1.792652718048734e-07,-3.479714214527712e-07,1.0250938415297005e-07,1.5227071617463943e-07,-3.935663325978341e-08,-2.8309696107006024e-07,2.824866486482767e-07,-2.6238914960052316e-07,2.9608962626913236e-08,-5.305704099522847e-08,-1.0615277226793493e-06,-1.250721660149815e-06,-3.6012942188034654e-07,5.691195789999146e-07
5.65961474179076e-07,-4.1677139314940906e-07,-4.603387538825283e-07,-3.362081216750291e-07,-2.4235600200873366e-07,-3.1485207826272824e-07,9.885804968851019e-08,2.2925175118249665e-07,-3.1025848554925675e-08,-2.558424647746799e-07,2.809539834509511e-07,-2.1433142784412532e-07,8.45134026851697e-08,1.4694365846637356e-08,-1.0237550336614532e-06,-1.3222301434300206e-06,-3.6941454299874055e-07,5.697352122089205e-07
6.098535146449197e-07,-4.079095656739962e-07,-4.223247272294773e-07,-3.115702118417125e-07,-2.1542930194616007e-07,-2.44235922354693e-07,1.4105403877686584e-07,2.7029344614431634e-07,-1.0728092806296993e-08,-2.426401601932983e-07,2.696088809943337e-07,-1.9556764891843278e-07,8.22600291432258e-08,2.6617410767823215e-08,-9.961873740103304e-07,-1.4869020142288177e-06,-4.1971768692393335e-07,5.930130262565979e-07
6.228960457574196e-07,-4.060767623119022e-07,-4.12107399147041e-07,-2.9307442662276465e-07,-1.1250121656636699e-07,-1.5712941975440385e-07,1.916350616202498e-07,2.611090309221102e-07,1.3657971353492064e-08,-2.697416783120059e-07,2.3213450155363937e-07,-2.0495070108349336e-07,4.2468447628494146e-08,2.46271365426616e-09,-9.711296013399787e-07,-1.5400316848410675e-06,-5.128585207184293e-07,6.227522844452155e-07
6.072082409832718e-07,-4.175649119121452e-07,-4.3397102773216557e-07,-3.062624831704944e-07,2.0668839215784935e-08,-9.126448449606527e-08,2.2887755313751785e-07,1.823993782862862e-07,3.291981534025865e-08,-3.785288125726634e-07,1.5075178765031798e-07,-2.5004264552311717e-07,-1.441421543545519e-08,-3.417281153849645e-08,-9.740476606899172e-07,-1.558307225965762e-06,-5.85255764915936e-07,6.706252049622865e-07
5.415595738714567e-07,-4.482779052651495e-07,-4.77620368735842e-07,-3.5139206982195936e-07,1.2261172326160392e-07,-4.666433074663607e-08,2.4980768901740956e-07,4.811634796733376e-08,1.8409644999168955e-08,-4.795585979323103e-07,2.4496630890743552e-08,-3.5784584962868254e-07,-5.4741553247767124e-08,-9.451005087028547e-08,-9.920409819738184e-07,-1.682156563597235e-06,-6.080169770895194e-07,7.114883671377429e-07
5.001709108774136e-07,-4.962340885153838e-07,-5.150663362749725e-07,-4.0391607982719633e-07,1.4483085140270204e-07,-4.0160420380991554e-08,2.395081802396845e-07,-1.1125054031393276e-07,-4.970245666778507e-08,-5.454250790866574e-07,-8.923391133597873e-08,-3.799244654171085e-07,-8.594126624075682e-08,-1.3572869059043895e-07,-1.0433232030069916e-06,-1.783407202542403e-06,-6.147183743751085e-07,7.402245397098999e-07
4.907838077912743e-07,-5.935970593816138e-07,-5.568158898912284e-07,-4.4724393755624025e-07,7.230370021377794e-08,-8.712987819178742e-08,1.8007631316160333e-07,-2.4965158364766007e-07,-8.587632566561136e-08,-5.77544990849107e-07,-1.5257098979793025e-07,-4.0042842751492e-07,-1.2364552942889043e-07,-1.713155345128211e-07,-1.1467051022895515e-06,-1.8254560935481282e-06,-6.276419743353814e-07,7.53078571373846e-07
4.5293581413780717e-07,-7.059537061971707e-07,-6.070676302047975e-07,-5.009457042128231e-07,-7.838337356074566e-08,-1.7032260578452348e-07,8.8264558200945e-08,-3.5524663159653186e-07,-1.4663943422562142e-07,-6.571952080481732e-07,-2.466872724732053e-07,-5.031995937897967e-07,-2.0523824522176386e-07,-2.5323554385659435e-07,-1.2805141414130575e-06,-1.7589939237474703e-06,-6.725449268765853e-07,6.577161642393521e-07
4.139829129735027e-07,-8.370427254662699e-07,-6.908114797521718e-07,-5.832894396514072e-07,-2.7530027027129736e-07,-2.5783855008336955e-07,-3.0086643174791574e-08,-4.284354355529875e-07,-2.5011558706785475e-07,-7.641867912443806e-07,-4.1006117274315735e-07,-6.42223440367226e-07,-3.3757177083269923e-07,-3.5465107882074963e-07,-1.4178196540073331e-06,-1.627820795490708e-06,-7.713457789420484e-07,4.7108797631135897e-07
3.106688934065139e-07,-9.706924594243507e-07,-8.114874158326783e-07,-7.31490684344952e-07,-4.844248451705729e-07,-3.3131665334156605e-07,-1.5929619274863425e-07,-4.825311556258323e-07,-3.741260396521625e-07,-8.86331238042993e-07,-5.707636247753684e-07,-7.438726053731114e-07,-4.859991708835533e-07,-4.804629080165341e-07,-1.5364406508479006e-06,-1.532744767387134e-06,-8.418130212233703e-07,3.120358572103122e-07
1.767385194870811e-07,-1.0808124058294721e-06,-9.229918730660826e-07,-9.138833933021001e-07,-6.720532222197413e-07,-3.8134333427785875e-07,-2.7499750067522496e-07,-6.10264888902302e-07,-4.547827984084422e-07,-9.409171783378598e-07,-6.683340095405547e-07,-8.091360857293097e-07,-6.273644302435361e-07,-6.10529496618037e-07,-1.6234222927935273e-06,-1.5725775115246194e-06,-8.642384923606778e-07,8.839084131232915e-08
5.9345311329789416e-08,-1.1072973787761265e-06,-9.911198235305553e-07,-1.0493517850366663e-06,-8.078861716145428e-07,-4.039906116038926e-07,-3.64966645001545e-07,-6.881500655974755e-07,-4.820440408979448e-07,-9.923253324515838e-07,-7.480430528883067e-07,-8.51024662700139e-07,-7.205807825712432e-07,-6.930174564175523e-07,-1.6685416515362201e-06,-1.7678073652575175e-06,-9.189066210380126e-07,-1.5323357369839512e-07
-4.1859576879118585e-08,-1.149447763174654e-06,-1.049914013727292e-06,-1.131963498033669e-06,-8.725697291177894e-07,-4.059275073093917e-07,-4.1694044202881716e-07,-6.74807875956198e-07,-5.406927112563679e-07,-1.0734052455023636e-06,-7.900065153993213e-07,-8.860551178313458e-07,-7.640721239419948e-07,-7.366325801470579e-07,-1.6746878350645613e-06,-2.0064010610221934e-06,-9.972821678711054e-07,-3.214135437616364e-07
-8.115044783435047e-08,-1.1986009808594475e-06,-1.0990664581980554e-06,-1.1699526151492504e-06,-8.631995811311723e-07,-3.900760119014771e-07,-4.304236994577285e-07,-7.2402640895237e-07,-5.847830337141847e-07,-1.1514822813497726e-06,-8.587540680398945e-07,-9.191504768557206e-07,-7.749585102607549e-07,-7.474053838834698e-07,-1.6427487953152316e-06,-2.2258077155357865e-06,-1.0810423638040445e-06,-4.1884738199781646e-07
-1.0444646610652546e-07,-1.150576525398905e-06,-1.0657310572597438e-06,-1.2253731501432908e-06,-7.936076242174846e-07,-3.754832388122873e-07,-4.122820827380564e-07,-8.351798714672371e-07,-5.723034558492119e-07,-1.1896668666076986e-06,-9.169199284704789e-07,-8.947836315174257e-07,-7.658735674634705e-07,-7.361345395820898e-07,-1.5760439077748036e-06,-2.3434413893014937e-06,-1.1290911698783248e-06,-4.505928580918967e-07
-1.053204845082861e-07,-1.0798394107568854e-06,-1.0081137140789586e-06,-1.1389954614493598e-06,-6.89715410538701e-07,-3.7654577135346376e-07,-3.7907255845989927e-07,-9.583548637391792e-07,-5.477504150740921e-07,-1.186935961193159e-06,-9.115463276997338e-07,-8.479366717494088e-07,-7.577013303382401e-07,-7.254246687028069e-07,-1.4926481913576348e-06,-2.3009602538206523e-06,-1.1457054882038765e-06,-3.7120358369837884e-07
-9.611534478069686e-08,-1.0343115931377784e-06,-9.729761577205286e-07,-1.0107888011534521e-06,-5.853628809088813e-07,-3.935743404841678e-07,-3.4712621339395506e-07,-1.0763534896572693e-06,-5.383678829291187e-07,-1.1746213680801473e-06,-8.889766195453989e-07,-8.348071247792944e-07,-7.571658672768188e-07,-7.19851143414351e-07,-1.4059800560566392e-06,-2.109373491961416e-06,-1.1381488306042124e-06,-3.635903736038576e-07
-1.0449046023661408e-07,-1.0162151445231561e-06,-9.569461153462023e-07,-9.430348434741551e-07,-5.203601307681118e-07,-4.2554108128099184e-07,-3.248133333265862e-07,-1.188441151824765e-06,-5.374093551075649e-07,-1.172072753335143e-06,-8.737660243364866e-07,-8.144969762894904e-07,-7.654704605475554e-07,-7.186748318559544e-07,-1.3278475603333502e-06,-1.8054579725290681e-06,-1.1265238571706197e-06,-3.454236752735427e-07
-1.2011668915137575e-07,-1.0165581128183404e-06,-9.501784502070717e-07,-8.905559182606795e-07,-5.294961216540005e-07,-4.611066794535627e-07,-3.1384431564864787e-07,-1.2651256828137934e-06,-5.384236565230302e-07,-1.158031464509448e-06,-8.507068892412325e-07,-8.123053963071412e-07,-7.819693450254803e-07,-7.196361484456809e-07,-1.2690802249788398e-06,-1.4442480526661456e-06,-1.1121110130176657e-06,-2.6415893019467135e-07
-1.4827086132972085e-07,-1.0281679559742322e-06,-9.50539118316519e-07,-8.809976489347039e-07,-6.239085187223553e-07,-4.90401504511841e-07,-3.086773688780989e-07,-1.3029402962102854e-06,-5.39864004913868e-07,-1.1704030004770887e-06,-8.488842067530844e-07,-8.244362788699536e-07,-8.031420869440076e-07,-7.188592910077286e-07,-1.2414572765252637e-06,-1.1068123762724688e-06,-1.1124243877526936e-06,-1.35066443235564e-07
-1.8727767974746334e-07,-1.0398261591672347e-06,-9.558891541032007e-07,-9.067202446504367e-07,-7.785453803529649e-07,-5.038899608892175e-07,-3.0571674202752047e-07,-1.2868189838221959e-06,-5.404824588523612e-07,-1.2008094431445793e-06,-8.570011127475157e-07,-8.352568196282324e-07,-8.253807329785089e-07,-7.145638998527979e-07,-1.2486990957570164e-06,-8.702802793911269e-07,-1.1342308953285148e-06,-7.923976974803001e-09
-2.3281927148259956e-07,-1.0443683218038327e-06,-9.640848929613428e-07,-9.414928585780502e-07,-9.391500392511884e-07,-4.933984929780802e-07,-3.0032917947947293e-07,-1.2132255606529867e-06,-5.409950372934881e-07,-1.2274132358271638e-06,-8.69159351433833e-07,-8.510069770117768e-07,-8.455806840827112e-07,-7.077017121319901e-07,-1.287627331651607e-06,-7.564118883173266e-07,-1.1732274304330683e-06,1.0544756762733486e-07
-2.750663149146276e-07,-1.0403779581641032e-06,-9.762193237213493e-07,-9.839344144601868e-07,-1.0460976457841071e-06,-4.595807321102055e-07,-2.910447584819848e-07,-1.1053079706788075e-06,-5.425946073070481e-07,-1.2508057715666553e-06,-8.861880555630648e-07,-8.581779747311986e-07,-8.606328267563429e-07,-7.006722936923989e-07,-1.3468796948873183e-06,-7.436744689284361e-07,-1.2194607065281804e-06,1.9603051652853554e-07
-3.1653606368631656e-07,-1.0303936009952383e-06,-9.903704504344094e-07,-1.012094542273269e-06,-1.0594657817841438e-06,-3.973147808612577e-07,-2.799230849361397e-07,-9.576441308098149e-07,-5.453329383185977e-07,-1.2678410958678766e-06,-8.955335954977081e-07,-8.544430394537893e-07,-8.673309809338152e-07,-6.960018314500304e-07,-1.4093997047766545e-06,-7.736598539847383e-07,-1.243759227494557e-06,2.2819264554698587e-07
-3.3105779215504804e-07,-1.0176328050840304e-06,-1.0056934284401588e-06,-1.02162075885468e-06,-9.705360113624057e-07,-3.3575023453495094e-07,-2.7455848447795713e-07,-8.049768809542581e-07,-5.477694589809826e-07,-1.2777019997523847e-06,-8.996469497915497e-07,-8.42409578202456e-07,-8.633801409223793e-07,-6.960951946846928e-07,-1.4497438878412188e-06,-7.778481328528803e-07,-1.240399859548093e-06,2.2097910092871009e-07
-3.1185956449613626e-07,-1.0043464775822233e-06,-1.0236144758533517e-06,-1.0151614535616653e-06,-7.951885063616033e-07,-3.2352466138024066e-07,-2.8753904998225793e-07,-6.786606808557114e-07,-5.475787534568773e-07,-1.284840978491228e-06,-9.029199490473192e-07,-8.243405371429607e-07,-8.486393455837532e-07,-7.035610711488682e-07,-1.505557941715984e-06,-7.048820582867291e-07,-1.1828981282629395e-06,2.08444441479375e-07
-2.816638871119729e-07,-9.909746449887503e-07,-1.0468413200605455e-06,-9.92981687999142e-07,-5.610913578417821e-07,-3.1590047380556453e-07,-3.2628005032717707e-07,-5.87173560253742e-07,-5.418689466173638e-07,-1.288914362894419e-06,-9.065146664596027e-07,-8.047790925637414e-07,-8.252255682451819e-07,-7.206684102975598e-07,-1.5279113218540387e-06,-5.625866449816745e-07,-1.1061287565995926e-06,2.14994706395214e-07
-2.3063586045348426e-07,-9.744002694557435e-07,-1.0734779468312091e-06,-9.558243403707216e-07,-2.9915514929258606e-07,-3.5831231349525334e-07,-3.887020812224623e-07,-5.290810506869023e-07,-5.267445867498055e-07,-1.2823977865755284e-06,-9.130110920483794e-07,-7.856588421732547e-07,-7.962974513657728e-07,-7.472540393558921e-07,-1.5174346425672427e-06,-3.814566797266572e-07,-1.0661233105351437e-06,2.63811467648848e-07
-1.429326410857825e-07,-9.467341788805933e-07,-1.081964235511942e-06,-9.050156141308271e-07,-4.1598641425503185e-08,-4.1462830433179386e-07,-4.3615147486555374e-07,-4.858031011717985e-07,-4.961722863602754e-07,-1.263474403081438e-06,-9.182866081944505e-07,-7.660735153194857e-07,-7.647476539343706e-07,-7.784915192059913e-07,-1.4673636848226783e-06,-2.1626416133143405e-07,-1.0097134783497973e-06,3.4899615592719815e-07
-4.5243785064155194e-08,-8.97439450781325e-07,-1.0673879534787767e-06,-8.405299945094665e-07,1.726646092848413e-07,-4.048135782479958e-07,-4.2470470900975345e-07,-4.322847081133859e-07,-4.466286017451864e-07,-1.2280113783497557e-06,-9.176201040864403e-07,-7.409085552464503e-07,-7.311099707075234e-07,-8.031327404349356e-07,-1.3308355542625085e-06,-2.2736214490264637e-07,-9.029515147979342e-07,4.503613414106941e-07
7.32419283074676e-08,-8.195284859751177e-07,-9.947191693201979e-07,-7.630574989041937e-07,2.9972781985474283e-07,-3.3937020276633574e-07,-3.1614920968387494e-07,-3.386832848512781e-07,-3.788733883897314e-07,-1.1729805430499562e-06,-9.039937903073327e-07,-7.028858544789353e-07,-6.986947322329115e-07,-8.102504532079354e-07,-1.1833487856853418e-06,-3.4587521864029125e-07,-7.997445822784922e-07,5.44361452474896e-07
1.8936473144136823e-07,-7.155479074672257e-07,-8.912032687254174e-07,-6.71192680224773e-07,3.0518993409552236e-07,-3.047547906034035e-07,-1.9426843546994705e-07,-2.337257338388406e-07,-2.965671150423169e-07,-1.0989440427846243e-06,-8.71988889009421e-07,-6.489817728225534e-07,-6.674583582513243e-07,-7.924923857321399e-07,-1.0697435617828467e-06,-4.052996073103524e-07,-7.494206782977046e-07,6.09393796028177e-07
2.8509941547445944e-07,-5.985561058488712e-07,-8.231748501768602e-07,-5.655195309284681e-07,1.8585561655924445e-07,-2.5240033263067733e-07,-8.27306719150345e-08,-1.3612713471382116e-07,-2.0846117085157565e-07,-1.0093238376134007e-06,-8.228438282404645e-07,-5.786339896931299e-07,-6.350482980530102e-07,-7.446964252323949e-07,-1.0572616976628246e-06,-5.906620982847798e-07,-6.94581286000617e-07,6.317910755728634e-07
3.2285912224805853e-07,-4.89306342013101e-07,-7.748015497413091e-07,-4.5138594462743455e-07,-1.6954191504806714e-08,-1.648119739084247e-07,1.3917751105691715e-08,-6.012150348594936e-08,-1.2452013593278843e-07,-9.116243483640948e-07,-7.622422876010689e-07,-4.966716977563555e-07,-5.992855272925829e-07,-6.693029660346541e-07,-9.84082607133197e-07,-9.139033516953813e-07,-6.872283923813896e-07,6.117996614709468e-07
3.7415130996502483e-07,-4.036008041415175e-07,-6.539828410587276e-07,-3.369504953092957e-07,-2.290517103720612e-07,-1.189063275126476e-07,1.7303325651087618e-07,-1.7220677270426834e-08,-5.1845937899326865e-08,-8.172374575458015e-07,-6.994508596726856e-07,-4.137941527979658e-07,-5.585130087484598e-07,-5.768145759172725e-07,-8.250149430826954e-07,-1.1270423213257327e-06,-6.704573714615911e-07,5.60789576276497e-07
4.1121487259419433e-07,-3.4813872823138837e-07,-5.134705179518497e-07,-2.3270073589862022e-07,-3.76048917220056e-07,-2.146223079764772e-08,3.37498694086525e-07,1.0224887593178603e-08,2.6668554283589445e-10,-7.409378900919898e-07,-6.468293841991049e-07,-3.4373565757941945e-07,-5.156552430882772e-07,-4.839292113777146e-07,-6.618097331910496e-07,-1.2099696062231588e-06,-6.657419045591212e-07,4.968736119131204e-07
3.9731572520223003e-07,-3.25937666291788e-07,-4.2558137582163095e-07,-1.482399363817561e-07,-4.1603520779873935e-07,5.963976060209823e-08,4.852778637244184e-07,4.1001590219545534e-08,1.3983116604681466e-08,-6.944379582763477e-07,-6.158956007257717e-07,-2.991895454944147e-07,-4.775992446946104e-07,-4.098480617300645e-07,-5.303835450993479e-07,-1.236660305956381e-06,-6.994612176547393e-07,4.4045735861657255e-07
3.41276576106973e-07,-3.337775935231949e-07,-3.654559093953872e-07,-8.837023299829817e-08,-3.4770379772208916e-07,1.3182501267308864e-07,6.361721895325053e-07,8.516445923030695e-08,2.863594857668649e-08,-6.861958468721776e-07,-6.113234717876118e-07,-2.868077599049023e-07,-4.5181646015331556e-07,-3.688812344673609e-07,-3.6982602163090385e-07,-1.2399881662098637e-06,-7.250868401107917e-07,4.082365622073677e-07
2.9350071424669885e-07,-3.664134000944501e-07,-2.9835321522625837e-07,-5.2849959577546117e-08,-1.9349699113793447e-07,1.8879911374362183e-07,7.653574512552e-07,1.3395930169102866e-07,3.770738571034187e-09,-7.057500456247941e-07,-6.29997026123458e-07,-3.00826126910746e-07,-4.4049203868216707e-07,-3.6376765942071524e-07,-2.09226963951585e-07,-1.2421208161697802e-06,-7.527559122601241e-07,4.0985151854136976e-07
2.642213885615397e-07,-4.122315424052659e-07,-2.426223999677008e-07,-3.723960912875952e-08,2.0573459913357618e-08,3.290421585492869e-07,8.524007540786409e-07,1.7806395741331846e-07,-2.4139181868049658e-08,-7.343160593406491e-07,-6.604127806231912e-07,-3.239559941105693e-07,-4.392575868871311e-07,-3.8222670605565617e-07,-1.7693650613062616e-07,-1.2230444761050522e-06,-7.769833148599941e-07,4.4598044983722014e-07
2.2673063103391565e-07,-4.5456162740112917e-07,-2.5737214278130173e-07,-3.294180363141938e-08,2.6973507395284917e-07,4.090579459397465e-07,8.41055020516624e-07,2.0017289969204117e-07,-4.343264497080259e-08,-7.484352723487464e-07,-6.844115003557368e-07,-3.341538787192781e-07,-4.352701364666301e-07,-4.063235132948855e-07,-1.8080499331553935e-07,-1.139740988888366e-06,-7.668324174208124e-07,5.127204165840406e-07
2.2189480489092587e-07,-4.7592499888900487e-07,-2.808269276866499e-07,-3.5251482774739814e-08,5.229608304705432e-07,4.460029457809582e-07,8.350121811943463e-07,1.897682927812072e-07,-4.0961044375850905e-08,-6.954577074819698e-07,-6.875749821664437e-07,-3.033155893076597e-07,-4.164726287803911e-07,-4.155516149847187e-07,-1.5732006137625986e-07,-9.67535949741757e-07,-7.311542213243655e-07,5.992638980770241e-07
2.53892587585658e-07,-4.6759526770986757e-07,-2.719750792473393e-07,-3.732958193127358e-08,7.397039542253208e-07,4.573174916953576e-07,8.811826724649219e-07,1.5212058764937773e-07,-1.1663385465919774e-08,-6.334961052255149e-07,-6.628992190758388e-07,-2.5920888287804004e-07,-3.7495789372073726e-07,-3.9301623633902897e-07,-1.041128241328626e-07,-7.264422170604899e-07,-6.491810640170973e-07,6.911585318651019e-07
3.0709040806993303e-07,-4.3119041910559803e-07,-2.4553898597452235e-07,-3.231936643866672e-08,8.807051033079237e-07,4.4646040276012225e-07,9.776744144490042e-07,9.859002139643558e-08,4.0623702284021924e-08,-5.72789657326399e-07,-6.11578691409965e-07,-1.7723589992438396e-07,-3.1143164995834735e-07,-3.340319546970923e-07,-5.327800371265516e-08,-4.7269554487533245e-07,-5.589327268088083e-07,7.776371958055088e-07
3.740604753298244e-07,-3.7258618346995177e-07,-2.131647312170656e-07,-2.997908556763868e-08,9.248596234565222e-07,4.31909778951569e-07,1.0853272910355252e-06,4.6597950815333396e-08,9.202828432595205e-08,-5.012867254213884e-07,-5.595965334856905e-07,-9.186402590423031e-08,-2.3122312313803564e-07,-2.397041762314279e-07,-1.0488451589222035e-08,-2.6638211683249594e-07,-4.846957945129128e-07,8.508961731681322e-07
4.347330826217087e-07,-3.024182832579426e-07,-1.798484998503323e-07,-1.80350167918853e-08,8.79774381967113e-07,4.1955170160876533e-07,1.1969420125117236e-06,1.3721992328360322e-08,1.3789135312251666e-07,-4.022424907308232e-07,-4.996574509722064e-07,-5.8724496747325645e-09,-1.566099833454543e-07,-1.3163842452987192e-07,3.445985389479269e-08,-1.3603769271408047e-07,-4.1268748514014473e-07,9.101519650009037e-07
4.825127689816466e-07,-2.281337568076496e-07,-1.3913248859422268e-07,3.166415635077434e-08,7.795172723918047e-07,4.529821486375546e-07,1.3060731455856502e-06,1.2724300626874941e-08,1.8668048855764162e-07,-3.1584174159912463e-07,-4.362123920073927e-07,6.720547450495383e-08,-7.488344050849772e-08,-1.937823505223641e-08,6.99532759816685e-08,-6.424658952104493e-08,-3.49982652711652e-07,9.615580904677742e-07
5.20921161190143e-07,-1.5413718956759312e-07,-9.212141626817955e-08,1.073894694822348e-07,6.717160126311636e-07,5.130713330561609e-07,1.4188078260588096e-06,4.655859261208102e-08,2.301013553716185e-07,-2.6622613694656613e-07,-3.8084435851212326e-07,1.207290614361543e-07,7.94569842680676e-09,8.023946148960757e-08,9.09928652166559e-08,-4.334797925961989e-09,-2.878614942414894e-07,1.0079382590804858e-06
5.553683405103265e-07,-8.548849962545857e-08,-6.683101073724688e-08,1.664974873350203e-07,5.998163595605515e-07,5.755960325337678e-07,1.5062760444335324e-06,9.826167591073979e-08,2.5809338178658353e-07,-2.4416414766313616e-07,-3.450901055610895e-07,1.4758203602134574e-07,5.5917203169945195e-08,1.4906397637193932e-07,9.231925903459519e-08,8.775390078134336e-08,-2.478107174546027e-07,1.027993455097042e-06
5.849290762692082e-07,-5.7300368139033816e-08,-6.15099547573045e-08,1.8495622513158437e-07,5.869362290725283e-07,6.291229349773458e-07,1.5608034001937778e-06,1.3814206892709035e-07,2.6999110685405383e-07,-2.7072214603132734e-07,-3.3655708706967557e-07,1.2624124146179882e-07,7.353172584693952e-08,1.5542967207290035e-07,6.218737028226732e-08,2.3414894124514302e-07,-2.3429936597887161e-07,1.017162895778144e-06
5.803019574286042e-07,-7.255528458021566e-08,-1.0537449052573137e-07,1.0697194004895136e-07,6.287553013275872e-07,6.496933223555887e-07,1.5696284159113406e-06,1.3605036530033592e-07,2.5031293647512797e-07,-3.73094927071713e-07,-3.807665064150576e-07,3.1111464227316586e-08,3.0911527528087155e-08,7.417280818270007e-08,-2.6088803643872296e-09,4.3295820324040095e-07,-2.630135158666381e-07,9.876471839000098e-07
5.376737662024767e-07,-1.1000080587028211e-07,-1.9758921975541142e-07,-9.990575824048059e-08,6.961724606877261e-07,6.676650824594469e-07,1.5473158677702253e-06,7.29131961874445e-08,1.8135575360966332e-07,-4.2830855135430476e-07,-4.979210682811845e-07,-9.252161077134245e-09,-7.13723487965377e-08,4.876594990210645e-08,-6.984715658264566e-08,6.668886288704692e-07,-3.4003118400922134e-07,9.203518987469858e-07
4.52235817068831e-07,-1.864389605011953e-07,-2.2064759808111704e-07,-2.1796304287192722e-07,7.518023741002848e-07,6.840309509160261e-07,1.5694351446227456e-06,-4.2056181313260654e-08,1.476662379583528e-07,-4.621735336020689e-07,-5.387140703745764e-07,-1.114712145090117e-08,-7.846657463958607e-08,5.786683803898872e-08,-1.3955085902977379e-07,9.080561178786552e-07,-3.441842535380783e-07,8.460269592952538e-07
3.355110904623701e-07,-2.548594685437658e-07,-2.0964673174156348e-07,-2.517016234667482e-07,7.62354247250009e-07,6.934582488409942e-07,1.609449276479215e-06,-1.8282668146749123e-07,1.4631364070617808e-07,-4.5941003624230117e-07,-5.705897249618545e-07,1.5881574131037558e-08,-5.3411625188927925e-08,9.62721468855191e-08,-2.3738981035775472e-07,1.1203079807920383e-06,-3.5079282953606886e-07,7.633322061989029e-07
2.7580053784251224e-07,-3.2813829111623766e-07,-2.1302203796866777e-07,-3.2954599513644913e-07,7.092363104884696e-07,6.744551007327801e-07,1.6495901591501402e-06,-3.169664174620084e-07,1.3100558357550417e-07,-4.873861286136319e-07,-6.113655670510641e-07,1.464637666398317e-08,-8.287962855426559e-08,9.364387204467256e-08,-3.413752957003747e-07,1.2596573065502782e-06,-4.0076266506398214e-07,6.326680499884152e-07
2.05320739818486e-07,-4.452182783731719e-07,-2.903376711449411e-07,-4.0385355553120733e-07,5.993660761754768e-07,6.334677930422789e-07,1.617012595034276e-06,-4.1656098057017554e-07,8.561968456770505e-08,-5.415479429549602e-07,-6.7902747707546e-07,-5.6323648793338115e-08,-1.8242082645113096e-07,-4.746866892929652e-09,-4.3876737314863745e-07,1.2746130599005253e-06,-5.029654708539418e-07,5.041583016725283e-07
7.794265711986802e-08,-5.818375403923002e-07,-4.182120442571692e-07,-5.03875949380596e-07,4.5490100375272103e-07,5.850611830595558e-07,1.5063080815188791e-06,-4.4541391903148924e-07,7.524433283843431e-09,-6.090100194672579e-07,-8.018936959521753e-07,-1.0285105412396528e-07,-3.0408807780795157e-07,-1.2766921082627865e-07,-5.15606515897114e-07,1.133990015984107e-06,-6.231182626197017e-07,3.8754659893325264e-07
2.0454752596042613e-09,-7.139582756523215e-07,-4.834063981212616e-07,-5.079659079622339e-07,3.004152762420828e-07,5.200444983900847e-07,1.3692048658126164e-06,-3.7250741284290607e-07,-4.570731764420597e-08,-6.004071884449792e-07,-8.731860201590682e-07,-8.072027041449471e-08,-4.356413876696739e-07,-2.5187824275712435e-07,-5.49358574638761e-07,8.593522098876907e-07,-6.890574125331173e-07,3.1126165902852355e-07
-1.959710274874998e-08,-7.567588468349827e-07,-4.982970133142687e-07,-4.2975877457352967e-07,1.5580952284333721e-07,4.6890311918229203e-07,1.2413267656070985e-06,-2.158177012880793e-07,-3.139583178410046e-08,-5.670734270139003e-07,-8.831031956240305e-07,-8.235772114176543e-08,-5.565231075368654e-07,-3.7996044775110546e-07,-5.341420030141288e-07,5.241279726701755e-07,-7.369781246535771e-07,2.247353369348374e-07
-4.914530976866749e-08,-7.176352291140776e-07,-5.238931888270822e-07,-3.9917873043249963e-07,3.6293845316692636e-08,4.1278172964553174e-07,1.21342220755802e-06,-1.588777879386957e-07,-2.8542876712077404e-08,-5.549626875985042e-07,-9.16636348739515e-07,-5.430434083019029e-08,-6.250940953354278e-07,-4.496894025808924e-07,-4.975217807144853e-07,2.06496681527922e-07,-7.769036625942708e-07,9.292717180932842e-08
-6.987075789465835e-08,-6.363475056853102e-07,-5.48160045173424e-07,-4.282009860600424e-07,-4.3496613170711425e-08,3.4728115054214954e-07,1.2254908083791157e-06,-1.450813697778678e-07,-3.732318854389078e-08,-5.100048703957519e-07,-9.579539239863263e-07,-2.0592850566207832e-08,-6.440484233390236e-07,-4.768200820192479e-07,-4.463944353105939e-07,-4.651758898226081e-08,-8.080377093218698e-07,-3.614392131248648e-08
-8.71356034302937e-08,-6.327302170958648e-07,-5.721295148951345e-07,-4.5832241443966623e-07,-7.014272602067328e-08,3.145740551519083e-07,1.217957648664373e-06,-1.1718535994743545e-07,-3.454269819211754e-08,-4.891026005680047e-07,-9.65340175745039e-07,-3.904253854396524e-08,-6.504544762246142e-07,-5.034987788865691e-07,-3.7290048446924007e-07,-2.3116643315034374e-07,-7.870932906985011e-07,-5.5913485238591094e-08
-7.632183082396941e-08,-5.949622775571812e-07,-5.662542195529992e-07,-4.0842988951562133e-07,-4.0434702248262454e-08,2.9108587324932325e-07,1.2567864771097682e-06,-3.5664848871036365e-08,-1.4176953126387795e-08,-4.928619649908558e-07,-9.69401780028918e-07,-2.9409693549875957e-08,-6.231657698005163e-07,-5.244485917677023e-07,-3.024044723451865e-07,-3.566993119827703e-07,-7.22729204708023e-07,9.802308526916065e-09
-5.3663817976399966e-08,-5.573385556120707e-07,-5.039612054527363e-07,-3.129938471065316e-07,3.137208667370305e-08,2.904914158451384e-07,1.362082387642986e-06,6.182923890012082e-09,4.962070902884372e-09,-4.240123657772056e-07,-8.984072256236477e-07,-3.879049656859688e-09,-5.762143667949689e-07,-5.223066309834838e-07,-2.433217105042272e-07,-4.0910015876659544e-07,-6.623198316984909e-07,3.306750918020767e-08
4.472231008528961e-08,-5.368122936797849e-07,-4.128124929553564e-07,-2.5716892922252805e-07,1.2023223003516685e-07,3.283334151345644e-07,1.4714383066521902e-06,6.295573794057827e-08,4.8055874886918944e-08,-3.5321136727598674e-07,-7.840172021821968e-07,4.1085388248599556e-08,-5.163242119031686e-07,-5.028355760948646e-07,-1.959459857266596e-07,-3.5585570214869434e-07,-6.076135349030307e-07,9.720227704369006e-08
1.469958875042649e-07,-4.797014480007098e-07,-3.9347885164453613e-07,-2.3204561836463225e-07,2.0030352828141113e-07,3.341997779915097e-07,1.5674886606815377e-06,1.567866809992033e-07,1.1935339449620786e-07,-2.767901280655527e-07,-6.737946697339073e-07,1.0036625357841473e-07,-4.326224679279163e-07,-4.6109735016756995e-07,-1.6351391101096035e-07,-1.788988127796342e-07,-5.169454919950271e-07,2.0240279230559295e-07
2.4673155919056963e-07,-4.170243924849066e-07,-3.674241222752273e-07,-2.1629224458782228e-07,2.532673474462954e-07,2.828325539453355e-07,1.6494151866816824e-06,2.377231657096218e-07,1.8887406668892281e-07,-1.5739180157700266e-07,-5.66294528806418e-07,2.0796456424207027e-07,-3.3293705584986397e-07,-3.946034291101108e-07,-1.4023592027802524e-07,9.465991809463385e-08,-4.2191057269161506e-07,2.597739365828205e-07
3.74133202063183e-07,-3.131159702375629e-07,-3.6801768289261993e-07,-2.3382808540778706e-07,2.711557670924414e-07,2.0823970948096785e-07,1.7010302881737655e-06,3.214359015114509e-07,2.627309948025972e-07,-1.2177215460470539e-08,-4.639567248515805e-07,3.595841131061591e-07,-2.2019162832855857e-07,-3.0977751819179707e-07,-1.1673765525478549e-07,3.8959038421611956e-07,-3.22964321843914e-07,2.2680931183281216e-07
4.782809105285248e-07,-1.8014193761313211e-07,-4.0455064297700624e-07,-2.3516908553307896e-07,2.547656673954682e-07,1.6142012361719357e-07,1.7285385889778143e-06,3.955752812053919e-07,3.4077617592373094e-07,1.3866436144031358e-07,-3.863531021267626e-07,4.824460569260537e-07,-9.975681649891031e-08,-2.0697738865397155e-07,-9.547560598088903e-08,6.035447598222687e-07,-2.1700470722745267e-07,1.4720350931634012e-07
5.70879404786643e-07,-7.147111482464985e-08,-4.386435668542197e-07,-2.0944505231090684e-07,2.1636274353078286e-07,9.417537723151737e-08,1.736192285365941e-06,4.471984759340702e-07,3.9811619699187954e-07,2.8833827483034405e-07,-3.2774286511896383e-07,5.856001886877741e-07,2.3372577077337305e-08,-8.574457363924666e-08,-8.331271983349814e-08,6.541174293801605e-07,-1.2068690175887533e-07,8.756579297876906e-08
6.613269972308148e-07,2.9763984777357733e-08,-4.183880503596208e-07,-1.517770593864973e-07,1.793492658757622e-07,7.136106927447355e-08,1.7351632179942593e-06,4.915189185126196e-07,4.296891148714841e-07,4.2002702283696816e-07,-2.753358150897767e-07,6.32968245509014e-07,1.3110146967217105e-07,3.990882831391802e-08,-7.306885670669074e-08,5.120473710427539e-07,-3.171667567328254e-08,9.56513787756319e-08
7.40169429342723e-07,1.6701882393460762e-07,-3.8204765725538677e-07,-4.695666035605517e-08,1.6683938405233408e-07,1.297548095363866e-07,1.7382968748917921e-06,5.376477299932656e-07,4.69494760647797e-07,5.351964243423653e-07,-2.2151922741293305e-07,6.713547315290342e-07,2.1635932845510457e-07,1.492098254189004e-07,-5.559211041786281e-08,2.1123550001033397e-07,4.6324548762731134e-08,1.9141370039973832e-07
8.155537873916778e-07,2.885010455282829e-07,-3.229933524010926e-07,8.793843340239752e-08,1.9084767641989777e-07,1.7472058692343228e-07,1.760063323396095e-06,6.025728716006031e-07,5.059733363654827e-07,6.378346215601714e-07,-1.5828828312743236e-07,7.437272652870122e-07,2.792903138107484e-07,2.3422067485461304e-07,-2.3077332366291168e-08,-1.645952636288927e-07,1.099076940861359e-07,2.559937452713882e-07
8.851983047071937e-07,3.619521444907052e-07,-2.8044610541658526e-07,2.245788558897535e-07,2.515836181221717e-07,2.1481796007591432e-07,1.807144696218454e-06,6.969130448744254e-07,5.502577097428072e-07,7.350339218305177e-07,-8.84656784940467e-08,8.338957822782986e-07,3.206655797689859e-07,2.897224567904747e-07,2.6697104743859223e-08,-5.083224434011309e-07,1.6016790902282184e-07,3.5216966342380346e-07
9.478601662076675e-07,3.8774326551654556e-07,-1.508978426577929e-07,3.48928918479401e-07,3.450963419944744e-07,2.69492296934017e-07,1.8724731333472273e-06,8.133035534355177e-07,5.911110012700738e-07,7.981394556591123e-07,-2.044781983927162e-08,8.595458535499531e-07,3.4838747308152216e-07,3.165930133264546e-07,8.496903356201222e-08,-7.255670231971865e-07,1.984676730483149e-07,4.858855082953459e-07
1.0066584789408698e-06,3.8309813266103916e-07,-2.1017403216975313e-08,4.482117083566406e-07,4.674602130522756e-07,3.392166131689474e-07,1.9433552966083636e-06,9.352592316001909e-07,6.177395329671238e-07,8.37223043468875e-07,3.9557802524598135e-08,8.602028770282709e-07,3.696197225439538e-07,3.237840495545854e-07,1.4092744738036632e-07,-7.544219040949627e-07,2.221966599086722e-07,6.081373168407281e-07
1.064303591418469e-06,3.848096698175058e-07,3.718053451358932e-08,5.125431096025383e-07,6.119633922277931e-07,3.863462493249982e-07,2.0065511702970817e-06,1.0499483008486196e-06,6.426114395653664e-07,8.676311730225973e-07,8.97504956499793e-08,8.477027234736537e-07,3.9037340321801096e-07,3.2141822360142393e-07,1.8792209989208816e-07,-5.81521230166331e-07,2.377918866978033e-07,6.586693693032798e-07
1.1231912920977348e-06,4.051191283886344e-07,1.1797711437230424e-07,5.554325213193398e-07,7.670262352768066e-07,4.3402903981375253e-07,2.055431855444172e-06,1.1545208579011667e-06,6.586687971440228e-07,8.88530509169821e-07,1.332428130855515e-07,8.279717588095672e-07,4.1471552118781283e-07,3.194304131462287e-07,2.234862469616918e-07,-2.527079691494096e-07,2.578360433377099e-07,6.55777537762515e-07
1.18453669941364e-06,4.20972558340978e-07,1.3786201346710893e-07,5.788864974343598e-07,9.196438544218388e-07,4.980278214695256e-07,2.090593329620627e-06,1.2494293388283095e-06,6.735110233269423e-07,9.142785971486792e-07,1.7510019633116042e-07,8.130046987051957e-07,4.425155373033059e-07,3.234688448460272e-07,2.4851444168054715e-07,1.3881044259524983e-07,2.8441121754609867e-07,6.344923406776253e-07
1.2464799856630106e-06,4.394400796924824e-07,1.4458895983010794e-07,5.910150757113684e-07,1.0574577033691884e-06,5.564456953305467e-07,2.1160061075747347e-06,1.3329913542382328e-06,6.861576912052123e-07,9.432729630940953e-07,2.180424995282498e-07,8.163366823946908e-07,4.695564897652965e-07,3.326261423904539e-07,2.646526396731168e-07,4.895982478971185e-07,3.170323583061565e-07,6.217676443550731e-07
1.303303036186844e-06,4.541276133334054e-07,1.516185551996544e-07,6.043228382604142e-07,1.1668116580524732e-06,5.56056458028497e-07,2.1359903092189325e-06,1.3988985819965591e-06,6.932321293729039e-07,9.658947429313904e-07,2.6049898512599605e-07,8.294566255698623e-07,4.895221305245042e-07,3.4226637937000146e-07,2.735551993269578e-07,7.207609255645576e-07,3.5265182268954715e-07,6.35031757562789e-07
1.3473098246571644e-06,4.644398536405035e-07,1.52963990902715e-07,6.22891152104843e-07,1.238248623366971e-06,5.548756489539851e-07,2.15423041901455e-06,1.4401832836485865e-06,6.96727850763296e-07,9.735294677885982e-07,2.9852730843133013e-07,8.367033247013927e-07,4.979561585588083e-07,3.487117320631797e-07,2.7838512915041347e-07,8.059668494736118e-07,3.8335234128686626e-07,6.730117230454755e-07
1.3736336245521673e-06,4.7289662179533813e-07,1.6047691459469725e-07,6.419423993037057e-07,1.2716237437081315e-06,5.79674580211046e-07,2.1739465854910364e-06,1.4517828982563063e-06,6.970878445764499e-07,9.693169888195827e-07,3.2959784743332984e-07,8.383440833985151e-07,4.958586499913372e-07,3.5214395541381856e-07,2.8420095657544596e-07,7.65086607052048e-07,4.044003743041044e-07,7.276981929161462e-07
1.3846929728042116e-06,4.920256055255589e-07,1.7378428525885768e-07,6.526517239561791e-07,1.279792423097839e-06,6.171005025559919e-07,2.1973123849669895e-06,1.4334863768866386e-06,6.945729174964458e-07,9.531970441380444e-07,3.547868301291696e-07,8.285764382014111e-07,4.899242271172183e-07,3.5593307275122564e-07,2.967329013287418e-07,6.264895593165589e-07,4.207925037476552e-07,7.879867820901764e-07
1.389875217189122e-06,5.253485799621712e-07,1.9338528158493053e-07,6.505803152059206e-07,1.2853552617452728e-06,6.683877332493984e-07,2.224009729754018e-06,1.3894147029570095e-06,6.906176430491125e-07,9.298037731404297e-07,3.776921199334595e-07,8.116842527720066e-07,4.890540395711243e-07,3.6379166481164953e-07,3.2165328374978115e-07,4.399479677061986e-07,4.3796211769100417e-07,8.406497357911706e-07
1.4007126659220475e-06,5.6818196710754e-07,2.2297710015203462e-07,6.368172953683396e-07,1.311543136989071e-06,7.275068127478411e-07,2.249746405405081e-06,1.3232352821247355e-06,6.867896622216375e-07,9.058900717309071e-07,4.0118136979694316e-07,7.931354856615281e-07,4.99599837281096e-07,3.773952850000858e-07,3.6426821034941225e-07,2.5654015460210884e-07,4.5858618423798884e-07,8.822244257784042e-07
1.4244027262976239e-06,6.147075950437723e-07,2.628353589304353e-07,6.248484425125119e-07,1.3753530630977526e-06,7.840877101237906e-07,2.265990008872199e-06,1.2378357118662694e-06,6.812833700048446e-07,8.808155979932272e-07,4.246360665154191e-07,7.703764581519594e-07,5.22297517076113e-07,3.9591650334757773e-07,4.2644052276577653e-07,9.401273263078421e-08,4.831600553955629e-07,8.984543164159527e-07
1.459871089118144e-06,6.523686991823119e-07,3.070305504591262e-07,6.298308860424573e-07,1.4701105793839463e-06,8.281801779844079e-07,2.2622507404048576e-06,1.1396000617177698e-06,6.705518480354596e-07,8.511597464037648e-07,4.438305136044209e-07,7.408142716027221e-07,5.522619390367207e-07,4.1733824098019894e-07,5.020686548830662e-07,-4.2471198734362306e-08,5.065098073855611e-07,8.790039551620614e-07
1.49883484728442e-06,6.699884219845839e-07,3.487709131417838e-07,6.608550417056595e-07,1.5688925177236922e-06,8.535979626772045e-07,2.2305412534591072e-06,1.0418811344253222e-06,6.508654898195876e-07,8.119565066280087e-07,4.532668559282502e-07,7.027708619481763e-07,5.8155136182268e-07,4.404687165389109e-07,5.763781220734275e-07,-1.5745172062538186e-07,5.037396219651876e-07,8.310959330843022e-07
1.5295742880527024e-06,6.60711593626676e-07,3.8408549693463316e-07,7.173285117847504e-07,1.6338739497864902e-06,8.62855738448408e-07,2.169602193841943e-06,9.59783689316698e-07,6.197596423636007e-07,7.60917251794996e-07,4.4873500094572817e-07,6.574170448734939e-07,6.023635094839402e-07,4.658683015720605e-07,6.324083972407288e-07,-2.7784889190552694e-07,4.714442444724186e-07,7.861793596545692e-07
1.541029004319838e-06,6.24123492015637e-07,4.1226320316692064e-07,7.855983780289254e-07,1.6286867308108239e-06,8.669884222969205e-07,2.085769131830798e-06,9.011642426820455e-07,5.761696341599764e-07,6.966759321972796e-07,4.2826954114867174e-07,6.092023664734848e-07,6.091668949649871e-07,4.945359555359999e-07,6.592877953573487e-07,-3.7428509618493646e-07,4.2808803427805887e-07,7.56360808393098e-07
1.5249367392314632e-06,5.661030343995924e-07,4.34917006345457e-07,8.432350997474991e-07,1.5442427975846648e-06,8.760986337607499e-07,1.99011410664555e-06,8.628391353294448e-07,5.180143645552032e-07,6.187135209871368e-07,3.917508739884402e-07,5.632156702436019e-07,5.993918903485123e-07,5.255126284606247e-07,6.561722119648583e-07,-3.9700089537492705e-07,3.700765751611964e-07,8.051654204627435e-07
1.4768558317846718e-06,4.95779396306033e-07,4.530319906825428e-07,8.669649913341925e-07,1.389246590350493e-06,8.945527741776252e-07,1.8943904343725804e-06,8.339677385562295e-07,4.465775933371442e-07,5.311748409590687e-07,3.4060029700988047e-07,5.227369592835682e-07,5.734725215188097e-07,5.549169813118058e-07,6.281756556433347e-07,-3.1834349370349913e-07,3.1979109718264983e-07,8.977077449291012e-07
1.3974233744689223e-06,4.22118337377249e-07,4.6690691820733517e-07,8.382462627442431e-07,1.1896410907673746e-06,9.195919050049831e-07,1.808670142346879e-06,8.032651907992831e-07,3.632196246287789e-07,4.3962364980925254e-07,2.7836371776384753e-07,4.886116173672237e-07,5.351021076418613e-07,5.777154090595288e-07,5.817659230329242e-07,-1.6595512522852608e-07,2.597761198220478e-07,9.188953366156657e-07
1.2934717900598807e-06,3.5262563200994214e-07,4.789479930855534e-07,7.545234378510544e-07,9.745143879998755e-07,9.438606663690957e-07,1.741241740322306e-06,7.640683616431303e-07,2.7120533801008915e-07,3.52094665435913e-07,2.1149188734361314e-07,4.60361247115591e-07,4.914336004697524e-07,5.911833238057797e-07,5.229880764457399e-07,1.989511026103841e-08,1.5563011106727327e-07,8.496265866144881e-07
1.1779024811089888e-06,2.9352057373506627e-07,4.938834351249667e-07,6.338067035740662e-07,7.703715704049589e-07,9.58005487511678e-07,1.6985269707168356e-06,7.187331215786462e-07,1.8147184299154323e-07,2.796353074154448e-07,1.488948494621492e-07,4.376388801341376e-07,4.521451367379765e-07,5.975795430163699e-07,4.562658713536721e-07,2.0046651152920654e-07,3.4163264774928915e-08,7.921461005517428e-07
1.067150344207945e-06,2.501143443585316e-07,5.1424102617024e-07,5.050028277075986e-07,6.023121572997123e-07,9.583697885795064e-07,1.6832552069546264e-06,6.783949388429733e-07,1.0391338809120244e-07,2.3186495172589072e-07,9.957996326446816e-08,4.2065645670040214e-07,4.269095722841776e-07,6.041635746123154e-07,3.8459602018012415e-07,3.4219819544135896e-07,-1.0286896020299341e-07,7.394291550657044e-07
9.765097684893116e-07,2.2784420891510832e-07,5.458220229309437e-07,4.0480608853100123e-07,4.952024741220875e-07,9.42912013218055e-07,1.6919148630102267e-06,6.546511028165912e-07,4.5799788197515085e-08,2.1328576933816277e-07,6.919544685946833e-08,4.0841611176959643e-07,4.2200516815686404e-07,6.181392197327937e-07,3.1262166242437197e-07,4.839313787058946e-07,-2.3490743637748896e-07,7.344949597791491e-07
9.146941559210837e-07,2.2661502783255653e-07,5.896986451352949e-07,3.744917678067203e-07,4.670748122585134e-07,9.174910740623047e-07,1.7142209988998236e-06,6.570861299697414e-07,9.323405035323891e-09,2.2109614560884867e-07,5.7420321095932464e-08,3.992857128214637e-07,4.356829193717012e-07,6.442694353286443e-07,2.4683864117325265e-07,5.998829308034426e-07,-3.2229228599665183e-07,7.377369638424411e-07
8.812550018130287e-07,2.403734046704618e-07,6.404353441827252e-07,3.514989482118773e-07,5.212391532686653e-07,8.912551419539641e-07,1.7359743330784212e-06,6.895608982264527e-07,-1.015628740859171e-08,2.452694891172489e-07,5.804744160184429e-08,3.8977699986731823e-07,4.600258660802057e-07,6.810758161295035e-07,1.9565200453848674e-07,6.96431328546636e-07,-3.7772240898901475e-07,7.247393884805861e-07
8.683096582746851e-07,2.6240416224190586e-07,6.897220827415933e-07,3.983431839104641e-07,6.466743679667212e-07,8.708464448176802e-07,1.7446678673820335e-06,7.515365907736823e-07,-2.0566125223200994e-08,2.7206679846241896e-07,6.205513733042999e-08,3.764733085791392e-07,4.832355091170784e-07,7.216820791662893e-07,1.6852587891850423e-07,7.191620890053061e-07,-4.0962804083166426e-07,6.938293302118179e-07
8.659104901494094e-07,2.847428717555744e-07,7.29018636029704e-07,4.5562775741941464e-07,8.128658910063959e-07,8.616312258110173e-07,1.7348582649784157e-06,8.403649603934144e-07,-2.8086205403583836e-08,2.911223242429042e-07,6.181290847682257e-08,3.585155909155519e-07,4.946988876251824e-07,7.586333579887269e-07,1.7197420140389455e-07,6.460340107816621e-07,-4.244213305731533e-07,6.225934754546237e-07
8.670742206517724e-07,3.0353477212551675e-07,7.542567941253732e-07,5.181206186619755e-07,9.798245777035407e-07,8.651273745297568e-07,1.7098306404680703e-06,9.499547028213682e-07,-3.5272626911498104e-08,2.9822788724737894e-07,5.364697699608795e-08,3.3677729577005005e-07,4.899863858077645e-07,7.865253942198476e-07,2.0601491243372895e-07,5.183920350965092e-07,-4.3933418350259895e-07,5.277988829279197e-07
8.689198713119157e-07,3.1548213855769426e-07,7.670142240297199e-07,5.755656622850122e-07,1.1172805339028443e-06,8.805877635212567e-07,1.6785316837897739e-06,1.0702999769627979e-06,-4.302055775985489e-08,2.943453597271243e-07,3.7335774623783397e-08,3.1218640762800773e-07,4.706274746653922e-07,8.031229730394206e-07,2.6295250045701337e-07,3.5369913590611157e-07,-4.5702413907512905e-07,4.363721654735533e-07
8.706412363627976e-07,3.2077441586341367e-07,7.754854240426682e-07,6.206267016163272e-07,1.2094724379352109e-06,9.044330378246057e-07,1.64975268378246e-06,1.185586285457875e-06,-5.1092598752776964e-08,2.8237073288883367e-07,1.3660594608596222e-08,2.8405625995653827e-07,4.4155429093923146e-07,8.084320601838865e-07,3.288173106333848e-07,1.772282896388721e-07,-4.774462172509496e-07,3.654208375129921e-07
8.707593637209306e-07,3.209723213299062e-07,7.77313423451855e-07,6.495075657222303e-07,1.2479199230651992e-06,9.319068290593802e-07,1.6275670530533124e-06,1.2791625761497266e-06,-6.046120571089723e-08,2.639329801079026e-07,-1.7380955049840713e-08,2.5067048085041134e-07,4.0746546555801376e-07,8.04050542031201e-07,3.868889403455658e-07,-4.3598411525984484e-08,-5.044946744220231e-07,3.3121005296451657e-07
8.672612253201617e-07,3.120532789663007e-07,7.770792280454673e-07,6.593579742032092e-07,1.22758638703392e-06,9.570618280893412e-07,1.6105890746860817e-06,1.3389915185570643e-06,-7.338557227398771e-08,2.4063521552245143e-07,-5.609574922505661e-08,2.1149977949055283e-07,3.7089024710640947e-07,7.924068889910774e-07,4.200192013237043e-07,-3.2282758854621594e-07,-5.416719701391903e-07,3.2629932371752477e-07
8.599277684435202e-07,2.913350349584373e-07,7.768500483448304e-07,6.535024885698801e-07,1.148778693849049e-06,9.773074438408574e-07,1.5947056437841916e-06,1.3605756558031423e-06,-9.108701477184233e-08,2.157012395280041e-07,-1.011933615696369e-07,1.678547150084345e-07,3.324209901963904e-07,7.776415188216868e-07,4.144942357929238e-07,-6.464745400315165e-07,-5.956961979793955e-07,3.547743150983401e-07
8.521857839824327e-07,2.565584244823768e-07,7.776895898421724e-07,6.374457390712656e-07,1.0296188910294533e-06,9.941124706424682e-07,1.576502713494838e-06,1.3450451549535485e-06,-1.1421514789007879e-07,1.9354763003301146e-07,-1.486657601580594e-07,1.233243688072236e-07,2.905299574015715e-07,7.618734697155042e-07,3.625169511304578e-07,-9.231320529363423e-07,-6.622671986552567e-07,4.1153708020487894e-07
8.500478951138513e-07,2.1229750509884352e-07,7.844488842766342e-07,6.150658516605225e-07,9.055557758582454e-07,1.0095001481786023e-06,1.5548168869690785e-06,1.2951774759624836e-06,-1.415384813852581e-07,1.791703498749395e-07,-1.9280306026732732e-07,8.164567223975943e-08,2.4422972876344067e-07,7.451429011477674e-07,2.623672877647048e-07,-1.0634648199156672e-06,-7.277514984997716e-07,4.769237257890336e-07
8.582385708426507e-07,1.6614063012836243e-07,7.985442003674435e-07,5.837842644248145e-07,8.160657887191071e-07,1.0239001440481684e-06,1.5301555813722696e-06,1.2151220880464505e-06,-1.7092965127411348e-07,1.752262235973929e-07,-2.287442077484023e-07,4.434716612961883e-08,1.9330018876238276e-07,7.249923985400999e-07,1.1998188293003078e-07,-1.0061922633340941e-06,-7.91455245039057e-07,5.35156281058535e-07
8.767252851076942e-07,1.2478474864597438e-07,8.180678979921179e-07,5.377810827471904e-07,7.85578905636231e-07,1.0363228449748028e-06,1.503541109087083e-06,1.1118025345605319e-06,-2.0190374573516706e-07,1.8027815544274733e-07,-2.545741310422789e-07,1.084417228054159e-08,1.3958104631479156e-07,6.974712941234972e-07,-4.9628385857273754e-08,-7.47608106160545e-07,-8.520749505503267e-07,5.674414532346821e-07
9.005923387654176e-07,9.257093528636584e-08,8.375358826070745e-07,4.789812108111613e-07,8.091041229615299e-07,1.0463869114952874e-06,1.4764791940505313e-06,9.971916751319639e-07,-2.3374368468274222e-07,1.9069607473488193e-07,-2.7128595622217847e-07,-1.9847719190424898e-08,8.598481987053945e-08,6.612452903170899e-07,-2.2302593091388313e-07,-3.7013240953601616e-07,-9.072689762734414e-07,5.60297995279501e-07
9.236608081396887e-07,7.013829053338714e-08,8.531770916817261e-07,4.2042940762576156e-07,8.532003399042394e-07,1.0608768402215221e-06,1.4519022278035905e-06,8.854438690904247e-07,-2.6483491191890226e-07,2.0403681700799513e-07,-2.8083796132081e-07,-4.654671728292398e-08,3.801348353864038e-08,6.196729166056835e-07,-3.7321960429254993e-07,-3.054843332901359e-08,-9.559423643304766e-07,5.129343006668488e-07
9.427199369453303e-07,5.9388591025438545e-08,8.657817731180131e-07,3.837445274908942e-07,8.687629909963774e-07,1.0850437043435882e-06,1.4343146095266081e-06,7.92893114381392e-07,-2.9191974222400644e-07,2.2080655694861512e-07,-2.842655193028528e-07,-6.600231863016857e-08,3.965476440056991e-09,5.789917175915227e-07,-4.77072213310539e-07,1.507671749014062e-07,-9.928656769311745e-07,4.35559153101642e-07
9.588460749438762e-07,6.192807651623872e-08,8.732701020733465e-07,3.8552870144922497e-07,8.113885391132163e-07,1.1214414548571959e-06,1.4279842697631171e-06,7.331719987165953e-07,-3.105388351849947e-07,2.433438671369147e-07,-2.8162329825754323e-07,-7.438366016227424e-08,-1.0078030824428069e-08,5.446091143384538e-07,-5.244169467317292e-07,-1.25616475408561e-08,-1.013721710702645e-06,3.4213989745002804e-07
9.75138260923808e-07,7.644841636138819e-08,8.809888634518601e-07,4.2743323881926107e-07,6.589234438287275e-07,1.1638384415994598e-06,1.4339533904067425e-06,7.157584898033713e-07,-3.1752808550591483e-07,2.726576786348328e-07,-2.736887068008423e-07,-7.072875190566214e-08,-2.9536244505417485e-09,5.18381420244614e-07,-5.225553354942302e-07,-6.740399088080437e-08,-1.0221404123810246e-06,2.515003600229949e-07
9.930778370134306e-07,9.672750351164246e-08,8.899592492579301e-07,4.952087846600097e-07,4.282617881854693e-07,1.197525785955514e-06,1.4480917885199385e-06,7.460888177910157e-07,-3.1320584290399807e-07,3.0594202570933153e-07,-2.6345860605637097e-07,-5.7887203367602256e-08,1.9741545148085536e-08,4.974017285685635e-07,-4.920083093010069e-07,6.348414774805582e-08,-1.0276938326377044e-06,1.8386611471574403e-07
1.0112206963991012e-06,1.1197313145556952e-07,8.979236692607292e-07,5.651768472200298e-07,1.6870022177653056e-07,1.211184355679453e-06,1.4621231519113013e-06,8.222328702294559e-07,-3.010034075356744e-07,3.374853510347409e-07,-2.553442835073897e-07,-4.1760614655111536e-08,4.7901104985833067e-08,4.777663354307029e-07,-4.568869915660118e-07,-2.413627563472491e-07,-1.0367852901945956e-06,1.5400183312747982e-07
1.0275651526083678e-06,1.125791877542536e-07,9.038032027583069e-07,6.158708104366426e-07,-5.274013425376545e-08,1.1967241787742463e-06,1.467570490600701e-06,9.346340437107633e-07,-2.848288323621049e-07,3.627585427702243e-07,-2.52261588067393e-07,-2.7247760481944472e-08,7.178199048500947e-08,4.5754377754433243e-07,-4.360500113479412e-07,-6.630135753609697e-07,-1.0528202563654563e-06,1.7055046873218143e-07
1.0428901593270818e-06,9.407114885549362e-08,9.066335412061149e-07,6.373246508915929e-07,-1.7830811859031538e-07,1.1580923564353658e-06,1.4602525699991724e-06,1.0656861127278387e-06,-2.6726280518207586e-07,3.8114569879157517e-07,-2.533020685028894e-07,-1.577013507804534e-08,8.62986453263224e-08,4.3732040703075317e-07,-4.347865421052764e-07,-8.862012925526978e-07,-1.0732189691885168e-06,2.3472179910600156e-07
1.0614683308095594e-06,6.04597770013788e-08,9.108753950676815e-07,6.347745215357571e-07,-1.7704652602339104e-07,1.1063437180749983e-06,1.4421026731830497e-06,1.191772864498127e-06,-2.490934822334756e-07,3.9503274759464563e-07,-2.5444466871404537e-07,-6.500662942674539e-09,9.137074320841187e-08,4.1907319522257813e-07,-4.452093495092255e-07,-1.0609061095287024e-06,-1.0928435333973866e-06,3.3728860109287757e-07
1.0878575463459674e-06,2.3266112020515245e-08,9.182561468684083e-07,6.247588353518199e-07,-4.1279259551723084e-08,1.0534808689203538e-06,1.4194195266794018e-06,1.2880213102956003e-06,-2.310951136195253e-07,4.0706699649663195e-07,-2.520671101105438e-07,1.0415102232659996e-09,8.970018329899565e-08,4.027672596114023e-07,-4.576680924325635e-07,-1.0985126718146918e-06,-1.1090670938489858e-06,4.5819909206026343e-07
1.1223565007793747e-06,-6.787468858099853e-09,9.28089056523243e-07,6.265410495659317e-07,2.0681908849157284e-07,1.0137656942777766e-06,1.3970170879345846e-06,1.337878734957385e-06,-2.1521504882455727e-07,4.1624003698913755e-07,-2.464816297761298e-07,3.0760167198375952e-09,8.309237731618991e-08,3.8704211817416084e-07,-4.672266350021375e-07,-1.040385397737754e-06,-1.1185313567069076e-06,5.681128841354451e-07
1.1589045447640637e-06,-2.4688929720234362e-08,9.349954257297046e-07,6.441051662341709e-07,5.370611169461181e-07,9.93607946434253e-07,1.3754575165928437e-06,1.339035464428462e-06,-2.077742677122182e-07,4.165662908776051e-07,-2.424543612521094e-07,-4.99729383928374e-09,6.920421924135369e-08,3.6929971222970805e-07,-4.789796918887408e-07,-9.658476874003002e-07,-1.1269709482174203e-06,6.384846726297281e-07
1.1876051349103288e-06,-3.301820262933511e-08,9.358834322083139e-07,6.715400907946349e-07,9.028414442582932e-07,9.937841498099203e-07,1.3513793124047647e-06,1.30821438120872e-06,-2.130600837762576e-07,4.0226380358960347e-07,-2.460134719993913e-07,-2.61374667481594e-08,4.7734135622427824e-08,3.467435016078475e-07,-5.008659340033917e-07,-8.587733587820048e-07,-1.142691171224696e-06,6.502524772322692e-07
1.2004184360953856e-06,-3.7174936752779535e-08,9.277450982067826e-07,6.948027143510552e-07,1.2277269767243078e-06,1.0100609546243403e-06,1.3212105314305618e-06,1.2638100144245143e-06,-2.2961364067040267e-07,3.728526119788316e-07,-2.5993662443360206e-07,-5.820447167108211e-08,1.947498824825763e-08,3.197237297067664e-07,-5.380963308171336e-07,-7.827933013939365e-07,-1.1660793746854933e-06,6.070257487435974e-07
1.195696606184889e-06,-4.074779166005495e-08,9.081183115481436e-07,7.020817122598379e-07,1.4303650542314657e-06,1.0348311101456647e-06,1.289357960859388e-06,1.2179416088241529e-06,-2.5383364099656715e-07,3.3460458755377813e-07,-2.813662003575905e-07,-9.300468755956965e-08,-1.2486784286580874e-08,2.9126148876035943e-07,-5.830796739251349e-07,-7.497163310946742e-07,-1.1945642524968698e-06,5.323705528143297e-07
1.1782243106793504e-06,-4.4194797688158377e-08,8.92618176354826e-07,6.873261926725892e-07,1.4522614448138447e-06,1.056938884453242e-06,1.2585534091524003e-06,1.16739455728263e-06,-2.780024832614275e-07,2.9776671214207335e-07,-3.0332804180159936e-07,-1.2092739568696208e-07,-4.216973705458958e-08,2.619270613627498e-07,-6.115344424253571e-07,-7.47726154219435e-07,-1.221612218872853e-06,4.4891664944236507e-07
1.1548811742431112e-06,-4.674034996992785e-08,8.83880556342214e-07,6.5745270723397e-07,1.264453705722348e-06,1.0815412619095643e-06,1.2367861817864696e-06,1.1003279032283313e-06,-2.9320613993324024e-07,2.70130248253197e-07,-3.191680352431958e-07,-1.2890634470836072e-07,-6.789057725714821e-08,2.408126540560382e-07,-6.134288862451917e-07,-7.49537319312679e-07,-1.240816325022326e-06,3.778619128982888e-07
1.1283359088926079e-06,-4.898653728821567e-08,8.751067775914235e-07,6.240017462733628e-07,9.1572949770867e-07,1.1009678875490116e-06,1.2303199786980345e-06,1.009399160858299e-06,-2.943493130582958e-07,2.516705081551121e-07,-3.2687439489389787e-07,-1.208055610365782e-07,-8.134271180239859e-08,2.2246967207617948e-07,-5.875396419233496e-07,-7.060511019803173e-07,-1.2496424663055677e-06,3.342180676610564e-07
1.0966109113585574e-06,-5.395574173839086e-08,8.705357922558733e-07,5.934780920230511e-07,4.957709967949284e-07,1.0974908047479788e-06,1.2391006288722098e-06,8.972108964238671e-07,-2.817154159649877e-07,2.3503909736618833e-07,-3.3020643603331643e-07,-1.052346488049422e-07,-8.868335577967438e-08,1.9675690655297675e-07,-5.4438960379836e-07,-5.821859413269912e-07,-1.2511706744356406e-06,3.1962753560168055e-07
1.0538202570949974e-06,-6.671464063218414e-08,8.586875533286548e-07,5.69316935383508e-07,1.6302104313473405e-07,1.0697401576611007e-06,1.2633485833298376e-06,7.859649135024667e-07,-2.5750673963138737e-07,2.0654698556582463e-07,-3.3599060312095646e-07,-8.987744208563133e-08,-9.877202527936666e-08,1.569579476780052e-07,-5.109409356636274e-07,-3.8348748412184154e-07,-1.2500812696296869e-06,3.224388178329956e-07
9.94194169185577e-07,-9.054049309553876e-08,8.276673910571889e-07,5.484385863256661e-07,7.66813518710404e-08,1.019493205528585e-06,1.292932024073248e-06,7.044668191795007e-07,-2.249647342432461e-07,1.580364758043371e-07,-3.50064591483475e-07,-8.603759204833592e-08,-1.1632676226524588e-07,9.76733670483277e-08,-5.091968758318445e-07,-1.629170948251387e-07,-1.2509012334641998e-06,3.358015581628537e-07
9.158488304724573e-07,-1.2717129300900372e-07,7.69567005668101e-07,5.255624075278353e-07,7.219931462829402e-08,9.567824095216632e-07,1.3221486158554553e-06,6.688276784313078e-07,-1.8783854984484755e-07,8.867920696095809e-08,-3.750873585472252e-07,-9.802001197943349e-08,-1.4903099602074677e-07,1.9866185029185007e-08,-5.533697325894697e-07,1.5916934277104918e-08,-1.2592502155986527e-06,3.4782782865999115e-07
8.203416764332455e-07,-1.7802560716439608e-07,6.613592870345772e-07,4.950220699236484e-07,6.233299268967593e-08,8.907598348413136e-07,1.313643629774386e-06,6.734245237260883e-07,-1.496797535904697e-07,-1.191544454405107e-09,-4.112484609953656e-07,-1.2674534116108797e-07,-1.9987504207095497e-07,-7.154833364495199e-08,-6.341758482732163e-07,8.028786826329033e-08,-1.27966699192413e-06,3.438291562924321e-07
7.122166775450057e-07,-2.47937276554508e-07,5.068300591337813e-07,4.4999517913242515e-07,1.22832992603063e-07,8.180761380064592e-07,1.248843241582371e-06,6.892533366746475e-07,-1.1660057728543279e-07,-1.0894687741662804e-07,-4.5823423858097716e-07,-1.729175525336531e-07,-2.6968129473072315e-07,-1.7080699209229536e-07,-7.444129454467649e-07,-8.35417574512911e-09,-1.3160265278052145e-06,3.223021652221163e-07
5.960168690135114e-07,-3.449666419046078e-07,3.495675014141005e-07,3.808801735760293e-07,2.8674989084686896e-07,7.22375716569174e-07,1.1063232387626713e-06,6.849642055475028e-07,-9.617361195800521e-08,-2.3379057893707955e-07,-5.159721622915687e-07,-2.374886338900797e-07,-3.568612476348701e-07,-2.75339537489152e-07,-8.801028674614125e-07,-2.420836950737522e-07,-1.369056405339577e-06,2.85771729844058e-07
4.779038250087218e-07,-4.7404654379960285e-07,2.0614540957196818e-07,2.821213015327888e-07,3.9154856662245965e-07,6.08726308396759e-07,1.0049675887695856e-06,6.420968674487057e-07,-9.534145800053019e-08,-3.7147942471877995e-07,-5.832082434044287e-07,-3.201373384326557e-07,-4.568547457649527e-07,-3.70288520015882e-07,-1.0207362194773675e-06,-5.514072673378528e-07,-1.4332007325598767e-06,2.414103528268135e-07
3.6609618919137176e-07,-6.32003269724481e-07,7.310050877630729e-08,1.5697485216627432e-07,3.896171558469082e-07,5.003363013769145e-07,9.076278544949984e-07,5.590088018776898e-07,-1.1556884740350185e-07,-5.186100172600157e-07,-6.553422207114092e-07,-3.979591577354403e-07,-5.685271765757284e-07,-4.5919130211077347e-07,-1.152342936950887e-06,-8.505450456213817e-07,-1.4993018988399866e-06,1.998535233919176e-07
2.6973156373182193e-07,-8.033748912529641e-07,-4.506106416175214e-08,2.0279429803712678e-08,4.1805714842399627e-07,4.2818564300618196e-07,7.282953674305824e-07,4.444208280534078e-07,-1.499908143555017e-07,-6.388862806161397e-07,-7.237783982632654e-07,-4.664109043329743e-07,-6.602960327185951e-07,-5.325212175958154e-07,-1.2207178656174586e-06,-1.08614223052953e-06,-1.5562532223652581e-06,1.6832242741692288e-07
1.9654784622864735e-07,-9.649802611845197e-07,-1.438957059633038e-07,-1.0944831140497846e-07,4.153267818858851e-07,4.047880086631006e-07,5.202208354362291e-07,3.066149901401133e-07,-1.8727458518152267e-07,-6.911401444078236e-07,-7.779561288866056e-07,-5.148495089949794e-07,-7.243471574183533e-07,-5.776214825719991e-07,-1.2226442669250762e-06,-1.2662178869432874e-06,-1.592687868554143e-06,1.561564326439693e-07
1.4858981479548154e-07,-1.0939806932070987e-06,-2.2101480970405087e-07,-2.175563784962647e-07,4.070340606734008e-07,4.641109633532896e-07,4.032509391187427e-07,1.6828542347293433e-07,-2.1946058405118502e-07,-7.1506186538283e-07,-8.095007852260514e-07,-5.303654681336415e-07,-7.55194976391067e-07,-5.911761842524277e-07,-1.1340987845037365e-06,-1.3796207136041826e-06,-1.60259861697295e-06,1.4601149100364423e-07
1.1995240231228447e-07,-1.1769101149745954e-06,-2.426097027546139e-07,-2.979335254131932e-07,4.0869413883397743e-07,5.62062408814987e-07,3.652045990542098e-07,2.954579944019183e-08,-2.4093052831734416e-07,-7.413166955812515e-07,-8.162340291261033e-07,-5.174902487327569e-07,-7.479179356667184e-07,-5.661665316108729e-07,-9.93968967559214e-07,-1.3457431064560798e-06,-1.588439550592198e-06,1.3586180543014544e-07
9.786208481446328e-08,-1.2139020270719533e-06,-2.2507537316277612e-07,-3.502000352256346e-07,3.6745799157078183e-07,5.915903528962967e-07,3.36848184547394e-07,-1.088695841477979e-07,-2.4060535237992594e-07,-7.654232593047053e-07,-8.031270194687178e-07,-4.796534831373757e-07,-7.100835479380942e-07,-5.037192817965354e-07,-1.0044868702416999e-06,-1.134518599516717e-06,-1.556407068630283e-06,1.32277838415888e-07
6.841771221475172e-08,-1.215085762698842e-06,-1.9656756994942162e-07,-3.756541791427027e-07,2.8853252318174166e-07,6.049538768045192e-07,3.073944774334285e-07,-2.3408386059414656e-07,-2.260185466366795e-07,-7.760058631012949e-07,-7.792406525187634e-07,-4.361784052724835e-07,-6.401831280646852e-07,-4.3297215082115197e-07,-1.1044989526667161e-06,-7.125031304000038e-07,-1.5134441495877792e-06,1.3807313370218436e-07
2.3178369912014972e-08,-1.194428571627816e-06,-1.821124188704151e-07,-3.750405033711445e-07,1.8154375127409298e-07,6.85552303421381e-07,2.6707331204184996e-07,-3.448813784366907e-07,-2.1007934205372532e-07,-7.414567721585633e-07,-7.529792201558886e-07,-3.836624115455299e-07,-5.620556914565356e-07,-3.8007621944615385e-07,-1.1602552404695677e-06,-1.758128945264475e-07,-1.4648592606767418e-06,1.5065805599742543e-07
-3.6654387719423284e-08,-1.1634034725903064e-06,-1.6916296362429353e-07,-3.5116605292726244e-07,7.809632976186001e-08,7.625203182632406e-07,2.730716599628109e-07,-4.1000234883891174e-07,-1.894065049671083e-07,-7.226474891395896e-07,-7.291171780803964e-07,-3.4403855400894625e-07,-4.7364495285600283e-07,-3.428340259193539e-07,-1.1807181503118286e-06,2.576474044878371e-07,-1.4114443141108194e-06,1.5878859755452635e-07
-1.0323802283229446e-07,-1.1287729570555634e-06,-1.6938834238143633e-07,-3.1582188268144444e-07,2.4997061104125342e-08,7.995503223633491e-07,3.06564985709756e-07,-4.072486784221622e-07,-1.6167315677554337e-07,-6.870708079605605e-07,-7.090896819707541e-07,-2.995342197828827e-07,-4.0929547460410976e-07,-3.0270661539189006e-07,-1.1403579463533447e-06,5.285621095821477e-07,-1.3526284387119287e-06,1.6762668067175287e-07
-1.6369777682465264e-07,-1.0936329868122858e-06,-1.8455487289032937e-07,-2.891123092526045e-07,4.386407248249662e-08,8.075074396807891e-07,3.993695579985377e-07,-3.389292699463326e-07,-1.2090752528810948e-07,-6.351591218086103e-07,-6.93101985373325e-07,-2.4664680095364897e-07,-3.6910403458019513e-07,-2.63821156924854e-07,-1.074307738404607e-06,4.0778017577253107e-07,-1.2897104176227497e-06,9.280691900042973e-08
-2.0592108665411733e-07,-1.059335184249308e-06,-2.0339250034625853e-07,-2.9215084480590163e-07,1.1784546696878375e-07,7.604708966382538e-07,4.967541983470221e-07,-2.498105761653402e-07,-5.6682562754310585e-08,-6.002090276820637e-07,-6.813017682215491e-07,-2.0602511020416125e-07,-3.3550699537979896e-07,-2.101135973972657e-07,-1.023272194328454e-06,2.0919517102103696e-07,-1.2249762889850842e-06,1.4316694417782918e-10
-2.289492372838133e-07,-1.0271302008062904e-06,-2.298690399861402e-07,-3.371431389661387e-07,1.9918141785847628e-07,6.894332847023446e-07,5.809711032447427e-07,-1.548826906214634e-07,2.928248582596247e-08,-5.71236181610011e-07,-6.727791039369767e-07,-1.6091766955961064e-07,-3.0878654981811956e-07,-1.376489935946082e-07,-9.887220115459245e-07,-8.117773186506773e-10,-1.1582384684105357e-06,-7.557532132672428e-08
-2.1893511752712882e-07,-9.973795007310675e-07,-2.573321280169945e-07,-4.208463939383323e-07,2.379318803764205e-07,6.277744393685973e-07,6.566627158661524e-07,-6.071860813277671e-08,1.1224174807792544e-07,-5.460029143544691e-07,-6.639641899708377e-07,-1.4352441648537252e-07,-2.743242238531915e-07,-9.540781353297866e-08,-9.88173165600599e-07,-3.2984732289036046e-07,-1.0904619227253242e-06,-8.731830539890917e-08
-1.6172634657940229e-07,-9.686182072227964e-07,-2.7996354431339204e-07,-5.244703839791708e-07,2.1273543552117884e-07,5.940119509374841e-07,6.966882308208501e-07,2.5567804879288225e-08,1.9010545139799163e-07,-5.154747661446819e-07,-6.489315411368594e-07,-1.3726317582288894e-07,-2.2481290935205493e-07,-1.0581393876247038e-07,-9.960500996478311e-07,-8.605019528813149e-07,-1.0185336991093977e-06,-3.492973626741111e-08
-8.134298344103802e-08,-9.382253537401966e-07,-2.9178930492115485e-07,-6.217735059144648e-07,1.4631007918962274e-07,6.063801238385302e-07,7.173613167330643e-07,1.3654494034882342e-07,2.7996433354136975e-07,-4.6157190292658023e-07,-6.222432703203792e-07,-1.0163328346345429e-07,-1.7243895099810427e-07,-1.1008356562436272e-07,-1.0073636431009073e-06,-1.1941680520996345e-06,-9.414442005650165e-07,-7.053671678449602e-08
2.810786753233315e-09,-9.042247748786883e-07,-2.8675175881968926e-07,-6.902421840698698e-07,9.778642699241285e-08,6.664217272444239e-07,7.421944836759062e-07,2.4444643798808017e-07,3.6921049912673356e-07,-3.8272944341534264e-07,-5.824087170082894e-07,-5.3769751648973544e-08,-1.0159503378711323e-07,-3.6960354586478706e-08,-1.0183160204176596e-06,-1.4007545771387623e-06,-8.660845456620268e-07,-1.512823650924904e-07
8.802363309952713e-08,-8.679639969231086e-07,-2.68507753869572e-07,-7.170862097416859e-07,1.1506359298851745e-07,7.562083015855604e-07,7.763448229867714e-07,3.182429981584075e-07,4.5170328029028665e-07,-2.854119275526118e-07,-5.332576341632611e-07,3.7414657714414475e-08,2.0666208878881513e-09,6.002707297807053e-08,-9.908467176527844e-07,-1.539635472866153e-06,-7.847596770976471e-07,-2.1768945857518554e-07
1.5738815950281472e-07,-8.338042041708319e-07,-2.441089863667894e-07,-7.025114138258845e-07,2.222844831775934e-07,8.277077486957894e-07,8.276115418410807e-07,3.4680336791690225e-07,5.086174256376723e-07,-1.8484129962432565e-07,-4.822469325758863e-07,1.4166584066626846e-07,1.1850555231208843e-07,1.656810431626118e-07,-9.188264023732867e-07,-1.5815282125483887e-06,-7.014943122917164e-07,-2.4721993873987206e-07
1.9697510902175993e-07,-8.064802173466243e-07,-2.2311901642462061e-07,-6.567304174767815e-07,3.959894120303563e-07,8.218833874533607e-07,8.782338228140484e-07,3.4674440581975905e-07,5.278177884565421e-07,-1.2097854521009096e-07,-4.373892380149265e-07,1.9146042413317354e-07,2.0659115776892228e-07,2.690180825428867e-07,-8.25184928885017e-07,-1.5914504695736583e-06,-6.249212562118893e-07,-2.4586478792410115e-07
2.062272311776869e-07,-7.885437012902962e-07,-2.1631511378813576e-07,-5.946600001781545e-07,5.653738893441357e-07,7.77275476743823e-07,9.078260484666021e-07,3.267469204047625e-07,5.235969021588178e-07,-9.420925576810903e-08,-4.053676304452502e-07,2.0927589981645186e-07,2.6564521770989404e-07,3.267828923749378e-07,-7.307865557703952e-07,-1.5507651377253546e-06,-5.715950694409501e-07,-2.4299425541552033e-07
1.88517864785298e-07,-7.810820905979469e-07,-2.3614709623315893e-07,-5.295910352816522e-07,6.466976673992407e-07,7.153090399028054e-07,9.067668173930719e-07,2.9728967336414366e-07,5.114187592256023e-07,-1.281497224955807e-07,-3.915533690771793e-07,1.972898196626692e-07,2.673097970348095e-07,3.19733459577934e-07,-6.954699454383403e-07,-1.3894841863398733e-06,-5.629612903134207e-07,-2.572112495982364e-07
1.4641361440816213e-07,-7.869864040241695e-07,-2.8450087977468193e-07,-4.7339604802935356e-07,5.846631891193718e-07,7.084788348952009e-07,8.711042406776641e-07,2.685862319324243e-07,5.10960033742623e-07,-2.008672571199612e-07,-3.9944144143962055e-07,1.4230981253993196e-07,1.8497869926813384e-07,2.759829346233639e-07,-7.206148436646439e-07,-1.1112979957483287e-06,-6.183915668681116e-07,-2.9857805243104124e-07
8.025260350411776e-08,-8.101818312019627e-07,-3.5746550995812047e-07,-4.34938952340564e-07,3.7979776020819707e-07,6.541817529835743e-07,8.094969852493271e-07,2.186387548784434e-07,4.887584844954092e-07,-2.0990481710760119e-07,-4.333929021098387e-07,1.0014949185598665e-07,2.0909701992943467e-07,2.91513880011417e-07,-7.457745385436681e-07,-8.163453308926233e-07,-6.56522107162459e-07,-3.4294620041618113e-07
-9.265068030021739e-09,-8.527648551827709e-07,-4.48128689959996e-07,-4.1762869825786526e-07,8.757300166867287e-08,5.083260985453498e-07,7.332366600402216e-07,1.6299161403919447e-07,5.10588630362816e-07,-2.0894844085056132e-07,-4.887652468333201e-07,1.2122786376150598e-07,2.77597776075023e-07,3.1562886900685303e-07,-7.839280687655601e-07,-5.130591103752222e-07,-6.292056063021299e-07,-3.523735265826338e-07
-1.1610161221780585e-07,-9.120545801457711e-07,-5.273768502988637e-07,-4.181321275074346e-07,-2.005651409420268e-07,3.627935312386342e-07,6.544269227206792e-07,1.1679318691726466e-07,5.658557952259735e-07,-2.622842651500329e-07,-5.533125363145871e-07,1.3385198943288075e-07,3.1276162490282364e-07,3.3732813167304106e-07,-7.889512391559795e-07,-2.397092434075495e-07,-5.883290867476224e-07,-3.688276002240854e-07
-2.2671414892320472e-07,-9.779966218267045e-07,-5.674505193797214e-07,-4.242570662509875e-07,-3.9711396307782493e-07,2.91223146954672e-07,5.83175325616186e-07,8.790068743700145e-08,6.01148399527607e-07,-3.4996043749998586e-07,-6.170340510726062e-07,1.5093190374271847e-07,3.445524023821448e-07,3.59127439549972e-07,-7.771189953237743e-07,-3.194330790806213e-08,-5.995096752646959e-07,-3.8584754898061325e-07
-3.228509453053483e-07,-1.0360608310114513e-06,-5.558737336954278e-07,-4.210440562375664e-07,-4.4655157547818433e-07,2.3299106428295445e-07,5.288258800974544e-07,8.257473029311609e-08,5.727850442678957e-07,-4.5306557666034235e-07,-6.248363542840201e-07,1.7013771061587545e-07,3.6206681349912406e-07,3.5231401525708944e-07,-7.972272410490641e-07,1.2914242841903077e-07,-6.369487629762657e-07,-4.1517068379124076e-07
-3.877606834306526e-07,-1.071526418574655e-06,-5.424700655750362e-07,-3.9820858770877544e-07,-3.4110162547034207e-07,2.0638829406036586e-07,4.970289469225704e-07,9.486668621219063e-08,4.920958915629423e-07,-5.47874635690744e-07,-5.814806712971762e-07,1.5943683623809187e-07,3.593187591115913e-07,3.2412723989610937e-07,-8.200605468850301e-07,2.4461572359158123e-07,-7.043542042383993e-07,-4.202531834129229e-07
-4.135865274536492e-07,-1.076671612608399e-06,-5.517313288041308e-07,-3.566259304735603e-07,-1.2191317276510806e-07,1.248764055625873e-07,4.865796833773066e-07,1.0694648783907837e-07,4.089143584154541e-07,-6.293257749864827e-07,-5.32474479741627e-07,1.3196191981981756e-07,3.295230617119983e-07,2.735007961016721e-07,-8.662106157858711e-07,2.7528775583907225e-07,-7.694567877366042e-07,-4.753813056215922e-07
