0,1,2,3,4,5,6,7,8,9,10,11,12,13,14,15,16,17
-1.0619451837093498e-08,-5.589901737906979e-08,1.982680183349265e-08,1.5393971309069497e-08,2.8144033809173543e-09,-9.446735729316448e-08,-2.3870096509348146e-07,6.114939591549271e-09,-2.717134892354472e-07,1.70935504457085e-07,3.262124618579435e-08,1.7847421796848512e-07,3.9226492671596246e-08,2.6528045149777993e-08,1.4635031148353297e-07,2.7494932416703267e-07,1.8461520794682926e-07,1.0631646093917625e-07
-1.8920339374631303e-08,-5.659769598546969e-08,2.1573475787297967e-08,3.228529013091656e-09,1.4722954452907654e-08,-8.649395889521005e-08,-3.308768171440106e-07,1.4172320911911594e-08,-2.1482317389615518e-07,1.0738073674468161e-07,2.2066607265319054e-08,1.604235512373766e-07,4.630666159035804e-08,6.424146056510158e-08,8.463481331354918e-08,2.8262730829832756e-07,1.7294419797775458e-07,1.2376430523716016e-07
-3.2634009256556346e-08,-5.818532325947179e-08,1.650815520551813e-08,-1.1413813483342843e-08,2.3809941261551463e-08,-8.712976398254626e-08,-4.5928055424011263e-07,1.1302534785225518e-08,-2.061175959385791e-07,4.4778963622821663e-08,1.6587450735581285e-08,1.4764745920946063e-07,5.6870396454686386e-08,9.577666987819859e-08,5.1041739263161617e-08,2.828880178897191e-07,1.6193577819195417e-07,1.3612093657674244e-07
-4.692100904954549e-08,-5.758553822317148e-08,6.436856154494257e-09,-2.4060846664359536e-08,2.8178586375172873e-08,-9.165938125836177e-08,-5.89423177902486e-07,-3.0496634179908667e-10,-2.1503721769757056e-07,-7.228925667546491e-09,1.6859521944168796e-08,1.3838634682217985e-07,6.984446398580037e-08,1.1727247540839966e-07,4.801520236192118e-08,2.7405207611963034e-07,1.513416558411749e-07,1.4120523315160508e-07
-5.5220174248323375e-08,-5.285027514641136e-08,-5.732890493251122e-09,-3.115558992168288e-08,2.6473334183937965e-08,-9.480175495978752e-08,-6.814071204638862e-07,-1.7607121896963126e-08,-1.9546648871752146e-07,-4.2395848919206225e-08,2.1425629223739227e-08,1.2905668583809411e-07,8.198227127035419e-08,1.256006973629019e-07,6.965696368674075e-08,2.5404536042152577e-07,1.4038162849728647e-07,1.378450584193362e-07
-5.2259356145618065e-08,-4.345014467784203e-08,-1.6596561276160926e-08,-3.0743239768625244e-08,1.8921055769500794e-08,-9.16729511418168e-08,-6.506218368321817e-07,-3.669322088213087e-08,-1.7530915141353863e-07,-5.859102614816998e-08,2.8012075562835136e-08,1.1598122985137777e-07,8.899199622835609e-08,1.1935528116977443e-07,1.0377589569133715e-07,2.2078539138561293e-07,1.2673731151630297e-07,1.254423761845697e-07
-3.8190809311796014e-08,-3.034335125328449e-08,-2.4369531820678462e-08,-2.3178472859167583e-08,6.595526818205388e-09,-7.957101565061648e-08,-5.834889999318404e-07,-5.374092517204859e-08,-1.4379545376282435e-07,-5.780780052858572e-08,3.346961116151167e-08,9.638715394473341e-08,8.696178833525293e-08,9.918453275435552e-08,1.3534922726580763e-07,1.7311815684559277e-07,1.0670895347948062e-07,1.0363331187937343e-07
-1.75663117436212e-08,-1.548013459757048e-08,-2.8288642945076317e-08,-1.1058877099743288e-08,-9.219008192782529e-09,-5.839793573912489e-08,-3.9763603389527186e-07,-6.533859021083118e-08,-1.0819378885110082e-07,-4.4929276807285225e-08,3.484973555079108e-08,6.926478577903112e-08,7.432647406367833e-08,6.820873510992478e-08,1.5052405026262876e-07,1.1187750045960363e-07,7.685357489999874e-08,7.268117647339061e-08
6.588483403928027e-09,-6.855366576124727e-10,-2.8600636700925384e-08,1.9356959137544773e-09,-2.6447425803547075e-08,-2.9907957700870777e-08,-1.789894658615601e-07,-6.834593774039534e-08,-5.8191767988762124e-08,-2.6035024292014968e-08,3.043198268028332e-08,3.5273774749745684e-08,5.123429757179909e-08,3.13094273838087e-08,1.396965448036264e-07,3.984424903769183e-08,3.580938501593513e-08,3.380857678008339e-08
2.8583041418358534e-08,1.3120500976264329e-08,-2.5955037663267798e-08,1.2345047892806403e-08,-4.193374451324575e-08,3.3198127520720427e-09,5.988753661965812e-08,-6.074500196279809e-08,1.4682550515358412e-08,-7.374162151286678e-09,1.9627028231402297e-08,-4.721752923322883e-09,1.939573432975833e-08,-7.316766185476826e-09,9.902764228224401e-08,-3.9608410023914306e-08,-1.5674772736469313e-08,-1.1089553158094248e-08
4.28566023907663e-08,2.5871472514368194e-08,-2.0745758954461992e-08,1.789889822042981e-08,-5.1229248150804305e-08,3.8508320679310986e-08,2.7827864348813246e-07,-4.2377597527064324e-08,1.1663949951194534e-07,5.581985494635876e-09,3.1552938727350585e-09,-5.037827957391311e-08,-1.8461389813693384e-08,-4.502599330098389e-08,3.1106366250951634e-08,-1.234444123549894e-07,-7.399904706215262e-08,-5.957773144622271e-08
4.9211631619723115e-08,3.8105050876046955e-08,-1.2757736974418241e-08,1.8397545451856417e-08,-5.1008519722563685e-08,7.346556490902939e-08,4.808763337367403e-07,-1.425937082636864e-08,1.937645574802749e-07,9.472882480866127e-09,-1.6893024635112502e-08,-1.0087119967755392e-07,-5.880500497470612e-08,-8.112550335195381e-08,-5.524518382158291e-08,-2.0839730110507744e-07,-1.3355499699879954e-07,-1.0844637612439264e-07
4.799203619900479e-08,5.097824878450195e-08,-1.186481894665573e-09,1.5873426850206816e-08,-3.763408886440952e-08,1.0695543554106385e-07,6.551460038518987e-07,2.1863900821575873e-08,2.5336802135478157e-07,3.5732609791935046e-09,-3.748989424057444e-08,-1.5411130394470634e-07,-9.707247936904159e-08,-1.1533522551438311e-07,-1.4697402203027638e-07,-2.902275230038088e-07,-1.8740930078566815e-07,-1.539019192772467e-07
4.0858045052542855e-08,6.52969794671306e-08,1.4348660571899602e-08,1.3461695994710148e-08,-9.78559597562305e-09,1.3806167220160362e-07,7.873834848040406e-07,6.272306931787836e-08,3.052552777868876e-07,-1.0890268159493716e-08,-5.574470591509587e-08,-2.0704961539981583e-07,-1.28802539442138e-07,-1.456086222349129e-07,-2.302836199622339e-07,-3.638942129810701e-07,-2.290372664652185e-07,-1.9216024990916096e-07
3.179858493051381e-08,8.071573106317899e-08,3.293443494386605e-08,1.3964953782652667e-08,2.977262479742323e-08,1.6552956501652528e-07,8.907035493826262e-07,1.0358924663597111e-07,3.402687768910496e-07,-3.145508465003434e-08,-6.980527521758093e-08,-2.560501675700198e-07,-1.5066715001071046e-07,-1.692703899967564e-07,-2.9408632744737975e-07,-4.23373451682153e-07,-2.546672995499992e-07,-2.1998427583105916e-07
2.4443035952347965e-08,9.698903349841267e-08,5.260489422633713e-08,1.9111075368343446e-08,7.596920418335916e-08,1.8826170552189343e-07,9.581494194817288e-07,1.3964672049628743e-07,3.64669443961201e-07,-5.501591645566011e-08,-7.917328240579785e-08,-2.977128863111526e-07,-1.6133201289135058e-07,-1.837948241977753e-07,-3.3258960340402887e-07,-4.6524207347372504e-07,-2.6298500976840944e-07,-2.356573298952608e-07
2.0362081422674996e-08,1.1321042840656053e-07,7.081750033998415e-08,2.9117712945965757e-08,1.217360995461136e-07,2.0581083644254176e-07,1.0028131745855989e-06,1.6660217655177624e-07,3.840416640170082e-07,-7.894865085243016e-08,-8.48543427417927e-08,-3.3072525579999333e-07,-1.6192219708443165e-07,-1.890599548797656e-07,-3.4651174133388187e-07,-4.895041692812949e-07,-2.5819609317396366e-07,-2.40378124202272e-07
2.0310981494818608e-08,1.2751241905422506e-07,8.465243363864682e-08,4.236849997910014e-08,1.5863766718679345e-07,2.1718517660587758e-07,1.0490745527982784e-06,1.8069102133409754e-07,3.996120171221962e-07,-1.0189708859496987e-07,-8.90704385662592e-08,-3.5673721206938137e-07,-1.5605844099167318e-07,-1.8915209934786999e-07,-3.419957482621208e-07,-4.999773374116564e-07,-2.4982017190681805e-07,-2.3831076740028193e-07
2.2973578489065596e-08,1.376034255653379e-07,9.150666957806655e-08,5.5904177558375424e-08,1.7854943483937337e-07,2.2143821961064358e-07,1.1002333041385896e-06,1.797106519476794e-07,4.083513810622818e-07,-1.2336324546281738e-07,-9.414634052392391e-08,-3.7890476651052377e-07,-1.4838307758684912e-07,-1.9050943979427376e-07,-3.276243741440383e-07,-5.033880973373866e-07,-2.485617979314695e-07,-2.3529994444261972e-07
2.5679032572930146e-08,1.413436430332957e-07,9.014301807862472e-08,6.653108234731004e-08,1.7688566479094972e-07,2.1829933545953823e-07,1.1534145597570148e-06,1.6389298377160868e-07,4.178701548848176e-07,-1.4336185308840452e-07,-1.014445852947501e-07,-4.001957738525762e-07,-1.4339506288350487e-07,-1.9904852199835306e-07,-3.1159047515846036e-07,-5.064370788326751e-07,-2.62558215878592e-07,-2.3668884599861302e-07
2.6232807318725814e-08,1.3765174009482757e-07,8.100044661780572e-08,7.15235932432248e-08,1.535384897402528e-07,2.0795848189989825e-07,1.197323095552224e-06,1.3512351870665742e-07,4.2220740062210516e-07,-1.629386857319375e-07,-1.1118807653195378e-07,-4.2295024862730795e-07,-1.4397373210492284e-07,-2.1905752035789726e-07,-3.000741266521955e-07,-5.145424555772928e-07,-2.8965015495643994e-07,-2.4592293734974703e-07
2.3606002826541474e-08,1.2690982919118662e-07,6.591516428127503e-08,6.897488540912274e-08,1.1311589950618884e-07,1.911308761332155e-07,1.2555037306039153e-06,9.621025731164329e-08,4.2870648215796193e-07,-1.8405492724735137e-07,-1.2264794386474796e-07,-4.483086796812941e-07,-1.5160236119655727e-07,-2.525315467971756e-07,-2.963165144751244e-07,-5.310717730670787e-07,-3.289621437474826e-07,-2.636878571480259e-07
1.6350890178861168e-08,1.1095825935404971e-07,4.796933963733251e-08,5.834281858599162e-08,6.434844036402293e-08,1.6936532110467253e-07,1.3204809936760325e-06,5.135882251378973e-08,4.3830498858699636e-07,-2.081896925133568e-07,-1.3432794200255408e-07,-4.752140265354589e-07,-1.6593456543745794e-07,-2.977366554581364e-07,-3.0033880198327814e-07,-5.569178480898463e-07,-3.7448518071222903e-07,-2.8756291240632334e-07
5.055092066736883e-09,9.226272966112934e-08,3.089297816287899e-08,4.062485422368031e-08,1.7333106533771233e-08,1.4501113838179195e-07,1.3656679148431846e-06,5.855835648967693e-09,4.465660917487784e-07,-2.3523410646906595e-07,-1.4468749230866607e-07,-5.00631208505723e-07,-1.8468800018176278e-07,-3.498610297220446e-07,-3.0977812145500675e-07,-5.902219757281636e-07,-4.2240714484484363e-07,-3.131619773773253e-07
-8.85755330910042e-09,7.351082806839432e-08,1.7641879243792577e-08,1.7733736015907663e-08,-2.0086200483636354e-08,1.2028771809497172e-07,1.3915771856963145e-06,-3.567805267518464e-08,4.5527736082889897e-07,-2.6331957207490623e-07,-1.531098086221292e-07,-5.207173616546041e-07,-2.043801256095272e-07,-4.027651037020898e-07,-3.2099939628958353e-07,-6.274482651749321e-07,-4.651171544679965e-07,-3.356569593639444e-07
-2.3277455694877587e-08,5.5940852667423055e-08,9.488182525818794e-09,-8.007497156200978e-09,-4.423213937018423e-08,9.694655263900443e-08,1.3941984099955464e-06,-7.002321616623885e-08,4.62550891836598e-07,-2.887325330197773e-07,-1.5996623707964188e-07,-5.314554912111466e-07,-2.2094331834173744e-07,-4.497761541725204e-07,-3.296305447035964e-07,-6.64017864030322e-07,-4.950593028909506e-07,-3.5081936264054667e-07
-3.546854289729716e-08,4.0170349435976054e-08,6.47631871070715e-09,-3.375812758054529e-08,-5.460040518736018e-08,7.662997339698536e-08,1.3678035239914512e-06,-9.466286416425881e-08,4.663569011548712e-07,-3.0631141270655744e-07,-1.658587760096612e-07,-5.294911725694847e-07,-2.3044776087827108e-07,-4.849393338441111e-07,-3.311374227568736e-07,-6.960239396782179e-07,-5.0864624384806e-07,-3.553304107885935e-07
-4.3143939194534467e-08,2.7359786062747638e-08,8.20606683094299e-09,-5.631049033857099e-08,-5.154954788010853e-08,6.136192117601275e-08,1.3094652654861279e-06,-1.076225244364499e-07,4.662735634605657e-07,-3.112342491320246e-07,-1.7106414591598815e-07,-5.139714152664904e-07,-2.2931561926297962e-07,-5.047216411653933e-07,-3.2199738946274977e-07,-7.193245033414736e-07,-5.033034595547932e-07,-3.481677111034371e-07
-4.459178780214911e-08,1.8418982571965802e-08,1.4162392209989748e-08,-7.280373165155234e-08,-3.625702025626444e-08,5.358409198428521e-08,1.2282345695768014e-06,-1.0783201674262826e-07,4.5985103376837e-07,-3.010831833892656e-07,-1.7528050188198876e-07,-4.874337275500162e-07,-2.176417126033989e-07,-5.090741900062211e-07,-3.0079171356581023e-07,-7.317108763241713e-07,-4.825500793820499e-07,-3.3104388183053807e-07
-3.928326307970009e-08,1.413920302927506e-08,2.394313390876161e-08,-8.127173772448987e-08,-1.019372495348238e-08,5.59035617865024e-08,1.1281263916432296e-06,-9.491323061103822e-08,4.481321781932832e-07,-2.7667263750092045e-07,-1.774074810550318e-07,-4.5449485451254903e-07,-1.9704977283865235e-07,-4.99337840647509e-07,-2.686470555738285e-07,-7.329260287520151e-07,-4.4979291716620676e-07,-3.06564926203929e-07
-2.750986306514838e-08,1.5158279238609382e-08,3.724641922122992e-08,-8.091251369353966e-08,2.4930138005747883e-08,7.049072810179974e-08,1.0285029277293975e-06,-6.938651306585042e-08,4.3739862487504933e-07,-2.4189817841822487e-07,-1.758394948434448e-07,-4.2007646954221283e-07,-1.6941812938323437e-07,-4.804330651125132e-07,-2.2887347070108425e-07,-7.242842088275555e-07,-4.0811990602951863e-07,-2.7914974581522234e-07
-9.624379829038386e-09,2.0865683092716926e-08,5.3307071365035607e-08,-7.238113627127163e-08,6.592702578229499e-08,9.786514671135053e-08,9.659441373263053e-07,-3.374447263003444e-08,4.325367101661517e-07,-2.0291916096162874e-07,-1.693331496842028e-07,-3.882434973336049e-07,-1.3954569087811383e-07,-4.542082510247273e-07,-1.8683427652161357e-07,-7.074611074242038e-07,-3.623137511299262e-07,-2.537728954322521e-07
1.3146799456073857e-08,3.121829994952558e-08,7.062675776351889e-08,-5.765905123597033e-08,1.081799003976751e-07,1.3632952700338896e-07,9.460220528632179e-07,7.684494580836376e-09,4.390680441733079e-07,-1.662099009651988e-07,-1.5752333599748312e-07,-3.610369680131014e-07,-1.0971409016413605e-07,-4.241782709782493e-07,-1.4855557167250014e-07,-6.842830159594922e-07,-3.1899492070092075e-07,-2.3270988734128364e-07
3.951847180094494e-08,4.634113564372449e-08,8.758912665953102e-08,-3.929955527671025e-08,1.472653635945033e-07,1.832378061161381e-07,9.732904457698196e-07,5.0505378430624995e-08,4.5930142349453104e-07,-1.3634454605378166e-07,-1.408174975291509e-07,-3.3810389622245593e-07,-8.04803645202414e-08,-3.918952683865273e-07,-1.1623674189938427e-07,-6.554374750971769e-07,-2.8125695559358765e-07,-2.1682120611342432e-07
6.866299450536896e-08,6.577349465133346e-08,1.0312313695789061e-07,-1.9874477899603087e-08,1.8039176451470924e-07,2.36208919706738e-07,1.05165768008832e-06,9.143678710671887e-08,4.934793986514137e-07,-1.151472884205894e-07,-1.2028540812843332e-07,-3.1811846753402875e-07,-5.372587247634777e-08,-3.581402397841395e-07,-9.081937896206959e-08,-6.263179450174478e-07,-2.5071761638596416e-07,-2.0596504725136567e-07
9.948442698980348e-08,8.911575706942966e-08,1.1697653512583541e-07,-1.8338218307934737e-09,2.0635671899230744e-07,2.9367782257238e-07,1.1936848201015585e-06,1.2838008264705267e-07,5.297383296550777e-07,-1.0197446343978514e-07,-9.748642456744824e-08,-3.000884117635995e-07,-3.1119796612365385e-08,-3.2676789044896264e-07,-7.105095040226918e-08,-6.014174193587972e-07,-2.2851597727524698e-07,-1.995247992988512e-07
1.3056132133217244e-07,1.1537738099484633e-07,1.3016669884680024e-07,1.3037301092159348e-08,2.2581536280764348e-07,3.5535690533151363e-07,1.338325966228499e-06,1.614443979691163e-07,5.705487874792588e-07,-9.412087016990333e-08,-7.38347086373664e-08,-2.8263647032785273e-07,-1.5449400875434415e-08,-3.009871493489688e-07,-5.303134942032132e-08,-5.849130254843765e-07,-2.2450608270341136e-07,-1.9645429769815776e-07
1.601671077838794e-07,1.4253206290973658e-07,1.453309758538501e-07,2.453376387039225e-08,2.4157550159784735e-07,4.215674546433313e-07,1.4963827950454426e-06,1.9309924047455762e-07,6.168265245958409e-07,-8.769219449819376e-08,-5.003007989678131e-08,-2.6337668990825413e-07,-6.165161417476921e-09,-2.8218628683592e-07,-3.115809022615084e-08,-5.760033319218669e-07,-2.3197488694308087e-07,-1.94320967968692e-07
1.86860974935692e-07,1.6867280980333077e-07,1.66131751007862e-07,3.4439784207395746e-08,2.581880321634072e-07,4.923439325904429e-07,1.6699723238759034e-06,2.271459200114114e-07,6.660197764351249e-07,-7.908812211074071e-08,-2.607732240973107e-08,-2.3547072910349173e-07,-2.0917056375023327e-09,-2.6725490470224046e-07,1.0981697798409522e-09,-5.500207303689449e-07,-2.4183864462486124e-07,-1.8958596565135835e-07
2.0929237188146745e-07,1.9621990836860632e-07,1.9608410466816874e-07,4.633744045371278e-08,2.8156767103625356e-07,5.657434184700105e-07,1.7899898804390518e-06,2.6780617231827014e-07,7.036180294001009e-07,-6.602903968589954e-08,-1.4905875154818655e-09,-1.9099827521886907e-07,1.2084663530238298e-08,-2.4949968751907315e-07,4.970528503046887e-08,-4.974579163850014e-07,-2.3462760907232599e-07,-1.7700027952821357e-07
2.2457871666934912e-07,2.1964670785728083e-07,2.3746338472360318e-07,6.49672632386895e-08,3.1875392798000926e-07,6.390193278224799e-07,1.889083544718371e-06,3.189960912574663e-07,7.193033314500518e-07,-4.7947557515774754e-08,2.4471446787546364e-08,-1.2216274178532572e-07,4.727940541033084e-08,-2.1956987462550537e-07,1.1853202994400352e-07,-3.86217125183903e-07,-2.0083838115278846e-07,-1.5095073124505374e-07
2.3056058663275768e-07,2.34170959556423e-07,2.900119248427557e-07,9.470315095733348e-08,3.76337504049992e-07,7.081347794135358e-07,1.7983920097463704e-06,3.822403890391237e-07,6.68063327454864e-07,-2.6424700696800454e-08,5.220024550347198e-08,-2.4340114522034937e-08,1.1654480983339211e-07,-1.6814564726975042e-07,2.0659676630803346e-07,-2.507274638567391e-07,-1.3857421422262092e-07,-1.0774780641581454e-07
2.2436860048400203e-07,2.4059647444080086e-07,3.4976551798261283e-07,1.3752345629173108e-07,4.506731029149643e-07,7.67926505163358e-07,1.504893975415199e-06,4.5560582309785123e-07,5.654819587552098e-07,-5.019487753514111e-09,8.125520841725204e-08,9.864528610456622e-08,1.9041475585358386e-07,-9.77043245186073e-08,3.081836188325031e-07,-1.3781807661593325e-07,-5.3237978734274085e-08,-4.631991647961358e-08
2.0211205237822491e-07,2.0786760835751935e-07,4.0937774220645697e-07,1.9192220723421716e-07,5.470393639900033e-07,8.13687082609597e-07,1.1915783442538756e-06,5.32760684540813e-07,4.824421547442993e-07,1.239183960324569e-08,1.1078374754497907e-07,2.3760035714102006e-07,2.3573442203066255e-07,-9.592253514213362e-09,4.137860069192844e-07,-5.90891723551715e-08,4.724154411231885e-08,3.0555843899464775e-08
1.652014603024593e-07,1.5298394414282902e-07,4.6018592687065356e-07,2.5329523750514086e-07,6.56083447216875e-07,8.420928339795335e-07,1.0200513023692025e-06,6.037398571757221e-07,4.174909488896654e-07,2.3677215730395974e-08,1.4032577090012502e-07,3.791526795830333e-07,2.7764794126102733e-07,9.594967039110733e-08,5.125224858032006e-07,3.297908267097892e-08,1.5718256344030786e-07,1.1497076749422653e-07
1.2709681233871915e-07,1.007199723416762e-07,4.95968418746858e-07,3.1522636872665236e-07,7.629988036774612e-07,8.521951174838596e-07,8.831511551510838e-07,6.684173458970231e-07,3.498270209769569e-07,3.045340691592953e-08,1.700289989348672e-07,5.158862850201488e-07,3.4938162823467625e-07,1.9430100583264035e-07,5.953492592560988e-07,1.712864582567167e-07,2.63643257500105e-07,1.9030907747907445e-07
9.264660732109014e-08,5.788476939751047e-08,5.129013249509801e-07,3.713974966163056e-07,8.615294794957999e-07,8.462663920125728e-07,7.552127009310945e-07,7.08242062366715e-07,2.971457113143769e-07,3.577887603265573e-08,2.003325926029067e-07,6.407291822418741e-07,4.029049461556974e-07,2.883477884834655e-07,6.575433477872943e-07,3.333925162946341e-07,3.5166933809003315e-07,2.4999806590374277e-07
6.647725967908116e-08,2.0223376496294758e-08,5.117423474244934e-07,4.17676872989403e-07,9.22568310027565e-07,8.280262510490932e-07,4.6875825968080057e-07,7.050517124492423e-07,2.145609295106396e-07,4.39368815010963e-08,2.3154930962057018e-07,7.310527169152306e-07,4.1489161772669706e-07,3.5743196388715586e-07,6.991810879016855e-07,4.2627118411560213e-07,4.131352182834746e-07,2.975786636202431e-07
5.3825459946502095e-08,1.4186232924757339e-08,4.976108061941663e-07,4.530943154837569e-07,9.61235738219103e-07,8.024914192908448e-07,6.60346044632792e-08,6.770978242429153e-07,1.203274390795267e-07,5.891694905248502e-08,2.6342430345113965e-07,7.674109894598493e-07,4.2351654021954535e-07,4.0598329206947493e-07,7.256985756576316e-07,4.593771857379528e-07,4.573960749575283e-07,3.2803930601406746e-07
5.506117378146357e-08,2.201334858763913e-08,4.77192211731997e-07,4.791469609463719e-07,9.648479894525186e-07,7.755065831344746e-07,-1.6890084936747783e-07,6.45446716287092e-07,8.337802700768072e-08,8.221642240394906e-08,2.9496265262149303e-07,7.55959507228247e-07,3.878601270771265e-07,4.3675033384536893e-07,7.42451494051484e-07,4.857012021354585e-07,4.836740649517551e-07,3.4031388747706603e-07
6.733577471150135e-08,2.6944460796755117e-08,4.5724129977851903e-07,4.988140421736235e-07,9.6897064413407e-07,7.518898607628527e-07,-2.768258788338532e-07,6.165113088639317e-07,6.646128559468169e-08,1.132125595687609e-07,3.247621620708269e-07,7.421340205851869e-07,3.6273606323347827e-07,4.4556429267226245e-07,7.541892761672936e-07,5.019635122890151e-07,4.952077847356139e-07,3.371242315527424e-07
8.762402503636621e-08,6.3082680357936e-08,4.417475627954102e-07,5.133924768715456e-07,9.62729595132991e-07,7.365124352140452e-07,-2.772747260002904e-07,5.884236447144602e-07,4.2496603670638735e-08,1.484898184041994e-07,3.513165823827918e-07,7.27843581457137e-07,3.47133791822788e-07,4.3988539309739663e-07,7.642048878602412e-07,4.95970824249408e-07,4.972964674188908e-07,3.206358392073658e-07
1.1163520236144181e-07,1.2001006112794913e-07,4.3361356768914574e-07,5.251611234634149e-07,9.529760735968669e-07,7.308279589230612e-07,-2.8140887188454217e-07,5.69147888093999e-07,4.673620344523985e-08,1.8454378739627664e-07,3.7295032317109247e-07,6.976385176644732e-07,3.312566070366857e-07,4.1839334264120026e-07,7.729036507286416e-07,4.82875435539676e-07,4.968714750258156e-07,2.9500327370814056e-07
1.2506374719288022e-07,1.6894109076869512e-07,4.3223924189882267e-07,5.334217435874374e-07,9.471189501376381e-07,7.33070732412837e-07,-3.501313856830686e-07,5.605773343873579e-07,2.97419684797909e-08,2.1681937081774395e-07,3.880121369068139e-07,6.713029304824264e-07,3.355256038838672e-07,4.0749428877357253e-07,7.798059634471563e-07,4.5574063492391384e-07,4.940750144350981e-07,2.791069730462348e-07
1.305974072565517e-07,2.1228006448163592e-07,4.346776444833632e-07,5.369064158801854e-07,9.433622943796898e-07,7.389705248610458e-07,-4.1814163736696434e-07,5.580092702430507e-07,1.9258168142315988e-08,2.4141937779247737e-07,3.9557557196805995e-07,6.375556149647095e-07,3.256272363659231e-07,3.803352971463953e-07,7.808207056319652e-07,4.431708172411964e-07,5.075456604281334e-07,2.7122796359981685e-07
1.3388907157145375e-07,2.487288610243988e-07,4.366306944899763e-07,5.35357055106789e-07,9.387874763453377e-07,7.457254324982496e-07,-3.9743521012705646e-07,5.559905103574827e-07,4.824316239505182e-09,2.567029543792148e-07,3.959140028095567e-07,5.95782469091684e-07,3.0822919793131505e-07,3.6208548333644287e-07,7.737850406223346e-07,4.228792255504214e-07,5.229522767496564e-07,2.5255489294124067e-07
1.3496482675451786e-07,2.725683726093258e-07,4.3443475544349046e-07,5.282267478104769e-07,9.283571712198408e-07,7.510420784200102e-07,-4.86347670253589e-07,5.494524984694675e-07,-1.1387695120537184e-08,2.6292928246330286e-07,3.9045880068220135e-07,5.509935297696093e-07,2.9017290072135596e-07,3.304937670814895e-07,7.567605532923459e-07,3.787918609338244e-07,5.12293881866386e-07,2.28318133182258e-07
1.380168646914093e-07,2.937396959730789e-07,4.2624852363142906e-07,5.172658463675605e-07,9.057995999459811e-07,7.529935448381703e-07,-3.975770621825854e-07,5.352951165580507e-07,-3.7530553889352235e-08,2.647026441013308e-07,3.8156165447432236e-07,5.020115794989937e-07,2.611346248549179e-07,2.7801764337362065e-07,7.287158736294958e-07,3.4741473742797763e-07,4.845410115536763e-07,2.008262645895685e-07
1.457077883890531e-07,3.133439740958033e-07,4.1455016212611735e-07,5.04569597631927e-07,8.778324685084767e-07,7.510246670090119e-07,-1.6439714125035347e-07,5.141476174001799e-07,-5.401294665769259e-08,2.677715719470664e-07,3.71810144058238e-07,4.5743716690170457e-07,2.5177789936160456e-07,2.3438205861223225e-07,6.913240267098987e-07,2.945067351301776e-07,4.5246916461487653e-07,1.6949591806994797e-07
1.6543933200145503e-07,3.305949123344663e-07,4.032900535333177e-07,4.91680136943906e-07,8.268390165205111e-07,7.44058158229821e-07,4.261789051094183e-09,4.870160225343456e-07,-5.771843771749457e-08,2.784104512450787e-07,3.627283886825904e-07,4.2113145368921926e-07,2.3877880906161423e-07,1.9065478018271586e-07,6.4871862334591e-07,2.2688323467934664e-07,4.2119779151894704e-07,1.3664473252006454e-07
2.083101474196179e-07,3.4654781795477507e-07,3.970047684496391e-07,4.815944089196561e-07,7.533297200130204e-07,7.318560662309516e-07,1.7454876322968457e-07,4.5540351398763623e-07,-6.097905895226163e-08,3.0228908821384434e-07,3.5387475511140254e-07,3.9341950699653944e-07,2.028980474814549e-07,1.381496367025347e-07,6.063034294160078e-07,1.583988928224467e-07,3.973825663100964e-07,1.1048802221588414e-07
2.5724477849720756e-07,3.681158925203603e-07,3.9056749430459786e-07,4.775445659507245e-07,6.664638746662054e-07,7.127497515153189e-07,3.476368415637076e-07,4.2222006572888964e-07,-4.383811845431629e-08,3.348173320735404e-07,3.431462037541173e-07,3.7381837379083186e-07,1.5839832938709677e-07,6.562884024117613e-08,5.661756995800812e-07,8.244792824765385e-08,3.832596102843995e-07,7.82702508337286e-08
3.1106535412272753e-07,3.841481818335166e-07,3.896424068662868e-07,4.794322228274401e-07,5.709050886833432e-07,6.890515954649073e-07,4.625916641946489e-07,3.9140601506032937e-07,-1.83356330023794e-08,3.805306977621114e-07,3.276799521215154e-07,3.6051431544703495e-07,1.0833196466329131e-07,-3.085511709333638e-09,5.2971532356382e-07,5.4541733705783795e-09,3.547821436544221e-07,4.2972109058693104e-08
3.620572222779592e-07,3.9542545976793503e-07,3.982291625818003e-07,4.911441918588924e-07,4.806767057595003e-07,6.639076762014547e-07,4.772741353297122e-07,3.667238604355007e-07,2.222393901597048e-08,4.4438368068290075e-07,3.0470184510433767e-07,3.5150716973727013e-07,5.8042176364866484e-08,-8.278825510914738e-08,5.051265531168677e-07,-6.396837393999596e-08,3.2546594245751056e-07,2.2515417888932984e-08
4.078090730750469e-07,4.014801244679347e-07,4.165096557232606e-07,5.1216903626998e-07,4.049417070982855e-07,6.440665213294731e-07,4.6763793277035904e-07,3.5355068716758144e-07,6.303200784567031e-08,5.270892158646392e-07,2.7243333525188424e-07,3.456248684218776e-07,3.3263586325418405e-08,-1.4737575610886327e-07,4.975386219862415e-07,-1.2160839057662792e-07,3.228289361234011e-07,1.2815784980660638e-08
4.396840682168309e-07,3.999159734448553e-07,4.460793536577623e-07,5.277444945450314e-07,3.4999595965611796e-07,6.342187403128533e-07,2.817757097630499e-07,3.570324498927951e-07,3.6807856813485177e-08,6.124864609560116e-07,2.307861314930534e-07,3.4237924261729684e-07,4.238091452472035e-08,-1.8683778603950642e-07,5.046458147345427e-07,-1.6536901779985277e-07,3.373472404821017e-07,1.9018103240558226e-08
4.7276599247159357e-07,4.028943132284941e-07,4.643366782217814e-07,5.34825025634217e-07,3.135660689441697e-07,6.370021674859311e-07,-9.869860451143915e-08,3.792286437540041e-07,-4.5882721583374416e-08,6.867483128564675e-07,1.812708832365059e-07,3.3991202985296925e-07,2.2456730956906224e-08,-2.153867028038023e-07,5.246708507318079e-07,-1.908622495336512e-07,3.6507207068052037e-07,4.5195850049597156e-08
5.132002596385194e-07,4.1452546839532544e-07,4.679956266368806e-07,5.19308962890372e-07,2.9977067213277357e-07,6.431641606479868e-07,-3.8504775159554274e-07,4.206083844883191e-07,-1.169645587532741e-07,7.295796472051985e-07,1.2642082798574785e-07,3.333512936936195e-07,7.3362549241075475e-09,-2.2776022221911115e-07,5.364559400311539e-07,-2.0153546437792673e-07,3.7921053240140594e-07,8.842592718686743e-08
5.339300417850631e-07,4.508551809221061e-07,4.0587958758138104e-07,4.6104327286745614e-07,3.0307882223306646e-07,6.469672024473324e-07,-5.421251235583341e-07,4.7588111310622403e-07,-1.6872913346750626e-07,6.770979153180678e-07,6.924566963243278e-08,3.1568004197069983e-07,3.406561375316565e-08,-2.330413390185262e-07,5.318060232229942e-07,-2.0761363363462338e-07,3.575190535825384e-07,1.347113760250501e-07
5.685736994389649e-07,5.025423077612185e-07,3.108186189740011e-07,4.193531406657554e-07,3.129473546144083e-07,6.514666100106958e-07,-7.216054153784622e-07,5.377320877950856e-07,-2.0434126773189801e-07,6.479519207774051e-07,1.2559470667742897e-08,2.803961942901231e-07,7.751915853143776e-08,-2.3946553285741255e-07,4.822295924415455e-07,-2.1609422934296752e-07,2.7239808673417414e-07,1.8468674043335786e-07
5.922629717757737e-07,5.417785843431911e-07,2.188535425657045e-07,4.1327481629373424e-07,3.212990275687576e-07,6.590858810844154e-07,-8.264362588212701e-07,6.01285049175065e-07,-2.1782750289203377e-07,6.228516929090965e-07,-4.1563868388424546e-08,2.247340631497681e-07,7.609249959541452e-08,-2.613801072869375e-07,3.5912633302784054e-07,-2.2930787834300516e-07,2.0809442125808874e-07,2.3670062756493216e-07
6.148240065821403e-07,5.725102744537183e-07,1.4705429402619579e-07,3.524509395676418e-07,3.230725344855116e-07,6.623608541676675e-07,-9.154415885966545e-07,6.623874387534072e-07,-2.4952119881526797e-07,5.951666504721276e-07,-9.141557652026516e-08,1.5246986241166197e-07,4.7696269842410386e-08,-2.990155522517534e-07,2.7458315151595626e-07,-2.697255308045526e-07,1.8589366707154752e-07,2.800273458659864e-07
6.811083079158806e-07,6.058836341139366e-07,8.498848009957644e-08,3.230034423716083e-07,3.138119607228082e-07,6.250133689280108e-07,-1.1756128180618757e-06,7.195144952869854e-07,-2.790210206927868e-07,5.80190215560784e-07,-1.3484966228301114e-07,7.382220957831765e-08,9.385442590406147e-10,-3.5272313879385325e-07,1.9723665867345576e-07,-3.278562050499885e-07,1.251942565726038e-07,3.1517560018872267e-07
8.09230536142531e-07,6.354796801358212e-07,4.0275234086521064e-08,3.5262679554784177e-07,2.9737794581100005e-07,5.594218026126694e-07,-1.4603327287830546e-06,7.710742134998472e-07,-3.4222804835563973e-07,5.522946752271876e-07,-1.6958890963778604e-07,1.3977852523433023e-09,-4.716411718130396e-08,-4.268064086651315e-07,1.1421231513800469e-07,-3.9555954347304494e-07,3.347280953603623e-08,3.376921210060566e-07
9.191729328519779e-07,6.653737870537208e-07,-1.2450287942555994e-09,3.8303967702625634e-07,2.712627230212842e-07,4.7612511285387334e-07,-1.8115488506552224e-06,8.085388110899363e-07,-3.9225512645567185e-07,4.7331176144395694e-07,-1.9484143632355127e-07,-5.4440483329691225e-08,-9.815552814337087e-08,-5.234189516455485e-07,5.301892510139736e-08,-5.006139478239216e-07,-1.2198463644482951e-08,3.4925595796317974e-07
9.927335711008568e-07,6.797685107164693e-07,-1.0069996289559114e-07,3.912236379420559e-07,2.5179748858624353e-07,3.952590960084933e-07,-2.031822695912412e-06,8.34304465626873e-07,-4.4325506028627484e-07,3.634580261601182e-07,-2.129063345770763e-07,-8.740651040983113e-08,-1.783912975871988e-07,-6.405329064694722e-07,-4.806756449322335e-08,-6.187561892052649e-07,-1.2812360027933937e-08,3.6869396465032054e-07
1.021894023963073e-06,6.928949729186622e-07,-1.8704032693843514e-07,4.2177146619017496e-07,2.476996585078183e-07,3.1851748822377225e-07,-2.313916768481814e-06,8.570034037358912e-07,-4.748914024385614e-07,3.238456296591333e-07,-2.2958658426957674e-07,-9.501504789682762e-08,-2.827755902925527e-07,-7.538105219846273e-07,-1.0472375029603441e-07,-6.624337726116141e-07,-3.215462238601856e-08,4.084308841709922e-07
9.664087228805503e-07,6.920413218170931e-07,-2.390158065139744e-07,4.5788721323503955e-07,2.5660122368051315e-07,2.633793948343231e-07,-2.672541656528294e-06,8.821805780916212e-07,-4.914597368551406e-07,2.8097587259853706e-07,-2.5273464438225557e-07,-7.794464015506454e-08,-3.788964792742402e-07,-8.678675066802192e-07,-6.975177004024435e-08,-6.943328532522949e-07,-5.846673158949886e-08,4.689423251142132e-07
9.277605527080693e-07,6.781072755284714e-07,-2.847302175376008e-07,4.963666572213138e-07,3.352299129534827e-07,1.9044732949674132e-07,-2.7893778166416015e-06,9.019386400081268e-07,-5.088338630667032e-07,2.1293978235565323e-07,-2.8893416178622576e-07,-3.9342726970001295e-08,-4.7786672094283e-07,-9.857210850615868e-07,-4.253407857887028e-08,-7.287709644303997e-07,-6.682668638761463e-08,5.326090652309966e-07
9.372144603867093e-07,6.606669182970135e-07,-3.347336291395591e-07,5.197384418391203e-07,4.4153158339788783e-07,1.0183870538746419e-07,-2.7596316594939705e-06,9.211930974113113e-07,-5.155253034777708e-07,1.713471391609642e-07,-3.3998641290677775e-07,1.5263529269750118e-08,-5.620637655308815e-07,-1.0968042675462763e-06,1.3693733199830532e-08,-7.633109428820798e-07,-6.727799197464627e-08,5.822469227224493e-07
9.576884769383377e-07,6.52783510962751e-07,-3.7779701395285635e-07,5.070816224787369e-07,5.496924381150865e-07,1.1621089105996777e-08,-2.7114047769882668e-06,9.186879977824051e-07,-5.032453778910427e-07,1.3091406436805953e-07,-4.0158406701587616e-07,7.720233232590309e-08,-6.274487721488701e-07,-1.1742169246468377e-06,7.605680632433714e-08,-8.767291077582857e-07,-5.525553579777042e-08,5.963482459082542e-07
9.69212224024397e-07,6.416773030532435e-07,-4.3327509921334053e-07,4.990031363915761e-07,6.416944946944965e-07,-6.220725914567308e-08,-2.6023582852933894e-06,8.513775511672835e-07,-4.769499552066173e-07,1.0688524252366115e-07,-4.648854505210069e-07,1.3507938374372569e-07,-6.806915869491889e-07,-1.1896689050363902e-06,1.1326102057871765e-07,-9.620652280532355e-07,1.404595489874784e-08,5.928335873684282e-07
9.79873781692616e-07,6.397957576830058e-07,-4.791674847097348e-07,4.843346916101139e-07,6.696510460012751e-07,-1.0502683173482027e-07,-2.4163714949329987e-06,8.173982722193646e-07,-4.561721169204741e-07,1.4595122696626502e-07,-5.200066545797837e-07,1.775978057866415e-07,-7.213602745781585e-07,-1.1243885138684332e-06,1.9461693853540615e-07,-1.0000299884067144e-06,7.960674547508824e-08,5.948836956254932e-07
9.860250411021442e-07,6.340700359568305e-07,-4.460126774766867e-07,4.711536551583646e-07,6.331406535532642e-07,-1.193998334911376e-07,-2.3651841172501887e-06,7.925066509316031e-07,-4.7666773950452014e-07,2.1628076916689126e-07,-5.600054455706692e-07,1.9685463178767823e-07,-7.526299491672682e-07,-1.0654114027353062e-06,2.501239093494373e-07,-1.0382727525067975e-06,1.1307167135596712e-07,5.84288677610853e-07
9.59889588517424e-07,6.153836372521504e-07,-4.1336959963464407e-07,4.3870012675121506e-07,5.677281008138998e-07,-5.4495070594162724e-08,-2.3795462264575617e-06,7.679255071545128e-07,-4.875495495134285e-07,2.696665034692993e-07,-5.834311561967166e-07,1.9050574019487796e-07,-7.798044757708148e-07,-1.0955532253520775e-06,3.542716836068741e-07,-1.0923600423103995e-06,1.4299124528186583e-07,5.7477335897854e-07
9.295310670790068e-07,5.94089458958951e-07,-3.7431953020867405e-07,3.883131129712192e-07,5.371388282153719e-07,-3.335020518759908e-08,-2.475511332162811e-06,7.442002896204186e-07,-4.855348662161076e-07,3.162687244985528e-07,-5.937805316994616e-07,1.6285866391087402e-07,-8.044232365972542e-07,-1.1381918874122262e-06,4.286018855408956e-07,-1.1441931691727525e-06,2.2817654796838277e-07,5.817527744900174e-07
9.060984753645307e-07,5.746844271293317e-07,-3.200043735373725e-07,3.410357381941038e-07,4.944925103363479e-07,-1.2157390549149704e-08,-2.554664995473508e-06,6.691099066896985e-07,-4.981741525658584e-07,3.325404079272592e-07,-5.965287469471506e-07,1.2395277070892712e-07,-8.246650632385718e-07,-1.164527115559945e-06,5.105314850933947e-07,-1.194375724757656e-06,2.9144365245757115e-07,5.417488558656018e-07
8.665792825044777e-07,5.514433066326181e-07,-2.662034580293094e-07,2.837957445029757e-07,3.9626042402060697e-07,-2.078729107200149e-08,-2.604744566105673e-06,5.798266333946835e-07,-5.443278397756576e-07,3.294606218062311e-07,-5.96199059983218e-07,8.586979518504172e-08,-8.370490986921502e-07,-1.1947632290221238e-06,6.100698892400786e-07,-1.2781882333031098e-06,2.9499069853177804e-07,4.912763667607405e-07
8.297342024680107e-07,5.25063971800286e-07,-2.747316376906508e-07,2.1370116170040063e-07,2.9581101210382423e-07,-5.8851508939012035e-08,-2.510514041951796e-06,5.378972015884451e-07,-5.820670697340792e-07,3.24296854149092e-07,-5.949550596591531e-07,5.856761792701243e-08,-8.382778286877655e-07,-1.2076398554801107e-06,6.792755792250032e-07,-1.3574828858830028e-06,2.8815053532599787e-07,4.7167997876954883e-07
7.318763743888145e-07,4.774902876921857e-07,-2.767059884227778e-07,1.8246287439772988e-07,2.3448427746190432e-07,-6.928900528144607e-08,-2.267743846487319e-06,4.944816282309633e-07,-5.974176695203115e-07,3.1813756402105657e-07,-5.926855916460557e-07,4.767482202609086e-08,-8.261022792149626e-07,-1.196290939980811e-06,7.477065887676639e-07,-1.4002899480329906e-06,2.948247518004903e-07,4.420180314114708e-07
6.423923492695118e-07,4.327148433792192e-07,-2.4992337788492827e-07,1.8553741778130516e-07,1.8914545171971877e-07,-6.612677855683256e-08,-2.04386524782774e-06,4.4256150680154063e-07,-5.576198535403158e-07,3.17776176067965e-07,-5.882361265229839e-07,5.3947779184499466e-08,-7.998667280481896e-07,-1.170484989234782e-06,7.848000672817977e-07,-1.432961027254105e-06,3.045846977490107e-07,3.9138293735302297e-07
5.78394482356273e-07,3.8094541989479437e-07,-1.985693585889155e-07,1.824856251769607e-07,1.5983980714983277e-07,-4.471557007882665e-08,-1.7767162911700683e-06,3.8251711468992133e-07,-5.123223279299299e-07,3.1554159931177537e-07,-5.809712048007362e-07,7.394103070686706e-08,-7.632654521999375e-07,-1.1130694551912268e-06,8.202257341097729e-07,-1.4496918266816833e-06,3.1760423654955545e-07,3.350009841422775e-07
5.118722542504779e-07,3.309566781847372e-07,-1.2413644754099653e-07,1.6956848962849477e-07,1.9329497661270936e-07,-2.0158561005455433e-08,-1.474869441771363e-06,3.5902372872266836e-07,-4.808907016336395e-07,3.102589385645293e-07,-5.714545115870706e-07,1.0207610432968097e-07,-7.189814724811013e-07,-1.046522540525189e-06,8.350721190066287e-07,-1.4616642633167823e-06,3.481336678603995e-07,3.388390432146967e-07
4.811697385143933e-07,2.9685655434716087e-07,-4.236094952033479e-08,1.535680209135455e-07,2.3929457536280115e-07,1.2287317649466239e-08,-1.2420771319917948e-06,3.6135230444860637e-07,-4.354476635779782e-07,3.043964161453747e-07,-5.611339157932714e-07,1.3257517358315442e-07,-6.708744280114652e-07,-9.771494711297033e-07,8.397235040085382e-07,-1.4481042090651297e-06,3.738463029668059e-07,3.531598674179247e-07
4.7219580557062316e-07,2.645076934372239e-07,2.0176773387832544e-08,1.4564481628929296e-07,2.7964387538834773e-07,8.211266263898732e-08,-1.0421807239669931e-06,3.478203718993425e-07,-4.0787946374756246e-07,2.9812765704419035e-07,-5.518880317592127e-07,1.5985631204890317e-07,-6.243665070591801e-07,-9.081294826504407e-07,8.467425384683938e-07,-1.4179232471304043e-06,3.888668852320514e-07,3.435024656799295e-07
4.90341282521791e-07,2.448161168165127e-07,6.133482583149576e-08,1.4307467828080402e-07,3.0145844038279733e-07,1.428417333512432e-07,-8.710462483075577e-07,3.4728694644703754e-07,-3.8586456953071674e-07,2.9129598460136143e-07,-5.456133455196912e-07,1.7885568785113732e-07,-5.849822230090171e-07,-8.496200694534766e-07,8.403442186119517e-07,-1.4031370565675433e-06,3.909570751111774e-07,3.2194502333519666e-07
5.166066306413382e-07,2.3387082755587024e-07,8.347038685259598e-08,1.3107172766777715e-07,2.9807916541118544e-07,1.956100577741376e-07,-6.510262970140974e-07,3.523837387688579e-07,-3.6543088989183623e-07,2.8107294190126554e-07,-5.436974205103688e-07,1.8642259504454852e-07,-5.570578299637056e-07,-7.928228432163339e-07,8.340378899231169e-07,-1.386808192025646e-06,3.718399848254304e-07,2.8157234404814856e-07
5.146210242010941e-07,2.3545293577288475e-07,8.743236628529522e-08,1.1166237588342457e-07,2.7999835988157193e-07,2.4448528166097445e-07,-4.013194512974062e-07,3.215157888064593e-07,-3.5600180840114274e-07,2.6503246833512614e-07,-5.468822515776791e-07,1.8224045389599164e-07,-5.42667664373454e-07,-7.478464201145772e-07,8.094897051279522e-07,-1.3698416696895863e-06,3.3732216401283305e-07,2.4376083252507266e-07
5.011325559007057e-07,2.416002734650428e-07,8.002585171812435e-08,8.556185409784518e-08,2.5140407501523823e-07,2.786055997011083e-07,-1.591700217025343e-07,2.7852375719942073e-07,-3.393774903205824e-07,2.4263102530875114e-07,-5.555940553896138e-07,1.6860074702171705e-07,-5.417890886546597e-07,-7.182444843793788e-07,7.677823233063678e-07,-1.362166793657406e-06,2.9399490219014904e-07,2.0340644819371397e-07
4.749657787550806e-07,2.3150092905387607e-07,6.405967230513701e-08,5.691630582192845e-08,2.1624091965752392e-07,3.09926569444665e-07,-1.2225515354479034e-09,2.3298174946402008e-07,-3.084841702781152e-07,2.1541410324419785e-07,-5.699542068313833e-07,1.498021851984296e-07,-5.53373121993112e-07,-7.167856361427797e-07,7.220050618376379e-07,-1.3519890934708026e-06,2.4581617828962827e-07,1.6192096901182906e-07
4.3668036078217505e-07,2.1358393626618113e-07,4.360142802687875e-08,3.058777774839786e-08,1.75849295878267e-07,3.434619923743253e-07,1.268995482159672e-07,1.9145946000670558e-07,-2.595543588232896e-07,1.8698421543688238e-07,-5.894884211385209e-07,1.3059310137128504e-07,-5.727056350268762e-07,-7.386007044745142e-07,6.886789242097189e-07,-1.3393479230826858e-06,2.00375908724678e-07,1.2934451559661254e-07
3.9595502684938623e-07,1.9276322522864462e-07,1.818882488583889e-08,8.421389979157753e-09,1.4108160674750922e-07,3.708785703290542e-07,2.608662874524288e-07,1.7069461990904296e-07,-2.2009142690579294e-07,1.60802453737988e-07,-6.133497970061883e-07,1.1322946304006447e-07,-5.94955309988135e-07,-7.710082390059238e-07,6.674172972410721e-07,-1.3469214898295702e-06,1.656704483683115e-07,9.648868695819633e-08
3.4869010694323444e-07,1.6844015236396208e-07,1.1958584408174862e-09,-1.0584024716105124e-08,1.537471106974768e-07,3.7680211829758167e-07,3.9185458316868884e-07,1.7663216230644606e-07,-1.8648751900166582e-07,1.4054971511918833e-07,-6.408642940716381e-07,9.567801970532892e-08,-6.164138420573141e-07,-8.094575845770739e-07,6.463133046821666e-07,-1.3634122613922718e-06,1.4044717352170539e-07,6.924903287724481e-08
2.8948715309847465e-07,1.4512143814435622e-07,-4.870280161484449e-09,-2.251833283509283e-08,2.099596269355315e-07,3.8233544386177435e-07,5.290982298036022e-07,2.0199485582831313e-07,-1.5648738171428946e-07,1.2975923358212206e-07,-6.716133452795322e-07,7.30564714222584e-08,-6.343175797857589e-07,-8.496048993139474e-07,6.254118422088626e-07,-1.3674799702391212e-06,1.2456306601344967e-07,4.89151720721585e-08
2.277178439159089e-07,1.238835705694048e-07,-1.4816576322001789e-09,-1.549248117214874e-08,2.863702813199988e-07,3.914065589751175e-07,6.417998730471791e-07,2.4766643970804113e-07,-1.2989984327317107e-07,1.2980866439861703e-07,-7.052335535416952e-07,4.0743795966436675e-08,-6.472350439348237e-07,-8.837949140424625e-07,5.949847409723937e-07,-1.3724536858681863e-06,1.1626387925188552e-07,3.272353805519398e-08
1.6713107629072077e-07,9.79069973280539e-08,1.2503183447109139e-08,9.556476445886709e-09,3.604335644354037e-07,4.027080871352396e-07,7.460939695462693e-07,3.1026960087680887e-07,-9.856036696193837e-08,1.4125874400714682e-07,-7.413431378403303e-07,-2.9021217566162273e-09,-6.542668283656266e-07,-9.230525209665436e-07,5.563110425801948e-07,-1.3680177627918345e-06,1.1131139198038965e-07,2.4132438459900054e-08
1.2141177857629646e-07,6.839234643518033e-08,3.192379639448295e-08,5.0607889456673704e-08,4.357517495793442e-07,4.228288678818117e-07,8.520279664034677e-07,3.823053597011369e-07,-7.121034505910362e-08,1.6331916130916505e-07,-7.79297228077444e-07,-5.483352484732056e-08,-6.548125924959649e-07,-9.636691948704448e-07,5.118009696955855e-07,-1.3615153751047123e-06,1.0710005825160703e-07,2.1554493501489957e-08
8.889554851939295e-08,3.565465347608286e-08,5.8897078426034325e-08,9.902726505999358e-08,4.940818932605173e-07,4.4480401271571394e-07,9.741634246007812e-07,4.525433946678308e-07,-4.8970097268331914e-08,1.9243571362155392e-07,-8.178158699122226e-07,-1.0763731079018493e-07,-6.480353933548678e-07,-9.930006461617444e-07,4.6223553136478917e-07,-1.3561275221969442e-06,1.0200779761427838e-07,2.2705536533440442e-08
6.310772228252848e-08,-2.475532507369319e-09,8.725025204570667e-08,1.5016750051807972e-07,5.369856610553975e-07,4.6577441173662467e-07,1.0973131238993922e-06,5.219597084405667e-07,-3.1125877454452725e-08,2.2425668891586367e-07,-8.550479677424556e-07,-1.5232226733364262e-07,-6.340519055244998e-07,-1.0110353034098993e-06,4.1908173175252985e-07,-1.3452522530586238e-06,9.640189689993633e-08,2.8918335338407416e-08
3.766150621243264e-08,-3.839846121470922e-08,1.1474063410974141e-07,2.0100721968112428e-07,5.807054715473985e-07,4.877124874352162e-07,1.2132212939815601e-06,5.896473595993915e-07,-1.159327808225028e-08,2.591838063624544e-07,-8.889002676768637e-07,-1.8131022985777535e-07,-6.138788431519293e-07,-1.0136805110589315e-06,3.858068955096648e-07,-1.318109657666287e-06,9.312537459478494e-08,4.3261205249916444e-08
8.226060446752814e-09,-7.832737403336811e-08,1.385927917548645e-07,2.456154013916497e-07,6.32426317685575e-07,5.055438413474318e-07,1.3174688685884916e-06,6.488364741884055e-07,7.437912981225851e-09,2.8638899899009134e-07,-9.171632000761492e-07,-1.8978210844797086e-07,-5.880456159527509e-07,-9.999910669204232e-07,3.7298586725379314e-07,-1.275941049862168e-06,9.618405224413582e-08,6.69450898382741e-08
-2.2477059348764558e-08,-1.2342025762713097e-07,1.5664351275987962e-07,2.788920547921313e-07,6.920409862709974e-07,5.214915983139204e-07,1.3963207563204067e-06,7.027082814504914e-07,2.1587423666848015e-08,3.0150293672527085e-07,-9.377356212462794e-07,-1.762787849513239e-07,-5.569580645532856e-07,-9.726620566137756e-07,3.860294958985426e-07,-1.2272086721508536e-06,1.0685464179279526e-07,9.831439819546535e-08
-5.467576079411125e-08,-1.700433603247104e-07,1.690990147409659e-07,2.91663620947754e-07,7.506212585612713e-07,5.393662956323654e-07,1.4034764400604556e-06,7.506031959700712e-07,2.4894124007559383e-08,2.8657307728180574e-07,-9.491737879599635e-07,-1.4320337064224193e-07,-5.210537754576988e-07,-9.35674183223164e-07,4.109468663735676e-07,-1.1849830610260812e-06,1.232697078722164e-07,1.355393875089207e-07
-8.680919187846418e-08,-2.1898698739743517e-07,1.7336139303894658e-07,2.8297736537614455e-07,8.07713815936338e-07,5.594854925644498e-07,1.3636856655768376e-06,7.957526946649113e-07,9.55831991514835e-09,2.059597545826344e-07,-9.511352457555658e-07,-9.656904121381969e-08,-4.80338803841183e-07,-8.887279608064258e-07,4.4715161327503605e-07,-1.152081254659602e-06,1.421884961707844e-07,1.7180410640786247e-07
-1.193158921620946e-07,-2.66414229624479e-07,1.6909956881805684e-07,2.5601886601361717e-07,8.701511698064097e-07,5.816688887458871e-07,1.2944749112255295e-06,8.321268141053481e-07,-2.1196124618565424e-08,8.545414007997788e-08,-9.445263655469048e-07,-4.5176185384700835e-08,-4.327881009126724e-07,-8.355956486538474e-07,4.86629792398014e-07,-1.1250348497840945e-06,1.5929112426842683e-07,2.0144947201168896e-07
-1.4755991251078266e-07,-3.084831630199028e-07,1.5303746164916984e-07,2.2296504106320883e-07,9.403260517702813e-07,6.050672459600629e-07,1.177168067922999e-06,8.547681885599871e-07,-7.343016551000558e-08,-2.7436521665213572e-08,-9.313522064475851e-07,6.170571629257615e-10,-3.8073697904132124e-07,-7.808509102714942e-07,5.164538360336555e-07,-1.1051834098657169e-06,1.7085663099668574e-07,2.1984788415262306e-07
-1.6558695070970941e-07,-3.4197636522156036e-07,1.254547425634034e-07,1.847578846924906e-07,9.874780548104258e-07,6.271861642007296e-07,1.023802864669984e-06,8.538605572857095e-07,-1.358889736721963e-07,-1.3154709491776438e-07,-9.139970494062794e-07,3.123621604156014e-08,-3.2690589244443806e-07,-7.267200953563348e-07,5.20675509141209e-07,-1.0908743061015342e-06,1.7488738602441982e-07,2.2461933180132582e-07
-1.6897961323524773e-07,-3.651569102018335e-07,1.0003009784762337e-07,1.4321219407375835e-07,1.0182456468577981e-06,6.483374799432583e-07,8.420690153350175e-07,8.175405620057064e-07,-2.0192133674262663e-07,-2.2199857956847198e-07,-8.942860092775601e-07,4.0630208344124314e-08,-2.7064931508286376e-07,-6.758476783929683e-07,4.787645410863881e-07,-1.082444676593e-06,1.7093111255319276e-07,2.1947944199594059e-07
-1.552132695970338e-07,-3.7444586263235207e-07,7.324839254839916e-08,1.0196614672084479e-07,1.0028448039522043e-06,6.760468053292517e-07,6.616619156099276e-07,7.537004178754343e-07,-2.608675721260403e-07,-2.881163147332065e-07,-8.733285765279489e-07,2.7575497346613753e-08,-2.1942446433588762e-07,-6.292033201458949e-07,4.284459982576056e-07,-1.078180303517865e-06,1.5993087503594668e-07,2.0807124754000649e-07
-1.2523990404388456e-07,-3.6957120105062304e-07,4.6918972179636685e-08,6.09570347306101e-08,9.381510753466957e-07,7.088976238672233e-07,5.159465883292087e-07,6.777997090728836e-07,-3.095680102887946e-07,-3.4961984563852477e-07,-8.522481626190298e-07,-4.437784395773988e-09,-1.7081847679374197e-07,-5.872233182356478e-07,3.5829925378804765e-07,-1.0781993570746617e-06,1.431950983766786e-07,1.960363748660286e-07
-8.102068583361238e-08,-3.534772261690749e-07,2.5551393835006837e-08,2.3656266094451e-08,9.201222211093366e-07,7.467403841123661e-07,3.7034397928975817e-07,5.944331739513108e-07,-3.3531985525879336e-07,-3.7708914091059255e-07,-8.329656785969646e-07,-4.7869030593940766e-08,-1.3408802717456507e-07,-5.524477961000001e-07,2.8287973155774095e-07,-1.0754703577968213e-06,1.2211534113247243e-07,1.8906329167995813e-07
-2.679285186277092e-08,-3.291138472508534e-07,3.2552657160445365e-09,-1.0514126349974391e-08,9.181320839486789e-07,7.896252692640984e-07,1.8445913820713375e-07,5.174692382364889e-07,-3.4512829640521107e-07,-3.813057979875679e-07,-8.185732900748772e-07,-9.275274766675998e-08,-1.279722356901012e-07,-5.210490064280572e-07,2.461424729250368e-07,-1.0724049720219813e-06,9.719324408385981e-08,1.8909937978491196e-07
2.7176596460287295e-08,-3.0106328531413517e-07,-2.2138232987884895e-08,-4.5554746150479445e-08,8.801627592245904e-07,8.305617461146725e-07,-5.955702552272658e-08,4.5721140305297483e-07,-3.823872614304095e-07,-3.747079122482479e-07,-8.126787348349932e-07,-1.2926583899915465e-07,-1.5973668998102957e-07,-4.925790292827562e-07,2.2213387607834808e-07,-1.0733464646911619e-06,6.757907140741156e-08,1.9861506176534945e-07
7.271616839991221e-08,-2.736355310518528e-07,-6.711516926290291e-08,-9.470827468490866e-08,8.526449571163201e-07,8.665587806335413e-07,-4.025276976982069e-07,4.0403456894275985e-07,-4.4398463471242576e-07,-3.693867983550979e-07,-8.184535247526971e-07,-1.5020686966956895e-07,-2.0615794355734608e-07,-4.6836431953455454e-07,2.041277936869867e-07,-1.0836196328014407e-06,3.193985923333746e-08,2.1696978815562863e-07
1.0114922182587726e-07,-2.4983034767599364e-07,-1.2973220424402216e-07,-1.5461682436777505e-07,8.039208800065563e-07,8.975400596196089e-07,-7.04868993911373e-07,3.6547355297867957e-07,-4.811976396175537e-07,-3.5921539448300024e-07,-8.375547214239884e-07,-1.5306401600873596e-07,-2.5897494177438396e-07,-4.4923604534082617e-07,1.8108766251140512e-07,-1.1113854514361793e-06,-1.0497208289783489e-08,2.4025087048603664e-07
1.0688169378432027e-07,-2.3334349119570157e-07,-2.1328028777536713e-07,-2.268444400722785e-07,7.403853702886069e-07,8.882658876684699e-07,-8.590734383409091e-07,3.3887675013467537e-07,-4.828275270068643e-07,-3.503878432351533e-07,-8.706579780591024e-07,-1.4097457964514837e-07,-3.0218852051589157e-07,-4.386883738016632e-07,1.2648832600904997e-07,-1.1608252146217596e-06,-5.900395286337853e-08,2.6362942027504515e-07
8.955341636302872e-08,-2.2317917509541232e-07,-3.058332217223182e-07,-3.116169069374638e-07,7.023612345566516e-07,8.577971357803167e-07,-1.007876265190212e-06,3.1677902363767595e-07,-4.698701323491815e-07,-3.503443842342815e-07,-9.163522033316866e-07,-1.2092857481890883e-07,-3.343492813536449e-07,-4.3869345397450484e-07,2.9422990026076493e-08,-1.2308606898195213e-06,-1.1031296515757655e-07,2.8302513760236357e-07
5.252145148128715e-08,-2.1836710378515999e-07,-4.0236209016227846e-07,-3.9108734421365394e-07,6.814207246797983e-07,7.558497430932723e-07,-1.101467895593322e-06,2.994309927095283e-07,-4.349999927190912e-07,-3.6052706667440235e-07,-9.707974288912033e-07,-1.0006957197958789e-07,-3.569242605490659e-07,-4.4829556036955714e-07,-6.474191232853749e-08,-1.315571019525255e-06,-1.5859290163382182e-07,2.967464730281726e-07
1.9753514847160125e-09,-2.1772028942038738e-07,-5.031196873193129e-07,-4.654891123909633e-07,6.595111788571211e-07,6.406604591880969e-07,-1.287081783023861e-06,2.8415727689445207e-07,-4.6686535781346423e-07,-3.808818826681139e-07,-1.0284431552122899e-06,-8.338119208297088e-08,-3.6877840568968523e-07,-4.635844076775564e-07,-1.6176439525762972e-07,-1.4056551957952879e-06,-1.979673092799884e-07,3.038897662699746e-07
-5.5787264552241884e-08,-2.1868399681764497e-07,-5.733951787253888e-07,-5.260789048225939e-07,6.41954220684496e-07,5.272967161142732e-07,-1.5716811962895202e-06,2.719515723573003e-07,-5.126825839947163e-07,-4.0880407805651613e-07,-1.0834641531043856e-06,-7.362386495707828e-08,-3.779525562371761e-07,-4.81543738935337e-07,-2.1984256808886555e-07,-1.4961213603690139e-06,-2.25568909682611e-07,3.044802043196607e-07
-1.1370088919953733e-07,-2.1976361780422398e-07,-6.142734053697945e-07,-5.666327267558821e-07,6.260212503410916e-07,4.333750022698193e-07,-1.900095726231099e-06,2.620768564160234e-07,-5.442988413524019e-07,-4.388842354199198e-07,-1.1316737592505228e-06,-7.188171733503569e-08,-3.806293231636335e-07,-4.99186943279166e-07,-2.3464499530968298e-07,-1.5844527896356385e-06,-2.423498454001555e-07,2.978386543377696e-07
-1.6564006637903398e-07,-2.1953768998542487e-07,-5.947038140340718e-07,-5.834797772389124e-07,6.222820004092269e-07,3.4897909451940054e-07,-2.178737869999863e-06,2.5952278312795287e-07,-5.815954845768754e-07,-4.6354495772828445e-07,-1.1713124633664367e-06,-7.800583443890105e-08,-3.7675042021851277e-07,-5.145011919040391e-07,-2.2542405454224583e-07,-1.6684183764103995e-06,-2.519284175541476e-07,2.8333386774020603e-07
-2.058442850043634e-07,-2.1713321108991868e-07,-5.718810236903086e-07,-5.890955399182448e-07,6.30517882102913e-07,2.908444233745017e-07,-2.3954273533888834e-06,2.6556256811698976e-07,-6.340505312372149e-07,-4.7512910422167723e-07,-1.2030216551535807e-06,-9.078855975846262e-08,-3.687163271220568e-07,-5.267318537482515e-07,-1.6129857114229142e-07,-1.74705912326421e-06,-2.5854156264245674e-07,2.6152268481029715e-07
-2.306340755663564e-07,-2.123667402317115e-07,-5.772463428657978e-07,-5.8297197186283e-07,6.413942391041498e-07,2.53208082253419e-07,-2.495083247170642e-06,2.784207058482301e-07,-6.606446462609904e-07,-4.682075015854421e-07,-1.2277322124090365e-06,-1.0740731645455979e-07,-3.5516630792361396e-07,-5.342617089813669e-07,-1.1873454331351873e-07,-1.8182801602842901e-06,-2.646318595759658e-07,2.3429876381327068e-07
-2.399792792719761e-07,-2.0693158016822453e-07,-6.217992735774833e-07,-5.641666016452477e-07,6.491203367169922e-07,2.3372876262620505e-07,-2.5992433856468953e-06,2.957182805304833e-07,-6.893751840005198e-07,-4.409656733585017e-07,-1.2461399633709306e-06,-1.2306888341299037e-07,-3.4050044057147367e-07,-5.350183260343049e-07,-9.043469441241026e-08,-1.8801190507403778e-06,-2.695427741372152e-07,2.053546660447432e-07
-2.3693910180336583e-07,-2.0281562241127654e-07,-6.327899877449707e-07,-5.577071525660855e-07,6.492927023778052e-07,2.2531885850902434e-07,-2.731930972743074e-06,3.1147132894034805e-07,-7.410941581931821e-07,-3.9577597825304536e-07,-1.2580899231569262e-06,-1.3212650858752486e-07,-3.2164583142476864e-07,-5.239091111812586e-07,-9.351212996904073e-08,-1.9313989904820907e-06,-2.700776487864435e-07,1.7916282675350172e-07
-2.2628306964550353e-07,-2.0205353947370372e-07,-6.4130276747154e-07,-5.510465405358833e-07,6.477979212172828e-07,2.241738292983105e-07,-2.767094874847111e-06,3.195875933082896e-07,-7.790876772979161e-07,-3.3884623284431517e-07,-1.262237487689162e-06,-1.2970975505745665e-07,-2.951586045438605e-07,-4.98021675102416e-07,-1.35163596259528e-07,-1.9724370147294234e-06,-2.616196720000258e-07,1.6034586779432372e-07
-2.1222342061385335e-07,-2.065376129349704e-07,-6.512123754246416e-07,-5.495460835493108e-07,6.44432559773218e-07,2.338810867008494e-07,-2.9321852067888443e-06,3.152759788095801e-07,-8.103170910772703e-07,-2.788258416619208e-07,-1.2565729195967242e-06,-1.1272310221689348e-07,-2.5999210229305814e-07,-4.580658494878691e-07,-1.6014690021694636e-07,-2.0026049566152033e-06,-2.393534860069279e-07,1.5295852180527107e-07
-1.9653249626689212e-07,-2.1679330557823596e-07,-6.393145296822248e-07,-5.548228680376088e-07,6.379866178548879e-07,2.5152849938085347e-07,-3.0592610650115097e-06,2.982581461479978e-07,-8.425374645206294e-07,-2.2514793256983953e-07,-1.239091598867113e-06,-8.07544694818007e-08,-2.156706474725754e-07,-4.017084755800641e-07,-1.7571039446165961e-07,-2.0206641445956072e-06,-2.0028506154050457e-07,1.5972476993471506e-07
-1.778943381090073e-07,-2.3191159661789845e-07,-6.075229579692467e-07,-5.589594003617015e-07,6.241262849610138e-07,2.8958269546528813e-07,-3.035746449715154e-06,2.704521374727287e-07,-8.57614267004869e-07,-1.8632998344337259e-07,-1.2090545379716194e-06,-3.669938210480025e-08,-1.628587356222712e-07,-3.3012325489297664e-07,-1.5759506271503987e-07,-2.0248321176225565e-06,-1.4504060839952838e-07,1.814667287085097e-07
-1.5257374508801459e-07,-2.494382170939675e-07,-5.827909296945168e-07,-5.471615714244316e-07,6.029825625804564e-07,3.255377487110785e-07,-2.994402225774347e-06,2.396667498925323e-07,-8.764387292311438e-07,-1.6769465297306298e-07,-1.1681227317256894e-06,1.4064925139867513e-08,-1.0358129549727957e-07,-2.439397692110052e-07,-1.0972003159981517e-07,-2.012407461009875e-06,-7.809690936913586e-08,2.1678556755577613e-07
-1.1611563711077002e-07,-2.656692359712957e-07,-5.584181751766388e-07,-5.257891360582482e-07,5.779200647600894e-07,3.662512943850975e-07,-3.0068493775115287e-06,2.1668916469036221e-07,-8.974555535138645e-07,-1.6910843444624948e-07,-1.1206572199499522e-06,6.552374003093675e-08,-4.146366128722986e-08,-1.476119254262359e-07,-5.2473506562421677e-08,-1.9813172848004237e-06,-6.979259513631699e-09,2.620432769735356e-07
-6.600628284740659e-08,-2.7683740265014785e-07,-5.144944428810906e-07,-5.032350319064075e-07,5.501894562847785e-07,4.196651504740183e-07,-3.175114516637351e-06,2.091026345210808e-07,-9.179117111104834e-07,-1.8401994810530798e-07,-1.0731602922034036e-06,1.1259461437679547e-07,1.9728654383239613e-08,-4.698550235827166e-08,8.987329180730495e-09,-1.930947717030671e-06,5.9289867510236915e-08,3.1157992827910714e-07
-3.815937579781329e-09,-2.805867915905772e-07,-4.61679166885039e-07,-4.6774151562925265e-07,5.251531308952913e-07,4.93853854894918e-07,-3.427127117981183e-06,2.194260639403328e-07,-9.349119385720941e-07,-2.0055553103794623e-07,-1.0323453296082745e-06,1.5194544334195643e-07,7.41470936551229e-08,3.716171919959684e-08,6.949257754897772e-08,-1.8624562654416968e-06,1.1264708117532337e-07,3.5872781224675953e-07
6.505853600945152e-08,-2.7675917716532704e-07,-3.991218740381405e-07,-4.362293811852531e-07,5.037502932692358e-07,5.846193885513182e-07,-3.5548399218694485e-06,2.416026958817784e-07,-9.424338261482332e-07,-2.0548714831731736e-07,-1.0031238529555822e-06,1.8154593757566827e-07,1.1717093313833029e-07,7.912152258104718e-08,1.2937624380215784e-07,-1.7789565473530976e-06,1.47729745104735e-07,3.9714091677977393e-07
1.3342120850522027e-07,-2.673475044107241e-07,-3.272953325646923e-07,-4.062025615431383e-07,4.837410731330966e-07,6.769684867825772e-07,-3.5618772883313164e-06,2.6484738458170007e-07,-9.42751014126719e-07,-1.9039834092445912e-07,-9.86960535488934e-07,1.9917763957639366e-07,1.4659058276962323e-07,5.8645946685668006e-08,1.9729419767870984e-07,-1.685813294614053e-06,1.6181079784797307e-07,4.2163713961315683e-07
1.9398389232169091e-07,-2.5594468005479947e-07,-2.768110096070482e-07,-3.752587815636137e-07,4.6262236817230615e-07,7.601746847909041e-07,-3.519934966012184e-06,2.780380665601222e-07,-9.564810084209222e-07,-1.560331774644114e-07,-9.826460653740479e-07,2.020805792143954e-07,1.6171605856154715e-07,6.184072390748098e-08,2.69162098105811e-07,-1.5903093567656035e-06,1.5448986821776119e-07,4.2891078938968026e-07
2.404431806932213e-07,-2.4663994944181436e-07,-2.450672790675683e-07,-3.4849489955138145e-07,4.372766487018383e-07,8.160111082853199e-07,-3.3848709488016096e-06,2.7330669599895226e-07,-9.483714127230307e-07,-1.1148252062950737e-07,-9.871015413493276e-07,1.8863367190713882e-07,1.6384563941678715e-07,8.546851876178036e-08,3.3866311019769537e-07,-1.500213833154805e-06,1.2784942995925022e-07,4.182800683354881e-07
2.6822169439844007e-07,-2.4270958057609886e-07,-2.245121475679271e-07,-3.3431780207373926e-07,4.059120570069603e-07,8.606196776511436e-07,-3.294109459222578e-06,2.481869369257734e-07,-9.32459589513439e-07,-6.959787515694058e-08,-9.962557678611994e-07,1.5997391651293074e-07,1.5532986720227623e-07,9.132213494701863e-08,3.9497171507995475e-07,-1.4222346827616323e-06,8.586681546694156e-08,3.918128498157364e-07
2.749166320795885e-07,-2.4595085142121436e-07,-2.151017234928364e-07,-3.2861454355977495e-07,3.6819086748630987e-07,8.918036253785414e-07,-3.238172485544761e-06,2.0482187122296164e-07,-9.196978772958886e-07,-4.184981296047771e-08,-1.0065845299505034e-06,1.20320040783428e-07,1.3886386271074947e-07,4.0064424558500236e-08,4.27534314832455e-07,-1.3607712014834174e-06,3.3513561054436095e-08,3.539167211105514e-07
2.604731636658995e-07,-2.56705433714445e-07,-2.178237096614726e-07,-3.285483945197369e-07,3.2619120477864685e-07,9.078743579925164e-07,-3.1697253849662186e-06,1.4811315660844132e-07,-9.036659175306492e-07,-3.4343098791191046e-08,-1.0152589038077399e-06,7.668870728093891e-08,1.1756599502790479e-07,-1.5576928968479748e-09,4.4690824978321735e-07,-1.3167829796789607e-06,-2.3253322266010227e-08,3.10885902775074e-07
2.275275398782182e-07,-2.740847219610348e-07,-2.3128310009699818e-07,-3.3958570991018766e-07,2.7979434290619107e-07,9.076669812982223e-07,-3.085720603637514e-06,8.5073902317748e-08,-8.912729589254087e-07,-4.616585139562199e-08,-1.0201956189650005e-06,3.764819086078164e-08,9.499015222264464e-08,-4.983990855118738e-08,4.418044889442167e-07,-1.2873831436349347e-06,-7.770041394892786e-08,2.698953538108038e-07
1.8121366920633756e-07,-2.964228768012156e-07,-2.5586278307841206e-07,-3.5630956487486957e-07,2.300955918350891e-07,8.998700592578239e-07,-2.9335249700141434e-06,2.306337256629293e-08,-8.697248278179188e-07,-7.06630445130216e-08,-1.02016961208123e-06,1.0765504261555336e-08,7.445198313025177e-08,-1.1136795603084642e-07,4.215528436468822e-07,-1.266921221174484e-06,-1.2363190948694348e-07,2.3717735282500846e-07
1.2873796923733653e-07,-3.2195112948687085e-07,-2.9308855225591796e-07,-3.7956799375433777e-07,1.7494342048196378e-07,8.981838347183076e-07,-2.6988539726877298e-06,-3.258768464974049e-08,-8.31512077946925e-07,-9.82521426203073e-08,-1.0145447011438415e-06,6.815468222353959e-10,5.8329153342900885e-08,-1.445156666552746e-07,3.965313344422226e-07,-1.2488358418987294e-06,-1.565870366766352e-07,2.1638583089395683e-07
7.558771038721899e-08,-3.4909975420822487e-07,-3.3393528101978486e-07,-4.080385729898399e-07,1.1648685408620851e-07,9.084845764992844e-07,-2.4410916786075504e-06,-7.783359502224011e-08,-7.620364041435873e-07,-1.192231841918299e-07,-1.00510588164508e-06,8.954577723628178e-09,4.8025277322439576e-08,-1.600971704260986e-07,3.700507761944038e-07,-1.2274192050996183e-06,-1.747546594275375e-07,2.0772352158563432e-07
2.8733734116750997e-08,-3.7655112354847794e-07,-3.774077051649826e-07,-4.3613297294919207e-07,7.041273414608692e-08,9.359428261120268e-07,-2.19950684855784e-06,-1.0461899302494985e-07,-6.835040308950131e-07,-1.2647535106388137e-07,-9.932486622445793e-07,3.421610720077848e-08,4.393277514089961e-08,-1.619643275102476e-07,3.516425729905197e-07,-1.1996877300342586e-06,-1.8041416980003918e-07,2.0763412757277332e-07
-6.437226427703443e-09,-4.0328341405160473e-07,-4.1773601169647953e-07,-4.577694564928272e-07,3.481120915627347e-08,9.687969990159235e-07,-1.9873151105477584e-06,-1.1600404705190075e-07,-6.047227327947602e-07,-1.1765622989659556e-07,-9.814165567331112e-07,7.222407090781226e-08,4.515404465835413e-08,-1.5336695683777983e-07,3.4077468370841896e-07,-1.1667683292068554e-06,-1.8022269643995613e-07,2.0966627145795416e-07
-2.858079789329458e-08,-4.286409781505791e-07,-4.488399841779749e-07,-4.719264600640263e-07,7.421860704775346e-09,9.968901204467384e-07,-1.7463769109760602e-06,-1.1679148712848764e-07,-5.335979399074839e-07,-9.52237926132222e-08,-9.729793301600804e-07,1.1692995705229148e-07,4.971065512478052e-08,-1.5021488095342435e-07,3.395346665630856e-07,-1.1335779714683953e-06,-1.8249637609490926e-07,2.0697983305104294e-07
-3.7950086428558305e-08,-4.5207885315053573e-07,-4.6865969100041034e-07,-4.792927371845623e-07,-7.221038560595668e-09,1.0116850316247114e-06,-1.5432700600892812e-06,-1.0974516712145505e-07,-4.795248546070671e-07,-6.468992335364562e-08,-9.684342260611714e-07,1.618778900780122e-07,5.5134522541049836e-08,-1.5495604247451582e-07,3.449712527260403e-07,-1.1068372260194753e-06,-1.932969778332654e-07,1.9513410079009113e-07
-4.089319067097499e-08,-4.7283415903453293e-07,-4.7504462345580207e-07,-4.809168099711633e-07,-1.98011301233735e-08,1.0096203343246202e-06,-1.3873647542723417e-06,-1.0635713916003923e-07,-4.5511762994445676e-07,-3.2782191067180684e-08,-9.661561237600132e-07,2.0075026068090298e-07,5.887959964186546e-08,-1.6748582029986587e-07,3.587177762928715e-07,-1.092690480095142e-06,-2.138678591207558e-07,1.736284523612318e-07
-4.387892532729316e-08,-4.899088218545687e-07,-4.7045821763251543e-07,-4.794335976548427e-07,-2.5633239571284887e-08,9.898368429356509e-07,-1.2596635354023717e-06,-1.0434201637582505e-07,-4.384567158552792e-07,-7.94766486982021e-09,-9.66960827424816e-07,2.2804259646185026e-07,5.895540601244345e-08,-1.8759870158372784e-07,3.78449015185808e-07,-1.094275840616221e-06,-2.3986766876443247e-07,1.460956119973158e-07
-5.1041631135961745e-08,-5.022043086801384e-07,-4.58698531187843e-07,-4.7613780635199593e-07,-6.738055880382836e-09,9.561199083769155e-07,-1.1675557863278974e-06,-9.637583020129511e-08,-4.3122823969862764e-07,4.98825314991686e-09,-9.73516569484326e-07,2.4048003343891453e-07,5.485059033581777e-08,-2.1149981005817711e-07,3.9357593362888043e-07,-1.109987878044314e-06,-2.628992013562391e-07,1.1921765111444107e-07
-6.343631626649547e-08,-5.084160539095247e-07,-4.433862260274472e-07,-4.723755782989072e-07,3.736409283093165e-08,9.179730720795777e-07,-1.0725024745580933e-06,-8.433987041446863e-08,-4.288825590943793e-07,3.966791145285984e-09,-9.8278324265422e-07,2.3790524467211365e-07,4.772457283264905e-08,-2.3306164532751184e-07,4.0376178823934174e-07,-1.1338303457560465e-06,-2.744259090796129e-07,1.0037280605159371e-07
-8.075441536231061e-08,-5.078904259105902e-07,-4.287013060309618e-07,-4.6982634360443275e-07,8.159076084675722e-08,8.844318421624008e-07,-9.577210001456565e-07,-7.139733490917457e-08,-4.3260772378052154e-07,-1.506864674039506e-08,-9.936805030172232e-07,2.2339334758582472e-07,3.974570704800517e-08,-2.4580840887905614e-07,4.052613214546487e-07,-1.1577575307605306e-06,-2.693727714823064e-07,9.514219896724623e-08
-1.0082713686778953e-07,-5.014251402096672e-07,-4.2017605876987003e-07,-4.7018006191739073e-07,1.2949223678008348e-07,8.631561362743222e-07,-8.7005978842555e-07,-5.135689396355131e-08,-4.196987889626592e-07,-5.419937318895071e-08,-1.0031064703952573e-06,2.0308444849379253e-07,3.356258911064057e-08,-2.441316782180222e-07,3.941568436794081e-07,-1.1744699036760919e-06,-2.470427766104187e-07,1.0533570954327624e-07
-1.2964260695562232e-07,-4.91273195950885e-07,-4.2085147363789343e-07,-4.743115753790429e-07,1.8540993024107455e-07,8.5737878436442e-07,-9.523267180167398e-07,-1.6556925805655944e-08,-4.169336121448258e-07,-1.1513149277381329e-07,-1.0102448559181133e-06,1.8480787210257882e-07,3.2086950148482274e-08,-2.2418420936468356e-07,3.703580584081412e-07,-1.179222330853459e-06,-2.103296124419719e-07,1.2994654377647751e-07
-1.7255225451753127e-07,-4.807800653479325e-07,-4.3323181996342084e-07,-4.810751404290583e-07,2.4954655724786726e-07,8.651434815127983e-07,-1.1683714197432863e-06,5.167112615330801e-08,-4.4603595791725684e-07,-1.9404108682372843e-07,-1.0258196800195072e-06,1.75376457126186e-07,3.8199963630795993e-08,-1.8458218420746045e-07,3.3408776496812185e-07,-1.1698793529757367e-06,-1.6446001246264672e-07,1.6425028452351965e-07
-2.1782996934631877e-07,-4.7357049503077606e-07,-4.55892660284886e-07,-4.860806299126348e-07,3.447132516711123e-07,8.808646161542291e-07,-1.2835855591506652e-06,1.5640876832268886e-07,-4.3893824201798067e-07,-2.8300173590913383e-07,-1.0594430774820607e-06,1.7856910048209585e-07,5.44569429736347e-08,-1.245741454625137e-07,2.934751682988485e-07,-1.1452241816260626e-06,-1.1524176623520725e-07,1.9970904903994996e-07
-2.9279303526306727e-07,-4.7249951366410836e-07,-4.819930655034269e-07,-4.8495957519927e-07,4.658167665045053e-07,8.977960704617977e-07,-1.3517785739336948e-06,2.8755847584943645e-07,-4.0878768260191787e-07,-3.491738745096939e-07,-1.1079402755608795e-06,1.946581164289769e-07,8.260261590725403e-08,-4.784744085862425e-08,2.6012531170739964e-07,-1.1033215776103668e-06,-6.770202393103271e-08,2.3202132590195454e-07
-4.121224302021196e-07,-4.787070692128067e-07,-5.043658744057426e-07,-4.7336489438788843e-07,5.696546546862991e-07,9.098281919057161e-07,-1.421801664465936e-06,4.0334534829524814e-07,-3.660264067039078e-07,-3.4628715806216213e-07,-1.1725139161390458e-06,2.205777784739907e-07,1.2265414029461806e-07,3.9509152880603095e-08,2.4648187934440763e-07,-1.0417212008387407e-06,-2.5752004569214756e-08,2.5770905076460176e-07
-5.230002180282335e-07,-4.913332474241583e-07,-5.137070058472061e-07,-4.4914099097646414e-07,6.39603631189139e-07,9.126629123340288e-07,-1.492677177683251e-06,4.52553423910581e-07,-3.3591092922971754e-07,-3.1908187670064114e-07,-1.2297913381478875e-06,2.5077427048053867e-07,1.7242348905023647e-07,1.241809590061947e-07,2.598148190216445e-07,-9.590095529820534e-07,8.265816233077173e-09,2.5177991775848503e-07
-6.149871668759108e-07,-5.074723907032327e-07,-5.042220421571555e-07,-4.1204523262535103e-07,6.614615804389354e-07,9.04835508592272e-07,-1.8377017645044342e-06,4.688762876807298e-07,-3.78916730793593e-07,-2.6367405082104566e-07,-1.2724055257952357e-06,2.7882340262541817e-07,2.2819208458670793e-07,1.9945130421147995e-07,3.012752210648768e-07,-8.563977546491426e-07,3.426037154515053e-08,2.2062575926797555e-07
-7.048949430477933e-07,-5.226831966535216e-07,-4.7625886923725835e-07,-3.6438641536734587e-07,6.934526313693109e-07,8.876928197353498e-07,-2.1387665760208222e-06,4.746008950767601e-07,-4.411370503582107e-07,-2.3455416471443188e-07,-1.307955547865288e-06,2.9868059023682924e-07,2.857320904037047e-07,2.6124344454779275e-07,3.661635923170411e-07,-7.388518083538486e-07,5.394809540910973e-08,1.9459665416285238e-07
-7.497112830918546e-07,-5.324022314447532e-07,-4.3560939720457127e-07,-3.116105822175658e-07,7.557828158451698e-07,8.644003236979725e-07,-2.271699585089177e-06,5.199771981696221e-07,-4.845609174846243e-07,-1.9982050349406982e-07,-1.3174750514729742e-06,3.055693675232728e-07,3.4094219043877634e-07,3.125929804993994e-07,4.435218071275962e-07,-6.150669467900054e-07,6.970651187427571e-08,1.6775671799925333e-07
-7.314184775793966e-07,-5.335859846452615e-07,-3.9260991411716665e-07,-2.6041285618348795e-07,8.174885131564104e-07,8.387769779255649e-07,-2.4853844528850155e-06,5.670514195157765e-07,-5.198601646934644e-07,-1.0058546445846358e-07,-1.2893771754689166e-06,2.9752151602293747e-07,3.9034279556886713e-07,3.537295884726547e-07,5.207276989451073e-07,-4.955800077588349e-07,8.398886285864938e-08,1.3472742427315986e-07
-7.619412748528762e-07,-5.256582238072708e-07,-3.5676969219076016e-07,-2.171557337761687e-07,8.039921947786717e-07,8.144128380597032e-07,-2.7207050115565156e-06,5.384338449659935e-07,-5.463605256063084e-07,-1.0139301397309118e-08,-1.2629751975189772e-06,2.767318376471405e-07,4.3146634605992813e-07,3.851918102416851e-07,5.86034935072083e-07,-3.897799789625091e-07,9.89292313677207e-08,1.3853723899286704e-07
-7.706886634149789e-07,-5.104433720234105e-07,-3.340490874436355e-07,-1.8538974184586863e-07,7.517580437100016e-07,7.938284385527906e-07,-2.985805265159467e-06,4.744451940997266e-07,-5.807382027211306e-07,2.4547358055268837e-08,-1.2132588587415637e-06,2.492902810632806e-07,4.630611090617808e-07,4.098284799539876e-07,6.32749361637891e-07,-3.0343110517124105e-07,1.1607795692023632e-07,1.5450358274297917e-07
-7.061391313675509e-07,-4.912565194126182e-07,-3.2431236366413505e-07,-1.6569327433670424e-07,6.943401993561569e-07,7.780087381869299e-07,-3.227149547492366e-06,4.072194959242134e-07,-6.164297414958215e-07,4.767683386647978e-08,-1.172642527992342e-06,2.2363689950871267e-07,4.853970205166057e-07,4.3111562301624595e-07,6.630488290932243e-07,-2.3735912750916152e-07,1.370082051330943e-07,1.778846654618458e-07
-6.720868460436108e-07,-4.714728613375401e-07,-3.2528965368040424e-07,-1.559467718049076e-07,6.366488856950265e-07,7.671487099623694e-07,-3.324899405896622e-06,3.444261546879657e-07,-6.342682269618854e-07,7.35064602536772e-08,-1.1363558515071248e-06,2.08346573491407e-07,5.003107173340828e-07,4.548517352073966e-07,6.8296999413661e-07,-1.8781767542561921e-07,1.637655459160428e-07,2.3635836945351904e-07
-6.411730760977319e-07,-4.532257318810073e-07,-3.323598788841799e-07,-1.5106171467650854e-07,5.740260487655319e-07,7.616525578077976e-07,-3.3149796274868922e-06,2.8421324048761265e-07,-6.352415283394028e-07,4.974080059413173e-08,-1.1196851998248282e-06,2.0938569591354335e-07,5.103250356845257e-07,4.820147586961374e-07,7.018963244826541e-07,-1.4873470527859777e-07,1.9795656272838714e-07,3.180510642781644e-07
-6.341542930158812e-07,-4.371356472499052e-07,-3.3904820244101024e-07,-1.476871883222102e-07,5.372989236396301e-07,7.623196975380399e-07,-3.2784138826710542e-06,2.5533638487493714e-07,-6.00171621648161e-07,4.262761932676366e-09,-1.1032822363087668e-06,2.281499256040451e-07,5.175093733960067e-07,5.102850209287565e-07,7.28963480253629e-07,-1.14229334311162e-07,2.3971460827030643e-07,3.914944910977543e-07
-6.193979648306908e-07,-4.227222505506216e-07,-3.515049713348827e-07,-1.4229629038111648e-07,5.140915709410284e-07,7.699504323055965e-07,-3.1898721596153136e-06,2.442756341357191e-07,-5.404523822888667e-07,-2.6583616463345993e-08,-1.0757496932861822e-06,2.623842700487158e-07,5.23134189092618e-07,5.338585959639401e-07,7.69051242611972e-07,-7.985481285229647e-08,2.875565804553677e-07,4.5468591927075093e-07
-5.629339676635568e-07,-4.089924986093403e-07,-3.5752454129810334e-07,-1.325374151134569e-07,5.048701682694775e-07,7.845055043640454e-07,-3.1163200493997863e-06,2.4365631634845154e-07,-4.7560868734011916e-07,-2.7265751993413592e-08,-1.02162277205865e-06,3.0448156303122416e-07,5.279050983087109e-07,5.486746481888738e-07,8.227269530655705e-07,-4.278255410962911e-08,3.383827802910362e-07,5.113811507518863e-07
-5.203170912713799e-07,-3.9522126681032143e-07,-3.4792390935134895e-07,-1.2622020862938501e-07,5.116206761036661e-07,8.040779067081956e-07,-3.0075227562609263e-06,2.5522147702376477e-07,-4.07289513653806e-07,-6.3629118017017525e-09,-9.59288459323149e-07,3.4645929859749253e-07,5.322607933337871e-07,5.491849207092955e-07,8.857613012676666e-07,-1.6726838051749408e-09,3.8781739928008217e-07,5.558093855169688e-07
-4.6605849034164794e-07,-3.815391413804989e-07,-3.283439074106092e-07,-1.1779726175582235e-07,5.171166722162423e-07,8.247446260162525e-07,-2.8553043670378317e-06,2.6528756533659154e-07,-3.5884182323471733e-07,3.3614431569876515e-08,-9.103813987259443e-07,3.8131754432022463e-07,5.366604553653505e-07,5.371110111812868e-07,9.506700938408618e-07,4.366192914777693e-08,4.3156801355085e-07,5.91951815509079e-07
-4.0860660169459805e-07,-3.6896269045212915e-07,-3.0091486988748104e-07,-1.0590108922091069e-07,5.208761863739081e-07,8.417699298978678e-07,-2.643613641907335e-06,2.759844973903231e-07,-3.0798907079452507e-07,8.753651802883689e-08,-8.723973352664485e-07,4.038233598628696e-07,5.414044982550474e-07,5.16358269235851e-07,1.0091468462087166e-06,9.22376875374502e-08,4.667485807510002e-07,6.189670990932436e-07
-3.574690805480027e-07,-3.590152890627448e-07,-2.7426097720850824e-07,-8.646133153631706e-08,5.125635687677905e-07,8.512348819964407e-07,-2.416217102625904e-06,2.8132252723458105e-07,-2.738179513084497e-07,1.478250613154518e-07,-8.364248283112484e-07,4.133552701313275e-07,5.458320984125514e-07,5.011610156641569e-07,1.0557167409375393e-06,1.4139886364610873e-07,4.924469704997495e-07,6.367868995771942e-07
-3.0992561862400955e-07,-3.533004696194471e-07,-2.84011126815336e-07,-7.719301153833071e-08,4.914639534631143e-07,8.514861032073151e-07,-2.224322494390801e-06,2.7942777741124455e-07,-2.6408029901896437e-07,2.0634972072262674e-07,-8.054737879691469e-07,4.1151240999575077e-07,5.479476992665684e-07,4.904659959646778e-07,1.0890319805176846e-06,1.869431739934702e-07,5.101824222813234e-07,6.494895399011675e-07
-2.972955416838853e-07,-3.5296961838140163e-07,-3.5884626307940824e-07,-1.0255498423620144e-07,4.6149545170038874e-07,8.442622978276499e-07,-2.045792100051874e-06,2.707116774435327e-07,-2.720058756066414e-07,2.565416740681914e-07,-7.776628727919026e-07,4.0391567631844126e-07,5.450678926214595e-07,4.803198296141894e-07,1.1120798862945345e-06,2.2455755496446402e-07,5.23632594935376e-07,6.606335099889662e-07
-3.2636254405246854e-07,-3.5832803265284134e-07,-4.0346221363306096e-07,-1.6721220725161017e-07,4.243660835387205e-07,8.344209211564053e-07,-1.8793011664641761e-06,2.531707805632361e-07,-2.9444866190055135e-07,2.9509455564091615e-07,-7.521022519844949e-07,3.925017323391431e-07,5.347423516627023e-07,4.5514623528396795e-07,1.130820864630263e-06,2.5119417733194795e-07,5.367992553088568e-07,6.750282181002177e-07
-3.474638786976354e-07,-3.6894209992075447e-07,-4.27187619863037e-07,-2.2454000439679725e-07,3.8134668452995453e-07,8.288608978650808e-07,-1.7347431833965632e-06,2.249935591505851e-07,-3.184510197104383e-07,3.225998029846685e-07,-7.412497055554728e-07,3.8400692653815055e-07,5.155918141497581e-07,4.11652783902515e-07,1.1513069485350632e-06,2.660146466238794e-07,5.524081905997042e-07,6.949237697604575e-07
-3.661921264789821e-07,-3.8381863970806125e-07,-4.4329004740305073e-07,-2.6372152806609246e-07,3.327040586289585e-07,8.344833014012387e-07,-1.5372858879658251e-06,1.857276561639919e-07,-3.2686962136891696e-07,3.4332948529188774e-07,-7.247587604367314e-07,4.010887016820685e-07,4.882011465773026e-07,3.526258289951633e-07,1.1778150093779625e-06,2.713027852717503e-07,5.720325957554411e-07,7.193490396054577e-07
-3.817108209339799e-07,-4.013443757968284e-07,-4.443642227180175e-07,-2.9019606891033275e-07,2.7879084864509704e-07,8.564458422344309e-07,-1.3049044346474855e-06,1.37459509543508e-07,-2.9279316377364294e-07,3.637393067296819e-07,-6.82633942196906e-07,4.653415084182196e-07,4.552994975773113e-07,2.8061058072984425e-07,1.2116188129613896e-06,2.7233975432696925e-07,5.964675719652048e-07,7.456706231806277e-07
-4.767473255374523e-07,-4.194183358554676e-07,-5.102898603190608e-07,-3.169198967237356e-07,2.2097092172740294e-07,8.965126057185464e-07,-1.0878320863204575e-06,8.41960794446471e-08,-2.582362135024885e-07,3.8967029975452286e-07,-6.114915700965844e-07,5.921963460670088e-07,4.206844742349797e-07,1.9986331492615328e-07,1.250611392377612e-06,2.7543618797784683e-07,6.255231552448422e-07,7.706077026151695e-07
-6.026945990745065e-07,-4.3609914054623805e-07,-5.71290245588393e-07,-3.774264078160574e-07,1.6413043161794437e-07,9.519865289547397e-07,-8.599823085571304e-07,3.245774321135442e-08,-2.0078393052897037e-07,4.2402428040100464e-07,-5.411289861388801e-07,7.078442943587362e-07,3.879344841693388e-07,1.0850481725288354e-07,1.2904523197261066e-06,2.852219059952112e-07,6.583556478049419e-07,7.915815792668951e-07
-6.569896737109175e-07,-4.499825800433914e-07,-5.784133178906921e-07,-4.4558401856177815e-07,1.1223479097086057e-07,1.0168443291700539e-06,-6.186721504953373e-07,-1.3212546901423151e-08,-1.3721873418045515e-07,4.662164604974707e-07,-4.801010920992124e-07,8.17206242764587e-07,3.5975559498732055e-07,1.0920914314323155e-08,1.3264903693219604e-06,3.0293106906238063e-07,6.938459584957794e-07,8.074825698687873e-07
-6.740667850451586e-07,-4.603819755564324e-07,-5.537791996828595e-07,-4.746016376029525e-07,7.001119344632801e-08,1.0830966465596228e-06,-3.810212354617673e-07,-4.89193056793684e-08,-7.260453352658745e-08,5.127111813657598e-07,-4.267561228673249e-07,9.264586529647592e-07,3.3747523605588e-07,-8.988287881920126e-08,1.3550433644348037e-06,3.261271131640789e-07,7.297786230021881e-07,8.181840101337973e-07
-6.833726246314314e-07,-4.6759684519918755e-07,-5.456109055258898e-07,-5.160984016725398e-07,4.085121256083584e-08,1.1424125308502375e-06,-1.527472721158508e-07,-7.239898507273936e-08,-1.174408010473716e-08,5.581323317931711e-07,-3.937314438003982e-07,1.0058235960744853e-06,3.2062163015207413e-07,-1.8150975382169472e-07,1.3738937832505476e-06,3.4993383260701996e-07,7.623226741914501e-07,8.23790910551101e-07
-6.991811253056645e-07,-4.726615636855301e-07,-5.273789329371613e-07,-5.484167105903309e-07,2.2843093821970177e-08,1.187598612001097e-06,6.92366338343333e-08,-8.427184130630928e-08,1.1601726548290289e-08,5.971682057777134e-07,-3.9304449992295097e-07,1.0615022146023847e-06,3.0721233500424735e-07,-2.6123511670970005e-07,1.3825471432600214e-06,3.6925267601191783e-07,7.872278441434827e-07,8.245612448460555e-07
-6.774800494527732e-07,-4.770607323765122e-07,-5.360839108327532e-07,-5.901987379277131e-07,1.3077728993025798e-08,1.2141081502778663e-06,2.5419691106726453e-07,-8.60287477958583e-08,6.221094794717937e-08,6.263068775195282e-07,-3.8851406387812366e-07,1.094183318674842e-06,2.9435021003879083e-07,-2.9811237129084447e-07,1.3818786471574444e-06,3.803655581057328e-07,8.007682301307433e-07,8.207050505003068e-07
-6.142984086298788e-07,-4.819727704173955e-07,-5.582740040413664e-07,-6.267219942267421e-07,7.0674555122109636e-09,1.2204677530690228e-06,3.970873118429746e-07,-8.02643014968966e-08,1.1302329903129527e-07,6.443031009508186e-07,-3.778593532983212e-07,1.1028484047686459e-06,2.7847464945800486e-07,-2.9147319693064913e-07,1.3730737737056005e-06,3.807750468181446e-07,7.992360656650656e-07,8.116271135218734e-07
-5.479791212878082e-07,-4.884198358757536e-07,-5.369146931950458e-07,-6.359647898131912e-07,-8.687693388757421e-10,1.2082204477797657e-06,5.073165605288528e-07,-7.072759050280129e-08,1.071434505845069e-07,6.522247613680139e-07,-3.554767880548844e-07,1.096060992213821e-06,2.55981069539702e-07,-2.9162372861940034e-07,1.357028994697675e-06,3.6845901275753706e-07,7.791950957709826e-07,7.958576192228857e-07
-4.882492158554953e-07,-4.973623932939473e-07,-4.987433049256922e-07,-6.423942110001324e-07,-1.5226517350594457e-08,1.1799223753029135e-06,6.209174971674352e-07,-6.08486333626038e-08,6.953029112525077e-08,6.538036807443499e-07,-3.315248419488293e-07,1.074197771575285e-06,2.2459886585493275e-07,-3.050412755935635e-07,1.3347746874010749e-06,3.421031861761375e-07,7.392709541620211e-07,7.721448629247969e-07
-3.919761112499237e-07,-5.092245347736153e-07,-4.4598780357426225e-07,-6.178684307572254e-07,-3.8342460224363266e-08,1.139955076257743e-06,7.358771207665136e-07,-5.265844329622001e-08,5.334119505730201e-08,6.547139646907337e-07,-3.0574742821116275e-07,1.042241917597564e-06,1.8418010946629928e-07,-3.2599157487900406e-07,1.3079822201563346e-06,3.018101850516112e-07,6.812065358983166e-07,7.404507244342809e-07
-3.0808356548782116e-07,-5.23868914075592e-07,-3.8122723464501565e-07,-5.813448412162967e-07,-6.962457543727161e-08,1.0940312744497999e-06,8.502523320850023e-07,-4.723130039086217e-08,5.4035529327079927e-08,6.601897751066839e-07,-3.07642511046516e-07,1.005901495689796e-06,1.3620434574561706e-07,-3.6976536966556153e-07,1.2790821990265143e-06,2.493216889967982e-07,6.096663435446322e-07,7.022703235337288e-07
-2.407389651737075e-07,-5.407575751562275e-07,-3.2305086122394045e-07,-5.55588133631907e-07,-1.0573538162764352e-07,1.0477855060713254e-06,9.701474526321991e-07,-4.479525161294974e-08,5.963830624604345e-08,6.730562738004914e-07,-3.0807249491454415e-07,9.691495699699913e-07,8.320595224830351e-08,-4.211615639341483e-07,1.2514343978458318e-06,1.8809470905198614e-07,5.3220553347651e-07,6.608121047096111e-07
-1.811564759989027e-07,-5.589090550883285e-07,-2.5055292323401106e-07,-5.368540335070579e-07,-1.4059960060729709e-07,1.0069910492656144e-06,1.0888597786580212e-06,-4.359019335639776e-08,7.31301725304195e-08,6.93569523139408e-07,-3.1724790081914467e-07,9.366512992796264e-07,2.866548134357309e-08,-4.7617563360351564e-07,1.229169414387263e-06,1.231560566827151e-07,4.5849990618163553e-07,6.206687866598128e-07
-1.4168977230407865e-07,-5.767551701100992e-07,-1.8118567538319099e-07,-5.261655837918278e-07,-1.6721827770988943e-07,9.761297839597993e-07,1.1625681609784025e-06,-3.9903969623833206e-08,8.678835623820839e-08,7.199880508812835e-07,-3.4039591895304846e-07,9.122054695118209e-07,-2.3587959719568077e-08,-5.339413123851368e-07,1.2159743421992812e-06,5.996527049573172e-08,3.974058498050801e-07,5.86286319622906e-07
-1.0952768641052644e-07,-5.927104239734565e-07,-1.1777947369879183e-07,-5.187412480776366e-07,-1.8044696805811365e-07,9.585962785650638e-07,1.208345450675626e-06,-3.010533592225735e-08,9.259094211920034e-08,7.49200629085894e-07,-3.485238598572042e-07,8.987160967552583e-07,-7.047343114312042e-08,-5.856124088910192e-07,1.2135680107932128e-06,2.9188033972184577e-09,3.5397555655222585e-07,5.602287539945886e-07
-8.209795097007329e-08,-6.057575718186236e-07,-6.292257944515448e-08,-5.097588341476659e-07,-1.7903083389222365e-07,9.54629236493112e-07,1.264473262949569e-06,-1.2188060852906574e-08,9.845996315129472e-08,7.779317171568235e-07,-3.4367201818289413e-07,8.951852306648971e-07,-1.1014756981924192e-07,-6.283527507013188e-07,1.2211168817627457e-06,-4.525699721141517e-08,3.288763499612955e-07,5.426109420399177e-07
-5.926050745436903e-08,-6.15489037804286e-07,-1.3561663295398685e-08,-5.021506643569911e-07,-1.653636973743381e-07,9.620335701559048e-07,1.294364695154886e-06,1.4086768527109335e-08,1.0892636927063885e-07,8.038398172225031e-07,-3.3914843727839496e-07,8.975152665179047e-07,-1.4193452643623177e-07,-6.543633360856431e-07,1.235437946802707e-06,-8.353290581291495e-08,3.189643517337441e-07,5.313383020265366e-07
-3.719393872362534e-08,-6.2208045112336e-07,3.977042584766512e-08,-4.988706172112224e-07,-1.441970791526138e-07,9.773720454411884e-07,1.3079678787572078e-06,4.7064388956448437e-08,1.2215149328358217e-07,8.253472546082051e-07,-3.331903741004554e-07,8.994517499791123e-07,-1.6647922694075565e-07,-6.634105319917069e-07,1.251390658113569e-06,-1.1290072795276341e-07,3.1757593154242314e-07,5.224693968134082e-07
-1.37886136213397e-08,-6.263362992759516e-07,9.74027415172551e-08,-4.905626233126152e-07,-1.2182773550072585e-07,9.963894100097875e-07,1.3177426237737161e-06,8.332549596872198e-08,1.3697542060313395e-07,8.410525785751892e-07,-3.325085543639691e-07,8.931423730120804e-07,-1.8573459449965637e-07,-6.611104105092722e-07,1.2628293967815174e-06,-1.3639061362630687e-07,3.1580260268927425e-07,5.111827294531565e-07
1.1326304034339016e-08,-6.29486944434517e-07,1.5953800429197014e-07,-4.775618812973924e-07,-1.0463692478689414e-07,1.0154313574052462e-06,1.3093519579453699e-06,1.1890498269862561e-07,1.4402012020028936e-07,8.499568845424434e-07,-3.4074052867511377e-07,8.725484213011015e-07,-2.0226338383652217e-07,-6.57797204334644e-07,1.264231283261336e-06,-1.580982808798789e-07,3.049966818795967e-07,4.933231476774926e-07
3.729988477193776e-08,-6.327363960320128e-07,2.0830123258378207e-07,-4.623837118322823e-07,-9.75596000958001e-08,1.0319045631686137e-06,1.3084185166379554e-06,1.5002791072050863e-07,1.4598167343861533e-07,8.517785203614868e-07,-3.518652435541464e-07,8.352975595968927e-07,-2.1864056462629186e-07,-6.611894727314332e-07,1.2520653799841017e-06,-1.8201488505961461e-07,2.785455079614662e-07,4.663578849970053e-07
6.25702604968417e-08,-6.369530163937704e-07,2.411982928604354e-07,-4.4602896505362717e-07,-1.0380283540357827e-07,1.0438774717654831e-06,1.3245962800085254e-06,1.7246570451804079e-07,1.4527054224513026e-07,8.466765911269254e-07,-3.664133984925001e-07,7.829095982831534e-07,-2.374201623520914e-07,-6.773800055302788e-07,1.2254804767413405e-06,-2.1125559666702168e-07,2.3273360541245393e-07,4.2951515386996805e-07
8.519454624373259e-08,-6.427791062278489e-07,2.571298284773857e-07,-4.332674243624349e-07,-1.2475815039612465e-07,1.0492698613463921e-06,1.3446854252364772e-06,1.8180082209460198e-07,1.3994128268447606e-07,8.353174554455781e-07,-3.870829684890241e-07,7.20274933572046e-07,-2.608366842058462e-07,-7.09073661483152e-07,1.1866882624201703e-06,-2.472659014261132e-07,1.6783701357393096e-07,3.838713309152046e-07
1.0395832566303204e-07,-6.503995482924752e-07,2.5838310228349223e-07,-4.2630358111466493e-07,-1.591447853455029e-07,1.0467854967321666e-06,1.3440368645802117e-06,1.7554825739484942e-07,1.2971328259269003e-07,8.194598861715808e-07,-4.16531703779521e-07,6.575265777426583e-07,-2.9002850699380977e-07,-7.554096647689932e-07,1.140694518536856e-06,-2.8933150008183963e-07,8.823787307156329e-08,3.321578080027395e-07
1.1907554797170663e-07,-6.594848110171201e-07,2.5995886742700373e-07,-4.257018140844013e-07,-2.0298980177941726e-07,1.0372160152073413e-06,1.3275243424980363e-06,1.546833356450001e-07,1.1588470742985072e-07,8.018426591615475e-07,-4.5153241086334175e-07,6.049676155529521e-07,-3.24604980731913e-07,-8.102863573795597e-07,1.0939352722783743e-06,-3.352300680097897e-07,4.3935386106360286e-10,2.778072820204017e-07
1.3222543990623672e-07,-6.691380470536895e-07,2.6308553760896197e-07,-4.298167961375109e-07,-2.511279410156204e-07,1.0230430265193127e-06,1.3028228714930444e-06,1.235635596400537e-07,9.804061685339364e-08,7.856699308418717e-07,-4.909556940819732e-07,5.718198278575033e-07,-3.625670855021996e-07,-8.684070581730054e-07,1.0526916207194295e-06,-3.8223698032666944e-07,-8.86761677357844e-08,2.241990937158743e-07
1.4612139610184165e-07,-6.782697217226433e-07,2.718020405374302e-07,-4.3839907698509386e-07,-2.981235114378397e-07,1.0077170655557384e-06,1.2613656895572395e-06,8.96749620569716e-08,7.775885319444875e-08,7.736419275887496e-07,-5.282804644931367e-07,5.656824013508346e-07,-4.0011931189860783e-07,-9.227456233511901e-07,1.0221589455105984e-06,-4.2734176144422484e-07,-1.7171717346697225e-07,1.748152381364916e-07
1.6402855336028897e-07,-6.855101422052378e-07,2.871884760422558e-07,-4.480123823511917e-07,-3.3799590678296534e-07,9.974955105236804e-07,1.2121681428581785e-06,6.278668550576573e-08,6.030157371875041e-08,7.680382592229871e-07,-5.711862126691322e-07,5.888539533641604e-07,-4.3207442112396203e-07,-9.666664023395758e-07,1.0056769067943418e-06,-4.6721869385010365e-07,-2.410668409957213e-07,1.3317979935785643e-07
1.8845159564746657e-07,-6.892194420502338e-07,3.218366862051653e-07,-4.5451426455895193e-07,-3.647485821723902e-07,9.964046528444364e-07,1.17772679730284e-06,5.2190683662015946e-08,6.196306291371069e-08,7.700000647041034e-07,-6.162222407921895e-07,6.401339186830063e-07,-4.534452108079237e-07,-9.93048639729608e-07,1.0041438042322991e-06,-4.990241907986237e-07,-2.908550277419196e-07,1.0188288013287591e-07
2.1915241173600256e-07,-6.882153775805742e-07,3.6749454682148706e-07,-4.561661483081223e-07,-3.7384296313480944e-07,1.0070549207319038e-06,1.1636279346989878e-06,6.385678783145462e-08,6.524086081916452e-08,7.789616588657237e-07,-6.555887680087e-07,7.221266221981132e-07,-4.610538679160906e-07,-9.977012111061983e-07,1.0149809699688072e-06,-5.213038478649284e-07,-3.1826541948143585e-07,8.18735079580404e-08
2.5283744788439905e-07,-6.820652087441665e-07,4.2180723959620027e-07,-4.5264946511794615e-07,-3.6264042488492425e-07,1.030499335996089e-06,1.1606465468426348e-06,9.980219207455165e-08,7.31706237766236e-08,7.932374447202587e-07,-6.898814756409256e-07,8.166341934265048e-07,-4.544787239844826e-07,-9.80496748906879e-07,1.0343889323930314e-06,-5.340750291403243e-07,-3.230835360293316e-07,7.272143206077656e-08
2.8441871407451957e-07,-6.708866115293596e-07,4.846492988107569e-07,-4.4598187343288677e-07,-3.299880846079203e-07,1.0655539309395312e-06,1.1598032639984333e-06,1.5831424476941067e-07,8.542901449056079e-08,8.107362392023865e-07,-7.160660102363789e-07,8.991410996026285e-07,-4.3476252720324414e-07,-9.442919766894688e-07,1.058436343109937e-06,-5.385560741864517e-07,-3.0721452107408007e-07,7.300498184575228e-08
3.084652325631334e-07,-6.55141350349484e-07,5.397608788264059e-07,-4.392147531140231e-07,-2.765903116731257e-07,1.1095959222134734e-06,1.1473018727433938e-06,2.334761265898317e-07,9.372235908267121e-08,8.279236562235225e-07,-7.331663074847172e-07,9.720293071494756e-07,-4.0591088204818785e-07,-8.963776643079586e-07,1.0836377938660531e-06,-5.37021772758502e-07,-2.744979271264586e-07,8.051204759222372e-08
3.203930326015436e-07,-6.359372279158537e-07,5.829527720919455e-07,-4.352102400753365e-07,-2.0563334846527712e-07,1.157087753950412e-06,1.108297047230589e-06,3.1572197453509674e-07,9.852038046221827e-08,8.397014113850437e-07,-7.445260064581465e-07,9.656021216931039e-07,-3.74113895798184e-07,-8.437523843276062e-07,1.1078887999808162e-06,-5.324852843404937e-07,-2.2987555477508632e-07,9.27110729333453e-08
3.1793833356492205e-07,-6.145861807114127e-07,6.09937285058667e-07,-4.3565116191324074e-07,-1.2258031714453346e-07,1.2040637497489702e-06,1.0249097331137681e-06,3.94353430711602e-07,8.160475813152409e-08,8.410564538978707e-07,-7.534310472208265e-07,9.040853265244405e-07,-3.411947836370772e-07,-7.935323612286808e-07,1.1298984892062355e-06,-5.28265360393002e-07,-1.790994485205656e-07,1.0702862527278042e-07
3.0226034806563293e-07,-5.924325326365576e-07,6.183434694545619e-07,-4.405764831307626e-07,-3.500365499974717e-08,1.2467854238427123e-06,8.970545845054257e-07,4.598520454761724e-07,6.20890097231809e-08,8.281036530946391e-07,-7.584713170419984e-07,8.600467134731475e-07,-3.1406344044225303e-07,-7.520692484499066e-07,1.1480075426486124e-06,-5.279167058324965e-07,-1.2986919082918674e-07,1.20437095057796e-07
2.7754333052477375e-07,-5.711933140454171e-07,6.085841399474447e-07,-4.4959583961272664e-07,4.741748764201574e-08,1.282461488774477e-06,7.404414430642638e-07,5.051343845240142e-07,-1.2841444655433352e-08,7.989082204178787e-07,-7.57811550028384e-07,8.656549055583e-07,-3.1202897131663716e-07,-7.25406935882183e-07,1.1591330392191924e-06,-5.34971933813131e-07,-9.186732549935439e-08,1.293895871738713e-07
2.497099162965801e-07,-5.527297847769562e-07,5.860966853637142e-07,-4.6214003139852904e-07,1.1450712326570242e-07,1.3095240789043686e-06,5.810194903598469e-07,5.269768310888947e-07,-4.487888626444924e-08,7.541386926168827e-07,-7.566593160258668e-07,8.256699876958997e-07,-3.157044482350767e-07,-7.176483273529078e-07,1.1592132570944319e-06,-5.51916580478774e-07,-7.400550360918324e-08,1.3089607863798906e-07
2.2510284219884518e-07,-5.386299330225528e-07,5.563420959261992e-07,-4.779022665448132e-07,1.586820040145528e-07,1.3267631270610032e-06,4.5598509681854987e-07,5.26771614744992e-07,-5.7178435579681053e-08,6.966000814201749e-07,-7.580659708364035e-07,7.564519059879767e-07,-3.2579586231348397e-07,-7.289324070427443e-07,1.1437221545145948e-06,-5.791528023140064e-07,-8.118579654372416e-08,1.2374519760156373e-07
2.0897048287238242e-07,-5.297104643127711e-07,5.190221130787064e-07,-4.966941114814839e-07,1.7715005032274744e-07,1.3320934770723242e-06,3.0401730725350316e-07,5.090582149388599e-07,-6.389327205893834e-08,6.291532802076643e-07,-7.637480482979004e-07,6.355304938153488e-07,-3.453217519851336e-07,-7.555534736776716e-07,1.1084158870967845e-06,-6.147880155711375e-07,-1.1255019057053555e-07,1.0900253979636817e-07
2.0387504102010513e-07,-5.259389834373595e-07,4.784981156949715e-07,-5.182016864325873e-07,1.7250947647120698e-07,1.325254346721143e-06,2.4822111110796837e-07,4.794787397501019e-07,-5.003489358395848e-08,5.532779452946486e-07,-7.766510675704184e-07,5.065570301813603e-07,-3.707654011356739e-07,-7.903196652015735e-07,1.0503713201990564e-06,-6.55063452034774e-07,-1.609427796964592e-07,9.001637164053375e-08
2.0875189114860964e-07,-5.262227075366439e-07,4.3839907932048895e-07,-5.418826287725268e-07,1.5232454534874498e-07,1.3061470984716595e-06,1.9656095073653322e-07,4.440108651551681e-07,-4.7711925213187754e-08,4.6965627027201574e-07,-7.9576132451661e-07,3.909030564360931e-07,-3.9653752336658235e-07,-8.239879212329226e-07,9.692263000264919e-07,-6.954094018290996e-07,-2.1435671505445574e-07,7.166296452786694e-08
2.1925945110971463e-07,-5.287717456293688e-07,3.9852614406703106e-07,-5.66571590590782e-07,1.2690058138094504e-07,1.2738710135836705e-06,3.722371197526778e-08,4.0820147741010384e-07,-5.41127186727248e-08,3.8024979272513323e-07,-8.202344567184962e-07,2.8499113836302653e-07,-4.195935618433684e-07,-8.472838449797498e-07,8.683727938360611e-07,-7.323030478254801e-07,-2.60127620543514e-07,5.8445495866731453e-08
2.2915812926198402e-07,-5.31277343001953e-07,3.695531200807379e-07,-5.906641725206669e-07,1.0532746089168662e-07,1.224652765272278e-06,4.16265668679595e-08,3.7574242039183743e-07,-1.5500974502523934e-08,2.899522994809929e-07,-8.453379043747056e-07,2.2334333939279314e-07,-4.370761685813517e-07,-8.547723847902735e-07,7.553949644449118e-07,-7.647786258164368e-07,-2.892223623054217e-07,5.270301576955042e-08
2.3264691930666283e-07,-5.313202457551893e-07,3.3299841425326327e-07,-6.12388016705789e-07,9.261797984189215e-08,1.159422256145274e-06,9.865571900933048e-08,3.481999142682797e-07,3.508488719063727e-08,2.0694028093111673e-07,-8.707317585904347e-07,1.975876506187245e-07,-4.467782797392029e-07,-8.447137280728029e-07,6.412043502494287e-07,-7.939632851655758e-07,-2.977840151402574e-07,5.4359890593306706e-08
2.2690252840517478e-07,-5.268818026458019e-07,2.877093180836944e-07,-6.301989209388268e-07,8.96981961640552e-08,1.0824266065681617e-06,2.2006941380596257e-07,3.2598413362334337e-07,7.591033565347871e-08,1.4058615171073452e-07,-8.947167212699763e-07,2.035397415150816e-07,-4.4723178464531414e-07,-8.19414161951661e-07,5.374248762715103e-07,-8.216775763998934e-07,-2.8684880219714644e-07,6.163849245179578e-08
2.1268602921097915e-07,-5.166810375135486e-07,2.3523704712001752e-07,-6.431909731852951e-07,9.485279358651224e-08,9.969103845913204e-07,2.8806523421827714e-07,3.0873009169870467e-07,7.361762882990808e-08,9.719776566309439e-08,-9.14932560664262e-07,2.2562900717108905e-07,-4.3843724673659935e-07,-7.848450734417825e-07,4.519619075363022e-07,-8.496428735516316e-07,-2.6159634156257517e-07,7.173071769641458e-08
1.9283242683075168e-07,-5.007278615912346e-07,1.7124055463271039e-07,-6.516948743662529e-07,1.0501837514753123e-07,9.086557242252671e-07,2.6244907831335197e-07,2.954476216949536e-07,8.602977785670609e-09,7.691106498540829e-08,-9.31454194807848e-07,2.4964608931248175e-07,-4.223025437523798e-07,-7.484950459877406e-07,3.867104854664138e-07,-8.792891263603942e-07,-2.2932735806113103e-07,8.170884438249816e-08
1.708293812837268e-07,-4.801880627404222e-07,1.0530865729139438e-07,-6.570415316350467e-07,1.1752355062021975e-07,8.2237016460813e-07,2.0625446718732064e-08,2.8557604507765386e-07,-1.1205546600883326e-07,7.473744247930751e-08,-9.436310062412773e-07,2.7317124613412144e-07,-4.0191665159635785e-07,-7.169840305448956e-07,3.387800374664337e-07,-9.11568693449453e-07,-1.9669503839974373e-07,8.964871241744412e-08
1.496923558602768e-07,-4.5655680483094605e-07,3.839574649628494e-08,-6.605846193469117e-07,1.309065872209404e-07,7.444507483984438e-07,-3.15991242278381e-07,2.7946565807327944e-07,-2.0816742872805105e-07,8.392680204118051e-08,-9.51516547715228e-07,2.8951737681428567e-07,-3.8051206943829264e-07,-6.945842910535278e-07,3.036810091299711e-07,-9.469324423374365e-07,-1.685204986724706e-07,9.500047509199175e-08
1.324747273693501e-07,-4.311129338446919e-07,-2.709628843489433e-08,-6.634126644582174e-07,1.4386218943779426e-07,6.765889956488224e-07,-7.082472538266411e-07,2.7715955332729617e-07,-2.6050102045290733e-07,9.872514234479002e-08,-9.556014949643709e-07,2.9701003154838347e-07,-3.6088453261637747e-07,-6.823281316504335e-07,2.786683662143258e-07,-9.85455477038135e-07,-1.480889770014763e-07,9.818078079427281e-08
1.21914649780385e-07,-4.049361210570652e-07,-8.89185371411853e-08,-6.664226599329922e-07,1.5419290382074001e-07,6.190765909443512e-07,-1.0170184893164386e-06,2.773482981958115e-07,-3.2901882343964613e-07,1.1587782992863207e-07,-9.584617376156932e-07,2.9347788300489924e-07,-3.448408509575318e-07,-6.801329489676959e-07,2.676116266257699e-07,-1.0265285816940805e-06,-1.3714958554254547e-07,1.0015784850877184e-07
1.2015993079376365e-07,-3.7888158042504423e-07,-1.400773211342271e-07,-6.70184255815583e-07,1.5916682239344344e-07,5.711686236665692e-07,-1.2448642898290488e-06,2.772804595141806e-07,-3.9826557038142016e-07,1.3366867370780816e-07,-9.62237686184142e-07,2.783878427160294e-07,-3.327319698529277e-07,-6.869672288819392e-07,2.6918557912116663e-07,-1.0682400741780672e-06,-1.3595298459465852e-07,1.0190577503505471e-07
1.2847696846510477e-07,-3.536818247612896e-07,-1.7863035181738985e-07,-6.751536677411584e-07,1.5631373980094606e-07,5.301598043267459e-07,-1.4423397562267608e-06,2.755771164431733e-07,-4.2792540372099645e-07,1.5288723857722545e-07,-9.669412265983109e-07,2.521696865458984e-07,-3.236951474931375e-07,-6.998846372130192e-07,2.874671778324187e-07,-1.1073926649636248e-06,-1.4398962053353957e-07,1.0353164252280926e-07
1.4711892688129496e-07,-3.3024112007272234e-07,-2.055879900923991e-07,-6.815615129211207e-07,1.4378585239934465e-07,4.957172140389778e-07,-1.6597455265010748e-06,2.6900977390925903e-07,-4.348504544383621e-07,1.745463255741786e-07,-9.743901830360815e-07,2.2208973720841333e-07,-3.162153992027534e-07,-7.172287155898032e-07,3.25557219555092e-07,-1.139986512027081e-06,-1.601722618407748e-07,1.0396389755956234e-07
1.720962975739722e-07,-3.09680566172022e-07,-2.1899823190596635e-07,-6.892597300708086e-07,1.2094938253789675e-07,4.684952440905198e-07,-1.9014253204775397e-06,2.552634688343125e-07,-4.6007849091207815e-07,1.9905397183084078e-07,-9.82238781795275e-07,1.9445835235328933e-07,-3.084135743408025e-07,-7.367333787324807e-07,3.808230796972586e-07,-1.161752392767337e-06,-1.8225316336291205e-07,1.0167778398236193e-07
1.996910259653956e-07,-2.929412738072899e-07,-2.2506593449254133e-07,-6.976143998241213e-07,8.863072979648019e-08,4.4865159134086065e-07,-2.0932223353250357e-06,2.3459517381979285e-07,-4.788425884702937e-07,2.262739928941942e-07,-9.889143409739434e-07,1.755489033512472e-07,-2.984892962141797e-07,-7.594240996409733e-07,4.495032234683733e-07,-1.1692077526004938e-06,-2.0696058818987775e-07,9.575385349615146e-08
2.2762905339869146e-07,-2.806557288110261e-07,-2.2741648015393217e-07,-7.057795895729998e-07,4.842667336216064e-08,4.325950841786611e-07,-2.238257592056834e-06,2.0610087564112583e-07,-4.792407134699882e-07,2.5303689709725544e-07,-9.929061724008564e-07,1.715957371216285e-07,-2.8536378563548517e-07,-7.810937797469858e-07,5.276650901748284e-07,-1.1608718108249734e-06,-2.3054644073299668e-07,8.686893171039271e-08
2.5026340220187143e-07,-2.72852775643367e-07,-2.2766323337113296e-07,-7.131431631126688e-07,2.3444353832886827e-09,4.1835029178219044e-07,-2.2982860072134902e-06,1.7150361787256478e-07,-4.996048751376322e-07,2.752308695417488e-07,-9.976059566205836e-07,1.841834449207183e-07,-2.687135272885459e-07,-7.979562076628972e-07,6.008248492277991e-07,-1.1375148132026039e-06,-2.487046412172246e-07,7.806478279710076e-08
2.646180470391047e-07,-2.6887558493799024e-07,-2.3645923026696065e-07,-7.193034517116771e-07,-4.669458359667884e-08,4.049242908052391e-07,-2.2944845206865198e-06,1.3387321573455e-07,-5.377488333294548e-07,2.8897770485280137e-07,-9.945180628775253e-07,2.1189837802467339e-07,-2.4858286373127994e-07,-8.0585539319615e-07,6.370349461236091e-07,-1.1016551862520906e-06,-2.5727364021565517e-07,7.385334566059004e-08
2.6940238499493086e-07,-2.677363439871189e-07,-2.407403002820357e-07,-7.241072160370921e-07,-9.523398584300733e-08,3.865103268940705e-07,-2.295111551101567e-06,9.655744419244188e-08,-5.553364205546111e-07,2.901791321053587e-07,-9.912249714395165e-07,2.4939173651025925e-07,-2.2548086419917036e-07,-8.012666293237987e-07,6.549789500010031e-07,-1.0574592702693991e-06,-2.5456670505016626e-07,7.923175744055835e-08
2.635156297540584e-07,-2.6884707387402873e-07,-2.3829157693938675e-07,-7.278947971480778e-07,-1.410048976156323e-07,3.580996928700444e-07,-2.3080149274622752e-06,6.229902271716834e-08,-5.640736346362303e-07,2.748655843653095e-07,-9.922951580267055e-07,2.8789072946458377e-07,-2.0062313097480875e-07,-7.861559674510076e-07,6.287750780616494e-07,-1.0106400444265606e-06,-2.4278205172633407e-07,9.756566632944868e-08
2.4761607291549236e-07,-2.725244450698165e-07,-2.3038435034003548e-07,-7.314936519766694e-07,-1.839694649014247e-07,3.1610794774064805e-07,-2.3585331044078525e-06,3.274081911584943e-08,-5.645732370577372e-07,2.436500454641179e-07,-9.971826801847385e-07,3.1865951851195393e-07,-1.7558540347418913e-07,-7.641759594045444e-07,5.764448163620897e-07,-9.676248506136453e-07,-2.268079563393525e-07,1.2874296276113176e-07
2.241656733744525e-07,-2.7957381646168196e-07,-2.138062845388459e-07,-7.358854266181462e-07,-2.2581476749574153e-07,2.5792459540154445e-07,-2.4649957680381898e-06,8.472839075970383e-09,-5.629079855286197e-07,1.9603412468064782e-07,-1.0122966191569151e-06,3.364717666876835e-07,-1.5184849850834617e-07,-7.426025661203785e-07,5.855236561144195e-07,-9.342682788884422e-07,-2.1228132523729396e-07,1.7020114657141918e-07
1.973419400759395e-07,-2.904933775128542e-07,-1.9494098845457554e-07,-7.423297263710548e-07,-2.6889984768225333e-07,1.8618298423357777e-07,-2.625715808087199e-06,-9.280956874676491e-09,-5.768274064631847e-07,1.350645771872246e-07,-1.0373575077978827e-06,3.417242913390829e-07,-1.3062831898055497e-07,-7.194209134019762e-07,5.478016748098229e-07,-9.143225812965822e-07,-2.0256377482674697e-07,2.1745878319976665e-07
1.704659639956504e-07,-3.0457123101161806e-07,-1.761469801678768e-07,-7.526395548924471e-07,-3.12307977692544e-07,1.0305730449585847e-07,-2.792730716896935e-06,-2.1861527322260056e-08,-6.104004899559338e-07,6.912973075582653e-08,-1.0704099874827938e-06,3.409918983221817e-07,-1.1242194081619849e-07,-6.989372320691115e-07,4.5058160427223083e-07,-9.076701957603713e-07,-1.9694000811542525e-07,2.653420338249673e-07
1.4858704958322371e-07,-3.1937392093443114e-07,-1.609973813633551e-07,-7.688843071015826e-07,-3.5265438358916514e-07,1.6718580558027626e-08,-3.0270574030487315e-06,-2.9087069788730174e-08,-6.530147621426182e-07,7.316007260285558e-09,-1.108779367631245e-06,3.449561493972131e-07,-9.649356678869387e-08,-6.908038607158094e-07,3.6360169612742283e-07,-9.095636308915753e-07,-1.9087217427300532e-07,3.095258908526473e-07
1.3089319656473622e-07,-3.310015762039397e-07,-1.520460772555793e-07,-7.925053194771275e-07,-3.833920052414876e-07,-6.089031038990671e-08,-3.3034305009004702e-06,-2.814773515096103e-08,-6.889950987083617e-07,-3.903497038241825e-08,-1.141757781416093e-06,3.631389415482368e-07,-8.136687089747092e-08,-6.911593289750538e-07,2.5597853215207006e-07,-9.125116925903609e-07,-1.7885359802593469e-07,3.505162546312436e-07
1.1945304448664214e-07,-3.3544617219644027e-07,-1.540480644266831e-07,-8.229499497627297e-07,-3.9720268032123594e-07,-1.225281528703019e-07,-3.5948378647257133e-06,-1.2605140568399717e-08,-7.488424770596364e-07,-5.45758792472174e-08,-1.1611869928916955e-06,3.9832806503733696e-07,-6.599218357283421e-08,-6.977400791292923e-07,1.8261534646371068e-07,-9.102292980785876e-07,-1.5866095946011698e-07,3.8446015661198535e-07
1.1388277068895364e-07,-3.2999420596777666e-07,-1.6549146679603707e-07,-8.565777172618373e-07,-3.9071566618349094e-07,-1.601091456476461e-07,-3.840068483514748e-06,5.852604877263221e-09,-8.086834253274864e-07,-3.8328937322163246e-08,-1.1632589736872924e-06,4.436498566119915e-07,-4.998265778489818e-08,-7.090084568439185e-07,1.4580960808445772e-07,-9.007859942351522e-07,-1.3129338941171843e-07,4.0476832082851425e-07
1.0308970496354524e-07,-3.1392094224094935e-07,-1.799130542411537e-07,-8.865989479114752e-07,-3.60707010182332e-07,-1.7339002209811264e-07,-4.012232788589779e-06,3.424645530544504e-08,-8.598767674329083e-07,4.5556474398938635e-09,-1.1435375827571394e-06,4.888889233788758e-07,-3.4410634217198404e-08,-7.21126331412035e-07,1.2762619747697945e-07,-8.871203194325382e-07,-9.998732519250451e-08,4.1256155328210237e-07
9.923010376243377e-08,-2.884632521081447e-07,-1.9157582387146047e-07,-9.053095302782701e-07,-3.0576542329121547e-07,-1.682245884331949e-07,-4.113791888804233e-06,7.559058943830817e-08,-9.093481626068261e-07,6.290994873896066e-08,-1.10609235473425e-06,5.315189154084217e-07,-2.14331359182687e-08,-7.330799679167705e-07,1.3377022946980304e-07,-8.751558546149028e-07,-6.953386669989015e-08,4.0149273054223834e-07
9.468756683500416e-08,-2.564079309575581e-07,-1.9324117410563896e-07,-9.070998581987117e-07,-2.3145699519104215e-07,-1.5562279575093535e-07,-4.1189614951121985e-06,9.845542408127622e-08,-9.475694553340258e-07,1.2078682762857385e-07,-1.0600841372472228e-06,5.264580420327051e-07,-1.4706218330998469e-08,-7.556482108926863e-07,1.3824829636105364e-07,-8.708786750672245e-07,-4.481674203753255e-08,3.75406074614939e-07
6.489480213757261e-08,-2.2156781814514904e-07,-1.830569725137519e-07,-8.903233812174339e-07,-1.6088127669186275e-07,-1.4063046050608703e-07,-4.0621091440157e-06,1.1307391794227941e-07,-9.894473355317572e-07,1.6330779006220782e-07,-1.0255442066706555e-06,5.001589303766397e-07,-1.6808645486301763e-08,-7.965728764692105e-07,1.1442097751074039e-07,-8.784358077146608e-07,-2.9678935557093318e-08,3.474745721698866e-07
1.8188451921086138e-08,-1.8827448862976567e-07,-1.633173950230098e-07,-8.57610768903653e-07,-1.074435729317135e-07,-1.334649145760378e-07,-4.0038190572501565e-06,8.686962245177515e-08,-1.0174652002751449e-06,2.0787191216482975e-07,-9.799530309934079e-07,4.099140536009716e-07,-2.8061294707834554e-08,-8.50370033424863e-07,1.0618077660214436e-07,-9.003823908600922e-07,-2.6932552120726875e-08,3.181190925452903e-07
-1.849980049400599e-08,-1.614506039622801e-07,-1.3550859512823466e-07,-8.150199520126786e-07,-1.1082242121089713e-07,-1.4166815901750723e-07,-3.946418978139186e-06,-1.1276917468732329e-08,-1.049090167379578e-06,2.5895036935844024e-07,-9.523147577338535e-07,3.154781449813908e-07,-4.919646492597247e-08,-9.366321791613388e-07,1.294318115573764e-07,-9.388620878712238e-07,-3.864020612825041e-08,2.944370664479418e-07
-4.589291321034704e-08,-1.462408558679296e-07,-1.0720837876853946e-07,-7.701941904888163e-07,-1.608373916558349e-07,-1.534436179609742e-07,-3.855275423471436e-06,-9.153605524579916e-08,-1.0502933799370568e-06,3.1424985259443183e-07,-9.166622069191139e-07,2.0780947355327628e-07,-7.940548036655791e-08,-9.920221275381388e-07,1.654466313617348e-07,-9.96003497428742e-07,-6.249334390343028e-08,2.7804524458664076e-07
-2.125928065804657e-08,-1.467475329971062e-07,-8.051276084551115e-08,-7.299134184087459e-07,-2.0155029546199817e-07,-1.717549135755364e-07,-3.86276157782993e-06,-1.4961654057829264e-07,-9.854450550550863e-07,4.2544301364720067e-07,-8.120673779583929e-07,1.6449202084276354e-07,-1.1661345485075722e-07,-1.0287055048218878e-06,2.7960226910749914e-07,-1.0734173333122103e-06,-9.095077578979097e-08,2.6317200611869485e-07
9.207076944314882e-08,-1.6460070010146155e-07,-5.385080482339387e-08,-6.984324412702588e-07,-2.365758074283258e-07,-1.3713120246729365e-07,-3.923793427283929e-06,-1.9942680463004085e-07,-9.86665545504938e-07,4.867290140110002e-07,-7.470286651643304e-07,1.705090212409414e-07,-1.5843919692464798e-07,-1.0678674746124588e-06,3.387313910163414e-07,-1.1711802498920548e-06,-1.21324130171054e-07,2.5246574164948924e-07
1.6497390397421833e-07,-1.9868496063262678e-07,-2.5432124494683215e-08,-6.768300893278895e-07,-2.740242415097568e-07,-6.79673106479769e-08,-3.880061227311293e-06,-2.4321439702568943e-07,-1.0327379465053336e-06,5.329947064941623e-07,-6.989434930736607e-07,1.926702391529387e-07,-2.019456780344819e-07,-1.0831448642190511e-06,3.7852184148492577e-07,-1.2861110359629293e-06,-1.4044134912658159e-07,2.445652834919165e-07
1.6736555110692923e-07,-2.4421334840922825e-07,8.57826682023539e-09,-6.631182301518203e-07,-3.400410139657709e-07,7.792865880943867e-09,-3.903942735660737e-06,-3.3563392527396046e-07,-1.086601536998089e-06,5.627506126964064e-07,-6.616964740751365e-07,2.187666510047307e-07,-2.436528445080094e-07,-1.1185915952530065e-06,4.068825336011087e-07,-1.4105449037393778e-06,-1.200184744544757e-07,2.3653050797325714e-07
1.9940380337151482e-07,-2.934120168552005e-07,4.816208904495554e-08,-6.541125934784745e-07,-4.5093939905366883e-07,1.288442090048256e-07,-3.912213905269559e-06,-4.565741866750835e-07,-1.1055397955227912e-06,6.370738457028584e-07,-6.050848699592685e-07,3.1801652198431345e-07,-2.823584744544644e-07,-1.199999721655025e-06,4.611837367352567e-07,-1.53388261723859e-06,-9.255597382423265e-08,2.262614221430222e-07
2.682782430948887e-07,-3.387885533052502e-07,8.936240316004752e-08,-6.468257706700079e-07,-5.44897599094662e-07,2.5421727909311014e-07,-3.866892770510034e-06,-5.264570960356869e-07,-1.0857711927230324e-06,7.389608796891613e-07,-5.543269464521475e-07,4.358162256796982e-07,-3.1981222667827114e-07,-1.2786072942081663e-06,5.485311991562534e-07,-1.6466070611068635e-06,-5.856661663521672e-08,2.0860891012010046e-07
3.5798124920593304e-07,-3.7689553834276317e-07,1.2447257915474812e-07,-6.402271905322029e-07,-5.975234552542877e-07,3.249815102366218e-07,-3.895935897017294e-06,-5.820069160089759e-07,-1.0327784648287414e-06,7.806603724782776e-07,-5.119259768991885e-07,4.628931899220349e-07,-3.5960331727386527e-07,-1.3177062134872359e-06,5.677270619108295e-07,-1.7438578797737313e-06,-2.1307479965600425e-08,1.7960809075210052e-07
3.915950250242182e-07,-3.948201960905197e-07,1.4523467741699653e-07,-6.351331666467336e-07,-6.516449931172011e-07,3.0130666790497315e-07,-3.7172732050256876e-06,-6.474486926885445e-07,-9.79400401304139e-07,8.186928727452377e-07,-4.942883778763105e-07,4.1906123136931236e-07,-4.0523209573742414e-07,-1.3171989918583577e-06,6.014586307235685e-07,-1.8267368415697344e-06,1.1562073730959193e-08,1.378811205414074e-07
3.940658689991678e-07,-4.040183767364455e-07,1.4521064727913378e-07,-6.324079626595775e-07,-7.296677365126945e-07,2.7603548552028867e-07,-3.5017234741753893e-06,-7.078083729537819e-07,-9.100488668978174e-07,8.518725379299252e-07,-4.769974517498852e-07,3.9424315371627755e-07,-4.615445995521601e-07,-1.348493359573984e-06,6.410868002676161e-07,-1.9011255595466496e-06,2.0418973323272785e-09,8.401107469800875e-08
3.9100679229106933e-07,-4.0171739926281655e-07,1.2461140651915766e-07,-6.34975704776188e-07,-7.595792741805037e-07,2.6187285872794985e-07,-3.296373464156167e-06,-7.638552056961273e-07,-8.836054658013795e-07,8.641002192355739e-07,-4.617374271190503e-07,3.671538639161218e-07,-5.279792591806129e-07,-1.342244423958821e-06,6.633522130699372e-07,-1.9742110231593213e-06,-5.617347622920725e-08,2.0507189142234127e-08
3.8293968694485274e-07,-3.9452713068869993e-07,6.936340129306526e-08,-6.442821541447355e-07,-7.622597987443683e-07,2.53856438418855e-07,-3.078631053516989e-06,-7.89937971052926e-07,-8.871818073570398e-07,8.880887492865153e-07,-4.3810295699576316e-07,2.4868112477421525e-07,-6.004544799844479e-07,-1.3699618007904377e-06,6.924861505690826e-07,-2.050326666222997e-06,-1.5168702914467667e-07,-4.857456488394564e-08
3.971384721674294e-07,-3.8868323321019825e-07,1.6328341791217716e-09,-6.604523593183746e-07,-7.239446239724091e-07,2.2087169289378841e-07,-3.0274579927331573e-06,-7.737040661137955e-07,-9.011235053381046e-07,9.366280186427375e-07,-3.9986653198558383e-07,1.2401054790519222e-07,-6.699703897210025e-07,-1.4212873586254192e-06,7.242619445926603e-07,-2.1287116418838423e-06,-2.5348066486184315e-07,-1.186975224941068e-07
4.0144320808754214e-07,-3.8946729792525114e-07,-7.889929872941212e-08,-6.832924915306431e-07,-6.941885275082858e-07,1.4924654370882237e-07,-3.103903803868563e-06,-7.488305384059232e-07,-9.25274951344189e-07,9.357386465197477e-07,-4.067744395564244e-07,3.038131389216478e-08,-7.352946635712104e-07,-1.455971469777634e-06,7.16003885438054e-07,-2.203866639230224e-06,-3.5504954691292707e-07,-1.8581412563896224e-07
3.3640616067333844e-07,-4.008233555974094e-07,-1.5925959465878945e-07,-7.113955926329549e-07,-6.638273363205724e-07,4.828764076248877e-08,-3.1351362625984655e-06,-7.251627841239677e-07,-9.247317561595315e-07,9.086950553744806e-07,-4.254280324334693e-07,-4.002798549799393e-08,-7.939359527145951e-07,-1.4686607054494373e-06,6.777171954673082e-07,-2.2673567268549557e-06,-4.538151959168171e-07,-2.464455142661634e-07
2.0179198544595529e-07,-4.2469398766967164e-07,-2.2764370791076825e-07,-7.423650260826737e-07,-6.276025893476548e-07,-4.1559288516629873e-08,-3.048692110517897e-06,-6.963415243999917e-07,-9.290684494264337e-07,8.51730908752796e-07,-4.450602445994005e-07,-9.154454662341854e-08,-8.313018929789706e-07,-1.4749319639761293e-06,6.50127875386017e-07,-2.3105584074516566e-06,-5.391328717083747e-07,-2.976060665215729e-07
1.1343357249982348e-07,-4.6032274098651727e-07,-2.7414846346587054e-07,-7.72247574288269e-07,-6.220977858916677e-07,-1.1828876821688e-07,-2.9870120693090366e-06,-6.984802027406978e-07,-9.159494765408425e-07,7.680640054302188e-07,-4.7571020988929505e-07,-1.3425148518916042e-07,-8.327350368808149e-07,-1.4765379226298546e-06,5.824638071178257e-07,-2.3279125742901785e-06,-6.091577939864717e-07,-3.3720631455110225e-07
5.18515932273905e-08,-5.047548272524209e-07,-2.9340913917294695e-07,-7.95294788392301e-07,-6.312486806374755e-07,-1.6392745478399224e-07,-2.883330722989163e-06,-7.11311919298502e-07,-8.51680033505657e-07,7.017482714035992e-07,-5.055126622492452e-07,-1.667994731904323e-07,-8.128316334905711e-07,-1.484758883161225e-06,5.117316219671328e-07,-2.3190906437194194e-06,-6.730184939034834e-07,-3.644456878119213e-07
-3.3749967611904324e-08,-5.537038569486321e-07,-2.8618014554245386e-07,-8.069051168463036e-07,-6.477209695104379e-07,-1.9368890873354397e-07,-2.6837258611850885e-06,-7.265803568977387e-07,-7.939912536442692e-07,6.445010081779667e-07,-5.653426298373123e-07,-1.9180026060835802e-07,-7.779064637299898e-07,-1.5142060363527908e-06,4.6119573975696256e-07,-2.2891850202784666e-06,-7.281478670681019e-07,-3.8005552157493884e-07
-5.4647801085972766e-08,-6.0092535510717e-07,-2.6005052262980276e-07,-8.063942657084422e-07,-6.725434147637602e-07,-2.226173024043581e-07,-2.6709838952668646e-06,-7.481373807426507e-07,-8.091915648527014e-07,6.077532209769596e-07,-6.304848017377754e-07,-2.1165101957290715e-07,-7.38960472800676e-07,-1.5344694256221728e-06,4.095877368571378e-07,-2.2474169142225825e-06,-7.694858178487472e-07,-3.865505672481047e-07
-5.638254808005946e-08,-6.425918611849289e-07,-2.2824007570583167e-07,-7.954039392600064e-07,-6.946612117230812e-07,-2.535850865339946e-07,-2.7639519209223666e-06,-7.647252633760224e-07,-8.539067379075349e-07,5.878707996898995e-07,-6.889498301416483e-07,-2.2415316588488785e-07,-7.164514937767434e-07,-1.5376392076445156e-06,3.472039187075524e-07,-2.2045226353719176e-06,-8.000771888192633e-07,-3.877661527714023e-07
