0,1,2,3,4,5,6,7,8,9,10,11,12,13,14,15,16,17
-5.156964976356693e-09,7.341689774470994e-08,1.3637357269676209e-07,5.774296681056151e-08,-1.2011001073102863e-07,1.3936107323143082e-07,-8.895424568463597e-08,2.833482621088529e-08,7.928667406972042e-08,2.461313670685307e-08,1.1534184841243742e-08,-2.1410819095707084e-08,1.0291084715061417e-07,-2.173873611378006e-08,1.5356105732502134e-08,-3.4324280555308605e-07,-3.711094994163673e-08,2.661903359484667e-08
-1.116485493650883e-08,6.024778604446438e-08,1.1507870907149998e-07,4.929169217271175e-08,-9.946266685018905e-08,1.251112245894097e-07,-7.182679777137098e-08,2.991272888863225e-08,6.223710849470075e-08,2.187588414490069e-08,1.5332105493038647e-08,-5.831933580782822e-09,1.0466111415179297e-07,-6.60751865711077e-09,3.7897968138536926e-08,-2.6877455533534585e-07,-1.2976028630085461e-08,2.886829441328233e-08
-1.322206599696766e-08,4.717436445949284e-08,8.527545764603422e-08,3.948744449172929e-08,-7.55530233170273e-08,1.1012393969135012e-07,-4.916094939450582e-08,3.202599072825798e-08,4.7185434979901124e-08,1.6151853755034046e-08,1.905211609627904e-08,1.0389055086117193e-08,1.0592215608271549e-07,1.4073705930462264e-08,6.239130960478984e-08,-1.8513775463244192e-07,7.785750941471755e-09,3.0242306122450245e-08
-1.2174481680268768e-08,3.449007188822136e-08,5.2573328774504536e-08,2.8516610466461816e-08,-5.02857693024813e-08,9.464242818479101e-08,-2.239857765152001e-08,3.490329237095295e-08,3.5002690676831946e-08,1.0480754067026942e-08,2.2234275214203407e-08,2.593620156557281e-08,1.0622510644260976e-07,3.654665253708456e-08,8.353614124111655e-08,-1.0282026273927917e-07,2.290552887915854e-08,2.9333435690682026e-08
-9.076797176193018e-09,2.2435651862244105e-08,2.2481915976753223e-08,1.7326869170609993e-08,-2.5622137366319366e-08,7.873599858432877e-08,5.700738982451064e-09,3.802971880656035e-08,2.5542772275312547e-08,1.0758315839434162e-08,2.442229870539836e-08,3.899989519400999e-08,1.0457789384484732e-07,5.575206319860191e-08,9.629527027249127e-08,-3.169357166517452e-08,3.1757361938601626e-08,2.556062236674399e-08
-4.795537822354431e-09,1.1218782884829641e-08,-1.0971489623371144e-09,7.261083925350551e-09,-3.3393725150250697e-09,6.221253644041188e-08,3.1556892466909854e-08,3.9990655546507586e-08,1.7782764454986195e-08,8.898541983435886e-09,2.5088597814487693e-08,4.745362853168644e-08,9.826557680600403e-08,6.681449359068776e-08,9.712044534388536e-08,2.177203191038921e-08,3.481066022236721e-08,1.8942038748820077e-08
9.316977258722534e-11,1.0052648486583302e-09,-1.6663907727732833e-08,-5.939290231043514e-10,1.502727528994574e-08,4.4470721730749666e-08,5.144468685771261e-08,3.867798144040928e-08,1.024088784362714e-08,1.0252260996254234e-08,2.3656867635191118e-08,4.906254973084112e-08,8.471857819216124e-08,6.678224352738545e-08,8.456847953139672e-08,5.5292836502531656e-08,3.276298660550501e-08,9.818993411619543e-09
4.946455249773029e-09,-8.295182705152924e-09,-2.5311082856169005e-08,-6.244937919590951e-09,2.7933362624281472e-08,2.4372251962138437e-08,6.190157740077627e-08,3.173142289255536e-08,1.346038041491826e-09,1.133079704376282e-08,1.942432105767216e-08,4.213617366798434e-08,6.169419086477688e-08,5.5272381479989986e-08,5.9582563244608915e-08,7.037841704247918e-08,2.8281935864055044e-08,-1.27792206569053e-09
8.878494653009093e-09,-1.697120187030236e-08,-2.985518476283213e-08,-1.078269956255237e-08,3.432451777101193e-08,7.084197116340888e-10,6.082147428903967e-08,1.7774817290575906e-08,-9.769478066913512e-09,7.592980853093138e-09,1.2131300678678183e-08,2.6904514549641134e-08,2.8736270157835484e-08,3.453037979649621e-08,2.5733517497727524e-08,7.26001371283623e-08,2.1135127934256107e-08,-1.3157892738506186e-08
1.1114611725206312e-08,-2.4994429829730856e-08,-3.3206976904664917e-08,-1.535042791748518e-08,3.484199244413949e-08,-2.662017102981439e-08,4.8812585200205705e-08,-2.3068548378228885e-09,-2.2525283007210916e-08,1.4093179724859595e-09,2.2086294121773752e-09,6.099946053247136e-09,-1.0747349396425163e-08,8.658863711890221e-09,-1.1483868354417057e-08,6.989498585140359e-08,1.1458941687228794e-08,-2.390221056670704e-08
1.1290350750903697e-08,-3.176862206691894e-08,-3.72903117104428e-08,-2.0398410357090456e-08,3.1989714765133946e-08,-5.615523696776693e-08,2.9168510555684713e-08,-2.539071074788009e-08,-3.515962168546846e-08,-6.2324511014728735e-09,-9.22451040422459e-09,-1.6208583360983372e-08,-5.317688887921977e-08,-1.7644443263855794e-08,-4.679128727274648e-08,6.895609880464114e-08,9.132874226806491e-10,-3.1824255351434876e-08
9.407889945913186e-09,-3.648431477919265e-08,-4.285944891881699e-08,-2.57185152459905e-08,2.914378040234606e-08,-8.531068443999535e-08,6.782463468327282e-09,-4.6993318125067106e-08,-4.54725100523037e-08,-1.5634577522257746e-08,-2.150944998246382e-08,-3.5904189783387685e-08,-9.450966802875638e-08,-4.1115583906297836e-08,-7.660635766220593e-08,7.345981792194213e-08,-1.132568026261016e-08,-3.571377720670096e-08
5.948816869880619e-09,-3.845098204999352e-08,-4.94573148373437e-08,-3.043461979295367e-08,2.9885687854741936e-08,-1.1071471979115904e-07,-1.2578985774143441e-08,-6.19792623255703e-08,-5.1072998993030844e-08,-2.4352816613490797e-08,-3.234093469651872e-08,-4.9005576958502145e-08,-1.309244111253025e-07,-5.727268733675456e-08,-9.8532447789358e-08,8.5182637866373e-08,-2.4028910247768202e-08,-3.4404943911427966e-08
2.182611525830568e-09,-3.710978824814287e-08,-5.557546154999329e-08,-3.295142442739357e-08,3.754192409640177e-08,-1.287755797872451e-07,-2.3196613782805025e-08,-6.566560909572048e-08,-4.972935208755768e-08,-2.8787647368076337e-08,-3.9237747508172155e-08,-5.202945477341885e-08,-1.583088182878301e-07,-6.615073726173593e-08,-1.1088122234205375e-07,1.0532695304459089e-07,-3.394125932944665e-08,-2.6796790011583815e-08
5.7254238559054114e-11,-3.2152848625427464e-08,-5.959845185714792e-08,-3.1605352690190587e-08,5.414922895146083e-08,-1.3702844637884478e-07,-2.134708503780487e-08,-5.5720697498859696e-08,-4.048100850191065e-08,-2.7058367722235438e-08,-3.9667658068877846e-08,-4.32383680867589e-08,-1.7339187644167757e-07,-6.67729253833002e-08,-1.1297224522480723e-07,1.347392939094467e-07,-3.7485125085555725e-08,-1.21087206008112e-08
1.671047856986829e-09,-2.3761449557758342e-08,-6.086769407807382e-08,-2.5546350101073697e-08,7.953549588260738e-08,-1.351337557314169e-07,-6.725674124321274e-09,-3.3324981544418515e-08,-2.4414118442178198e-08,-2.129798303474725e-08,-3.310439628811258e-08,-2.3353038739559147e-08,-1.766527215341457e-07,-6.112815184976334e-08,-1.0521437196146784e-07,1.7406573994316756e-07,-3.494362799822139e-08,9.801788104414621e-09
8.882444383440733e-09,-1.2547430156426191e-08,-5.979362602602022e-08,-1.4868754999926107e-08,1.1170777576093344e-07,-1.2454990954247815e-07,1.8129655199504102e-08,-2.4890265534897404e-09,-4.120329733349944e-09,-1.3950987448890877e-08,-2.0554060161278123e-08,4.869851294743251e-09,-1.707077200274489e-07,-4.994706762605835e-08,-8.89857984425878e-08,2.2415883849563517e-07,-2.7970462635108996e-08,3.6832564810333845e-08
2.3025663334000026e-08,6.696749567088386e-10,-5.726281720144389e-08,-2.9586016987747344e-10,1.4784670131777292e-07,-1.0753902296124107e-07,4.937023682958226e-08,3.1520987274201017e-08,1.7423444785254234e-08,-8.488719232365229e-09,-3.3472621435914837e-09,3.726094089905596e-08,-1.5601946858847875e-07,-3.233572812307218e-08,-6.696323162538643e-08,2.8497526761094124e-07,-1.8451907448955883e-08,6.857210614385108e-08
4.441117759783066e-08,1.4904821795321347e-08,-5.40566811290582e-08,1.6918129676797547e-08,1.849525714723146e-07,-8.643482073883426e-08,8.306227746175611e-08,6.369089920245161e-08,3.774287902005158e-08,-5.153633919402026e-09,1.6241233451402715e-08,6.893125776563181e-08,-1.3879804780344956e-07,-9.9555699606493e-09,-4.2750764444519557e-08,3.529876030401886e-07,-1.1700796209205552e-08,1.0128576275277767e-07
7.18993373451378e-08,2.9047405812198024e-08,-5.037839558297324e-08,3.508829478355215e-08,2.2047497735371277e-07,-6.317307917216088e-08,1.1605134804471489e-07,9.052987751211949e-08,5.545584036132164e-08,-5.424515951567902e-09,3.6079854951442215e-08,9.53735536348029e-08,-1.217621715002054e-07,1.5723627636383754e-08,-2.2023799195231775e-08,4.248140816132784e-07,-1.1151264553998005e-08,1.2993838936881026e-07
1.0295475280451135e-07,4.20279499815744e-08,-4.573686560914506e-08,5.23146754088359e-08,2.5278468681428016e-07,-3.935362678923133e-08,1.460346805363036e-07,1.1044376844961677e-07,7.016240873598702e-08,-2.1388976279407158e-08,5.3607158736033093e-08,1.1333372536541066e-07,-1.0935844389555638e-07,4.054911614846007e-08,-8.346483932062078e-09,4.976633702453189e-07,-1.837456084762772e-08,1.5092074636039048e-07
1.341491731063112e-07,5.2874184995112736e-08,-3.9528354997234066e-08,6.652871768687999e-08,2.806532942601523e-07,-1.694045975136779e-08,1.706402410907281e-07,1.2292284746967987e-07,8.152029794118216e-08,-4.755160069642446e-08,6.618880030001442e-08,1.2109753492926692e-07,-1.0834441684269985e-07,6.16662952063192e-08,-3.435146075882033e-09,5.632601934408285e-07,-3.373076772770295e-08,1.6158764479179818e-07
1.6205213504425929e-07,6.075764324855509e-08,-3.25048708766306e-08,7.573774288758018e-08,3.02808614423315e-07,1.4359469453025894e-09,1.8696026255551213e-07,1.2774110037435396e-07,8.861094175986465e-08,-8.197434609729547e-08,7.210844946236272e-08,1.1876955281621639e-07,-1.187527313662538e-07,7.621436273651189e-08,-7.051266273454251e-09,6.168181281008733e-07,-5.508535401351974e-08,1.626070421632375e-07
1.8432447756984675e-07,6.527978892058546e-08,-2.2727811772353433e-08,7.875262542257508e-08,3.184879261387713e-07,1.3167619591383683e-08,1.9239152794648168e-07,1.2493526195077883e-07,9.025008838156717e-08,-1.22221726395911e-07,6.840462572318549e-08,1.0826829040186996e-07,-1.3809412212194274e-07,8.328943683315102e-08,-1.612423172426363e-08,6.564053908342039e-07,-7.933334346298129e-08,1.5741458613118787e-07
2.003471442787025e-07,6.668870829882986e-08,-1.325369330546919e-08,7.560444274294846e-08,3.2791725698603083e-07,1.665185117755687e-08,1.8564899304299828e-07,1.149898782354383e-07,8.556007721087732e-08,-1.617189941331448e-07,5.683922748560158e-08,9.257795628476792e-08,-1.6047321021729868e-07,8.554943428376668e-08,-2.696957230536339e-08,6.813251344220537e-07,-1.0107240000742945e-07,1.5069566397189093e-07
2.110129670477328e-07,6.576194452163533e-08,-3.845606948810646e-09,6.72499226423269e-08,3.322527154373392e-07,1.1959961519836905e-08,1.6735127003217447e-07,9.914041631551136e-08,7.448328359040644e-08,-2.0032932845025417e-07,3.814259649371151e-08,7.525818622132072e-08,-1.870758606996331e-07,8.404245098128147e-08,-3.6021542537326424e-08,6.942208309034651e-07,-1.1626576385150693e-07,1.4580313785451584e-07
2.181143135714445e-07,6.367702287385223e-08,6.1634648498363775e-09,5.529579251299715e-08,3.337195525884048e-07,1.321201639690535e-09,1.404954091702804e-07,7.9992788683686e-08,5.837533971933506e-08,-2.333818264835073e-07,1.6328197430137352e-08,6.061325804747207e-08,-2.1029461684232268e-07,8.197549656203753e-08,-3.881190317887137e-08,7.00099944773365e-07,-1.2889891095869858e-07,1.4535844970590536e-07
2.2366170019918944e-07,6.19458193146933e-08,1.63821515809491e-08,4.1917333899559215e-08,3.35488526917335e-07,-1.1138610501568832e-08,1.0992963080577442e-07,6.142467199716105e-08,3.98968524162295e-08,-2.6221309844167906e-07,3.5542555311463795e-09,5.3034227301909965e-08,-2.2662338859089157e-07,8.198140542060621e-08,-3.314415011485821e-08,7.036991869563498e-07,-1.3698258258417284e-07,1.507522858468732e-07
2.2906221044427845e-07,6.203679742631956e-08,2.8651427326547847e-08,2.9439516994403944e-08,3.40273747561505e-07,-2.0966513977271104e-08,8.023677583749586e-08,4.7218120916934055e-08,2.174246864881923e-08,-2.750876797528051e-07,-4.6401366505378083e-10,5.5148576097217105e-08,-2.253868852285862e-07,6.57585856326335e-08,-1.883751370659579e-08,7.089121842865725e-07,-1.2578042830902745e-07,1.6139193916705706e-07
2.3452479097426743e-07,6.484574242846647e-08,4.434151166700924e-08,1.9950133987507402e-08,3.4899746212101085e-07,-2.48918558861347e-08,5.4008395754344256e-08,3.9989040767134964e-08,5.566694439405e-09,-2.6552878448048416e-07,3.3868688624341587e-09,6.682423927228884e-08,-2.0563369835113628e-07,5.1790370798718964e-08,1.8161150512867214e-09,7.107813751406461e-07,-1.0206204754137117e-07,1.753414295197791e-07
2.3925441122199965e-07,7.056117892373173e-08,6.586999868977502e-08,1.557128596803555e-08,3.60998746641693e-07,-2.0914244431394816e-08,3.211628149619356e-08,4.146131697085435e-08,-7.825339932591604e-09,-2.526050716842081e-07,6.376647919646835e-09,8.587206352099073e-08,-1.7510467767670208e-07,3.216968562319266e-08,2.414974620319192e-08,7.052931593849267e-07,-7.045031998754512e-08,1.8998042610533937e-07
2.420939816401172e-07,7.875003477157912e-08,9.55985601133265e-08,1.8675296461664285e-08,3.747439961693107e-07,-7.94948779087774e-09,1.4501033185143012e-08,5.2807938975766436e-08,-1.7999759681336523e-08,-2.483053729572682e-07,2.131636297565844e-08,1.0898676123455759e-07,-1.323640587571175e-07,1.753899145508611e-08,4.2603109652623506e-08,6.865549692591959e-07,-2.684743420808668e-08,2.02594259718593e-07
2.4185697132601583e-07,8.819294442618747e-08,1.371465991093623e-07,3.1333636135175405e-08,3.8783375535282873e-07,1.398590049215895e-08,1.8222318097556019e-10,7.428546434052045e-08,-2.489841896176848e-08,-2.572585053310552e-07,4.760177173631753e-08,1.3241838183928405e-07,-8.285090889982093e-08,-1.7707965860703683e-08,5.0788792493500776e-08,6.449321914804785e-07,1.853975762175069e-08,2.2310340170661392e-07
2.3743965422195202e-07,9.681852835545192e-08,1.883513655320315e-07,5.491676727622744e-08,3.9755791618012016e-07,4.397237240375558e-08,-1.2177802642150396e-08,1.0537972440221911e-07,-2.841985246154278e-08,-2.7997648175002395e-07,8.962726172587286e-08,1.532802794903221e-07,-3.6395573970877333e-08,-1.1728026885784853e-07,4.304826758975052e-08,5.748836693684846e-07,4.6122018553795653e-08,2.357934775943794e-07
2.2816567147988464e-07,1.0221013016689587e-07,2.481697965142625e-07,9.046434259678686e-08,4.026682860195301e-07,8.120725685505363e-08,-2.275849490675432e-08,1.4562285250239782e-07,-2.7473229585676412e-08,-3.15649195073521e-07,1.486734075641591e-07,1.7084975388154623e-07,7.535883208306387e-09,-2.815717574380661e-07,1.59058216989831e-08,4.818917934669955e-07,1.0617356146337864e-07,2.4325376584498594e-07
2.1410732625070628e-07,1.0218124598179346e-07,3.148272834150967e-07,1.3850047391343117e-07,4.040697314836956e-07,1.2522559122006653e-07,-3.042035483595731e-08,1.9426848139974545e-07,-2.0180034579986147e-08,-3.8965789540668026e-07,1.963380787539501e-07,1.8624238166849223e-07,5.597612650642224e-08,-4.2663347666306773e-07,-3.031440898867476e-08,3.6268903250205735e-07,1.982144298958121e-07,2.5486519177979794e-07
1.9610577237512346e-07,9.490846654308682e-08,3.833009858462794e-07,1.976072296404416e-07,4.03299895761886e-07,1.7465984716212298e-07,-3.445757072010914e-08,2.4877540949497557e-07,-5.499573828056897e-09,-5.017250496772354e-07,2.0546939088467073e-07,2.0338260098680389e-07,9.994255223600358e-08,-5.030936552413415e-07,-9.32770363375162e-08,1.8712189955690786e-07,3.402731265104678e-07,2.736783789457734e-07
1.7605113235594862e-07,7.923893380914718e-08,4.484614325256167e-07,2.63693636500465e-07,4.014976781367641e-07,2.2675493853525188e-07,-3.529020279002576e-08,3.046724250307981e-07,1.591878830530487e-08,-5.75958518228397e-07,1.9694947638598723e-07,2.248589583739545e-07,1.4720847168205493e-07,-5.734263751744316e-07,-1.677980577061006e-07,3.2390973389642035e-08,5.409692171910303e-07,3.124081939119375e-07
1.5766452440373582e-07,5.56685864516156e-08,5.138131585757365e-07,3.3151806946385264e-07,4.005436820674454e-07,2.7877289235176443e-07,-3.2791515138928777e-08,3.5758572701021286e-07,4.2653308108506254e-08,-6.42053327412394e-07,2.3486285738463953e-07,2.548744853148583e-07,2.2942797721527848e-07,-6.783357813083229e-07,-2.457304649955536e-07,-3.123342080991627e-08,6.89923713647614e-07,3.7950847085883926e-07
1.466409873491146e-07,2.6972706075053953e-08,5.558151782205356e-07,3.968710063107257e-07,4.039193448720263e-07,3.292014366365065e-07,-2.5145512049801245e-08,4.0487381488631793e-07,7.33474533387419e-08,-7.02966562556916e-07,3.24923540628686e-07,2.972253809594857e-07,3.0422383356593023e-07,-8.261720436519594e-07,-3.1956327792911527e-07,-1.5611832328384265e-08,7.623691160990545e-07,4.784956829884298e-07
1.4912279383948728e-07,-2.702465795949594e-09,5.970450985305082e-07,4.5718641548141943e-07,4.151376899606514e-07,3.7724528229963156e-07,-1.0207360152141281e-08,4.452829720561851e-07,1.0626781193579963e-07,-8.019829022881959e-07,4.195169032079876e-07,3.5575457669685636e-07,3.2647867548129493e-07,-1.0054494406286123e-06,-3.8779371980568164e-07,8.695704715894127e-08,8.720478002568262e-07,5.817108960173955e-07
1.6932564813346945e-07,-2.9717499887853858e-08,6.336674180217956e-07,5.108926437080709e-07,4.356613207701052e-07,4.2190938069448525e-07,1.282550328381056e-08,4.782076284557404e-07,1.390256113884474e-07,-8.391125446896717e-07,4.905490997010432e-07,4.3093342833486876e-07,3.386141083683497e-07,-1.1583277103697611e-06,-4.514451345056977e-07,1.5898516214157398e-07,1.0527941750113151e-06,7.100851276390509e-07
2.079503601693314e-07,-5.2249798476404857e-08,6.608826512623109e-07,5.569127366633245e-07,4.6475430203110434e-07,4.621904988093535e-07,4.345433448940229e-08,5.037880748012918e-07,1.6949511505149716e-07,-9.148242595597072e-07,5.426974024484808e-07,5.210976620211051e-07,3.726435494004984e-07,-1.285170628727193e-06,-5.121868930527668e-07,1.9244604320908757e-07,1.274823800706223e-06,8.489366986261841e-07
2.618551339675716e-07,-7.054710889763655e-08,6.816296681070094e-07,5.942590250235482e-07,5.004034766466327e-07,4.973579726540468e-07,8.026744202228413e-08,5.226702296588509e-07,1.9660779992821488e-07,-9.935698292978632e-07,5.978929998841211e-07,6.192218789246505e-07,4.6783364089010753e-07,-1.3693012699779826e-06,-5.731126385827577e-07,2.1770179580174847e-07,1.456506479879542e-06,9.76004420635435e-07
3.2460173427627004e-07,-8.609761297370845e-08,6.957438431539692e-07,6.212847836496313e-07,5.40939035429486e-07,5.26371401038326e-07,1.2058694268038988e-07,5.349293532054076e-07,2.2011466845076242e-07,-1.0460713722299791e-06,6.410766990282558e-07,6.938565995739028e-07,5.849368985969623e-07,-1.4415131062521625e-06,-6.330918686544462e-07,3.1990212965454894e-07,1.5591777900486336e-06,1.090388863275562e-06
3.878733551255675e-07,-1.0258077210271958e-07,6.95284306689786e-07,6.355261438475282e-07,5.83966987120848e-07,5.476965198905557e-07,1.6107376927209368e-07,5.398651284496575e-07,2.4050494541226746e-07,-1.1051475598076642e-06,6.738912552487658e-07,7.391348992529812e-07,6.704212412641858e-07,-1.5250668383567976e-06,-6.879688109084825e-07,5.004685859103592e-07,1.6571343376290242e-06,1.1799205041274609e-06
4.4362984310116074e-07,-1.229045940876866e-07,6.451501205773795e-07,6.348456985491173e-07,6.299466997581911e-07,5.60364133173938e-07,1.999254354676079e-07,5.372884611957812e-07,2.59639783069527e-07,-1.1799240853622732e-06,7.09470167357088e-07,7.320005650560523e-07,7.288537704296697e-07,-1.620363432468552e-06,-7.293350439208796e-07,6.368274958084336e-07,1.761193464934962e-06,1.2451981448225173e-06
4.859013339147328e-07,-1.4872495517054844e-07,5.8932243458611e-07,6.187605158086669e-07,6.834031084361931e-07,5.648208341111439e-07,2.381623210844962e-07,5.284721682015006e-07,2.806747687776787e-07,-1.2590942812328333e-06,7.456470206378059e-07,6.697753878875731e-07,7.749216288792285e-07,-1.665385212115971e-06,-7.483661894746051e-07,7.376028395092143e-07,1.8819121849544404e-06,1.2902717806058194e-06
5.113728071988729e-07,-1.8064097614413303e-07,4.4863486011355897e-07,5.890155182776378e-07,7.500457204416579e-07,5.62689346594126e-07,2.7870804225201054e-07,5.1586826701831e-07,3.067292265229311e-07,-1.3534155475295574e-06,7.783033583813074e-07,6.772391096154872e-07,8.270272576030648e-07,-1.6773015341290576e-06,-7.40193433568386e-07,8.475574785183709e-07,1.994716353555096e-06,1.3343758280359047e-06
5.19372008372233e-07,-2.1668044307967623e-07,2.68770404838804e-07,5.50220000073646e-07,8.34282971361557e-07,5.566973070123506e-07,3.25286108961556e-07,5.028628760076844e-07,3.3979558743315877e-07,-1.4581103292462525e-06,8.120756490959039e-07,7.216096533275818e-07,8.657953536028844e-07,-1.6593449206131767e-06,-7.055039017182141e-07,9.243302107591472e-07,2.0147996658689416e-06,1.354072654114396e-06
5.120016370543792e-07,-2.54159170930102e-07,8.966034204176687e-08,5.10705568762577e-07,9.368163833966656e-07,5.512473698015155e-07,3.821415244452773e-07,4.93869952355738e-07,3.8056429137702523e-07,-1.5303049391205652e-06,8.46256976613579e-07,7.005591186059767e-07,9.186330996138511e-07,-1.6180094194536513e-06,-6.5441450521187e-07,9.144325254309343e-07,1.9577439860076115e-06,1.3531206592113808e-06
4.938434944895197e-07,-2.8722107400018304e-07,-6.461171995289686e-08,4.81620387589604e-07,1.0521023877334953e-06,5.519893743397233e-07,4.528200446308861e-07,4.934012848432831e-07,4.281871665500457e-07,-1.5695433169278848e-06,8.705233548304788e-07,6.346468585308295e-07,9.3606619280116e-07,-1.5992195383663852e-06,-5.858597823721639e-07,8.969011265591525e-07,1.9015600265774602e-06,1.3429794060097637e-06
4.7057382709445394e-07,-3.143897137806264e-07,-9.839185145520309e-08,4.7338292197513485e-07,1.1704300292762304e-06,5.638036371931257e-07,5.377546414029694e-07,5.041927324695893e-07,4.799925888372446e-07,-1.588357599784965e-06,8.83963200300375e-07,5.580460738653363e-07,9.242492355136851e-07,-1.5793324231127984e-06,-5.129067101578603e-07,8.862360003719001e-07,1.85236846944709e-06,1.3244357426016831e-06
4.4722082053837426e-07,-3.350667542201146e-07,-3.28801888693627e-08,4.919110433031615e-07,1.2795559165726296e-06,5.888999177049904e-07,6.331497781313298e-07,5.261349481853248e-07,5.322892845063442e-07,-1.5323822476511566e-06,8.891196531835697e-07,4.894608116966721e-07,8.999153295278617e-07,-1.5670442226850143e-06,-4.5002525984329337e-07,9.12933353194785e-07,1.8210502023859673e-06,1.3121172069420025e-06
4.2716351122975123e-07,-3.3328575948737774e-07,9.232690130154475e-08,5.37166272307802e-07,1.3684619529672296e-06,6.262462862234036e-07,7.321521076858694e-07,5.564375664963188e-07,5.818626481095376e-07,-1.463347705052575e-06,8.881284204104867e-07,4.3471478223342316e-07,8.805460256356752e-07,-1.565073302974218e-06,-4.024247055984235e-07,9.627516235553816e-07,1.8457701704438124e-06,1.3164525944353283e-06
4.1195216421435386e-07,-3.0511740702350473e-07,1.0917376343760862e-07,6.039949568818801e-07,1.4312429087939146e-06,6.719638467305749e-07,8.269092219817032e-07,5.902302718804852e-07,6.267221291959029e-07,-1.5032165857586927e-06,8.919369301352618e-07,4.2373229954607497e-07,8.758021553847569e-07,-1.5689480058036764e-06,-3.7357565472485755e-07,1.0218237378911616e-06,1.8737353752482425e-06,1.3444426812462902e-06
4.01593833125141e-07,-2.6559540039615115e-07,1.4822697613227832e-07,6.843756096844051e-07,1.4674063108690958e-06,7.206070044742081e-07,9.109851592362435e-07,6.218557552541737e-07,6.662333760399043e-07,-1.5286967458734898e-06,8.979110062139238e-07,4.482663447644278e-07,9.065740119012236e-07,-1.5802647081579515e-06,-3.57961243084813e-07,1.0909614809220765e-06,1.8756504820383658e-06,1.397089911864207e-06
3.9522102489492924e-07,-2.3054826421637903e-07,2.5481564857769197e-07,7.704236536172727e-07,1.4819014597113584e-06,7.674727382899056e-07,9.820437977934247e-07,6.471130043537965e-07,7.014374375663884e-07,-1.5464447986237625e-06,9.112258966396465e-07,4.898534077637864e-07,9.476771793393025e-07,-1.595633652340737e-06,-3.488651766109229e-07,1.1543021523648947e-06,1.8658036221242426e-06,1.476663636087508e-06
3.917858377564241e-07,-1.9600879556898595e-07,3.0921167494711496e-07,8.566499490316759e-07,1.4840272255724626e-06,8.104007681696608e-07,1.042881045762365e-06,6.649199092793058e-07,7.348774659093539e-07,-1.577891918711612e-06,9.327787635848519e-07,5.398219150311855e-07,9.65644560653241e-07,-1.6124069468857593e-06,-3.480742370444951e-07,1.1998176151355886e-06,1.877754367789971e-06,1.5581119747194617e-06
3.902284841112516e-07,-1.6126807849950653e-07,3.8290507833130166e-07,9.401587068061624e-07,1.4846542638386318e-06,8.497224621840413e-07,1.099582029687972e-06,6.765279777229918e-07,7.693229992002898e-07,-1.6084936268141851e-06,9.587696493466683e-07,5.849841635084728e-07,9.706576468780494e-07,-1.629183408267846e-06,-3.447365780650048e-07,1.2269846791348467e-06,1.948989389950802e-06,1.625437888939188e-06
3.893369111515969e-07,-1.3765474446668188e-07,4.865658647369604e-07,1.0196695946778286e-06,1.4922480206417486e-06,8.872585862763814e-07,1.1587648939314716e-06,6.876807482612248e-07,8.065711252043647e-07,-1.5964696284641618e-06,9.882100499464698e-07,6.22142350162408e-07,9.523194332691439e-07,-1.6530497139617796e-06,-3.3998476172885567e-07,1.241666071643133e-06,2.097492835223526e-06,1.6380363065711287e-06
3.879013607338723e-07,-1.1516670872400248e-07,6.042818175539897e-07,1.0948994437253216e-06,1.5124240490061988e-06,9.255562771003857e-07,1.2257581700183769e-06,7.012532839118265e-07,8.472525727206331e-07,-1.564501882176592e-06,1.019528807594432e-06,6.4974034868529e-07,9.262465158577396e-07,-1.6861443745484285e-06,-3.275190456301655e-07,1.2343249471079706e-06,2.249819145909278e-06,1.6150795647290379e-06
3.850832872257683e-07,-9.306950916402337e-08,7.21353331338139e-07,1.1661996421831195e-06,1.5469098910974668e-06,9.670216517707162e-07,1.3030951852977178e-06,7.219563263899171e-07,8.909713912035474e-07,-1.5837246712105017e-06,1.0520983913528723e-06,6.642619848581501e-07,9.184904363689659e-07,-1.7340383563327311e-06,-3.131502372644578e-07,1.2005156304402157e-06,2.329579266422763e-06,1.5957778665559984e-06
3.807497466623186e-07,-7.35697315864194e-08,8.023391172650114e-07,1.2340220321827173e-06,1.5925481398991365e-06,1.0128456455650277e-06,1.3892246955943498e-06,7.523046104244552e-07,9.364810963558486e-07,-1.5772830476257597e-06,1.0737555235029912e-06,6.632915367180014e-07,9.213524866858618e-07,-1.8038866653592949e-06,-3.0932862517609626e-07,1.139358671161784e-06,2.401157200688687e-06,1.5916464660114433e-06
3.760723349317584e-07,-5.480923983887972e-08,8.372140438898632e-07,1.29890430199508e-06,1.6425392203369367e-06,1.0627123961995907e-06,1.478836673150127e-06,7.900076196186743e-07,9.824766747085373e-07,-1.565856731468946e-06,1.0864252541975321e-06,6.48401525385152e-07,9.316221477910144e-07,-1.8959207819840609e-06,-3.19898027277277e-07,1.0462463579387342e-06,2.470969201419537e-06,1.5717077414040054e-06
3.7426780437687456e-07,-3.997362365000786e-08,8.827508937215926e-07,1.3620860422993466e-06,1.688761384259698e-06,1.1153181438863732e-06,1.5646297844129545e-06,8.339248751855035e-07,1.0285377520748092e-06,-1.555332341837564e-06,1.090412394510273e-06,6.241158498370045e-07,9.51304722003255e-07,-1.9853041635260454e-06,-3.2378328298528016e-07,9.38037609400747e-07,2.5374472320366967e-06,1.5033891546772023e-06
3.8045474432628254e-07,-2.9155389592910073e-08,9.426484342824233e-07,1.4255508934391252e-06,1.7242808456734014e-06,1.1690184757829172e-06,1.6389770601063227e-06,8.762826118829276e-07,1.0751618554405174e-06,-1.5471198799228881e-06,1.0856644149995481e-06,5.983248628331394e-07,9.652185736412285e-07,-2.0517577535209498e-06,-2.989109169652058e-07,8.186429722080394e-07,2.5835263057423413e-06,1.4703075025984743e-06
4.0014961218834335e-07,-2.0681211728670465e-08,1.0149763438972555e-06,1.4910863288295273e-06,1.7451525638065746e-06,1.2213987810784585e-06,1.6954985260192012e-06,9.16600580750037e-07,1.1232499303226664e-06,-1.534751541619286e-06,1.0863121175252454e-06,5.752611331432675e-07,9.667324215542435e-07,-2.0264977428877825e-06,-2.4099641024107797e-07,6.990554479102896e-07,2.5721457284629846e-06,1.4664331283057134e-06
4.371671629894333e-07,-1.2444663966769364e-08,1.0893664377187886e-06,1.5591834275368876e-06,1.7505616197907982e-06,1.2702805441397703e-06,1.73086062039664e-06,9.376141074999549e-07,1.1738082976222169e-06,-1.5312703432036686e-06,1.0869935539840136e-06,5.59179633383058e-07,9.333632855171309e-07,-1.9185863573892477e-06,-9.011862323157605e-08,6.714673219574619e-07,2.5268669627313106e-06,1.4798031412630216e-06
4.918123520001992e-07,-1.3297816188634196e-09,1.1590862129527878e-06,1.62804485249218e-06,1.7423776625454402e-06,1.3139810813313918e-06,1.7451709026529675e-06,9.411248878480505e-07,1.2272801918966086e-06,-1.5176165087794694e-06,1.0675990093540636e-06,5.674326388081932e-07,8.665345030614101e-07,-1.83211753772669e-06,6.909703938452083e-09,6.870529591683426e-07,2.505533245015232e-06,1.4758488145234958e-06
5.599915788047339e-07,1.5611608715531693e-08,1.2270221609690137e-06,1.692720044009609e-06,1.7228423902963333e-06,1.3499411634384424e-06,1.7402191102654237e-06,9.188915411544276e-07,1.2822743559181264e-06,-1.4055229088918226e-06,1.036637285315719e-06,6.151083792549614e-07,8.260455751463297e-07,-1.771775026052135e-06,8.687494558348788e-08,7.173067617156221e-07,2.479113491299305e-06,1.4965642119757848e-06
6.341114403750787e-07,4.00016745079498e-08,1.2892078171931383e-06,1.745532497830266e-06,1.6924122354645532e-06,1.375285598360494e-06,1.718054121879757e-06,8.843509092334525e-07,1.3352796389841877e-06,-1.359638989974801e-06,9.88527041179066e-07,6.887685407689628e-07,7.961948462160853e-07,-1.7097553885825614e-06,1.603059093477892e-07,8.410408538716203e-07,2.4555922010915874e-06,1.6043161847519392e-06
7.05901419007236e-07,7.170420504638018e-08,1.3472057411274373e-06,1.778578419538024e-06,1.6506005174072399e-06,1.3878377324317392e-06,1.6817091362476826e-06,8.450456872775204e-07,1.3822245793402887e-06,-1.348587822984752e-06,9.282086137324501e-07,7.446330959870191e-07,7.717064296011771e-07,-1.6739246420377728e-06,1.998510649974259e-07,9.939493133135675e-07,2.42098183959478e-06,1.668361811505398e-06
7.688565411663344e-07,1.0898422148160999e-07,1.3869675402808075e-06,1.7867379281871093e-06,1.5978377633381428e-06,1.3877566531373249e-06,1.6361806004412023e-06,7.739568272365301e-07,1.4202924612852628e-06,-1.3582491600102275e-06,9.145281134472262e-07,7.747303046707105e-07,7.620240424232986e-07,-1.6420888808409633e-06,3.032896175531706e-07,1.116140856650232e-06,2.3080120990721152e-06,1.700170895021501e-06
8.212074937644458e-07,1.4873278404635427e-07,1.4074205082857924e-06,1.76922939058066e-06,1.536370924625562e-06,1.3780233158753293e-06,1.5878869888348379e-06,7.056222762948208e-07,1.4486714300768298e-06,-1.3819591735276737e-06,9.36810982955667e-07,7.886181403296502e-07,7.440606994277734e-07,-1.5614675504188362e-06,4.4356586979781106e-07,1.1988647689877518e-06,2.245540408375364e-06,1.7229448947503e-06
8.632768954947388e-07,1.8705102031905224e-07,1.4122724176448195e-06,1.7298380790984222e-06,1.470622650022079e-06,1.3639288281899644e-06,1.5439416397523134e-06,6.532086227536719e-07,1.4689345627117754e-06,-1.3149199090974202e-06,9.293716789694648e-07,7.722038949026004e-07,6.912070805330825e-07,-1.5013187077921407e-06,5.899338059785101e-07,1.250648021468033e-06,2.2580974897355957e-06,1.6871925721839212e-06
8.9682525965279e-07,2.2050956665684038e-07,1.4075257466703756e-06,1.67653333324811e-06,1.405637181634615e-06,1.3524884932798811e-06,1.512065463233446e-06,5.845471254008439e-07,1.485274399977997e-06,-1.1959553485116154e-06,8.737050844832578e-07,7.415708346461216e-07,6.667943193668322e-07,-1.4700973021257095e-06,6.803574500933551e-07,1.2880882535663716e-06,2.2608199149902828e-06,1.6545651121252907e-06
9.245543521580015e-07,2.472603252698933e-07,1.3981032872663563e-06,1.6197758762149421e-06,1.350361063480277e-06,1.3507873833301687e-06,1.4992645344357193e-06,5.478278267632261e-07,1.5032653947045289e-06,-1.111718755999987e-06,7.903921267497194e-07,7.087677489279439e-07,6.589626516076777e-07,-1.3735406760680765e-06,7.5018718599959e-07,1.3131260653176325e-06,2.2291848021955536e-06,1.6317792502606463e-06
9.483959181397747e-07,2.671118953427105e-07,1.3862583593811794e-06,1.569271620496423e-06,1.3114728512655098e-06,1.3633165564159953e-06,1.5088551398757652e-06,5.472867375010609e-07,1.5271787852390316e-06,-1.0543261323737585e-06,7.392536132781857e-07,6.80980311434711e-07,6.403679637033995e-07,-1.2877948086315372e-06,8.041724098642176e-07,1.3321280908415581e-06,2.1564722332575132e-06,1.621647494837595e-06
9.696437386492512e-07,2.809504010441058e-07,1.3741123854062824e-06,1.5310864400424529e-06,1.290022338208856e-06,1.3900285105494166e-06,1.5396289747550876e-06,5.816199631352228e-07,1.5580644502061117e-06,-9.859002937034296e-07,6.931239585256073e-07,6.670065148761726e-07,5.857679032014893e-07,-1.216221941946961e-06,9.028469821635985e-07,1.349782352145166e-06,2.112638193063731e-06,1.6360025122813942e-06
9.890592759436935e-07,2.9023065763311687e-07,1.361084046817332e-06,1.506781679240631e-06,1.283002206518051e-06,1.4270657213889312e-06,1.5848361053431306e-06,6.137284720447197e-07,1.593761613524509e-06,-9.044759729436525e-07,6.345339221294278e-07,6.636407667951966e-07,5.205968813978516e-07,-1.1061415931071578e-06,1.0135080100599925e-06,1.3616660273341756e-06,2.1392112898204293e-06,1.663587381320091e-06
1.0070977290654367e-06,2.964396168621643e-07,1.3464468189082374e-06,1.4939632839446123e-06,1.2836029095167523e-06,1.4683874012971965e-06,1.6351171621511376e-06,6.39606395973501e-07,1.6298493566714508e-06,-8.092647973559921e-07,5.880796073487062e-07,6.657845319341114e-07,4.72580032588388e-07,-1.010052873074777e-06,1.0546819559514625e-06,1.3682741665696608e-06,2.173051287859551e-06,1.694999446745592e-06
1.0232082685323339e-06,3.00432874087129e-07,1.3281577617895197e-06,1.4873429139961093e-06,1.2835942809993874e-06,1.5071820047845938e-06,1.6806290391938757e-06,6.66138677142111e-07,1.6613366707102315e-06,-7.128914218835834e-07,5.6891656350439e-07,6.66551645222421e-07,4.300642175184578e-07,-9.286049441222056e-07,1.0878293180803265e-06,1.3677066880966377e-06,2.1994446436954157e-06,1.7231348005515882e-06
1.0362366937096943e-06,3.022589317379778e-07,1.3034163499494047e-06,1.4805474366260117e-06,1.2780025957149948e-06,1.5379405689408403e-06,1.7114646105031623e-06,6.77147903334277e-07,1.6831088557079087e-06,-6.323942806025065e-07,5.797092856072447e-07,6.590637256559357e-07,4.153365970895256e-07,-8.801304312158588e-07,1.1513451927656794e-06,1.356502817226991e-06,2.204631723153837e-06,1.7414935958742563e-06
1.0447899584162645e-06,3.0168463164645507e-07,1.2705370660814654e-06,1.468355733014006e-06,1.262430984746078e-06,1.5579091045313094e-06,1.7239709184533688e-06,6.772318124213977e-07,1.6929624363673667e-06,-6.175079777315008e-07,5.800993281489578e-07,6.402423603164758e-07,3.811014219997911e-07,-8.482521739767955e-07,1.1915810616454035e-06,1.3336969808530718e-06,2.173998278996657e-06,1.7478232535365945e-06
1.0477283024868598e-06,2.987041070405972e-07,1.2295913262738425e-06,1.448107499497045e-06,1.235458714018746e-06,1.5671977544813077e-06,1.7180591370637083e-06,6.684574837876109e-07,1.6914378165268166e-06,-6.3496199296617e-07,5.711934505894404e-07,6.10808384866114e-07,3.466705823382764e-07,-8.478876218323764e-07,1.209539958890096e-06,1.3005099005404805e-06,2.148697346767024e-06,1.7431111962960734e-06
1.0459810930784507e-06,2.93662184449653e-07,1.1825194540588757e-06,1.4200761688538396e-06,1.1996289298820816e-06,1.568092316173715e-06,1.6966396927528107e-06,6.516298276743055e-07,1.6808889116989917e-06,-6.668042893882235e-07,5.526729025188745e-07,5.744591568464426e-07,3.251390881504814e-07,-8.687572380640171e-07,1.228492128842491e-06,1.2601117987118364e-06,2.121893483502727e-06,1.730967296671667e-06
1.0404709071773662e-06,2.873638506057894e-07,1.1331322607022076e-06,1.387435962778793e-06,1.1597244062097973e-06,1.5641606096029379e-06,1.6660845776827082e-06,6.343400756499231e-07,1.6657050638642998e-06,-7.0711106418916e-07,5.324836091739021e-07,5.370596459935388e-07,2.901969583938779e-07,-8.877031098841598e-07,1.264137703944829e-06,1.2181498938818279e-06,2.100282944210177e-06,1.7162761309499396e-06
1.0334088404429307e-06,2.8110573382651356e-07,1.086491076159192e-06,1.3553547441932172e-06,1.1229778231275784e-06,1.5593713721853253e-06,1.634036426190713e-06,6.18802014753021e-07,1.6508931892100332e-06,-7.190602553641025e-07,5.051077642335024e-07,5.047117443822583e-07,2.5614825846989476e-07,-8.880989311892503e-07,1.2927736359902746e-06,1.1808676882967346e-06,2.083088472933713e-06,1.703004394132202e-06
1.0321226420727136e-06,2.7612614761849644e-07,1.0470438701898485e-06,1.3285921869612258e-06,1.0959210275380284e-06,1.5561804023804612e-06,1.6067387552611048e-06,6.077060817571002e-07,1.6400156971655467e-06,-7.106270414467623e-07,4.830737237523354e-07,4.80813814558657e-07,2.274451530813862e-07,-8.735337314410698e-07,1.3140924646784463e-06,1.151786815300458e-06,2.060992663146952e-06,1.6921783644419335e-06
1.033779258203041e-06,2.7276474772771145e-07,1.0166532140320651e-06,1.3089467853642007e-06,1.0813277970548692e-06,1.5541814600621353e-06,1.586460177488351e-06,6.010461951459715e-07,1.6334983515557184e-06,-6.966662676332013e-07,4.693904564453201e-07,4.6470718442294037e-07,2.018936013571539e-07,-8.524860032531223e-07,1.3198895149113695e-06,1.1304447707792083e-06,2.0379871032447948e-06,1.6869902475152755e-06
1.0411489501129942e-06,2.701596752154079e-07,9.941070728863083e-07,1.2943975051787985e-06,1.0775493306344284e-06,1.5508594644849507e-06,1.5727563734717868e-06,5.956690215855991e-07,1.6291798112544175e-06,-6.847698636449968e-07,4.520484252593848e-07,4.529407779624872e-07,1.854512858695812e-07,-8.240171521229266e-07,1.279159142259709e-06,1.113975840028399e-06,2.0115910921400427e-06,1.6815769855852085e-06
1.0581117832644593e-06,2.6650386846599323e-07,9.757977426231618e-07,1.2797315990343495e-06,1.0817543821735076e-06,1.5431914131893868e-06,1.5637607822804244e-06,5.882320378392173e-07,1.621883881351455e-06,-6.859799669530156e-07,4.3361909439504604e-07,4.411929733869196e-07,1.7596811606889668e-07,-7.954659624217539e-07,1.2249348032487287e-06,1.098222640339703e-06,1.964515860929105e-06,1.664004429686291e-06
1.0825131037535044e-06,2.593567387203315e-07,9.564394284171685e-07,1.257613753194598e-06,1.0887987333206725e-06,1.528636708895115e-06,1.5561208561395405e-06,5.756661211718546e-07,1.6064313188425749e-06,-6.879354205200797e-07,4.085483859356848e-07,4.256063397150514e-07,1.6002955358814104e-07,-7.77593242984599e-07,1.1601748398409616e-06,1.0783184394090244e-06,1.9165675525162382e-06,1.632181823105005e-06
1.0991076546346435e-06,2.461559840128999e-07,9.300962476959853e-07,1.220383734920894e-06,1.0929536429202265e-06,1.506139817341385e-06,1.5476948055842528e-06,5.580518687743929e-07,1.577839101125475e-06,-6.899717846935758e-07,3.749780664856135e-07,4.04236636029278e-07,1.46451371996084e-07,-7.627323428289056e-07,1.0830723422764429e-06,1.050281260123135e-06,1.860588422942068e-06,1.584492746995638e-06
1.1006329457025275e-06,2.2522262320920844e-07,8.921004283521905e-07,1.162801952548692e-06,1.0905928698011213e-06,1.4776199448904215e-06,1.5311854079101146e-06,5.393417778445223e-07,1.5327473512753233e-06,-7.08029183099969e-07,3.322451909354799e-07,3.7823076988086636e-07,1.3488021561998046e-07,-7.406410856745545e-07,1.0065555683090912e-06,1.0120252573500879e-06,1.7878290936355953e-06,1.5227176797240953e-06
1.0623376343656174e-06,1.9665885896228594e-07,8.409879538827832e-07,1.0842477691884836e-06,1.0803639930798873e-06,1.4479290070198464e-06,1.5109909681850556e-06,5.268833784152275e-07,1.4722500089128762e-06,-7.352543181877647e-07,2.833428711206364e-07,3.51191845951601e-07,1.23644123713681e-07,-7.174352365707284e-07,9.487895370491874e-07,9.639679273128406e-07,1.6994669639575895e-06,1.4535722552464842e-06
9.922246419625718e-07,1.6243331461288761e-07,7.794525580349185e-07,9.899710607422578e-07,1.0626871505841001e-06,1.4225482141792283e-06,1.4966573691170733e-06,5.276674368056847e-07,1.3992129397680413e-06,-7.657011453815449e-07,2.3237644942352135e-07,3.272264857698365e-07,1.1760369161592537e-07,-6.924271857865119e-07,9.113811330280335e-07,9.073722085544521e-07,1.6034502499985246e-06,1.383159574163544e-06
9.316528288329316e-07,1.2588714803329628e-07,7.143856887328081e-07,8.877090975860249e-07,1.038597365531999e-06,1.4050045572502752e-06,1.491567010020718e-06,5.465066925577765e-07,1.3125417781075112e-06,-7.848948583987168e-07,1.8569110598736487e-07,3.096159490431802e-07,1.1386018723274338e-07,-6.685553321184714e-07,9.028532441206671e-07,8.452507893992349e-07,1.5173198344787613e-06,1.3167851263919288e-06
8.855308159515175e-07,9.102174207550788e-08,6.55677793847057e-07,7.898333710094484e-07,1.009163233472618e-06,1.3960435335435378e-06,1.5069854949994815e-06,5.821178136151184e-07,1.223997249765163e-06,-7.886011557381929e-07,1.4952386461915035e-07,3.000926278722841e-07,1.132013095842852e-07,-6.487252561137989e-07,9.294920135054348e-07,7.832638121060834e-07,1.458145280345836e-06,1.260936693807936e-06
8.310069322700008e-07,6.137604799179209e-08,6.130752261211083e-07,7.075535830443516e-07,9.770538840907396e-07,1.3934544113825402e-06,1.5138322188252701e-06,6.266435023206046e-07,1.1514361939588254e-06,-7.796714602818558e-07,1.1823400871897819e-07,2.9757176272427857e-07,1.1474010775428697e-07,-6.322902658870092e-07,9.835343704635826e-07,7.289954422987425e-07,1.439466897395799e-06,1.219851534639903e-06
7.221575531659324e-07,3.884495917560519e-08,5.924937852181174e-07,6.359645381395994e-07,9.420096634760603e-07,1.39251627677268e-06,1.485612118075986e-06,6.759564838972673e-07,1.0931192479210998e-06,-7.593611031158556e-07,1.0855467351025041e-07,2.9734897548938386e-07,1.1455055960558789e-07,-6.091516420805553e-07,1.0633755308495235e-06,6.89612980364084e-07,1.4530084576920638e-06,1.190772798460921e-06
6.212074735984821e-07,2.3632403696780197e-08,5.947156745846474e-07,6.054091529902843e-07,9.003534879629401e-07,1.3881920158015033e-06,1.399364353859162e-06,6.982361960827765e-07,1.0644971153248945e-06,-7.325998003383591e-07,1.1293484773655494e-07,2.9265251228277694e-07,1.0435158925837959e-07,-5.697787860696218e-07,1.1615624623337789e-06,6.702192324399274e-07,1.483297726806266e-06,1.1688820386480609e-06
5.679784312657011e-07,1.5567007726681684e-08,6.169357785989048e-07,6.064911120247006e-07,8.467024566869459e-07,1.3781492353027204e-06,1.308001498205245e-06,6.972548454108014e-07,1.0976074243773228e-06,-6.938038119671184e-07,1.1448063514074003e-07,2.777112515593354e-07,7.997449948968818e-08,-5.025585143072725e-07,1.2674013003293776e-06,6.752685357763088e-07,1.5119529946428277e-06,1.1499341311325344e-06
5.231735087879782e-07,1.5279507367477648e-08,6.545440228625113e-07,6.285275687271491e-07,7.773090476086086e-07,1.3644534659221778e-06,1.2378146186173722e-06,6.964000309385473e-07,1.097597028177578e-06,-6.419047991151244e-07,1.0528749724506459e-07,2.4982297925832075e-07,4.099071564193175e-08,-4.009459981790932e-07,1.364653860334986e-06,7.043032226940641e-07,1.527125966005569e-06,1.1313642720010824e-06
5.257786519978869e-07,2.3944672516564626e-08,7.014044470282764e-07,6.569182053318611e-07,6.918977132425684e-07,1.3520766761979828e-06,1.1675894713758339e-06,6.846508469759923e-07,1.066846869571674e-06,-5.787125225644076e-07,8.931927908776148e-08,2.0974530506983111e-07,-1.0925685118829852e-08,-2.664667983205071e-07,1.4465461227823601e-06,7.537813908014905e-07,1.5078091513900727e-06,1.1132914703189987e-06
5.156286530527498e-07,4.203742307202196e-08,7.496908045891007e-07,6.998873283058472e-07,5.92464599340617e-07,1.3458974682613825e-06,1.1046020821735845e-06,6.016609209325106e-07,1.0736894262322187e-06,-5.084764898093381e-07,6.437638768552556e-08,1.6116210264402435e-07,-6.888852724611435e-08,-1.0368732931480115e-07,1.514413077837836e-06,8.183943897272947e-07,1.44727852290426e-06,1.0954634403564665e-06
5.003477948503815e-07,6.823190202200471e-08,7.906242933330709e-07,7.50033976342405e-07,4.87076825507886e-07,1.3482888851770431e-06,1.0054678448408966e-06,5.145678770792168e-07,1.0921690456472788e-06,-4.3502064171581175e-07,3.1727787524061024e-08,1.0931633457039268e-07,-1.256953258547742e-07,7.133608105001068e-08,1.5601671650459241e-06,8.909661780866203e-07,1.350846374924183e-06,1.0792068858915349e-06
5.353772057592713e-07,9.895410765469706e-08,8.15944129968472e-07,7.956371701375212e-07,3.783833735585843e-07,1.357319399041332e-06,8.807166332000537e-07,4.562803400226351e-07,1.1452278566370119e-06,-3.6022569364207325e-07,-2.6454751825845054e-09,5.883768123166352e-08,-1.7625506303489315e-07,2.441948789607976e-07,1.581825236896536e-06,9.615122827743862e-07,1.2302867732910813e-06,1.0658192971913126e-06
5.692339578431215e-07,1.288901245311736e-07,8.196549715308636e-07,8.302759693293389e-07,2.6686301696032533e-07,1.3675061991623857e-06,7.923078816939079e-07,4.2198074944499785e-07,1.2013055360746003e-06,-2.915285883170715e-07,-3.6765639970156783e-08,1.2407993947579956e-08,-2.1583169450859257e-07,4.022241380317139e-07,1.5799560835410984e-06,1.0227246919296702e-06,1.0969773711844071e-06,1.0523665341080285e-06
5.999812054495696e-07,1.5266239578675512e-07,7.998311747152968e-07,8.489854840114472e-07,1.9260784781605182e-07,1.3722900528166159e-06,7.208143316584188e-07,4.0276449563572717e-07,1.2538814862202306e-06,-2.3346383049504517e-07,-6.991848969949171e-08,-2.892547852611767e-08,-2.45153152282027e-07,5.012442909715169e-07,1.556010637254392e-06,1.0667509622237364e-06,9.681089198678576e-07,1.0358003834432694e-06
6.327367128760605e-07,1.668403325781343e-07,7.595169666642062e-07,8.504481606340325e-07,1.2482797863669096e-07,1.366902149334699e-06,6.256761021875495e-07,3.969173141249551e-07,1.2852428228958958e-06,-1.9590430341955262e-07,-9.885332573401055e-08,-6.516841166743785e-08,-2.651080847660965e-07,5.928752604253083e-07,1.5171684997722533e-06,1.0868855125179504e-06,8.53413324661357e-07,1.01371999518255e-06
6.607769260901997e-07,1.7083852084717791e-07,7.057866220577755e-07,8.367177058227044e-07,1.4785370586530513e-07,1.3496991423435748e-06,5.173944599531776e-07,3.925270325522218e-07,1.28188399569799e-06,-1.7360684122685502e-07,-1.29015428908584e-07,-9.732321705832677e-08,-2.778261299639721e-07,6.557077392909241e-07,1.4712099139697187e-06,1.0833167987628415e-06,7.563642756635993e-07,9.842919283544964e-07
6.67448751737339e-07,1.6639930851540267e-07,6.476410261561925e-07,8.118187346287926e-07,1.7921489681855184e-07,1.3218397455918675e-06,4.514023295187328e-07,3.8485434372398737e-07,1.2569171620678314e-06,-1.6356451530349088e-07,-1.5535423222723623e-07,-1.2683439567480324e-07,-2.8711586966051464e-07,6.841699867975523e-07,1.4228576326392566e-06,1.0577213023269342e-06,6.77321516431814e-07,9.475613662862271e-07
6.573305345434841e-07,1.5653357655233037e-07,5.940110851872613e-07,7.806299533871313e-07,2.0962534993768053e-07,1.2867888839511565e-06,3.9710845598520805e-07,3.735699630013785e-07,1.2224975215041237e-06,-1.668421972295909e-07,-1.7791419259515091e-07,-1.5438578838277405e-07,-2.982406533579098e-07,6.697348366155004e-07,1.373325923576739e-06,1.0139863434145757e-06,6.102559752106444e-07,9.051836918898099e-07
6.413063323548611e-07,1.4444846099073873e-07,5.51966862826361e-07,7.479776964155269e-07,2.238857378872448e-07,1.249162880808836e-06,4.212683680833172e-07,3.5861797356702664e-07,1.1806184780299889e-06,-1.7553632467068127e-07,-1.9909078399035764e-07,-1.7969293785313397e-07,-3.120464828220063e-07,6.553128044016828e-07,1.324879095975725e-06,9.57623239147466e-07,5.499165653623557e-07,8.587836854883205e-07
6.243938335766686e-07,1.3249541231557254e-07,5.250030848177941e-07,7.173187798095835e-07,2.2373161948253286e-07,1.2123655918140336e-06,4.325076496485392e-07,3.4207255696489414e-07,1.1393002491777295e-06,-1.86531121714722e-07,-2.1880776549404656e-07,-2.0255383540926394e-07,-3.243596008546125e-07,6.46736241154995e-07,1.2766778295917185e-06,8.926613634538217e-07,4.905302520333043e-07,8.095432299348534e-07
6.136306090729355e-07,1.2161260538814892e-07,5.124031559450377e-07,6.898432555958028e-07,2.099726679399108e-07,1.1771260164538492e-06,4.319307637621779e-07,3.2294907933127296e-07,1.099138291896698e-06,-1.9846457271938837e-07,-2.3908701375396867e-07,-2.2325220724031056e-07,-3.367520968140768e-07,6.310486999704857e-07,1.226729863022186e-06,8.216163575845197e-07,4.292593453210374e-07,7.594501077737848e-07
6.078279302529385e-07,1.1171048632872081e-07,5.103749962552779e-07,6.649531635564997e-07,1.8154024361122655e-07,1.142047062443562e-06,4.351731560447361e-07,2.9975729956547917e-07,1.0592578392094651e-06,-2.0876821697027912e-07,-2.609320667647256e-07,-2.4216672042726594e-07,-3.487733054616035e-07,6.116001257247905e-07,1.1748243264035092e-06,7.486833280635049e-07,3.640662670012039e-07,7.108445062626486e-07
6.061971050831287e-07,1.023424167507247e-07,5.137841872838219e-07,6.41174208228743e-07,1.5192216464429965e-07,1.104738459807904e-06,3.9665120966199377e-07,2.712678209317067e-07,1.0158783787291243e-06,-2.1695942493987777e-07,-2.843152970438269e-07,-2.602892282636557e-07,-3.600329500418297e-07,5.912431717429117e-07,1.1206182762532223e-06,6.780661093188019e-07,2.9276221673733644e-07,6.655233278686422e-07
6.090267188488541e-07,9.26983905305057e-08,5.170835623120864e-07,6.162348191789854e-07,1.2173512768406083e-07,1.0621577408199882e-06,3.4433781739979383e-07,2.3536581495393388e-07,9.663677938241134e-07,-2.2772233841435702e-07,-3.0960892042905e-07,-2.8040648919963024e-07,-3.7300050555978237e-07,5.701923078439458e-07,1.0639503186604776e-06,6.110462205619367e-07,2.0952337516568181e-07,6.233099125254859e-07
6.147384558254412e-07,8.128055306730616e-08,5.149842381196986e-07,5.871543404784159e-07,8.754783589046233e-08,1.0112204580741684e-06,2.868572952771962e-07,1.8990123137231634e-07,9.087525656833304e-07,-2.439034309199465e-07,-3.3936013012101214e-07,-3.0638284033348804e-07,-3.892727094430079e-07,5.47015719825649e-07,1.0030745227568393e-06,5.469338916897916e-07,1.1572600190705041e-07,5.819750383518668e-07
6.208513004302329e-07,6.640997952407739e-08,5.041315909517355e-07,5.518500063455181e-07,5.066107259343724e-08,9.509968553831851e-07,2.2148062166216353e-07,1.352516868463339e-07,8.441677327349087e-07,-2.655839832152632e-07,-3.7279386213946606e-07,-3.400899251637627e-07,-4.0869162778485196e-07,5.207890058777352e-07,9.36936983885386e-07,4.863401350055243e-07,1.3024150399506014e-08,5.353366181462052e-07
6.252115548111729e-07,4.7470915021628614e-08,4.85073264743128e-07,5.113273104881009e-07,1.3084502360638817e-08,8.846013826072899e-07,1.52005931333895e-07,7.618479048859814e-08,7.742269299705906e-07,-2.916932701935335e-07,-4.0681584845087004e-07,-3.793707359767921e-07,-4.349451502145949e-07,4.925415264193861e-07,8.686814894550352e-07,4.3318889044525174e-07,-9.404858286390734e-08,4.843156335536936e-07
6.267578375503848e-07,2.5467979733266606e-08,4.623485549762101e-07,4.698406588769732e-07,-1.7935015846509623e-08,8.182828772629022e-07,9.275303975433216e-08,2.0228810516247352e-08,7.053071336055056e-07,-3.1785950333023354e-07,-4.38599353150984e-07,-4.1943156657473706e-07,-4.65088424141601e-07,4.6654915834785496e-07,8.024024365163378e-07,3.9252966063172275e-07,-1.974680813514711e-07,4.3525072033677315e-07
6.251423067294636e-07,2.2844338733176814e-09,4.422303545834604e-07,4.3256692273973766e-07,-3.5891228785882985e-08,7.57778040733596e-07,4.9942206187770215e-08,-2.6155377824720487e-08,6.437888316661814e-07,-3.3959127816647873e-07,-4.638713866594595e-07,-4.5569703495367056e-07,-4.946371289038224e-07,4.4726504408936333e-07,7.41013582077076e-07,3.6493398954814005e-07,-2.9317934909427503e-07,3.884905868450996e-07
6.202462191982143e-07,-2.0283349349881457e-08,4.301078786195562e-07,4.0323320709832007e-07,-3.878780009956052e-08,7.059169364381612e-07,2.3658457040536974e-08,-5.97634913009983e-08,5.921070027679348e-07,-3.54725207510068e-07,-4.806191263616559e-07,-4.848487102679663e-07,-5.208699857265936e-07,4.3525442675347673e-07,6.861484943942059e-07,3.4731457849399e-07,-3.7722270106472787e-07,3.4503614948103565e-07
6.124899278213234e-07,-4.071257337867885e-08,4.291514954015781e-07,3.8347287229443286e-07,-2.786094408388937e-08,6.630099082913974e-07,1.4879964541804228e-08,-8.00939396668067e-08,5.507717223039565e-07,-3.6020895021268396e-07,-4.893096259570133e-07,-5.043144371498365e-07,-5.411190156282486e-07,4.276102676059068e-07,6.383639905293718e-07,3.386630664589104e-07,-4.4703804350725e-07,3.0712368598214507e-07
6.032477138356122e-07,-5.7667411454109125e-08,4.3977883224307176e-07,3.729101485372827e-07,-6.1925103498299845e-09,6.27793001980951e-07,1.612755854506583e-08,-8.851913939931987e-08,5.172514565563386e-07,-3.5734528412348374e-07,-4.899680604195928e-07,-5.127967799447993e-07,-5.544309767196384e-07,4.2311555265899227e-07,5.96801661914686e-07,3.304169925041943e-07,-4.928999080099827e-07,2.749788521611877e-07
5.943573012209168e-07,-7.048586524995056e-08,4.5921474791912594e-07,3.6870771307395623e-07,2.0635879380770835e-08,5.973906123730557e-07,2.0562077997923976e-08,-8.858878196236786e-08,4.86354538995853e-07,-3.496131846769102e-07,-4.868831567448749e-07,-5.117423661972106e-07,-5.619325913949211e-07,4.1606184501285913e-07,5.58528925162778e-07,3.127501169152841e-07,-5.228949438806343e-07,2.4833277213980046e-07
5.872266015080467e-07,-7.971204796809844e-08,4.821473871123974e-07,3.6564930869045316e-07,4.508635203334487e-08,5.673753266219122e-07,2.1132052179302234e-08,-8.563815393389881e-08,4.516170428005065e-07,-3.43101947145409e-07,-4.842780363450639e-07,-5.049455406483772e-07,-5.631225403463575e-07,4.0084144269095053e-07,5.19468115935108e-07,2.7544589160195134e-07,-5.465315737325657e-07,2.2615544423408062e-07
5.828762688473602e-07,-8.647817164767046e-08,5.034885934401422e-07,3.583443096523618e-07,6.148127804597104e-08,5.344109360329683e-07,1.3340244625138013e-08,-8.43685569206677e-08,4.0830903402167163e-07,-3.406115374635391e-07,-4.858520738735193e-07,-4.957410675790754e-07,-5.619687047424666e-07,3.7500097626994713e-07,4.773063178363478e-07,2.1806244699714517e-07,-5.682772263717723e-07,2.072767009701514e-07
5.828896338642096e-07,-9.099348614176752e-08,5.215967729817967e-07,3.443804047386343e-07,6.889319795941726e-08,4.985070920974063e-07,-5.802165491077745e-09,-8.645435155371416e-08,3.565270577059414e-07,-3.413470237222229e-07,-4.945504978131537e-07,-4.849123087189993e-07,-5.566842368859142e-07,3.40873041367794e-07,4.339729155592026e-07,1.500289705966109e-07,-5.922684508822962e-07,1.9175688294633664e-07
5.897473972801859e-07,-9.183150416273006e-08,5.389550952417492e-07,3.2543882459567216e-07,7.182453110568752e-08,4.629305029546684e-07,-3.274624905112528e-08,-9.097134587627706e-08,3.0111217432767096e-07,-3.426992977309437e-07,-5.110312145113625e-07,-4.7141700535407175e-07,-5.460012933408127e-07,3.059241951182673e-07,3.9410000570810475e-07,8.375965017914353e-08,-6.149790242636503e-07,1.8217789450203568e-07
6.058410332690662e-07,-8.676631193454991e-08,5.598334336295688e-07,3.056412252184698e-07,7.707316284540963e-08,4.321906879317121e-07,-6.211550456240294e-08,-9.513275350362193e-08,2.487851099191316e-07,-3.4057770922201125e-07,-5.343139585037443e-07,-4.540736841939596e-07,-5.304655879932228e-07,2.721261643214675e-07,3.6226643280154585e-07,3.009030865141588e-08,-6.311536363984568e-07,1.804918776981078e-07
6.322528046708919e-07,-7.405314325279611e-08,5.874743035926364e-07,2.893257332638832e-07,9.002448384682528e-08,4.0987142852809126e-07,-9.06901643436774e-08,-9.658850826400141e-08,2.0529796265557357e-07,-3.3271609232956293e-07,-5.60651707360406e-07,-4.320939761455083e-07,-5.085808864621957e-07,2.436385218731466e-07,3.41714141278491e-07,-1.0469910404078422e-08,-6.384269739568731e-07,1.8675721635863955e-07
6.683143381709026e-07,-5.3110031336922373e-08,6.227858250611129e-07,2.797913992369245e-07,1.1351604284649383e-07,3.981657915715568e-07,-1.1568896769181072e-07,-9.346382454535316e-08,1.739087172517978e-07,-3.1747894116217513e-07,-5.868442347546655e-07,-4.0527657017618136e-07,-4.808267845828791e-07,2.2487799504685044e-07,3.3419031588190183e-07,-3.710927052215761e-08,-6.37445831996446e-07,1.9967567816605958e-07
7.1160680745807e-07,-2.485231233065401e-08,6.642735868847787e-07,2.784230798143343e-07,1.4713658705834896e-07,3.973204855561613e-07,-1.3670435067404987e-07,-8.478744633451015e-08,1.5460067451266323e-07,-2.9498971129013375e-07,-6.090731360535102e-07,-3.749360445474232e-07,-4.4899093083623e-07,2.1599816535010663e-07,3.369834314970691e-07,-5.415962091889906e-08,-6.271842090927366e-07,2.15410043486395e-07
7.580517627463471e-07,8.089424540370006e-09,7.086933615392068e-07,2.840225693110016e-07,1.868416860725196e-07,4.050039099988742e-07,-1.5573771088825687e-07,-7.164658160110082e-08,1.4414170930512257e-07,-2.6697866032316047e-07,-6.245985559009748e-07,-3.4421143349722803e-07,-4.174764703680679e-07,2.1466934160826454e-07,3.433259794524485e-07,-7.073927953133944e-08,-6.108990005683288e-07,2.2978266033757174e-07
8.026607328257297e-07,4.187163478349983e-08,7.525752729654732e-07,2.934502919308037e-07,2.263183934255994e-07,4.1696547237579887e-07,-1.7596186327953e-07,-5.621833016924797e-08,1.3764030636582242e-07,-2.3666952461142812e-07,-6.32491675790207e-07,-3.1664942916557833e-07,-3.906141243016399e-07,2.1565746728412737e-07,3.467465865008415e-07,-9.644521395188532e-08,-5.955378455428661e-07,2.3778890191860252e-07
8.403360282603063e-07,7.276193399528803e-08,7.938983123824345e-07,3.0351108689281033e-07,2.596691840445562e-07,4.290361251817139e-07,-2.0011558171267534e-07,-4.0496606444467776e-08,1.3074149687853235e-07,-2.0695398911760936e-07,-6.335627834574368e-07,-2.946004651306903e-07,-3.719575125761311e-07,2.12247521633843e-07,3.4202857890224025e-07,-1.3647122039586382e-07,-5.818022214086975e-07,2.3618352163350018e-07
8.697466243931734e-07,9.833101557444508e-08,8.324751609049604e-07,3.1243069476975456e-07,2.841124864081077e-07,4.3844083683922067e-07,-2.2953753274739257e-07,-2.5605524903987593e-08,1.209669312706194e-07,-1.792526664281184e-07,-6.285232120905004e-07,-2.7879975843939813e-07,-3.620429491737317e-07,1.983563249130318e-07,3.268710209729586e-07,-1.9942751709156167e-07,-5.689597558800525e-07,2.272259494069733e-07
8.911924409071768e-07,1.1797580698709632e-07,8.690671940008486e-07,3.202705274301903e-07,2.9996891551397693e-07,4.444824641629604e-07,-2.63853244262505e-07,-1.1664079135563242e-08,1.0831102980103458e-07,-1.5361798256097357e-07,-6.188570161963238e-07,-2.680733646376926e-07,-3.5905082716118615e-07,1.7596197790223773e-07,3.0309828742741297e-07,-2.84560417763188e-07,-5.518593691802259e-07,2.1677863317418415e-07
9.071910077926848e-07,1.3314661672148245e-07,9.045354786328121e-07,3.2898901949356475e-07,3.1097815865190703e-07,4.4934626190105086e-07,-3.0027136815368774e-07,3.317492143336676e-09,9.572644865683424e-08,-1.2618916833781002e-07,-6.065393224066402e-07,-2.587368442451525e-07,-3.584332146860732e-07,1.4328161991706533e-07,2.762958745348037e-07,-3.8778203021871614e-07,-5.255024890881709e-07,2.1342020830170263e-07
9.223610969982224e-07,1.4720995869479425e-07,9.392767246901937e-07,3.420138193101294e-07,3.23975625560159e-07,4.578208449670575e-07,-3.337225100573854e-07,2.3342377116689525e-08,8.863124253028013e-08,-9.617518306130499e-08,-5.90877862677108e-07,-2.4553250223888e-07,-3.5368361816176537e-07,1.0271996752488029e-07,2.5362511037687844e-07,-4.997456010844376e-07,-4.880072555129363e-07,2.2620814552456492e-07
9.395583111527909e-07,1.642944158777833e-07,9.722177976733008e-07,3.6253666844815746e-07,3.45872266323285e-07,4.7507403135732767e-07,-3.5915435536770564e-07,5.245848296584899e-08,9.265126652097419e-08,-6.260815327322906e-08,-5.729456972607187e-07,-2.2442492440317372e-07,-3.39829141178038e-07,5.5918339898987854e-08,2.40054567563571e-07,-6.114503102903719e-07,-4.3488979086841564e-07,2.6001036245955555e-07
9.618164120153771e-07,1.874269407537364e-07,9.998291798253925e-07,3.9131586056738915e-07,3.8048335594519827e-07,5.039566088980155e-07,-3.7407844830027546e-07,9.274780144341063e-08,1.1101233274484321e-07,-2.6314538893182266e-08,-5.51866014446805e-07,-1.944881539204028e-07,-3.0895528713583035e-07,1.3331757687544791e-09,2.3568241020744902e-07,-7.15279656810831e-07,-3.650533928524865e-07,3.133849289645414e-07
9.82385292765215e-07,2.1727444949007162e-07,1.0165091158994597e-06,4.257702857092838e-07,4.2806769238235526e-07,5.439678768825371e-07,-3.785874151823972e-07,1.4374407519469095e-07,1.4336265637105743e-07,6.836369676953692e-09,-5.256779956180338e-07,-1.5734692733871443e-07,-2.6367478062549614e-07,-6.213370192016762e-08,2.3617266557232233e-07,-8.156092228120357e-07,-2.7993711066070127e-07,3.79648564082216e-07
1.0032526198676726e-06,2.520291097754611e-07,1.0163281730629936e-06,4.6060124843799466e-07,4.854791266325497e-07,5.915866873221872e-07,-3.746440315675601e-07,2.0289100493578175e-07,1.857451726598717e-07,3.045836451187447e-08,-4.928388357013431e-07,-1.1596691850211143e-07,-2.117900854798201e-07,-1.3473328625487187e-07,2.353422049447833e-07,-9.192158757541013e-07,-1.838666375726065e-07,4.4742888974897917e-07
1.0150996058997173e-06,2.878716529361724e-07,9.949978485789348e-07,4.889763254896855e-07,5.475890287526634e-07,6.41058398585827e-07,-3.650925254476554e-07,2.686147011549911e-07,2.3090246909692878e-07,3.836675450355846e-08,-4.521214994870397e-07,-7.402988562292189e-08,-1.5837764629254512e-07,-2.147246496149958e-07,2.2660746770697993e-07,-1.0272951234327973e-06,-8.447632819459353e-08,5.046539681076045e-07
9.81391814727362e-07,3.198129289636966e-07,9.51798707423335e-07,5.042865188446719e-07,6.086601396947355e-07,6.854012302946352e-07,-3.532944608792992e-07,3.315638094248284e-07,2.6967933542626154e-07,2.685594942642803e-08,-4.036997639007736e-07,-3.453285478014917e-08,-1.1017360410607461e-07,-3.0084452365423447e-07,2.0473066500176118e-07,-1.1410343532075044e-06,9.42242750029165e-09,5.417513398538826e-07
9.229972979472839e-07,3.4320556090736975e-07,8.915152119351466e-07,5.02763021638883e-07,6.641647825882338e-07,7.187038203380522e-07,-3.414233318003641e-07,3.8686451056831375e-07,2.9408709008849767e-07,-2.7763622780400612e-09,-3.4883223976503746e-07,2.409895702299153e-09,-6.972037721482096e-08,-3.904776077953685e-07,1.6822662835320222e-07,-1.2524668652764153e-06,9.261949991474124e-08,5.549594222590138e-07
8.554402122346371e-07,3.5539323073056605e-07,8.248862821690245e-07,4.855144143708323e-07,7.125896799851074e-07,7.380688641038874e-07,-3.2998691707377783e-07,4.3285573234831557e-07,3.002466028717994e-07,-4.28444202249819e-08,-2.892912541085911e-07,3.982274367714279e-08,-3.500015772319088e-08,-4.790266283287054e-07,1.1965354512592176e-07,-1.3514868736151395e-06,1.6501957897076179e-07,5.47643043170543e-07
7.730081917589589e-07,3.5639533251131233e-07,7.659349265019045e-07,4.581833453930046e-07,7.543620294142303e-07,7.439175445567294e-07,-3.195011015902396e-07,4.674967576377782e-07,2.8915969580384203e-07,-8.361566117407158e-08,-2.270616115068623e-07,8.122117191963762e-08,-3.1779786032745237e-09,-5.607081027098655e-07,6.455266909834341e-08,-1.429048955513023e-06,2.2636066448855574e-07,5.284444718886461e-07
6.77223962601579e-07,3.485353055951716e-07,7.273203579986542e-07,4.2870779259399135e-07,7.896618830852823e-07,7.387278319805172e-07,-3.120890681442882e-07,4.91122415936744e-07,2.656496576370347e-07,-1.1703649863667594e-07,-1.6569218010248497e-07,1.2782431902319543e-07,2.676539806434645e-08,-6.295240012294391e-07,9.750918082779722e-09,-1.4799024549966164e-06,2.771167110715485e-07,5.085591803954901e-07
6.109201224989732e-07,3.3580793775909803e-07,7.168137483853272e-07,4.0503971048227233e-07,8.177213163100115e-07,7.264521544536466e-07,-3.1132254088048457e-07,5.03504806441425e-07,2.368003055595847e-07,-1.3808942264339067e-07,-1.0935154271368782e-07,1.7791249237264582e-07,6.120376084129422e-08,-6.790194711022548e-07,-3.813729406275569e-08,-1.5011667067387187e-06,3.185198435727772e-07,4.965646069667341e-07
6.062556940499341e-07,3.2319451801411983e-07,7.364536084986559e-07,3.934858015399307e-07,8.378062702336798e-07,7.122021019615573e-07,-3.2043694116875405e-07,5.05051549637728e-07,2.1009529294416749e-07,-1.4573076320503598e-07,-6.165077451540086e-08,2.275985825457181e-07,1.0024697291915136e-07,-7.037220473256489e-07,-7.346465285305864e-08,-1.4949982740411471e-06,3.4967335029314837e-07,4.953691828721417e-07
6.455272115903281e-07,3.1562616910190283e-07,7.835986029068763e-07,3.975387687799558e-07,8.49225522207733e-07,7.009888831473216e-07,-3.4131354699287675e-07,4.913544277422589e-07,1.9148801586835883e-07,-1.4150905945148315e-07,-2.6014093830032285e-08,2.7212174321990976e-07,1.410688298411361e-07,-7.011789743691013e-07,-9.266351798355823e-08,-1.4660470377321184e-06,3.6724043151792457e-07,4.992248989674636e-07
6.87999480715389e-07,3.1693737560190133e-07,8.527375625518638e-07,4.178023308404542e-07,8.524000964332905e-07,6.969076342996607e-07,-3.734032208553341e-07,4.7254681583657995e-07,1.8468479598489848e-07,-1.279144484622861e-07,-4.272832488503302e-09,3.0792578269496065e-07,1.8270062562738124e-07,-6.734896377519386e-07,-9.391113064370734e-08,-1.420608877825025e-06,3.7430846750538874e-07,5.099346084195249e-07
6.769677540232434e-07,3.2940540140421887e-07,9.372613134757419e-07,4.532012148249037e-07,8.508363056386846e-07,7.033506050122916e-07,-4.12522577253472e-07,4.5297267829518784e-07,1.9191287035325463e-07,-1.075677159391117e-07,4.173823211288467e-09,3.346748890557875e-07,2.2404911683549506e-07,-6.234181952714718e-07,-7.608621506236669e-08,-1.358893880808447e-06,3.777957100215005e-07,5.244204420420437e-07
6.947139580896446e-07,3.536487378640856e-07,1.0302424579540368e-06,5.019897026233841e-07,8.514161691040842e-07,7.230881525665832e-07,-4.5107966203228935e-07,4.36580432203806e-07,2.145217768348681e-07,-8.095229671985758e-08,1.7341584878567256e-09,3.553870382489716e-07,2.6744074384999276e-07,-5.564725383956314e-07,-3.9397263225077426e-08,-1.2841000205594987e-06,3.8270374321724836e-07,5.422645464242378e-07
7.36680469744273e-07,3.884217594220097e-07,1.1239325248626044e-06,5.614082290039799e-07,8.621738605430693e-07,7.572245881312687e-07,-4.805705569914995e-07,4.314201881915781e-07,2.5243030446580156e-07,-4.8134949072878424e-08,-6.922247651497517e-09,3.747307065012979e-07,3.1672303385088296e-07,-4.791990575114122e-07,1.3083252330003665e-08,-1.199399289574551e-06,3.9757193278017155e-07,5.657324222668434e-07
7.755383876879585e-07,4.3057293907518867e-07,1.2090713895564387e-06,6.269070211294127e-07,8.890723014827343e-07,8.043877599694806e-07,-4.945163602861647e-07,4.3973939843384835e-07,3.033224233475837e-07,-9.572606823890448e-09,-1.7020879012886933e-08,3.9700828010540074e-07,3.712626277843546e-07,-3.9822374646290055e-07,7.525370588805553e-08,-1.112168773149719e-06,4.261850607711633e-07,5.987652819007589e-07
8.580754472120774e-07,4.7551352811794525e-07,1.2751894698952405e-06,6.921272476859009e-07,9.338262033791453e-07,8.607378410654528e-07,-4.902995937459723e-07,4.6283106824552455e-07,3.6241465861061873e-07,3.327849058865388e-08,-2.4464890706335533e-08,4.243847392230114e-07,4.339044332326633e-07,-3.201102984495244e-07,1.3927567143415535e-07,-1.0262017661678341e-06,4.660234123489886e-07,6.371622946581571e-07
9.571711677714084e-07,5.180027413846021e-07,1.312229141371609e-06,7.496835793104751e-07,9.93433265898518e-07,9.204011752547651e-07,-4.6984769221243426e-07,4.98796310644712e-07,4.2285192382790694e-07,7.659641023168515e-08,-2.6334985676388845e-08,4.55655491883659e-07,5.015148893557563e-07,-2.501691613146304e-07,1.9719794260059934e-07,-9.452973998111692e-07,5.119553296115516e-07,6.757134606405831e-07
1.0504719954688563e-06,5.531729661640208e-07,1.3135037741655809e-06,7.927967096619159e-07,1.0609097979159833e-06,9.768600737730686e-07,-4.391212464396995e-07,5.462850678212308e-07,4.771079846029666e-07,1.1495375369822929e-07,-2.151224935034007e-08,4.866498341030141e-07,5.690699384186488e-07,-1.9230395465517603e-07,2.429795118308011e-07,-8.762440948278108e-07,5.567568155092459e-07,7.116171029651447e-07
1.1093794764510414e-06,5.77795778531071e-07,1.279053916325501e-06,8.17649011125593e-07,1.127792302414365e-06,1.0246972007946907e-06,-4.058153563843262e-07,5.923636015746516e-07,5.192749600957693e-07,1.4301294919127509e-07,-1.0408795220378696e-08,5.122302844936814e-07,6.320785165430211e-07,-1.444044443513135e-07,2.738054182378169e-07,-8.232270633177585e-07,5.95950959054788e-07,7.385737332725354e-07
1.1410289913052853e-06,5.910673992122711e-07,1.2167390506316027e-06,8.248381593622334e-07,1.1868322928149857e-06,1.0606281739532006e-06,-3.771083666078489e-07,6.305135796124155e-07,5.466626459850086e-07,1.5742262403805383e-07,5.2712946604513924e-09,5.283328660159423e-07,6.850884163443568e-07,-1.0724682783869915e-07,2.897389032230094e-07,-7.891856968616584e-07,6.237227593595951e-07,7.554381735434256e-07
1.1797998699251524e-06,5.942423866341098e-07,1.139432146119361e-06,8.185488584716731e-07,1.2331113620440193e-06,1.083815056171531e-06,-3.5842962098806453e-07,6.578375325909502e-07,5.596637782782385e-07,1.5741226084112095e-07,2.3174358591290534e-08,5.333331488336471e-07,7.263385868457907e-07,-8.070142165525767e-08,2.9291061287522013e-07,-7.760930622487482e-07,6.381139974941472e-07,7.619110069364106e-07
1.1728819901012752e-06,5.896886274403183e-07,1.0603910602225624e-06,8.044899409665691e-07,1.264495725503577e-06,1.0952349631721901e-06,-3.5280423094348303e-07,6.713403368927719e-07,5.607431919571347e-07,1.4520742739255763e-07,4.087475678485757e-08,5.287962411347078e-07,7.574108765494402e-07,-6.204584062082758e-08,2.872882619602846e-07,-7.817376014852122e-07,6.401786677871825e-07,7.577574581491032e-07
1.1279863732359303e-06,5.802453874625354e-07,9.900409744373672e-07,7.882634596300661e-07,1.281712475172431e-06,1.0975285092482773e-06,-3.6063743775654886e-07,6.741350108686671e-07,5.534590889947806e-07,1.2517529958536955e-07,5.6722484792318806e-08,5.189170003536524e-07,7.835941903350025e-07,-4.805129203534818e-08,2.781894421712681e-07,-7.989292636285343e-07,6.321324174682072e-07,7.431453256703517e-07
1.0924283475147713e-06,5.688630381558937e-07,9.350480868641715e-07,7.744010795792118e-07,1.2872877553900257e-06,1.0945658699854217e-06,-3.803519834126386e-07,6.696429760865845e-07,5.415367725735281e-07,1.0221176658154091e-07,6.964783529042197e-08,5.085788800322069e-07,8.099873000876269e-07,-3.349353127271187e-08,2.709772273403531e-07,-8.212312331620772e-07,6.182762288143978e-07,7.210945815262335e-07
1.0731489097121525e-06,5.582518145835124e-07,8.987477608963699e-07,7.658988008613512e-07,1.2839113344430295e-06,1.090789049174982e-06,-4.0943103012685553e-07,6.613556207724172e-07,5.282656106498651e-07,8.07064214013254e-08,7.877007129038677e-08,5.016366944446788e-07,8.407826611042922e-07,-1.322756903654344e-08,2.699021025227919e-07,-8.44814839811867e-07,6.004721893042039e-07,6.952240207292729e-07
1.0631509468050192e-06,5.505461560766335e-07,8.817201107301498e-07,7.6418155721223e-07,1.2737646613788315e-06,1.090626997410563e-06,-4.4484843192427096e-07,6.518535190052694e-07,5.163356873072527e-07,6.400943712059745e-08,8.355106538301402e-08,5.00052624419533e-07,8.776869162555698e-07,1.684929674229069e-08,2.772934958259901e-07,-8.614402368041822e-07,5.7974836673895e-07,6.795980287444273e-07
1.066474522307285e-06,5.467910103835109e-07,8.815591699706561e-07,7.688265565306859e-07,1.2580606509967164e-06,1.097397612720144e-06,-4.834502701417702e-07,6.453601361909983e-07,5.072836114542504e-07,5.4046517923496625e-08,8.384048832103552e-08,5.030053503307245e-07,9.19263045739053e-07,5.501338350469651e-08,2.925348402088793e-07,-8.703744714001763e-07,5.526345870977021e-07,6.6585429770971e-07
1.0798264532819838e-06,5.462626439069922e-07,8.924154450666018e-07,7.770289086963496e-07,1.2362613120099249e-06,1.1117167186411336e-06,-5.242498425116319e-07,6.424060609904434e-07,5.004996669117965e-07,5.076679727597789e-08,7.987367557366264e-08,5.063766958918903e-07,9.612141649458465e-07,1.0266816327736378e-07,3.118576869355197e-07,-8.804582421588661e-07,5.163790317102276e-07,6.519781379486845e-07
1.0954961531200954e-06,5.464489885437199e-07,9.063313328143966e-07,7.843438555551492e-07,1.2066345901156263e-06,1.131088396496252e-06,-5.683937093673675e-07,6.410552865001113e-07,4.932988384273454e-07,5.212465797864908e-08,7.246834094195914e-08,5.040801346188836e-07,9.97018689729184e-07,1.592400912476832e-07,3.3021821329145057e-07,-8.950706758567657e-07,4.7063980720235757e-07,6.307992638319284e-07
1.104554039954786e-06,5.441767096282377e-07,9.165285995862221e-07,7.871390852772009e-07,1.1684760726856625e-06,1.1517490116276037e-06,-6.162545282602437e-07,6.397327796441124e-07,4.824990613716111e-07,5.475044847637384e-08,6.331301473860716e-08,4.907037292935763e-07,1.0206753204517935e-06,2.2191476932899323e-07,3.439893206475762e-07,-9.182460308544333e-07,4.16264423740205e-07,5.928028548836797e-07
1.1002078150120371e-06,5.369872804741787e-07,9.197691583426809e-07,7.84501897306215e-07,1.1235147030872613e-06,1.1704394773304788e-06,-6.667395565127552e-07,6.368425508389884e-07,4.659375303448541e-07,5.466675127721066e-08,5.473399217244585e-08,4.6353405206731376e-07,1.0240193845569903e-06,2.894624353977625e-07,3.525839885682431e-07,-9.496152719563303e-07,3.581275093056203e-07,5.278085585762418e-07
1.0781622330748752e-06,5.237751906903979e-07,9.158941585780089e-07,7.778875695394676e-07,1.0752552831620408e-06,1.1848942150459917e-06,-7.194026597790479e-07,6.322218555938738e-07,4.4304792206774026e-07,4.811713806503268e-08,4.8916458736472205e-08,4.2352987975487155e-07,1.0081747166346821e-06,3.6008912896396193e-07,3.5910434004857295e-07,-9.840269430413687e-07,3.0263498486242727e-07,4.399721682085202e-07
1.0384698127603447e-06,5.049072304215537e-07,9.061652710235929e-07,7.697164384160206e-07,1.0280304750338308e-06,1.194344608791644e-06,-7.699115554250638e-07,6.268976983594756e-07,4.151556657263785e-07,3.281159609001176e-08,4.722901489273231e-08,3.754949238873718e-07,9.801315189706192e-07,4.3362419265444915e-07,3.700936163879171e-07,-1.0125935020374054e-06,2.566621021543589e-07,3.487612048071409e-07
9.85399517888134e-07,4.821937667589015e-07,8.923867322400545e-07,7.624249174553039e-07,9.86504775802717e-07,1.1995803349895523e-06,-8.134461311859853e-07,6.226231463645737e-07,3.8545287893764166e-07,8.793940169204585e-09,4.985882063684724e-08,3.265355306244221e-07,9.476388049711725e-07,5.114479203191596e-07,3.930985535432524e-07,-1.025179500131729e-06,2.2602526695858306e-07,2.609067544881061e-07
9.248207529949058e-07,4.5831088768516137e-07,8.765669834889337e-07,7.577010055299779e-07,9.543063247266244e-07,1.202096782089446e-06,-8.446427192077371e-07,6.208324268368386e-07,3.578790280526398e-07,-2.1899469637725478e-08,5.564152738118813e-08,2.829245589730238e-07,9.195090091256601e-07,5.938491902638195e-07,4.3255487737750644e-07,-1.0141151837069655e-06,2.1294647979052986e-07,1.89829260449043e-07
8.631061016419796e-07,4.3565342551419976e-07,8.605061017964781e-07,7.5576282792485e-07,9.32200408442303e-07,1.2028523694789263e-06,-8.623086569701873e-07,6.214473757459722e-07,3.3549647269156097e-07,-5.617331495897948e-08,6.237515705915394e-08,2.4779457731032926e-07,9.001747863652694e-07,6.783966554137568e-07,4.872675808147221e-07,-9.778694252421764e-07,2.163882948649056e-07,1.4083874669359032e-07
8.054733448785239e-07,4.1550917114015304e-07,8.45597730921839e-07,7.554905428728194e-07,9.178544392370953e-07,1.2018256445401327e-06,-8.683933135730107e-07,6.230507792575006e-07,3.1966971907677744e-07,-9.057120847012487e-08,6.769667036825707e-08,2.2108412159886247e-07,8.900284500289981e-07,7.603781955386466e-07,5.511699331312504e-07,-9.229636809123268e-07,2.3178734515410398e-07,1.1437048513879407e-07
7.560789137684477e-07,3.979792938006192e-07,8.327579812368085e-07,7.552247755437386e-07,9.070684816820634e-07,1.1984127724869489e-06,-8.660502934762724e-07,6.236132630848267e-07,3.099621348347798e-07,-1.2206552078555414e-07,6.976047513211091e-08,2.00365947576856e-07,8.869517537699508e-07,8.341658637673588e-07,6.156076029993809e-07,-8.602117892838853e-07,2.5279917376442384e-07,1.0784968628581399e-07
7.144957494293612e-07,3.821963379293631e-07,8.220788230083802e-07,7.531740368735229e-07,8.948984964052921e-07,1.1916011224158368e-06,-8.601650976181695e-07,6.207137167583991e-07,3.041941531951959e-07,-1.491284929264177e-07,6.723528484991311e-08,1.8149900391239293e-07,8.876081425770114e-07,8.943534392865656e-07,6.715442119226069e-07,-8.027985547930608e-07,2.7283750748970713e-07,1.1743059982073243e-07
6.801626356716793e-07,3.6668420008168816e-07,8.127394985930471e-07,7.476055012356273e-07,8.768925303520375e-07,1.1802713342004977e-06,-8.54696502017646e-07,6.120606508711661e-07,2.9927555947419266e-07,-1.7212971008550078e-07,5.924886935403937e-08,1.5991317842349887e-07,8.848241721947578e-07,9.368405489910365e-07,7.118030146808087e-07,-7.62098790160456e-07,2.858707215893302e-07,1.3030523594311622e-07
6.513266456738971e-07,3.500307785783031e-07,8.037112036769967e-07,7.375533117761543e-07,8.508901973236535e-07,1.1637784396393909e-06,-8.528765235093007e-07,5.968081963691916e-07,2.9299842187571833e-07,-1.9253128693129636e-07,4.5819490586147354e-08,1.3243614235938975e-07,8.742723005456545e-07,9.599712373736428e-07,7.32769544765454e-07,-7.438384135455806e-07,2.8887539477581224e-07,1.402760945054928e-07
6.327732205496733e-07,3.314547494577631e-07,7.94492418181421e-07,7.234551764171425e-07,8.176917203361294e-07,1.143465299744692e-06,-8.556480979923288e-07,5.762401135893871e-07,2.8485707905221176e-07,-2.1171214264413827e-07,2.8328932056992413e-08,9.819203191098324e-08,8.545138994949588e-07,9.648970146344328e-07,7.344443434851478e-07,-7.499908973676304e-07,2.8278738180328786e-07,1.3761891132112962e-07
6.194603457189393e-07,3.1081033595606473e-07,7.852975431979802e-07,7.070755016817436e-07,7.797072380430631e-07,1.121820806006535e-06,-8.663458397519692e-07,5.531762231393605e-07,2.768607860098288e-07,-2.301488544477409e-07,9.566990390270683e-09,5.84854608479002e-08,8.250693877154562e-07,9.563363309438242e-07,7.197376986965397e-07,-7.768739985726035e-07,2.7008672885202017e-07,1.2645773591924947e-07
6.053735675151286e-07,2.8850745061039444e-07,7.775810821296143e-07,6.915638445978386e-07,7.397371071453294e-07,1.1020956331408247e-06,-8.82291079816186e-07,5.31465939787065e-07,2.7262840014391476e-07,-2.469147355092252e-07,-6.6098872855159366e-09,1.6777262322185065e-08,7.881172741470795e-07,9.39860035948383e-07,6.945322590362521e-07,-8.156878464714412e-07,2.549096222497741e-07,1.0688220375593954e-07
5.858841562549149e-07,2.658455155515231e-07,7.752786804862922e-07,6.819839115292414e-07,7.012406527511797e-07,1.0892541979247978e-06,-8.958986950542365e-07,5.158833103810087e-07,2.7738175137941333e-07,-2.598610732875256e-07,-1.620855441013228e-08,-2.181899558471317e-08,7.473071988915335e-07,9.227672887825575e-07,6.675058968199194e-07,-8.567762429498575e-07,2.4322020288251026e-07,9.239432348928827e-08
5.587402067876957e-07,2.4515092715235536e-07,7.85132174008478e-07,6.846636223341397e-07,6.682037871405298e-07,1.0878999217066015e-06,-9.052242145154079e-07,5.108293251870339e-07,2.957908230448162e-07,-2.6709181695957156e-07,-1.689435084608119e-08,-5.281915863937163e-08,7.066956220581947e-07,9.117540047160008e-07,6.479135335630326e-07,-8.921274822434231e-07,2.4081940101537005e-07,8.484075108550176e-08
5.361300701944901e-07,2.2902722994806374e-07,8.146154760109354e-07,7.044543515497815e-07,6.434961138572977e-07,1.0998850481703163e-06,-9.084258281859651e-07,5.179121944619953e-07,3.2946699767112296e-07,-2.6884746314982667e-07,-9.76841407710843e-09,-7.496919766274646e-08,6.712092856715262e-07,9.0848722416409e-07,6.424958694575213e-07,-9.202193437713263e-07,2.5211669598256885e-07,7.869047867442136e-08
5.2978789514557e-07,2.1928124761684937e-07,8.684100756147226e-07,7.419172438491882e-07,6.280065648819267e-07,1.1229533681341593e-06,-9.016226114261554e-07,5.350591033851447e-07,3.756224251122059e-07,-2.677409079793278e-07,5.462708454039296e-10,-9.013116435436509e-08,6.420669143396723e-07,9.091095818398776e-07,6.54179924232478e-07,-9.459120793059731e-07,2.803164300297755e-07,8.364776878060247e-08
5.753416477388605e-07,2.1648850497845768e-07,9.456141154631397e-07,7.92866829428256e-07,6.216366772077139e-07,1.1513177875623671e-06,-8.88588982590707e-07,5.582927763990457e-07,4.2802535644618185e-07,-2.6681349236097416e-07,7.903060071785535e-09,-1.0050027417063052e-07,6.212387683015273e-07,9.058691030977614e-07,6.825729983536635e-07,-9.752771464633316e-07,3.2811055793096777e-07,8.399249429638407e-08
6.439758367609345e-07,2.2015639935811033e-07,1.038963919875133e-06,8.501532315455753e-07,6.264630919045669e-07,1.1781415470591994e-06,-8.679399827627749e-07,5.840324791570721e-07,4.800508186686007e-07,-2.6718095952657426e-07,7.263879595854754e-09,-1.063076140959524e-07,6.115862669246241e-07,8.902513205630339e-07,7.243577033439583e-07,-1.011066919817121e-06,3.9769216391250364e-07,8.83229361743207e-08
6.851242590195675e-07,2.289861837554146e-07,1.1364474185691685e-06,9.062306473495438e-07,6.465277818166905e-07,1.1981495675746927e-06,-8.324259059787052e-07,6.101641274285615e-07,5.266460303631898e-07,-2.6695306294941936e-07,-3.540085981195521e-09,-1.0566883586870278e-07,6.148432983498775e-07,8.547595599159235e-07,7.736797144895481e-07,-1.0516159867727877e-06,4.895770985610284e-07,1.0580859295131196e-07
7.081356501688397e-07,2.4139247085403625e-07,1.2251211093771386e-06,9.558906298082192e-07,6.849861684413986e-07,1.2091465605026513e-06,-7.800192663668915e-07,6.365708084117643e-07,5.662241207382091e-07,-2.6155180346872245e-07,-2.330994582241318e-08,-9.556526379346526e-08,6.323041596155937e-07,7.977571809619918e-07,8.239515877899651e-07,-1.091599275081283e-06,6.032306132030335e-07,1.39122100844522e-07
7.254020146199389e-07,2.564340881791596e-07,1.2953999717480962e-06,9.984003359997419e-07,7.439627177731863e-07,1.213790025413119e-06,-7.15589960110271e-07,6.654332088791122e-07,6.015580141615422e-07,-2.4518227099798e-07,-4.81726757759743e-08,-7.339555974829823e-08,6.636803948959319e-07,7.23248402196526e-07,8.701998528770226e-07,-1.122302225682607e-06,7.336808451860555e-07,1.6489604916608544e-07
7.53159831363909e-07,2.7434017385508103e-07,1.3429372136171453e-06,1.037183540920245e-06,8.225878037360085e-07,1.218795894185043e-06,-6.357168308091492e-07,7.000287886098592e-07,6.386580736777875e-07,-2.1339165265295916e-07,-7.324080938221426e-08,-3.924670250562135e-08,7.065076995275059e-07,6.395824916700408e-07,9.096980187054763e-07,-1.1370249669100276e-06,8.735386450458413e-07,1.9027986960548131e-07
8.250295417732505e-07,2.9588817059257447e-07,1.3670312290192216e-06,1.0765610853622978e-06,9.149319800838734e-07,1.2322672662916367e-06,-5.422230936696814e-07,7.422383313994927e-07,6.833653092476122e-07,-1.6565316715405365e-07,-9.43243464171921e-08,2.6668430144892327e-09,7.550619763542567e-07,5.575336995327636e-07,9.409740731129172e-07,-1.1339339470973197e-06,1.009077755519406e-06,2.3928096513248004e-07
8.805919379505503e-07,3.212795476850769e-07,1.3678132258260236e-06,1.1181896933075171e-06,1.0111119855487525e-06,1.2594985936211943e-06,-4.4561971770766815e-07,7.91126254328599e-07,7.38418995823065e-07,-1.062017396342013e-07,-1.086982619872708e-07,4.523504319755985e-08,8.022271460391527e-07,4.867583098280736e-07,9.629879409580796e-07,-1.1148639624162977e-06,1.127549759372004e-06,3.057957109346705e-07
8.956095499769676e-07,3.496130133278889e-07,1.3450356129340345e-06,1.1599580251230392e-06,1.1007324480518948e-06,1.3051575695050713e-06,-3.40369573712097e-07,8.435463095997544e-07,8.028618655528821e-07,-4.270681437014331e-08,-1.1512676731914458e-07,8.12331089931471e-08,8.410671782684085e-07,4.339979536140738e-07,9.748947216486811e-07,-1.083399168958005e-06,1.2345869070903988e-06,3.809865843582391e-07
9.058619451949052e-07,3.7903992844838826e-07,1.2988482422191417e-06,1.19716559425973e-06,1.1757946358439688e-06,1.3652865951950768e-06,-2.3712784091064682e-07,8.953895682367194e-07,8.766369531696384e-07,1.608344948350471e-08,-1.1397391669227849e-07,1.0525713716774272e-07,8.658594691167784e-07,4.0133271381418157e-07,9.760389610352224e-07,-1.0462517966227705e-06,1.289221860564267e-06,4.5254699669310993e-07
9.325113850401331e-07,4.071919802173319e-07,1.2312940503217838e-06,1.224498011828198e-06,1.2318832211801163e-06,1.4325284739118146e-06,-1.773021785266116e-07,9.427374787898533e-07,9.536636996993757e-07,6.280732724746889e-08,-1.0726946194585089e-07,1.1468394976098895e-07,8.738591520416061e-07,3.869113555681797e-07,9.667504813904441e-07,-1.0102395787306232e-06,1.3031427367033553e-06,5.044823554638927e-07
9.640702141122856e-07,4.3191012999196934e-07,1.147486971004956e-06,1.2382210258415984e-06,1.2686456168714858e-06,1.5000342656364495e-06,-1.5091615898206616e-07,9.832611663712295e-07,1.0282734535994843e-06,9.361444314527682e-08,-9.802363383633472e-08,1.1053385695967002e-07,8.664103533519632e-07,3.8408513718370613e-07,9.497234888798093e-07,-9.803259980589144e-07,1.2934004023962218e-06,5.35889243748269e-07
9.81590551628836e-07,4.5213749811878753e-07,1.0556639494777235e-06,1.2379807917067246e-06,1.2903255438900344e-06,1.5582038219926315e-06,-1.271181449346208e-07,1.017138658981927e-06,1.0944127837609544e-06,1.0910737756683515e-07,-8.899706972238374e-08,9.751526371959698e-08,8.491435707985076e-07,3.8517644134749444e-07,9.300890082252434e-07,-9.606089663335953e-07,1.2846345439880652e-06,5.743888627335847e-07
1.0068029646849443e-06,4.682679688607032e-07,9.65505732658128e-07,1.2270483741327955e-06,1.3027117310249006e-06,1.610117330600848e-06,-1.0239387142582359e-07,1.046493080555552e-06,1.1516707872800936e-06,1.1354349300390785e-07,-8.171382370631095e-08,8.248271628626194e-08,8.301848773548342e-07,3.8355899136387013e-07,9.136193031519094e-07,-9.518981699781665e-07,1.271017046642187e-06,6.214800254200671e-07
9.98123433126979e-07,4.81615999927218e-07,8.851818874335163e-07,1.2108781193728978e-06,1.3112688794389057e-06,1.6555131241636055e-06,-7.990206961734185e-08,1.0740566313158865e-06,1.2018394046090005e-06,1.1289342199492233e-07,-7.599672737778791e-08,7.22385047828065e-08,8.186090359203704e-07,3.743236464729912e-07,9.04793818171524e-07,-9.517744455017744e-07,1.2632116557573055e-06,6.583551120140059e-07
9.839614287770613e-07,4.934080301946547e-07,8.185570246793958e-07,1.1949613487985987e-06,1.3264543568589951e-06,1.6929872353132964e-06,-5.419287867202671e-08,1.1019778412915561e-06,1.2454254085296194e-06,1.125943461452621e-07,-7.01873006892687e-08,7.155146602328618e-08,8.193964730779143e-07,3.566042010052711e-07,9.057345918851072e-07,-9.546178014933347e-07,1.2718313058776928e-06,6.89581986431089e-07
9.683524014050746e-07,5.03790736242184e-07,7.641021111467448e-07,1.1827441949511737e-06,1.3621596924153786e-06,1.7115078520160078e-06,-5.519414614201898e-09,1.1304076150554857e-06,1.282811836928147e-06,1.1546705802370997e-07,-6.233904590829543e-08,8.149821327406103e-08,8.327789254888589e-07,3.33462825043855e-07,9.156719792953466e-07,-9.524570092502942e-07,1.2954516513468386e-06,7.269537080323768e-07
9.299936188607438e-07,5.114002796710399e-07,7.165430659766251e-07,1.1744711996597253e-06,1.4212502317249482e-06,1.702229192633197e-06,6.124157104373727e-08,1.1562383042486597e-06,1.3035433697957205e-06,1.2071955900801492e-07,-5.174174485732769e-08,9.916085147061735e-08,8.550378595642045e-07,3.1057834997180457e-07,9.31376482452637e-07,-9.373690390768506e-07,1.3276479971287708e-06,7.645533518693699e-07
8.690057124456255e-07,5.141350729524752e-07,6.708899792811211e-07,1.1681619625088332e-06,1.4998471987075693e-06,1.6669585251892484e-06,1.4837649042877918e-07,1.173768075569719e-06,1.3058661640706202e-06,1.2502740932873272e-07,-3.941021856109329e-08,1.197033147119907e-07,8.798112521929405e-07,2.947752812888658e-07,9.488751530686346e-07,-9.04112734815971e-07,1.3586007193776335e-06,8.013718146664967e-07
8.008851014277027e-07,5.109566347632444e-07,6.265506274115118e-07,1.162407471488952e-06,1.5884016547716948e-06,1.6080426929573312e-06,2.526036672698194e-07,1.1774927120238139e-06,1.2902859778942567e-06,1.2503025666135356e-07,-2.727001431200377e-08,1.3938181923575796e-07,9.019212872639749e-07,2.92109422470545e-07,9.647964397217197e-07,-8.51314674574428e-07,1.3778037633964169e-06,8.357016538230152e-07
7.433956969728741e-07,5.034165947148478e-07,5.888592696124467e-07,1.158666056845144e-06,1.6688829466850665e-06,1.547626365096544e-06,3.3783657239119753e-07,1.1650039225387243e-06,1.2659742636545118e-06,1.1934861539190645e-07,-1.7063646365638566e-08,1.5712963582992826e-07,9.1884547357941e-07,3.061848801720179e-07,9.76193676261239e-07,-7.82557251481452e-07,1.3771682054487647e-06,8.632968862189244e-07
7.067146058436083e-07,4.962408461173648e-07,5.673436866338524e-07,1.1613879053136695e-06,1.7461948866999806e-06,1.4952897751573495e-06,4.0569128466016327e-07,1.1385817558946836e-06,1.238846688484725e-06,1.0916847838641532e-07,-9.691569560759682e-09,1.7448301813495247e-07,9.3074909730518e-07,3.3736228692040287e-07,9.804315875835982e-07,-7.059170394251688e-07,1.3528761206250247e-06,8.902610114305323e-07
7.173781516644052e-07,4.946151918294271e-07,5.719318907728006e-07,1.1762838745124056e-06,1.7750953841437016e-06,1.456761657924999e-06,4.125948280285773e-07,1.105162380966437e-06,1.2151913737820507e-06,9.7635034682385e-08,-5.01027983952663e-09,1.9465583427733968e-07,9.400119097015292e-07,3.8382605636669073e-07,9.763089265801094e-07,-6.305213288750159e-07,1.3059471050825346e-06,9.277563867222203e-07
7.163847909197523e-07,4.997630695089646e-07,6.085301774379941e-07,1.2075345609473315e-06,1.7907808927041582e-06,1.4460198657790346e-06,4.2463040730044296e-07,1.074062135071147e-06,1.203597909563133e-06,8.8424889351947e-08,-2.1820972624351754e-09,2.2070356718199141e-07,9.506334152668631e-07,4.426859117431337e-07,9.649604871699745e-07,-5.634116221411703e-07,1.2414950538840905e-06,9.660872721289613e-07
7.037889748126495e-07,5.25906016991324e-07,6.756300398238707e-07,1.254853561764436e-06,1.8206186942266233e-06,1.453035352911342e-06,4.5843239435913547e-07,1.0529265855735915e-06,1.2064969864496052e-06,8.42280896746023e-08,-5.089893163303532e-10,2.533556249956987e-07,9.651293252690143e-07,5.103237924405842e-07,9.494077587914343e-07,-5.079720814992511e-07,1.1668796949827262e-06,1.0020610831481487e-06
6.863200588603572e-07,5.566376747427111e-07,7.639468691665225e-07,1.3122196511515104e-06,1.8033842867832068e-06,1.4906167273789164e-06,4.1903444880837754e-07,1.044576500917167e-06,1.2284905186330765e-06,8.618913979073777e-08,-8.355625841303823e-11,2.9018779603687164e-07,9.83137745972567e-07,5.826305262574904e-07,9.33478037997813e-07,-4.6246220020682905e-07,1.090216189100159e-06,1.035717604271632e-06
7.03486737464502e-07,5.941965759359161e-07,8.594047393304878e-07,1.369466976375027e-06,1.7554211265019072e-06,1.5494819640052787e-06,3.580223868078082e-07,1.0466861735593643e-06,1.26198114920918e-06,9.424861380203632e-08,-1.765941076021399e-09,3.2639849580417954e-07,1.0019616808297008e-06,6.549319959977252e-07,9.205904511006791e-07,-4.2149610558564796e-07,1.0167447328518617e-06,1.0632615486671006e-06
7.704445039561075e-07,6.297842365133501e-07,9.472898935284906e-07,1.4155698335249008e-06,1.7252110054341751e-06,1.5983610037557939e-06,3.2746185341325736e-07,1.0535542368581701e-06,1.2968434492694301e-06,1.0742433080806115e-07,-6.69276553213199e-09,3.5604448876647565e-07,1.0174640822289686e-06,7.230548733524432e-07,9.125911166956601e-07,-3.794132520777049e-07,9.485764189980398e-07,1.0872459979922782e-06
8.60381320173548e-07,6.569330415083338e-07,1.0155972946868588e-06,1.4417790849460543e-06,1.6971877607580162e-06,1.6351834258554486e-06,2.9309314116824663e-07,1.0587187504962463e-06,1.3208603492843384e-06,1.240151032584694e-07,-1.5593201159111513e-08,3.736085399153484e-07,1.0258921538302147e-06,7.835289007634026e-07,9.096072304224898e-07,-3.3308417155030937e-07,8.851023527023063e-07,1.1080296942054226e-06
9.442347278429573e-07,6.71750739812593e-07,1.0574632437805394e-06,1.4440270858799295e-06,1.6604393527624675e-06,1.6543134072141405e-06,2.8342827088549503e-07,1.0577494174334518e-06,1.3309802624401198e-06,1.423144740317517e-07,-2.807404311525302e-08,3.7604950430079795e-07,1.0256083946111859e-06,8.344458019298007e-07,9.110019115802865e-07,-2.836340288792146e-07,8.241979336985935e-07,1.1261328058115482e-06
1.0172033430039058e-06,6.74012328851768e-07,1.0725662828397717e-06,1.4242263172024355e-06,1.647871521056899e-06,1.6540828137330848e-06,2.86501864492947e-07,1.0499150640908556e-06,1.3300263101158075e-06,1.6135742492825487e-07,-4.234056765743649e-08,3.639873278341516e-07,1.017224498874065e-06,8.754501591756994e-07,9.15916642982591e-07,-2.3589765692676536e-07,7.64795454653233e-07,1.1427605785472022e-06
1.05420244417639e-06,6.668346555882389e-07,1.0664041774627547e-06,1.389587397283995e-06,1.6322315556836765e-06,1.6405204859178058e-06,2.8603765587835543e-07,1.0377759067763217e-06,1.3217069410639741e-06,1.8088031458742232e-07,-5.566887571704898e-08,3.4109745514540695e-07,1.003355612973535e-06,9.066962683316954e-07,9.230426585303091e-07,-1.9705567618484827e-07,7.076545610974489e-07,1.161666850604272e-06
1.07241434404585e-06,6.551158836620421e-07,1.0473469794412408e-06,1.350090998361225e-06,1.6166459971201082e-06,1.6221880981556266e-06,2.8570427181495936e-07,1.0257233491570408e-06,1.3122652739621022e-06,2.0077046779179863e-07,-6.523007853596867e-08,3.1272356721251456e-07,9.870128166577458e-07,9.285686153007517e-07,9.308782174778071e-07,-1.7405924641600864e-07,6.55015558958818e-07,1.178210508869656e-06
1.0801127444235087e-06,6.437123629300577e-07,1.0230428055562463e-06,1.3153570101975944e-06,1.6004986099068586e-06,1.607416775692371e-06,2.70522701641039e-07,1.0185476359843588e-06,1.3040597964921583e-06,2.205087113119905e-07,-6.885531098644716e-08,2.8438262094252515e-07,9.705334073721679e-07,9.421263370658245e-07,9.384184777900715e-07,-1.7078902435331157e-07,6.094842635627597e-07,1.1896841393547213e-06
1.072918341402232e-06,6.359569932328556e-07,9.976740162901282e-07,1.2916964784268313e-06,1.563285244965336e-06,1.6018149106602526e-06,2.407989462725084e-07,1.019543515244007e-06,1.2995535225232165e-06,2.38488528357673e-07,-6.582692473758175e-08,2.597727993773132e-07,9.548497278793932e-07,9.492891827911561e-07,9.450118772915252e-07,-1.8722153916221422e-07,5.718667899198924e-07,1.1934120133105127e-06
1.0659955337617929e-06,6.326816273168094e-07,9.708443216571453e-07,1.2799838546926973e-06,1.5139726841541895e-06,1.6061420507157115e-06,1.9957562385508537e-07,1.028430695940193e-06,1.2984857867348318e-06,2.515840374994202e-07,-5.748092521572254e-08,2.391682085381906e-07,9.383563712807108e-07,9.52077791516254e-07,9.497433823339466e-07,-2.2029199000750356e-07,5.41488610081572e-07,1.1838382938254883e-06
1.0547602916382439e-06,6.321827546248981e-07,9.386515854087502e-07,1.2756563793466082e-06,1.4541348342661514e-06,1.6175431520919243e-06,1.480614594729424e-07,1.0410899683693914e-06,1.2981534156305398e-06,2.5590707356254093e-07,-4.693860591073985e-08,2.1987584976686373e-07,9.175757471798704e-07,9.524281629699848e-07,9.516451505746905e-07,-2.642286499831306e-07,5.154320385570109e-07,1.157326422624266e-06
1.0355985180474652e-06,6.313259101598666e-07,8.965299442254364e-07,1.2711602909366003e-06,1.3833032819019074e-06,1.6282505210014227e-06,8.937019160875546e-08,1.0516531119440634e-06,1.2928894012745479e-06,2.4854379136726477e-07,-3.794999935152634e-08,1.982949336769652e-07,8.889508561227076e-07,9.52423078209169e-07,9.503013426394814e-07,-3.1072807717439163e-07,4.898403247715556e-07,1.112770534199638e-06
1.0099728073296453e-06,6.270163306576491e-07,8.421393528553353e-07,1.2591222221170118e-06,1.3070211530770503e-06,1.6310518227793528e-06,2.7707185668835473e-08,1.0550411030277172e-06,1.277370038884874e-06,2.289757151380822e-07,-3.36392873143841e-08,1.7180469191224343e-07,8.502602782824595e-07,9.540455681289707e-07,9.458555420157475e-07,-3.5084863320018757e-07,4.616011331588808e-07,1.0512546763356113e-06
9.758880500267282e-07,6.172260427266679e-07,7.769820685128398e-07,1.2347205200355757e-06,1.228160275682063e-06,1.6217408523033306e-06,-3.257786769369687e-08,1.048688628825096e-06,1.2493480530689546e-06,1.9962629446210327e-07,-3.5598355457467344e-08,1.4014389945174164e-07,8.014359373300798e-07,9.588409603764386e-07,9.391308146169756e-07,-3.7691364914707457e-07,4.2889827101875607e-07,9.788314969164094e-07
9.337319119972567e-07,6.016171727776853e-07,7.06666496304549e-07,1.1972750844948013e-06,1.1483697468724715e-06,1.6000518850028416e-06,-8.644668274515989e-08,1.0336014261924726e-06,1.209934224026195e-06,1.656884779857441e-07,-4.333527023182364e-08,1.06408663471537e-07,7.455695017767497e-07,9.680071943265332e-07,9.323755406964724e-07,-3.8298579259208026e-07,3.932904032063109e-07,9.020028059294578e-07
8.86285309450124e-07,5.818061331267548e-07,6.397500479211256e-07,1.1507772948083647e-06,1.0732951879606552e-06,1.569957510116836e-06,-1.2883781653547596e-07,1.0141687249657328e-06,1.1645528756633345e-06,1.3394710646624266e-07,-5.44541927932715e-08,7.634217859986402e-08,6.886085213738532e-07,9.823438827187914e-07,9.291268566111988e-07,-3.6562119235086534e-07,3.5902864044206273e-07,8.277580434200918e-07
8.376982761260914e-07,5.608199776947912e-07,5.850963261174495e-07,1.1024117142780019e-06,1.0098354970589306e-06,1.5376578861688198e-06,-1.563352022034941e-07,9.961098562199931e-07,1.1205486374901016e-06,1.1063760872840762e-07,-6.582963310002937e-08,5.5563919561046425e-08,6.3682146802779e-07,1.0013195261079285e-06,9.325234339700229e-07,-3.2567227281185526e-07,3.318068490449253e-07,7.633924383504031e-07
7.926895159589265e-07,5.41888160498768e-07,5.490764001676208e-07,1.0597620774351432e-06,9.592199124293755e-07,1.5091750654857052e-06,-1.688861977743014e-07,9.840218350631428e-07,1.084441838237169e-06,9.966070066091819e-08,-7.502484697888728e-08,4.707849176887891e-08,5.945630100434604e-07,1.022618269250071e-06,9.440149951291162e-07,-2.68770434548753e-07,3.1548146473032714e-07,7.131604757894689e-07
7.554009272043745e-07,5.27537259431222e-07,5.344135278784276e-07,1.028823862821663e-06,9.176678780732787e-07,1.4889903954059217e-06,-1.7216788584965562e-07,9.803280918726376e-07,1.0606093654175369e-06,1.021828483334874e-07,-8.103913414365684e-08,5.081727391197174e-08,5.636524494976804e-07,1.0430038675846524e-06,9.637021141563953e-07,-2.0332512727653862e-07,3.117337218996616e-07,6.79017074802014e-07
7.289327694603333e-07,5.193960652105072e-07,5.405539454225408e-07,1.0134350214568483e-06,8.796675384797404e-07,1.479989927261383e-06,-1.7411721608009145e-07,9.851732433484837e-07,1.0508143793289655e-06,1.1701838598582236e-07,-8.442366114346028e-08,6.425214912535287e-08,5.434986530451467e-07,1.0593613898341487e-06,9.910642044794328e-07,-1.3806556471701682e-07,3.2065590876643034e-07,6.598664376415105e-07
7.151952138534997e-07,5.182348175866725e-07,5.640830344292937e-07,1.0150763488457003e-06,8.375905076441478e-07,1.4830480851570262e-06,-1.8445861605585463e-07,9.963461310665586e-07,1.05401336698885e-06,1.410682933071074e-07,-8.707273583777733e-08,8.31630175947555e-08,5.313974866337495e-07,1.0692422667655743e-06,1.0252376030161822e-06,-8.024507087571568e-08,3.4089254840624204e-07,6.522296051215732e-07
7.147997482102997e-07,5.240170262306643e-07,5.988250119163943e-07,1.032695496486822e-06,7.844290656872642e-07,1.4967880762663778e-06,-2.129650990218661e-07,1.009978196354803e-06,1.0668561223439375e-06,1.7015491033553976e-07,-9.1516886040721e-08,1.0313432541631895e-07,5.235494689269986e-07,1.0713499593220429e-06,1.06538805240988e-06,-3.344714748593724e-08,3.7121925639712056e-07,6.514443465407248e-07
7.270608100726672e-07,5.360948977680514e-07,6.363729693321841e-07,1.0629027447913899e-06,7.180603974402068e-07,1.5185644186393177e-06,-2.664250354464145e-07,1.0223303940294768e-06,1.0851710768637535e-06,2.003086620648996e-07,-9.984185943517524e-08,1.214371106839808e-07,5.166286168533632e-07,1.065862132243121e-06,1.1108570659975005e-06,3.888517912223049e-09,4.1120708995845507e-07,6.549585725869589e-07
7.491937650153195e-07,5.532787313813301e-07,6.672505945956956e-07,1.1002270257032292e-06,6.401352998938909e-07,1.5447916319152848e-06,-3.426945675764075e-07,1.031133125659656e-06,1.1052650401803918e-06,2.2868277692927288e-07,-1.1295541277661246e-07,1.37787904615257e-07,5.086556781309206e-07,1.0537744691104285e-06,1.1603337517089868e-06,3.7279772439446484e-08,4.610554966912133e-07,6.624278857143333e-07
7.796274297804218e-07,5.736118921046836e-07,6.825107122610754e-07,1.137401045153579e-06,5.574200399990308e-07,1.5705942041400687e-06,-4.316200534757924e-07,1.0357108096637209e-06,1.1243578742170334e-06,2.537941357562969e-07,-1.304587433410844e-07,1.5396649212194866e-07,4.991528511618282e-07,1.0355613825653674e-06,1.2110989745407588e-06,7.35075456707834e-08,5.209852809266954e-07,6.754821631739548e-07
8.114628985857871e-07,5.94457685462588e-07,6.757923563566736e-07,1.1666581357045494e-06,4.7146640369965504e-07,1.5904388848791743e-06,-5.243155423869773e-07,1.036859513156658e-06,1.1408226136637896e-06,2.7545154890874814e-07,-1.5075549859074503e-07,1.73109355926031e-07,4.892512378728287e-07,1.0106762476936995e-06,1.2596696518814434e-06,1.1843050847152737e-07,5.906181077710176e-07,6.977048623203919e-07
8.391347222961237e-07,6.132352960106352e-07,6.45019736619785e-07,1.1819078255132202e-06,3.9074626361252576e-07,1.5997975769958016e-06,-5.718628185529041e-07,1.0365853087335433e-06,1.1541779711043372e-06,2.942212223184977e-07,-1.7141117454009496e-07,1.9820676146166316e-07,4.810635091132401e-07,9.779807946238736e-07,1.3029445256705302e-06,1.7487676763776828e-07,6.685520941117175e-07,7.323606370186695e-07
8.656185527391718e-07,6.28056945738356e-07,5.921929104320869e-07,1.1798472875832803e-06,3.55976450200529e-07,1.5963979787373722e-06,-5.837791080644292e-07,1.036790026603706e-06,1.1640036391834813e-06,3.103443887127794e-07,-1.900262156964966e-07,2.2972152917054522e-07,4.758480839999706e-07,9.366005324746402e-07,1.338592287902233e-06,2.404778544307301e-07,7.508050199123456e-07,7.799529567256603e-07
8.717609172148775e-07,6.377329720837444e-07,5.215569941624205e-07,1.1593494818604843e-06,3.319566127240509e-07,1.5798956543749224e-06,-5.911991634152192e-07,1.0376607048447705e-06,1.168608102851043e-06,3.2316886114041673e-07,-2.051907057954899e-07,2.6450569492704307e-07,4.7272778000671985e-07,8.86783299625016e-07,1.365393626262164e-06,3.0826208772118723e-07,8.301427375873284e-07,8.370269505099593e-07
8.335140119702771e-07,6.417406365129453e-07,4.3847249150212237e-07,1.1209242631418157e-06,3.8943726435570873e-07,1.5516993182174642e-06,-5.861462570603451e-07,1.0375766251490653e-06,1.1653455182397762e-06,3.3191967702483973e-07,-2.1681824968516797e-07,2.9756344991281436e-07,4.694747224479577e-07,8.31309779620104e-07,1.3840334656967934e-06,3.709733894671367e-07,8.97922359023429e-07,8.974693458953959e-07
8.189709415582744e-07,6.405550395662765e-07,3.497871387970297e-07,1.0672562942379383e-06,4.1945324918165955e-07,1.5147816657190124e-06,-5.269680198505837e-07,1.0343449818859575e-06,1.1523925745598967e-06,3.3689105919428794e-07,-2.2589152260129594e-07,3.2485521074048134e-07,4.641225857406724e-07,7.760091689702047e-07,1.3967794429896086e-06,4.2514233726165516e-07,9.463098340911703e-07,9.549329891243517e-07
7.656563770950281e-07,6.357292371599624e-07,2.6391603407539404e-07,1.003549725811904e-06,4.3735139748004705e-07,1.4734365551752658e-06,-4.5671572124783847e-07,1.026280568426834e-06,1.1300388318339437e-06,3.3987054374616625e-07,-2.3395319198759622e-07,3.4489173470159215e-07,4.5574438451010754e-07,7.280370376617031e-07,1.4053690218471027e-06,4.715101837236205e-07,9.693124506594647e-07,1.0044971140009372e-06
6.953586083246374e-07,6.293989325867274e-07,1.8951581138388827e-07,9.368145880971234e-07,4.561443673980505e-07,1.4323984809277804e-06,-4.0500866742675323e-07,1.013068858578762e-06,1.1008524950032194e-06,3.4393799663041145e-07,-2.4225845978924515e-07,3.592144397896546e-07,4.4492500374624966e-07,6.934163953232755e-07,1.4091995514218488e-06,5.131665502707663e-07,9.638162781178322e-07,1.0435326447645337e-06
6.416500633844794e-07,6.237594094770948e-07,1.336891492124183e-07,8.747399438469144e-07,4.5595560142589737e-07,1.3964136228473823e-06,-3.7902241342030064e-07,9.967350194213868e-07,1.0693143296107119e-06,3.529164468398771e-07,-2.5077202954217395e-07,3.7207157207006514e-07,4.340583447461132e-07,6.753455836145674e-07,1.4054141059589852e-06,5.534993713214395e-07,9.3024541548214e-07,1.0717901644972189e-06
6.055126112581723e-07,6.20717275069406e-07,1.0054243199189867e-07,8.243946083397714e-07,4.508856753547117e-07,1.3698894020494245e-06,-3.6008396144575093e-07,9.814518031520852e-07,1.0406593602635954e-06,3.699643042414253e-07,-2.57911141825673e-07,3.883438191864844e-07,4.261849945073713e-07,6.733920915614657e-07,1.3899550117417143e-06,5.937011116024833e-07,8.725534557143138e-07,1.0901311759314411e-06
5.865790369027751e-07,6.213439631433081e-07,9.020348761893846e-08,7.905176200741313e-07,4.461609163566518e-07,1.3553471243171018e-06,-3.456997184064394e-07,9.714623485345084e-07,1.0187342652399807e-06,3.9562301235364834e-07,-2.6143681198871013e-07,4.103267907401228e-07,4.2256414067591115e-07,6.834087307645901e-07,1.3588681633419502e-06,6.308362473354339e-07,7.974594847840186e-07,1.0986111535037475e-06
5.878169701021144e-07,6.253463438469567e-07,9.892861316751908e-08,7.742673400686494e-07,4.405167708887021e-07,1.3526628322412482e-06,-3.351699875805236e-07,9.68970041958681e-07,1.0043924597447952e-06,4.270121039736605e-07,-2.596539773844428e-07,4.3619651008672494e-07,4.213698631624469e-07,6.99289950475042e-07,1.3104284045019713e-06,6.593309190008379e-07,7.133202409556368e-07,1.0957696771749961e-06
6.016488994884578e-07,6.312053627462613e-07,1.2071270189348548e-07,7.734890883399832e-07,4.3839792618760594e-07,1.3589343914138418e-06,-3.2315696893359696e-07,9.73715039871514e-07,9.95750372984736e-07,4.589858822535268e-07,-2.520758139479082e-07,4.6127438892094947e-07,4.1864637172896537e-07,7.159266778227453e-07,1.247328923351729e-06,6.752561565723817e-07,6.293496200168514e-07,1.0795610677044645e-06
6.19189249637029e-07,6.368391577365595e-07,1.493527882715443e-07,7.839830883326129e-07,4.342586104197076e-07,1.3700787876553081e-06,-3.1216110443625706e-07,9.835106079803805e-07,9.894564544953347e-07,4.861994779276298e-07,-2.396115832075955e-07,4.803924858052209e-07,4.101557187534234e-07,7.312936688595901e-07,1.177034314716391e-06,6.795426746747125e-07,5.546996595393173e-07,1.0488637069248084e-06
6.328872318723275e-07,6.401951002424488e-07,1.7987020765913636e-07,8.008434038328146e-07,4.256504694246276e-07,1.381946340598569e-06,-3.0308780599719005e-07,9.949174365793673e-07,9.818527365011931e-07,5.050565993429581e-07,-2.243733252401209e-07,4.901834883563114e-07,3.9319720539519304e-07,7.465601450484101e-07,1.110340062266408e-06,6.786436495421998e-07,4.97605553257946e-07,1.0051176446149527e-06
6.390052844739315e-07,6.398417097862192e-07,2.0950936886569654e-07,8.200540851708518e-07,4.118747668029332e-07,1.3913101253040369e-06,-2.9652764148758783e-07,1.004697918384985e-06,9.703297451758242e-07,5.153244688291166e-07,-2.0882252549312663e-07,4.911719892209091e-07,3.6836536501287546e-07,7.650106393612853e-07,1.0594158695543228e-06,6.836314367402293e-07,4.652705199388883e-07,9.538521735126073e-07
6.386906197677465e-07,6.356864527370264e-07,2.382505087811477e-07,8.401316595965126e-07,3.9386789477181044e-07,1.3977335244627377e-06,-2.9268873171202877e-07,1.0117014497653341e-06,9.547680490495605e-07,5.206370460336727e-07,-1.945814995654086e-07,4.88290125955467e-07,3.401142567693415e-07,7.903071136593613e-07,1.03504810629397e-06,7.070710893255872e-07,4.629376353132587e-07,9.046009269984943e-07
6.369111244005688e-07,6.290906541787033e-07,2.6758291291100235e-07,8.621855910170052e-07,3.763157967131442e-07,1.4034660060835476e-06,-2.896702529630397e-07,1.0172539746422688e-06,9.376416632007107e-07,5.268018157556325e-07,-1.8182592379792133e-07,4.884889318300128e-07,3.1496750107529965e-07,8.240166781484098e-07,1.0428618169114104e-06,7.573469056365445e-07,4.9256360478773e-07,8.681252701521723e-07
6.394665599785286e-07,6.218978356573458e-07,2.9744282530078667e-07,8.878258123558511e-07,3.6526714390794716e-07,1.4112707594140933e-06,-2.8535764124542973e-07,1.0236693071703084e-06,9.223752374171024e-07,5.385199820070425e-07,-1.6949110930680366e-07,4.970497855898935e-07,2.986356442873756e-07,8.640919008555478e-07,1.0808914424188707e-06,8.341760395173905e-07,5.514168072386207e-07,8.524174921106322e-07
6.496823884669642e-07,6.151795400987349e-07,3.235459404464134e-07,9.16765395517586e-07,3.6544824240169945e-07,1.422256358572483e-06,-2.7936995656613686e-07,1.0325469085611506e-06,9.113491170101219e-07,5.565695417615151e-07,-1.558584218889221e-07,5.15267191321244e-07,2.9408942890247046e-07,9.050900274385808e-07,1.1405756604274073e-06,9.288989578103352e-07,6.322727358996252e-07,8.598710131652553e-07
6.666503441072691e-07,6.086189394524056e-07,3.371447143235833e-07,9.458073849480376e-07,3.787582767101895e-07,1.435197541249222e-06,-2.7373912889158326e-07,1.0437201325198752e-06,9.045883959230086e-07,5.767535402002911e-07,-1.3943975625867446e-07,5.399471140144325e-07,3.0074862033992423e-07,9.40697843269709e-07,1.2097522731003664e-06,1.0281642764418416e-06,7.250568207145573e-07,8.865020358105188e-07
6.855342463274794e-07,6.004890720283419e-07,3.272424892176618e-07,9.691529090303925e-07,4.0360335650531104e-07,1.446323217433006e-06,-2.7263257981394404e-07,1.0546734355772334e-06,8.992679800233454e-07,5.90783259899405e-07,-1.2007470163268607e-07,5.64097185273841e-07,3.1438037381346214e-07,9.655250931114591e-07,1.2754562925986454e-06,1.1180187506533838e-06,8.183796396797507e-07,9.23088024808255e-07
6.993500574976258e-07,5.880091889408025e-07,2.843894303592139e-07,9.797872783336655e-07,4.350847382115248e-07,1.4504811706536882e-06,-2.810911282811504e-07,1.0610106469914497e-06,8.905078716228187e-07,5.890245766784721e-07,-9.944409397577229e-08,5.790691223118128e-07,3.2832130609414866e-07,9.762323869084183e-07,1.3264784539774375e-06,1.187699813519971e-06,9.012305185210317e-07,9.579522782256319e-07
7.013330128143657e-07,5.681902433568277e-07,2.0484282388799043e-07,9.718954442573667e-07,4.6641470487343144e-07,1.4432698415030554e-06,-3.027779644125169e-07,1.0582836100092243e-06,8.734907930045936e-07,5.64317375867977e-07,-8.046088971400294e-08,5.7770849379918e-07,3.358932304857242e-07,9.729381530280417e-07,1.3556797668417514e-06,1.2324276539075417e-06,9.641684107492038e-07,9.80308504252563e-07
6.868133679962349e-07,5.389017917822784e-07,9.423148546243325e-08,9.431986164807824e-07,4.904931319875978e-07,1.4226121471082032e-06,-3.3835732970312974e-07,1.0437587455957969e-06,8.453781717442606e-07,5.149937260593213e-07,-6.611927939498059e-08,5.566987680638892e-07,3.324114888798704e-07,9.594276043611277e-07,1.3608647810873524e-06,1.2536065153770181e-06,1.0002538228044397e-06,9.827256124106696e-07
6.540573262639111e-07,4.996249921717455e-07,-3.6514010371029536e-08,8.959692552143464e-07,5.008950866955903e-07,1.3894481536810554e-06,-3.8559700458726186e-07,1.017082078979148e-06,8.058781194408341e-07,4.4567861316719684e-07,-5.851278638229038e-08,5.173472532927424e-07,3.1607737139015767e-07,9.420326575919e-07,1.3443061865739756e-06,1.2571858113003876e-06,1.0058596945439636e-06,9.62502548745788e-07
6.044325813878864e-07,4.518755589094934e-07,-1.699075563686939e-07,8.368517157238515e-07,4.935188301604249e-07,1.3476358707569926e-06,-4.399138016738038e-07,9.806198559837654e-07,7.571893024232957e-07,3.659232746104626e-07,-5.812749006318607e-08,4.6536342949242676e-07,2.883354298663312e-07,9.277957045410546e-07,1.31218462805486e-06,1.2521335835787255e-06,9.822451124183873e-07,9.222600056514824e-07
5.422308478844378e-07,3.993304996781161e-07,-2.8836176989033516e-07,7.757251969090171e-07,4.689520417089511e-07,1.3035458423703287e-06,-4.94656830670959e-07,9.396002436878587e-07,7.038226793476826e-07,2.8730213402335153e-07,-6.363633897177494e-08,4.0933583251806854e-07,2.5342601223874884e-07,9.234663225614779e-07,1.2735222693330088e-06,1.2482628291137874e-06,9.364244506782002e-07,8.690731714268684e-07
4.7373466170623973e-07,3.47135395158405e-07,-3.833240256197432e-07,7.230560784670523e-07,4.327534962431702e-07,1.2643915225110428e-06,-5.426501708003922e-07,9.00690788174413e-07,6.514011787557799e-07,2.19831255215647e-07,-7.257676916024552e-08,3.576269299841939e-07,2.1652990482521853e-07,9.327179301898704e-07,1.2375491494081194e-06,1.252221979016048e-06,8.793150671503001e-07,8.118590196829397e-07
4.0551742032169486e-07,3.003137221551055e-07,-4.168311031741983e-07,6.864013930352702e-07,3.9249619849871206e-07,1.2355550892363579e-06,-5.791673896032053e-07,8.692286417512221e-07,6.044473777411767e-07,1.6930263741618254e-07,-8.24466590733983e-08,3.155679280582549e-07,1.8174627491355204e-07,9.54209700092242e-07,1.2108501170245414e-06,1.2643781057242468e-06,8.22560907024892e-07,7.586145702055291e-07
3.4298835977938345e-07,2.6230792849119856e-07,-4.1733797175579183e-07,6.683961099954872e-07,3.544727641205284e-07,1.2181879412652598e-06,-6.037428651278155e-07,8.474589009657083e-07,5.648702847524392e-07,1.3684017057022934e-07,-9.12551960194636e-08,2.8497144508655236e-07,1.5155934694302168e-07,9.822583583435378e-07,1.1963592139414206e-06,1.2796163229047412e-06,7.760773524903699e-07,7.149918689710432e-07
2.8981306062661757e-07,2.3443816613608462e-07,-3.600109919903413e-07,6.67166959550135e-07,3.224583960489302e-07,1.209651290539422e-06,-6.195300615441831e-07,8.347150617456915e-07,5.319331122190397e-07,1.200794838202353e-07,-9.750879514297649e-08,2.650742716556244e-07,1.2715928078769002e-07,1.0092164196470213e-06,1.1936953428714456e-06,1.2904639094117866e-06,7.46398498571554e-07,6.837013342162689e-07
2.4769785340408784e-07,2.1587014707658845e-07,-2.987867291409586e-07,6.776519128937421e-07,2.9756138560992123e-07,1.2050596743721566e-06,-6.318451584269696e-07,8.281953193772414e-07,5.027758824761857e-07,1.1444196837350807e-07,-1.0034124081895998e-07,2.5313239334038367e-07,1.0828310546506926e-07,1.0274599584476342e-06,1.1995249651205639e-06,1.2897362300464429e-06,7.35438025957804e-07,6.640967306457293e-07
2.1619170229468918e-07,2.0371815503686902e-07,-2.2469292601200914e-07,6.928142876523617e-07,2.7830037448690056e-07,1.1987906341157273e-06,-6.46844209630881e-07,8.237559237762044e-07,4.7322591751502713e-07,1.142201777404863e-07,-9.978339029934486e-08,2.451469959266389e-07,9.32542202220139e-08,1.0317309879978811e-06,1.208694127016471e-06,1.2731096361012344e-06,7.403616012796425e-07,6.527997256896968e-07
1.9304356863779708e-07,1.938169086817262e-07,-1.5593378844807632e-07,7.054776789576753e-07,2.619215236934497e-07,1.185777563367311e-06,-6.695187780154413e-07,8.173824727243961e-07,4.3952209575832084e-07,1.1398708471797862e-07,-9.66214573554058e-08,2.3755283407042922e-07,8.013300993491328e-08,1.0209368252072005e-06,1.2166735733247983e-06,1.2418892843015285e-06,7.555261662320142e-07,6.456589620972046e-07
1.7532400246491454e-07,1.8229103233262932e-07,-1.1204434797403948e-07,7.106275768047979e-07,2.465338401120759e-07,1.1638654721210214e-06,-7.016729907761553e-07,8.067115870169404e-07,4.0014164239441243e-07,1.0984404085814017e-07,-9.200551014027189e-08,2.2839625579935413e-07,6.771046298521732e-08,9.983280784900808e-07,1.2212587069358704e-06,1.2030217822613918e-06,7.747728300975789e-07,6.393414002881054e-07
1.6038105348713788e-07,1.6682785720354808e-07,-9.885155847670522e-08,7.06414310182394e-07,2.3168329840651067e-07,1.134071859669744e-06,-7.419576550021566e-07,7.911484241321167e-07,3.5599453554846663e-07,9.966356917670945e-08,-8.735093796273713e-08,2.1670025917078023e-07,5.513750293401534e-08,9.69866432851253e-07,1.2220251360516106e-06,1.1652367868161153e-06,7.924236452432478e-07,6.314047643089306e-07
1.4603372404631322e-07,1.468696227308728e-07,-1.1561349370492319e-07,6.934090569697299e-07,2.171775904434637e-07,1.0988483373484171e-06,-7.876132762202286e-07,7.710494489698626e-07,3.092259455819755e-07,8.276538869633477e-08,-8.429375217789706e-08,2.0154853009038155e-07,4.141043953648706e-08,9.415909733442576e-07,1.2192960559499615e-06,1.1352149205822567e-06,8.039987348595928e-07,6.200167651615511e-07
1.3061989438411195e-07,1.2326968568052918e-07,-1.554598518956181e-07,6.737034315324581e-07,2.0258032645729162e-07,1.061172693859907e-06,-8.354936038062948e-07,7.475246101761519e-07,2.6236927274562944e-07,5.988114146839984e-08,-8.420423673725736e-08,1.824406842310566e-07,2.5906875239203843e-08,9.181936785833656e-07,1.2142684712393792e-06,1.1167523885199477e-06,8.075082211790952e-07,6.043815081004741e-07
1.1331801992828461e-07,9.793543443721694e-08,-2.0777447383913266e-07,6.50503220548398e-07,1.8791160172743468e-07,1.0241307585343383e-06,-8.82113195233396e-07,7.225590970708279e-07,2.1806670655365944e-07,3.3030580323774914e-08,-8.76538861694859e-08,1.5974691260529806e-07,8.834446761776475e-09,9.022851005901718e-07,1.2089103581351243e-06,1.110766830696272e-06,8.040326486099657e-07,5.849876812390067e-07
9.41345442108692e-08,7.311844474211781e-08,-2.613573690051977e-07,6.271885043438185e-07,1.735937741134375e-07,9.901383973459879e-07,-9.244835596576913e-07,6.982169865317522e-07,1.7831205740626438e-07,4.645502383895999e-09,-9.443895264108999e-08,1.3406664790350082e-07,-9.375666286309574e-09,8.934639136132131e-07,1.2043989728809383e-06,1.1141605270686024e-06,7.965121609500105e-07,5.629991574229401e-07
7.329969385263379e-08,5.040996119319009e-08,-3.0748739169538675e-07,6.058999942622217e-07,1.594317630625181e-07,9.597701919988402e-07,-9.614428441323036e-07,6.756338909196195e-07,1.435776968708113e-07,-2.3433535766073357e-08,-1.0378424533903493e-07,1.0581541582929867e-07,-2.841533727740235e-08,8.876641676897275e-07,1.1998764808931e-06,1.1197800440678883e-06,7.883901000335127e-07,5.398839236020294e-07
5.08082555045818e-08,3.035860330128152e-08,-3.411451897269632e-07,5.872233566429254e-07,1.446474981324105e-07,9.320986622677915e-07,-9.934427899638381e-07,6.553228777578346e-07,1.1309210321776536e-07,-5.024037859573222e-08,-1.141211244802739e-07,7.612314236143233e-08,-4.726355725522437e-08,8.782845134295711e-07,1.1931300903986922e-06,1.1189761822970475e-06,7.834812732887966e-07,5.179068072757635e-07
2.6520181989867607e-08,1.2940594601213656e-08,-3.6036280022962706e-07,5.711506703380529e-07,1.2911591294352564e-07,9.058127790049205e-07,-1.021074426733203e-06,6.381652501912506e-07,8.586643237742019e-08,-7.569203794335032e-08,-1.2283729997275588e-07,4.7507239486469984e-08,-6.3674061646868e-08,8.578616793337763e-07,1.181802259664144e-06,1.1040646616553574e-06,7.859778579941722e-07,5.002158777938885e-07
2.348612353272467e-10,-2.044963864716283e-09,-3.6541320471854246e-07,5.577132327096172e-07,1.1376818215065187e-07,8.79880070612277e-07,-1.0444721229363121e-06,6.254877739553409e-07,6.110926684438415e-08,-1.0089786726814408e-07,-1.2667499269316302e-07,2.310591964438613e-08,-7.504114882146647e-08,8.193845000013525e-07,1.1638357857540657e-06,1.0690795477357168e-06,7.995610458027661e-07,4.898280590386344e-07
-2.848781520280989e-08,-1.507357494567672e-08,-3.5850133544671725e-07,5.468378421338651e-07,9.998233435028097e-08,8.540484676555594e-07,-1.06353124568435e-06,6.186244684779802e-07,3.828470951623633e-08,-1.2802513282028133e-07,-1.2252790857577703e-07,5.9170690860034884e-09,-7.917887146091905e-08,7.580224892049469e-07,1.138518927669183e-06,1.011439564401369e-06,8.266981111156427e-07,4.888246154849964e-07
-6.000296791285426e-08,-2.6804107852815347e-08,-3.43166265014867e-07,5.385306877647329e-07,8.973492305517738e-08,8.291510278335473e-07,-1.0772743376813895e-06,6.19127024718694e-07,1.7820046070774624e-08,-1.5902287571623336e-07,-1.0815224777219131e-07,-9.708098034135674e-10,-7.407293255197455e-08,6.738647592631602e-07,1.1086892991814928e-06,9.355149993666045e-07,8.688216147521966e-07,4.984423223139358e-07
-9.361557175270878e-08,-3.759059328522515e-08,-3.234437738784941e-07,5.33249057809804e-07,8.618198690755398e-08,8.077226891403873e-07,-1.083139394931902e-06,6.287283450658222e-07,1.633697766665468e-09,-1.9420801998481705e-07,-8.309693805412292e-08,5.082491222529002e-09,-5.825176411338905e-08,5.737388703748526e-07,1.0813419546469867e-06,8.538925313101385e-07,9.258637833821721e-07,5.187550456859163e-07
