0,1,2,3,4,5,6,7,8,9,10,11,12,13,14,15,16,17
1.506202614378503e-08,-2.8946969911495405e-08,7.122463285803166e-08,7.929282656053872e-08,2.3716435534255099e-07,8.89842469062244e-08,1.1989023283587609e-07,-1.073994239539676e-06,-1.7611116640733619e-07,4.1675341379197566e-08,3.89554636003119e-08,1.227411568329458e-07,1.1687253397455301e-07,1.7289844284877247e-07,1.5610586300882033e-07,-1.6025962183013256e-08,3.4711330896087896e-07,-4.6689583564226756e-07
2.424957891661387e-08,-8.81318002860841e-09,7.082171912961858e-08,7.921947552854045e-08,2.3034906540995462e-07,9.256987821928261e-08,1.2877305135559874e-07,-9.89640756686479e-07,-3.094943566340582e-07,4.272700974668645e-08,3.963170976791372e-08,1.1478345495240767e-07,9.705635097866472e-08,2.0910895856161241e-07,1.3137523445256036e-07,-5.850331655538189e-08,2.609772235265815e-07,-2.1561717013389645e-07
2.9570433372446053e-08,5.3708430383912275e-09,7.319189479623498e-08,7.720475779247394e-08,1.929309557677804e-07,9.378606655089204e-08,1.2561824798806153e-07,-8.323430988587764e-07,-2.38833731707079e-07,4.092441534148652e-08,3.9770207672999475e-08,9.952055112600644e-08,8.014899040277325e-08,2.7269112902870897e-07,1.0725921974957248e-07,-1.0081111841379639e-07,1.6514715183295172e-07,7.316359223946903e-08
3.173564138768323e-08,1.3918662927256733e-08,7.765863363216455e-08,7.506809898673529e-08,1.2982743130490125e-07,9.354732122293829e-08,1.1550591354645881e-07,-6.014796108308462e-07,2.8517238832015562e-08,3.6680081632598415e-08,4.016674663311658e-08,8.028032744950741e-08,6.676675318842948e-08,3.321061059843034e-07,9.060889758123593e-08,-1.237666414857899e-07,6.874429682337806e-08,3.2886353419439015e-07
3.048695258304021e-08,1.721810442870693e-08,8.096947197465032e-08,7.236883599410917e-08,5.088584527723135e-08,9.050732042131239e-08,9.370693646710692e-08,-3.3029917780950057e-07,4.038136841805914e-07,3.0499883572907106e-08,3.977353165032431e-08,6.097792914161307e-08,5.58055715827665e-08,3.5950219162230856e-07,8.120945979102477e-08,-1.156952559035697e-07,-2.0180491637829567e-08,4.981662729576219e-07
2.5531412395842562e-08,1.598975170104123e-08,7.912685588703585e-08,6.688694183640311e-08,-3.032623590255499e-08,8.435159403644227e-08,6.369790051097593e-08,-1.0153770019569151e-07,7.396064654382658e-07,2.3142826858022103e-08,3.65564614922539e-08,4.124368824882927e-08,4.566259565792248e-08,3.37168482583056e-07,7.486961355780328e-08,-7.291715760368494e-08,-9.567195913634427e-08,5.590150176632681e-07
1.7693161044806164e-08,1.1912114598483144e-08,6.959017060429555e-08,5.604937276972068e-08,-9.939324016026546e-08,7.503477150212394e-08,3.0072402619527715e-08,6.61867685634213e-08,9.078679819928745e-07,1.6182415888540687e-08,3.046917119495347e-08,2.230230881909255e-08,3.562009741415237e-08,2.6024797590335993e-07,6.89290582454758e-08,-1.848693818437542e-09,-1.538975693715023e-07,5.204174787663604e-07
8.810826362506083e-09,7.156591129004588e-09,5.180122263100377e-08,3.8148550435119914e-08,-1.446945588574413e-07,6.203447646851522e-08,-1.030335739909009e-09,2.1610690284626247e-07,8.417577012998472e-07,1.0605091252218665e-08,2.1876784352090177e-08,4.1493680791116906e-09,2.5520148128374104e-08,1.3751425698441883e-07,5.634281512930411e-08,8.055242071207668e-08,-1.922760136294364e-07,4.0905203893286333e-07
4.088106598492666e-10,3.2285601407170283e-09,2.6671805035302583e-08,1.350422132345861e-08,-1.6024459297461828e-07,4.465392985955816e-08,-2.994367382929401e-08,3.4156716129931876e-07,5.492369552686249e-07,5.698552420794526e-09,1.068599341054316e-08,-1.4763805710515899e-08,1.2674042400807909e-08,-1.0431787822567504e-08,3.506611717568406e-08,1.5439826521607666e-07,-2.0886600370347838e-07,2.582039670327768e-07
-7.338215893877464e-09,3.3595930995351635e-10,-3.76366185816314e-09,-1.5153763015109657e-08,-1.4709282374720265e-07,2.136381272071909e-08,-5.293760568184976e-08,4.42531270380975e-07,1.1055878262006521e-07,-2.868700011743974e-10,-1.258688977008854e-09,-3.4766620439089447e-08,-5.540016347341147e-09,-1.566867997383376e-07,6.873083018908602e-09,2.0165696030701684e-07,-2.0171073588460626e-07,9.935996889454551e-08
-1.5100187472074556e-08,-2.343436975195997e-09,-3.633637842566403e-08,-4.3882526924459856e-08,-1.1320294150133501e-07,-9.58570510116168e-09,-7.031694254787672e-08,5.254715522980438e-07,-3.6321790332732594e-07,-8.922519479557797e-09,-1.599399881256849e-08,-5.4266273980586063e-08,-2.978217854239627e-08,-2.756393123972355e-07,-3.2520500648270356e-08,2.0668698515953037e-07,-1.6914356859057156e-07,-4.806473559129326e-08
-2.2967515481516458e-08,-5.226496675664414e-09,-6.732181419323777e-08,-6.897928918892068e-08,-7.119348480736899e-08,-4.818104873954361e-08,-8.318629048472914e-08,5.699510829902746e-07,-7.14322943706299e-07,-2.0713059165407387e-08,-3.195061885319559e-08,-7.1384498709401e-08,-5.76742845562994e-08,-3.497068945418914e-07,-7.875346528994177e-08,1.6741212797554394e-07,-1.1199012659379997e-07,-1.798981660504463e-07
-2.987969329456428e-08,-7.555918141113424e-09,-9.40087558110042e-08,-8.846977309121054e-08,-3.42431828657658e-08,-9.34882826453599e-08,-9.210038305631927e-08,5.625126164926178e-07,-8.003951094711876e-07,-3.4655001437647146e-08,-4.5897843082866806e-08,-8.25473291602214e-08,-8.432322617016617e-08,-3.7344452301054644e-07,-1.2409823024000397e-07,8.993828859019022e-08,-3.608390200266361e-08,-3.01491361349513e-07
-3.453744643980888e-08,-8.327904045843742e-09,-1.1580283181711613e-07,-1.0259563525274142e-07,-1.184774910562989e-08,-1.4405202131361559e-07,-9.98390495981777e-08,5.482393897797104e-07,-6.002123642938501e-07,-4.910770936381679e-08,-5.771821109568323e-08,-8.93046287413411e-08,-1.0583032605105825e-07,-3.5415937269920615e-07,-1.6527871747696374e-07,-1.6040916220583967e-08,4.677460717537433e-08,-4.175325034837282e-07
-3.668285038159644e-08,-7.54119881796826e-09,-1.3401259384399157e-07,-1.1360648015363352e-07,-7.809654385002452e-09,-1.9796069110913678e-07,-1.1422486899033716e-07,4.672824239947909e-07,-2.6554149351524135e-07,-6.22263086736768e-08,-6.757134564215277e-08,-9.522581261915386e-08,-1.2117146015689773e-07,-3.081027026702359e-07,-1.9503181146929852e-07,-1.364413215234211e-07,1.2232843371273015e-07,-5.214246003194161e-07
-3.704293390313418e-08,-6.3754826776651135e-09,-1.4981037059916184e-07,-1.250556136010241e-07,-2.110918879523382e-08,-2.5356566899919365e-07,-1.3368553539511147e-07,1.8944541527555362e-07,-1.132297405699055e-07,-7.222414997117156e-08,-7.74953633110308e-08,-1.0373981528920417e-07,-1.3180559190428452e-07,-2.530661506365225e-07,-2.1295663658591121e-07,-2.58594664252756e-07,1.7873534851833793e-07,-5.953174981107345e-07
-3.6073444546805485e-08,-6.48137489895077e-09,-1.6278097153318882e-07,-1.390811611329718e-07,-4.800397546115894e-08,-3.095470596870682e-07,-1.6108229586712983e-07,-2.303742264832945e-07,-4.378758333927791e-07,-7.716062979871061e-08,-8.955346854230057e-08,-1.1881125860303852e-07,-1.3996122995122324e-07,-2.0166739372870011e-07,-2.241008977004942e-07,-3.774169728479737e-07,2.0871691943547348e-07,-6.206798481093439e-07
-3.335718004150802e-08,-8.570742337600937e-09,-1.7177976294711974e-07,-1.564069821811144e-07,-8.389653035071356e-08,-3.6535460886075865e-07,-1.948059787175468e-07,-6.089235577091085e-07,-1.2889186715503833e-06,-7.58353176097233e-08,-1.0590118764884265e-07,-1.4198637910860234e-07,-1.4886606524571227e-07,-1.603705537972303e-07,-2.361465928899642e-07,-4.935721818467215e-07,2.0904728540712653e-07,-5.925429931515842e-07
-2.862670890479094e-08,-1.2602067979406225e-08,-1.7720932830985204e-07,-1.7762624279979753e-07,-1.2487962651840935e-07,-4.222689244716633e-07,-2.3301519897412431e-07,-8.938225122287804e-07,-2.5394970134040966e-06,-6.825936777209407e-08,-1.2707055026097752e-07,-1.735629537371026e-07,-1.6243201018464902e-07,-1.3381677310456178e-07,-2.6256565215760356e-07,-6.122242128833169e-07,1.8061480016713847e-07,-5.315251457761902e-07
-2.3209562638049544e-08,-1.8628505907240028e-08,-1.8228514776333942e-07,-2.0402592584609507e-07,-1.683957897677072e-07,-4.831481142759175e-07,-2.7767531258335913e-07,-8.840847809101727e-07,-3.7014917323486567e-06,-5.583501826477952e-08,-1.5332714699311024e-07,-2.1529807831494788e-07,-1.8475010093278394e-07,-1.2801108712426462e-07,-3.1365181964595277e-07,-7.387295192919331e-07,1.290089462364374e-07,-4.839739865507663e-07
-1.9893135916428284e-08,-2.6994501719215968e-08,-1.9130636233300023e-07,-2.3805253815793584e-07,-2.121284219068532e-07,-5.498416096867399e-07,-3.2869612571370673e-07,-5.267454859448142e-07,-4.257237246452957e-06,-4.057825758522225e-08,-1.8678123778664468e-07,-2.6804063640322023e-07,-2.1948789757151188e-07,-1.482756293037987e-07,-3.939839693114973e-07,-8.828203398610433e-07,6.722456285461148e-08,-5.032322131572356e-07
-2.123615773857994e-08,-3.7538089881799845e-08,-2.066827160331562e-07,-2.802243755953787e-07,-2.5169767947076986e-07,-6.231065861926299e-07,-3.887678536021396e-07,-6.172829889470509e-07,-3.924652657836656e-06,-2.3323135627995167e-08,-2.277704483678297e-07,-3.3009505797212435e-07,-2.6879137760745675e-07,-1.949134888140302e-07,-5.087845589735396e-07,-1.0521973735469893e-06,1.1557509321798347e-08,-6.198055206723469e-07
-2.8268631108878182e-08,-4.894866748798045e-08,-2.2777567772731843e-07,-3.2837694839007564e-07,-2.787481419901854e-07,-7.027012723520875e-07,-4.599466759319222e-07,-9.224030033394786e-07,-3.047531136625065e-06,-4.556702599630489e-09,-2.758054644513121e-07,-3.986925954881138e-07,-3.3011395016287593e-07,-2.616830474116703e-07,-6.594871654922525e-07,-1.2492268619657804e-06,-2.5008051432203598e-08,-8.179241171893326e-07
-4.088744022035718e-08,-5.8966685657806366e-08,-2.518534122775126e-07,-3.7901186721177073e-07,-2.8332765777176767e-07,-7.88322885526238e-07,-5.475514543921169e-07,-7.695105599047031e-07,-2.002528657361035e-06,1.537986559305092e-08,-3.3021784686926854e-07,-4.7011888199317826e-07,-4.019172574246847e-07,-3.377490959619156e-07,-8.458582006404941e-07,-1.469968686500788e-06,-3.704426472727199e-08,-1.0383257670655498e-06
-5.8880802744780565e-08,-6.519796626832326e-08,-2.7487366166446714e-07,-4.290017636421778e-07,-2.581975919879887e-07,-8.800299348662964e-07,-6.549655332436822e-07,-3.144326450268039e-07,-1.5353673200757495e-06,3.499080015949891e-08,-3.8908676196105904e-07,-5.39857545321076e-07,-4.799833751947532e-07,-4.1026888013598415e-07,-1.0603660070835794e-06,-1.6991265735106204e-06,-2.7794002471829034e-08,-1.2028277863942273e-06
-8.159997080311856e-08,-6.572487033107852e-08,-2.9090247055117774e-07,-4.7598744479013516e-07,-2.0177049992719627e-07,-9.759133269133883e-07,-7.818745555252156e-07,1.0841458521026474e-07,-2.295347152912761e-06,5.240921600960736e-08,-4.46616802106806e-07,-6.022271463491333e-07,-5.549899544313123e-07,-4.667011188599899e-07,-1.2821053281812814e-06,-1.9125578765404415e-06,-3.413736912301814e-09,-1.2485650358032658e-06
-1.0626498431035052e-07,-5.885035018749516e-08,-2.91600756261136e-07,-5.166375348172553e-07,-1.2120807266388368e-07,-1.069977803266539e-06,-9.209304799787517e-07,2.827164063141628e-07,-2.288172989904703e-06,6.558868331687506e-08,-4.954401652557251e-07,-6.50357069126021e-07,-6.167196112196674e-07,-4.994489825579612e-07,-1.4595395777066949e-06,-2.0801944311889635e-06,3.0439243189373704e-08,-1.1559081665880145e-06
-1.2725118673414155e-07,-4.2997598441037585e-08,-2.685030372827131e-07,-5.459235100665896e-07,-2.889946341206376e-08,-1.1530943077722677e-06,-1.0586800960302271e-06,7.127508175951101e-07,-2.052434254777376e-06,7.391928397971956e-08,-5.27807098587284e-07,-6.784860525460018e-07,-6.564078563938137e-07,-5.107246548905966e-07,-1.5388894965835826e-06,-2.1784124472288993e-06,7.151108681632526e-08,-9.55921143625873e-07
-1.3817892849215474e-07,-1.7607930708464834e-08,-2.1796738813313316e-07,-5.58271114035647e-07,6.408283300448582e-08,-1.216306421242175e-06,-1.1802558361121667e-06,1.0637603459168002e-06,-1.8340562084397743e-06,7.823594548182474e-08,-5.380739518429536e-07,-6.840316199684681e-07,-6.71410786438229e-07,-5.12629515896542e-07,-1.5833005582838266e-06,-2.196299625024903e-06,1.189084598171831e-07,-7.107840327434863e-07
-1.3526870525515066e-07,1.594760106975106e-08,-1.4390172441778743e-07,-5.502873977903194e-07,1.5110871736054597e-07,-1.2545787801358521e-06,-1.2736850573085615e-06,7.924457095402111e-07,-2.2829100596580925e-06,7.94303094697277e-08,-5.273844936192131e-07,-6.726938402773447e-07,-6.660683968644871e-07,-5.206648157780371e-07,-1.616623347062173e-06,-2.134700605814798e-06,1.685466861995373e-07,-4.77582050498725e-07
-1.187633393126571e-07,5.4181774910393343e-08,-5.544408851059647e-08,-5.217250593230689e-07,2.3277491253355496e-07,-1.2681965514338518e-06,-1.3340802080045588e-06,2.664156611878372e-07,-3.4809649408465295e-06,7.777412047959212e-08,-5.006982255792532e-07,-6.516238198982234e-07,-6.483207477605965e-07,-5.455499497266469e-07,-1.7358274568595686e-06,-2.017280022810348e-06,2.1509427242246482e-07,-2.855529246857319e-07
-9.129033664313255e-08,9.339782363970318e-08,3.8326241546999024e-08,-4.7446148139127226e-07,3.17312885003521e-07,-1.2614177020469154e-06,-1.359740885223728e-06,-2.2292804605990636e-07,-4.188783609906503e-06,7.439200579281938e-08,-4.6419490346077864e-07,-6.269204325378987e-07,-6.239466178171781e-07,-5.895484120415678e-07,-1.7957881007731766e-06,-1.8720145371497052e-06,2.477226674378763e-07,-1.3960016744861478e-07
-5.552884844192025e-08,1.312848100545327e-07,1.3126735140147425e-07,-4.1194693860988293e-07,4.141929631933402e-07,-1.2404479798756841e-06,-1.360298907015853e-06,-5.807765295224744e-07,-4.504808740973827e-06,7.14099752213504e-08,-4.2316250818010994e-07,-6.034791204330412e-07,-5.959142398850518e-07,-6.481938392448504e-07,-1.7873934748922377e-06,-1.7216417176769294e-06,2.5943949880868774e-07,-3.5168278875406344e-08
-1.3751360220980133e-08,1.6672478907951115e-07,2.1893260837409337e-07,-3.41478440692671e-07,5.265291264850925e-07,-1.2117392771671501e-06,-1.341681016240768e-06,-7.901082777251452e-07,-4.920205738866052e-06,7.156179677095826e-08,-3.815991447518676e-07,-5.836894351469957e-07,-5.661574795799082e-07,-7.143689918292031e-07,-1.7764894778925463e-06,-1.5905505142398513e-06,2.4965385885887974e-07,2.282934548098867e-08
3.109592523079011e-08,1.9886576408329713e-07,2.9658026324594075e-07,-2.698663732559159e-07,6.471376183766151e-07,-1.181539622642686e-06,-1.313531588550671e-06,-8.088695352474948e-07,-5.4982794577039605e-06,7.581078426054048e-08,-3.430744146464454e-07,-5.68968570652434e-07,-5.359875512338434e-07,-7.810183305065729e-07,-1.7251617603653357e-06,-1.491616737657755e-06,2.2028086860192605e-07,2.417688986362181e-08
7.50099509753459e-08,2.2639840958495885e-07,3.5891410810461974e-07,-2.057147598994454e-07,7.599045640166727e-07,-1.155181364657919e-06,-1.2863318383864594e-06,-6.330967477902347e-07,-5.438999501607117e-06,8.307684127500714e-08,-3.107742421827002e-07,-5.594324568304313e-07,-5.067018450952137e-07,-8.411005691698136e-07,-1.6399036961450989e-06,-1.432419495386195e-06,1.7539376663410135e-07,-3.684304342085412e-08
1.1423459887296326e-07,2.481667947225881e-07,4.020667150165048e-07,-1.5753464732042862e-07,8.456180709150701e-07,-1.135881365900964e-06,-1.2657236530192862e-06,-2.992545813057368e-07,-5.026823508860124e-06,9.119000190642236e-08,-2.860932058712338e-07,-5.544858483777034e-07,-4.79148149130329e-07,-8.857167767774036e-07,-1.5893715184481251e-06,-1.4169124775949409e-06,1.1919028466106276e-07,-1.4934177244499607e-07
1.4674147884345242e-07,2.639748056423409e-07,4.2534186729858215e-07,-1.3062544157462062e-07,8.931707976621271e-07,-1.1251614837432148e-06,-1.254744045980461e-06,1.4207418684475225e-07,-3.553615460855653e-06,9.755664380904144e-08,-2.6867953918181945e-07,-5.522877156008382e-07,-4.542898012663934e-07,-9.029171584498355e-07,-1.5553665451783945e-06,-1.446528051209802e-06,5.659649810222234e-08,-2.78519503836904e-07
1.7224728159065157e-07,2.744479686298299e-07,4.3148084389257964e-07,-1.2486190831684258e-07,9.015202859956801e-07,-1.1227224292766257e-06,-1.2517894306493778e-06,6.273708353617757e-07,-1.8957705500232975e-06,1.0069955019075505e-07,-2.577791016113325e-07,-5.518025667835122e-07,-4.311475440766294e-07,-8.805804356541697e-07,-1.538562790515749e-06,-1.517892360860969e-06,-7.511796526335734e-09,-3.8017054850409035e-07
1.9106867452025538e-07,2.7995751983226305e-07,4.2564309141302553e-07,-1.3647857509769803e-07,8.781891776696418e-07,-1.1269089979705326e-06,-1.25487508815375e-06,1.0703764143676747e-06,-1.0594971768991294e-07,9.983836272380835e-08,-2.5254522026769523e-07,-5.532225253682208e-07,-4.1121715674689884e-07,-8.117816997446452e-07,-1.5399192075438267e-06,-1.6221365130404355e-06,-6.656180478611748e-08,-4.246107843851085e-07
2.034345226636335e-07,2.8009436115296913e-07,4.1397205329583185e-07,-1.6050091102018978e-07,8.368713620593129e-07,-1.1354733497372223e-06,-1.2612536463046137e-06,1.3764092930425198e-06,1.7778392165626335e-06,9.453561931335803e-08,-2.520253333832643e-07,-5.570938613772227e-07,-3.974144121216291e-07,-6.989780027640454e-07,-1.54246672215651e-06,-1.7429952716943413e-06,-1.1356244129688704e-07,-4.130857068849322e-07
2.0980822153458354e-07,2.743653209225912e-07,4.026534819378034e-07,-1.8950440115170903e-07,7.924534480586791e-07,-1.1457089022453732e-06,-1.2709631336250067e-06,1.4838012812917736e-06,2.9843962975048005e-06,8.539760739902643e-08,-2.5514435678414935e-07,-5.641734737019047e-07,-3.9500259150324944e-07,-5.560583109513671e-07,-1.5517507795891821e-06,-1.8565445464330354e-06,-1.4431138189934086e-07,-3.7298967946948115e-07
2.1117448950942055e-07,2.631057436991238e-07,3.9671549682486227e-07,-2.1741905514445407e-07,7.586317219576079e-07,-1.1546808471771095e-06,-1.2834290696665181e-06,1.3990908008590243e-06,3.7817497407601114e-06,7.357702100569089e-08,-2.598379906398414e-07,-5.751208034918444e-07,-4.061499175400422e-07,-4.07736717970626e-07,-1.5671318914880036e-06,-1.943452383963259e-06,-1.5904452630293173e-07,-3.450129944087981e-07
2.0849853684337342e-07,2.4754721589484004e-07,3.9821990761916256e-07,-2.395075457610529e-07,7.444728559824401e-07,-1.1592241599476485e-06,-1.297021103082252e-06,1.1949891635676213e-06,4.146956527166739e-06,5.975693952749502e-08,-2.64765687191421e-07,-5.906907335033098e-07,-4.3173527456493173e-07,-2.843112183011484e-07,-1.5833430678246279e-06,-1.9925141535981314e-06,-1.621026499576061e-07,-3.6935842535793333e-07
2.0204392718972834e-07,2.2918538707517491e-07,4.0507473171632414e-07,-2.549351978314603e-07,7.515421074857647e-07,-1.1581642014568244e-06,-1.3104461313937796e-06,9.715325892901248e-07,3.944793971161244e-06,4.420545217016666e-08,-2.7016606374921584e-07,-6.117697843229996e-07,-4.70221487179035e-07,-2.1135544846064813e-07,-1.596860561686474e-06,-2.005047021032139e-06,-1.5676492077182017e-07,-4.745314157363247e-07
1.9172121894190373e-07,2.0935249623498558e-07,4.122342597813849e-07,-2.624774682870433e-07,7.739711753473636e-07,-1.1522243358873496e-06,-1.3223314775015985e-06,8.078780199333728e-07,3.2755650482557767e-06,2.7133445978212683e-08,-2.7664472060163505e-07,-6.373365870515006e-07,-5.152004921849746e-07,-1.9944413836803012e-07,-1.6062311421455589e-06,-1.994000248742435e-06,-1.437671137462782e-07,-6.68466401122855e-07
1.7836315407507663e-07,1.8941852183126436e-07,4.147977366412101e-07,-2.6209241085955346e-07,8.030477696987495e-07,-1.1434844166518303e-06,-1.3319514661506588e-06,7.335960858258543e-07,2.1939743155302907e-06,9.369176742640278e-09,-2.8459346232723963e-07,-6.654883410891208e-07,-5.584195132495293e-07,-2.421857161244639e-07,-1.6155487698456851e-06,-1.975531136408618e-06,-1.230827913965864e-07,-9.314700011140634e-07
1.644429247653563e-07,1.7054669703481992e-07,4.104313422909994e-07,-2.562799446839043e-07,8.324114244212757e-07,-1.1362383925573949e-06,-1.341260320916154e-06,7.25552221710717e-07,8.329844057457238e-07,-7.71563306302651e-09,-2.943867581020059e-07,-6.944156206040023e-07,-5.896968481727331e-07,-3.2377958078603113e-07,-1.6307889492384006e-06,-1.9677151225527206e-06,-9.649895240319124e-08,-1.2174656630887579e-06
1.5329534792330436e-07,1.5298508964962628e-07,3.9960476647529627e-07,-2.4808548733200704e-07,8.60367780176335e-07,-1.1364067807724674e-06,-1.3522007193239098e-06,7.24965755921272e-07,-4.126307599875972e-07,-2.2482852630270224e-08,-3.064495856964472e-07,-7.226367520350422e-07,-5.99946858421928e-07,-4.2898869296209284e-07,-1.6587922765316026e-06,-1.983915210865308e-06,-7.055248847128588e-08,-1.4686513695456958e-06
1.4763404268608978e-07,1.3546656862423371e-07,3.8451748713803307e-07,-2.408589500287041e-07,8.869767998843255e-07,-1.1507810104896064e-06,-1.3686083535190656e-06,6.643026348185496e-07,-1.2297053973999538e-06,-3.372124803035421e-08,-3.2220899322639076e-07,-7.496219119516426e-07,-5.827312951744467e-07,-5.469608883141566e-07,-1.7028175337402348e-06,-2.0246953097716437e-06,-5.274916024262006e-08,-1.6351297046751513e-06
1.4883837515947244e-07,1.1587157915002807e-07,3.6821167952758886e-07,-2.389740892904823e-07,9.091474229956956e-07,-1.1852938370513466e-06,-1.3928845126628661e-06,4.957957818821199e-07,-1.5658019286763932e-06,-4.0235806717813176e-08,-3.3948054334372934e-07,-7.748787155226568e-07,-5.36400484786513e-07,-6.681747867539949e-07,-1.7636445200278272e-06,-2.0791252541438385e-06,-4.698533276530272e-08,-1.686541265659258e-06
1.5687386171580447e-07,9.273420651605024e-08,3.541256657933174e-07,-2.4184950237201587e-07,9.198734026101804e-07,-1.2426395776277366e-06,-1.4248789533314432e-06,2.1089166720845287e-07,-1.4498647166554633e-06,-4.114447052564882e-08,-3.579276459077599e-07,-7.978126693481192e-07,-4.6616912435753303e-07,-7.812066644077217e-07,-1.830996076063292e-06,-2.129241027199624e-06,-5.2810544176999574e-08,-1.6178261190138557e-06
1.7047444041295016e-07,6.61883669088612e-08,3.44536896330574e-07,-2.445902379085893e-07,9.122891790333719e-07,-1.320228472907163e-06,-1.4629029130487458e-06,-1.5989546392200516e-07,-1.0524625859198754e-06,-3.670360200756834e-08,-3.7490556025536805e-07,-8.180121046533539e-07,-3.825920144200472e-07,-8.736385421486292e-07,-1.892470459227933e-06,-2.15867818146836e-06,-6.781320403669426e-08,-1.4469720331113134e-06
1.8704861620241274e-07,3.736688746481447e-08,3.3967862734319353e-07,-2.3546818891626775e-07,8.834250837366347e-07,-1.4102471817858698e-06,-1.5040875112020189e-06,-5.656876524011497e-07,-5.715503012138909e-07,-2.867083009973045e-08,-3.8782656988247047e-07,-8.360007570490411e-07,-2.955554861425369e-07,-9.364775785715156e-07,-1.9405778597101198e-06,-2.160420412380713e-06,-8.80148944845008e-08,-1.2112715154208886e-06
2.0311423207103525e-07,7.700303071920704e-09,3.3729993613968364e-07,-2.2300775397852463e-07,8.366771574343984e-07,-1.502532087967665e-06,-1.5458367934081204e-06,-9.57062850157672e-07,-1.38931049776705e-07,-1.9911217889599733e-08,-3.965803194971793e-07,-8.517918606601071e-07,-2.3656443743117696e-07,-9.656391202679088e-07,-1.9726322632603557e-06,-2.137746831966254e-06,-1.0661258343980478e-07,-9.602672117433429e-07
2.1605311323746587e-07,-2.112601930191096e-08,3.3432413029831054e-07,-2.0694693770662717e-07,7.810431942876495e-07,-1.5880213091507714e-06,-1.584901287811338e-06,-1.2971887114613541e-06,1.939941261398655e-07,-1.3474119991676621e-08,-4.001195033745287e-07,-8.634387709660573e-07,-2.090491169052636e-07,-9.653517818043048e-07,-1.9932727977623342e-06,-2.0965125292002837e-06,-1.1378261294969451e-07,-7.381483219767762e-07
2.2531004472401978e-07,-4.679872495226832e-08,3.2945073464924603e-07,-1.8230693440002866e-07,7.274785048932146e-07,-1.6608430031059982e-06,-1.6179202163347685e-06,-1.5565925232071478e-06,3.935534752686128e-07,-1.1179845783559043e-08,-3.970157207501769e-07,-8.675399408558395e-07,-2.0389492130270114e-07,-9.46495187485622e-07,-2.0057702214723816e-06,-2.0376852412296502e-06,-9.846871416942819e-08,-5.672264270998212e-07
2.319218073094137e-07,-6.642530554073245e-08,3.236219604116439e-07,-1.49604189764629e-07,6.85653037152411e-07,-1.7177232356463037e-06,-1.642888734397885e-06,-1.7080371113167137e-06,4.832188937657916e-07,-1.4405191121942258e-08,-3.8512348379957605e-07,-8.612556518211062e-07,-1.9837763577034722e-07,-9.208662197454273e-07,-2.009079882806707e-06,-1.9586429379017568e-06,-5.351597880670797e-08,-4.4343894117030146e-07
2.3656537917460157e-07,-7.786446825681842e-08,3.1871958551204525e-07,-1.0921369914262582e-07,6.626983316158547e-07,-1.757653031278772e-06,-1.6506568488912359e-06,-1.7381490697547457e-06,5.214606676550622e-07,-2.4285698970906777e-08,-3.660494961335572e-07,-8.448375825136165e-07,-1.9388152024910698e-07,-8.988715737531714e-07,-2.000254979169768e-06,-1.8518938330939901e-06,2.1130652362284688e-08,-3.475570447136514e-07
2.388421598445039e-07,-8.073458981837066e-08,3.158100602326386e-07,-7.350617422240181e-08,6.623557859773806e-07,-1.7776855874305463e-06,-1.6433724447114857e-06,-1.6583667589612733e-06,5.466157945487739e-07,-3.9562491581505484e-08,-3.4293920717489087e-07,-8.223851187125175e-07,-1.8337660185683502e-07,-8.847711472719026e-07,-1.976423841135156e-06,-1.7227446947049878e-06,1.1695948518812887e-07,-2.6221893418348573e-07
2.3746249778829875e-07,-7.669304103511052e-08,3.151303264833779e-07,-5.983698348970993e-08,6.864169088013603e-07,-1.777830978942237e-06,-1.630144913554598e-06,-1.506940198737388e-06,5.675635945308723e-07,-5.77838680349853e-08,-3.209086616404615e-07,-8.012628532721378e-07,-1.7373051377316123e-07,-8.755820881109948e-07,-1.938060231519868e-06,-1.589797107776419e-06,2.1718517906553228e-07,-1.837474863199591e-07
2.3074020974997735e-07,-6.875351180297867e-08,3.132342747720091e-07,-1.029991950622035e-07,7.301692564282037e-07,-1.7633243256428664e-06,-1.6161458179168733e-06,-1.3438383917632584e-06,5.40039748664709e-07,-7.558911741798136e-08,-3.0650072413666906e-07,-7.907713673947912e-07,-1.763605516611406e-07,-8.639064227573956e-07,-1.8898347258096654e-06,-1.4798711983178698e-06,2.9924016384281693e-07,-1.2353163484449856e-07
2.1666107023857477e-07,-6.133973762548978e-08,3.0439291639256555e-07,-1.9995809908603212e-07,7.843602824966563e-07,-1.7419211378769515e-06,-1.6114053363515778e-06,-1.240357754457303e-06,3.9818640844554366e-07,-8.939093442550116e-08,-3.060618748707576e-07,-8.009208530364093e-07,-1.8927164665670696e-07,-8.425135974355746e-07,-1.8300406251023437e-06,-1.4174941098300384e-06,3.3737043740616824e-07,-9.950843408772451e-08
1.9257668346279446e-07,-6.009819462413493e-08,2.8219409989426367e-07,-2.692415561961262e-07,8.393548450284965e-07,-1.723814568437325e-06,-1.6244791328451277e-06,-1.2484278374481101e-06,1.0551951185206182e-07,-9.755548474305426e-08,-3.2519713184878064e-07,-8.39994861075648e-07,-2.6732898927863507e-07,-8.087116625736887e-07,-1.7653693289460437e-06,-1.419553350683069e-06,3.154668833434333e-07,-1.2233000951371076e-07
1.562199915629422e-07,-7.031039593219221e-08,2.403085383253792e-07,-2.9192833001866826e-07,8.838001167114237e-07,-1.717724075063141e-06,-1.6588151032911887e-06,-1.3646540427712927e-06,-3.0778607035368487e-07,-1.0051984475496345e-07,-3.6628248145237057e-07,-9.112433438527041e-07,-4.134642127422888e-07,-7.657973078621033e-07,-1.7818669513222993e-06,-1.489816289241124e-06,2.346024891277894e-07,-1.867771823271583e-07
1.0785796094066484e-07,-9.513304251050178e-08,1.782391474323882e-07,-2.8384890030560046e-07,9.048627193473799e-07,-1.7214448022418286e-06,-1.7128218528543793e-06,-1.51971243322794e-06,-7.491343054706917e-07,-1.0017545725361069e-07,-4.26269385285151e-07,-1.0104269994065926e-06,-5.802105125549442e-07,-7.22846139675593e-07,-1.821567854071612e-06,-1.6153615361995263e-06,1.128071729645373e-07,-2.6442603588205613e-07
5.14788203970722e-08,-1.3373584324719877e-07,1.0098498934574804e-07,-3.2390030177116655e-07,8.955660586732832e-07,-1.735286961932223e-06,-1.7803005582898655e-06,-1.6056348963401543e-06,-1.0982457733975924e-06,-9.895698489079104e-08,-4.976591883628593e-07,-1.1260985472307392e-06,-7.428144820697134e-07,-6.914721481767075e-07,-1.8506996683010025e-06,-1.7782546877557694e-06,-2.2389765640680606e-08,-3.1777175332422206e-07
-6.39868844796646e-09,-1.8157429272141553e-07,1.740014466941758e-08,-4.538365726872795e-07,8.568350617831018e-07,-1.7626906635305058e-06,-1.8485262537938465e-06,-1.5266394535625885e-06,-1.2930630631388443e-06,-9.908406789847643e-08,-5.699381162332466e-07,-1.2431997246252118e-06,-8.838270811952167e-07,-6.83641919859911e-07,-1.869092180906169e-06,-1.957362864169341e-06,-1.462494348265712e-07,-3.188715075149957e-07
-5.923684893227331e-08,-2.3245833236768677e-07,-6.270078171662574e-08,-5.80564894536492e-07,7.95908321973887e-07,-1.7879804740564191e-06,-1.9039222970678922e-06,-1.2363637650824175e-06,-1.3655560639015375e-06,-1.0309716507897211e-07,-6.341951329602251e-07,-1.3479715107851378e-06,-1.0086104184274355e-06,-7.085774114264985e-07,-1.8972285506550214e-06,-2.1337066764092267e-06,-2.442743479021328e-07,-2.6301450778798084e-07
-1.025324551150875e-07,-2.8060543724593436e-07,-1.3201894666339533e-07,-6.120158981397508e-07,7.242753307045523e-07,-1.8059529654909074e-06,-1.938854338921878e-06,-7.568776916555712e-07,-1.4140242597897536e-06,-1.1163531987776672e-07,-6.845741387805889e-07,-1.43110327401012e-06,-1.0981185702753737e-06,-7.683878937756579e-07,-1.9239586234768855e-06,-2.289751675091465e-06,-3.1404388630591404e-07,-1.7115062372414814e-07
-1.3457430079009508e-07,-3.219213161213721e-07,-1.8638325094016654e-07,-6.410252858728919e-07,6.528680337847569e-07,-1.8111226709536437e-06,-1.950617027059564e-06,-1.7567243691704856e-07,-1.5342134025239125e-06,-1.2422479212493556e-07,-7.181127776897342e-07,-1.488159406095863e-06,-1.16450766093514e-06,-8.579817873468002e-07,-1.9358575357245933e-06,-2.4063242060785395e-06,-3.613491832387707e-07,-7.755921582005577e-08
-1.5625537267294946e-07,-3.542164221053552e-07,-2.2339257854934785e-07,-7.040333897076327e-07,5.893889276657201e-07,-1.796794680965322e-06,-1.940852852520485e-06,3.7699630846786887e-07,-1.7291191149712912e-06,-1.4042011250401723e-07,-7.350271426244033e-07,-1.518324377929391e-06,-1.2239827673749623e-06,-9.66318540708493e-07,-1.928535381122836e-06,-2.465129469704742e-06,-3.9475819044169737e-07,-1.6468569886820188e-08
-1.7013032393792991e-07,-3.769026680372643e-07,-2.407872472508737e-07,-7.766302808577555e-07,5.400765251949224e-07,-1.7639853354373348e-06,-1.916312154039943e-06,7.686533534530425e-07,-1.8886906340222125e-06,-1.5982881882125485e-07,-7.369060350596362e-07,-1.5227648114390964e-06,-1.2525728143567374e-06,-1.0785007777347402e-06,-1.900242094707876e-06,-2.4514742284043823e-06,-4.1808497758850727e-07,-9.021464619270209e-09
-1.7874437594232957e-07,-3.9003078201116674e-07,-2.3657438896675067e-07,-8.123892209236323e-07,5.125655009582724e-07,-1.7153503447946384e-06,-1.882836937196452e-06,9.178532544600222e-07,-1.8312307997298872e-06,-1.8220136083013134e-07,-7.264810315612414e-07,-1.5035222431978582e-06,-1.2686912397816322e-06,-1.177799214260701e-06,-1.8496823508781084e-06,-2.3590646644479743e-06,-4.2515648540661847e-07,-6.084014816953022e-08
-1.828656455812071e-07,-3.931700800323502e-07,-2.087463095596366e-07,-8.359279843009639e-07,5.146533599830524e-07,-1.6529895641278142e-06,-1.845365930114325e-06,8.338350304566373e-07,-1.484151886114499e-06,-2.0636676157189205e-07,-7.058449678106558e-07,-1.4634293890556482e-06,-1.2578163332942062e-06,-1.2482516267008546e-06,-1.7794935122711126e-06,-2.1960371640779405e-06,-4.019105501960628e-07,-1.6264906545374161e-07
-1.814452492484893e-07,-3.851590743046369e-07,-1.5664667371738631e-07,-8.5124059234118e-07,5.515728220726457e-07,-1.5862849150279203e-06,-1.8030426741259863e-06,6.146303836398409e-07,-8.568805022525007e-07,-2.3065496435109396e-07,-6.771801954628148e-07,-1.406997401809856e-06,-1.221282364073822e-06,-1.279612370962023e-06,-1.6952724842020942e-06,-1.9835230172332535e-06,-3.364018403614805e-07,-2.9607785130986236e-07
-1.7341007035627805e-07,-3.6507317916293596e-07,-8.36909098379222e-08,-8.380393228752818e-07,6.218720196834159e-07,-1.520503816865106e-06,-1.7511499139337994e-06,4.0274349293839464e-07,-5.554889507958336e-08,-2.53014530087842e-07,-6.43684960383407e-07,-1.341090674158711e-06,-1.1854905466653327e-06,-1.2706267591244727e-06,-1.6043812612386574e-06,-1.7617995516929267e-06,-2.2475352117969826e-07,-4.380777170570656e-07
-1.5961473599047407e-07,-3.338226470683449e-07,2.5145134520048386e-09,-8.117486302485529e-07,7.172487888596798e-07,-1.4577371901500562e-06,-1.687296485677546e-06,3.197258241709983e-07,7.832181346227807e-07,-2.7199491715544864e-07,-6.094786595809722e-07,-1.2743091995997877e-06,-1.145111885137468e-06,-1.2294253251726045e-06,-1.5157578395472333e-06,-1.5719089654140945e-06,-8.117073661316323e-08,-5.717186607451223e-07
-1.4300585019304187e-07,-2.94592960471679e-07,9.156062558645295e-08,-7.583435635209913e-07,8.244174568578871e-07,-1.4022273521583975e-06,-1.605753251607421e-06,4.101259045237515e-07,1.6062956583580841e-06,-2.865772758541602e-07,-5.786352474185167e-07,-1.2149317409108331e-06,-1.0945887175338867e-06,-1.1708949465118846e-06,-1.4399263927033482e-06,-1.4456176790780808e-06,6.56748939334078e-08,-6.887249295792183e-07
-1.270387407997695e-07,-2.524473174678321e-07,1.7334034559535137e-07,-7.15317520309221e-07,9.279541460953594e-07,-1.3539807877994947e-06,-1.5120589175040524e-06,6.13581235762935e-07,2.3681948190917595e-06,-2.954288038982989e-07,-5.53522357994079e-07,-1.1688724933779863e-06,-1.0453574557706879e-06,-1.112169979485536e-06,-1.3781339515728247e-06,-1.3948640075073441e-06,1.8358081075481947e-07,-7.838898037841738e-07
-1.1439975014298092e-07,-2.1044290758169017e-07,2.4079218289366344e-07,-6.771365295072553e-07,1.0140151777218292e-06,-1.3113903440897215e-06,-1.4223452706368608e-06,7.987000838312843e-07,3.049176157729492e-06,-2.9779319039532616e-07,-5.366604684622457e-07,-1.1381111502595275e-06,-1.000314201643588e-06,-1.0676125392383576e-06,-1.3336092023505386e-06,-1.3932895841273313e-06,2.4738648190134103e-07,-8.530969289247531e-07
-1.0697262365623914e-07,-1.7244690646915624e-07,2.8922086885999823e-07,-6.25754849994548e-07,1.0728692976690644e-06,-1.2725449944070422e-06,-1.340328671689153e-06,8.451877988513335e-07,3.3179601487400172e-06,-2.943590776423899e-07,-5.268645915708768e-07,-1.1227886530699053e-06,-9.750485863563119e-07,-1.0444785977399846e-06,-1.309418101796084e-06,-1.4189764117871405e-06,2.462267601845716e-07,-8.90403775831538e-07
-1.0606336446102215e-07,-1.4248680691925342e-07,3.161422000545152e-07,-5.690915698575186e-07,1.0995681415459407e-06,-1.2351597705627744e-06,-1.2706761061051044e-06,7.199725966123303e-07,3.3189415929584506e-06,-2.8748941225963225e-07,-5.252254233114068e-07,-1.1211556870241718e-06,-9.67544105128257e-07,-1.042265455771173e-06,-1.3017382381010508e-06,-1.442493798015464e-06,1.8609957444390228e-07,-8.892312941116308e-07
-1.1194146063294525e-07,-1.2176499161271515e-07,3.215814051743166e-07,-5.128753412992044e-07,1.0951053007021419e-06,-1.1952801132416064e-06,-1.217007952859371e-06,5.010965446581989e-07,2.853382217663125e-06,-2.8017576865886634e-07,-5.343536064712909e-07,-1.1300875717604032e-06,-9.726954870938147e-07,-1.0539997862748373e-06,-1.3072041580886403e-06,-1.4384438413477057e-06,9.625650514502392e-08,-8.48168017652452e-07
-1.2358257207753386e-07,-1.1031257764367036e-07,3.085807042947239e-07,-4.656635722103881e-07,1.0661387507299503e-06,-1.156000539878715e-06,-1.177041999795725e-06,3.2573380706610784e-07,1.68272380635091e-06,-2.739017138776782e-07,-5.515529739793466e-07,-1.1469172929724203e-06,-9.86857669251174e-07,-1.070139779935531e-06,-1.3189648030187689e-06,-1.4045173306321363e-06,5.96258195425771e-11,-7.76770794017105e-07
-1.38866204852249e-07,-1.0692039220627539e-07,2.825718057224237e-07,-4.38402111322133e-07,1.0226916132366925e-06,-1.1235711828155538e-06,-1.1512425156614756e-06,2.974296530122814e-07,3.7925738336325834e-07,-2.7109387186670014e-07,-5.758422191624257e-07,-1.168800251897711e-06,-1.0027669996407023e-06,-1.0828202375846764e-06,-1.3276348833018171e-06,-1.3422514705268062e-06,-7.97393790751104e-08,-6.837832673365642e-07
-1.5718361732426743e-07,-1.1001585229874102e-07,2.497631604023423e-07,-4.3758290313350735e-07,9.716244967425284e-07,-1.0992944836322718e-06,-1.1382049487436493e-06,4.1738109222498443e-07,-1.4382086868068582e-06,-2.7191241010908197e-07,-6.055161607055993e-07,-1.1938484153538204e-06,-1.0198127401429034e-06,-1.0916472381006596e-06,-1.3289521092957857e-06,-1.2608226211027894e-06,-1.267783141091671e-07,-5.890211406932823e-07
-1.769345506867252e-07,-1.1847670942108868e-07,2.1565489272587157e-07,-4.612554515355589e-07,9.244141342633833e-07,-1.0856479508496172e-06,-1.133765288061885e-06,5.889669696866811e-07,-3.1080608935683645e-06,-2.7553990756889536e-07,-6.383255791706139e-07,-1.221034227569286e-06,-1.0362331577513765e-06,-1.1019681131590407e-06,-1.3207677988715685e-06,-1.1772988708880072e-06,-1.4128578987677179e-07,-5.088371505954101e-07
-1.9565486977246627e-07,-1.313303275074744e-07,1.8438062450397936e-07,-5.06309382955289e-07,8.963734804782137e-07,-1.0821055710516112e-06,-1.1319458350385123e-06,6.808622400864331e-07,-3.792552881350739e-06,-2.8369926126261706e-07,-6.729553761609657e-07,-1.2493617312765902e-06,-1.0539710832206212e-06,-1.1213110096585044e-06,-1.301648314425164e-06,-1.105303739939601e-06,-1.2422491856186404e-07,-4.527009906500614e-07
-2.1041892372006531e-07,-1.469581865698777e-07,1.5914172519226514e-07,-5.653522041982255e-07,8.859304834661465e-07,-1.084301108633757e-06,-1.1173328916681937e-06,6.035412278038234e-07,-3.417109203862052e-06,-2.951347562927566e-07,-7.08524718936391e-07,-1.2771248441063176e-06,-1.0746814209587926e-06,-1.1558554569832469e-06,-1.2752328326568323e-06,-1.0302556057828574e-06,-8.739000274763008e-08,-4.165564564029799e-07
-2.1828813483472157e-07,-1.6171584497196407e-07,1.4216779998149828e-07,-6.28691627519955e-07,8.927171210117461e-07,-1.0732696891953182e-06,-1.1044099975137743e-06,3.443970004832165e-07,-2.8456548200449865e-06,-3.0364338737933395e-07,-7.437183220134283e-07,-1.3018946743499037e-06,-1.0973377730338489e-06,-1.207596514994919e-06,-1.2447272378927513e-06,-9.758532511315472e-07,-4.28539484461049e-08,-3.8236920278415496e-07
-2.1894500329102804e-07,-1.7234316434066848e-07,1.3466792661184654e-07,-6.870839956204538e-07,9.160589729044164e-07,-1.050712846444281e-06,-1.0910458162143667e-06,-2.670932753901189e-08,-2.7979035587086417e-06,-3.129888253888557e-07,-7.766164059367144e-07,-1.3207632616085038e-06,-1.1210865812800974e-06,-1.277695586986316e-06,-1.2109851426979332e-06,-9.409027995302715e-07,3.5727089557809145e-09,-3.315809475079261e-07
-2.1504927673654796e-07,-1.7679394034011847e-07,1.3654178105266394e-07,-7.358253123257705e-07,9.46595177662261e-07,-1.0172561977062724e-06,-1.0660487241329532e-06,-3.877361105217514e-07,-2.405369611670983e-06,-3.2668014589544623e-07,-8.079876301619155e-07,-1.330479329482475e-06,-1.1416559513313536e-06,-1.3654699985153383e-06,-1.17504717603544e-06,-9.069353521970329e-07,4.847794431573712e-08,-2.5651914866531823e-07
-2.0918460921757927e-07,-1.7399114210339273e-07,1.4644587795815628e-07,-7.722823457620312e-07,9.8364110313265e-07,-9.71157624633762e-07,-1.032939755624316e-06,-6.151723191605447e-07,-1.5563592122680011e-06,-3.444797641840466e-07,-8.375852944578794e-07,-1.328765913202986e-06,-1.15305913488911e-06,-1.4644762943090742e-06,-1.1481722540854034e-06,-8.818733842254643e-07,9.200681062746762e-08,-1.6267681175621206e-07
-2.044207242366264e-07,-1.638847285796243e-07,1.6085645537042824e-07,-7.962104567448353e-07,1.0273373031698352e-06,-9.173645982309654e-07,-9.889888863123958e-07,-6.409973980419598e-07,-5.133231119862745e-07,-3.6742243658998665e-07,-8.650324992877595e-07,-1.3153765015345919e-06,-1.1515230243281442e-06,-1.5596546260251988e-06,-1.1240927313449554e-06,-8.397901682903355e-07,1.2863045675022674e-07,-6.967645847309198e-08
-2.0318579692235202e-07,-1.472566396172464e-07,1.7460032708624136e-07,-8.111356177802106e-07,1.062349243718938e-06,-8.597053473648392e-07,-9.324340680865222e-07,-4.856643304795185e-07,3.189669756283877e-07,-3.9252964327746715e-07,-8.898101427711267e-07,-1.292742226370176e-06,-1.1381274358175618e-06,-1.626684403937092e-06,-1.0936397806820291e-06,-7.700741965292946e-07,1.6261687382389894e-07,6.615828721949206e-09
-2.0633938080725803e-07,-1.2630985773404977e-07,1.8403034406835362e-07,-8.206573359384396e-07,1.0737325100832597e-06,-8.020015500092317e-07,-8.666729847543296e-07,-2.328107195075857e-07,8.3213745062368e-07,-4.149991568586864e-07,-9.113608891167854e-07,-1.2655857841670289e-06,-1.1177054557360372e-06,-1.6405741298591016e-06,-1.0617758135770026e-06,-6.956447592435592e-07,1.9125523250934113e-07,5.4930795123991755e-08
-2.1372322023689428e-07,-1.0265239142979794e-07,1.890445719541198e-07,-8.214182851816152e-07,1.0582138899535973e-06,-7.589281309458154e-07,-7.985209246851229e-07,2.5976754843206333e-08,1.0796087874641988e-06,-4.309478100981169e-07,-9.301074064461786e-07,-1.23880086925877e-06,-1.0979102515502526e-06,-1.584171908853703e-06,-1.028880852570599e-06,-6.27070183426688e-07,2.0187161782414123e-07,7.857139403323119e-08
-2.237009466769715e-07,-7.729869324687274e-08,1.9351303452635976e-07,-8.160519594743194e-07,1.0205261910279744e-06,-7.299854500093552e-07,-7.279921586375761e-07,2.326661724995802e-07,8.626326589440613e-07,-4.402427549075431e-07,-9.438025305205557e-07,-1.2164996712980219e-06,-1.0859245382647845e-06,-1.4582901383036e-06,-9.953836501628747e-07,-5.719993700600231e-07,1.9437566254907784e-07,9.585114337814083e-08
-2.339152423277139e-07,-5.1257384478715953e-08,2.0242424090263066e-07,-8.060446143106117e-07,9.729153087774321e-07,-6.941570385875647e-07,-6.62272980906666e-07,3.6523216842577527e-07,4.1952161054836617e-07,-4.4701340825830964e-07,-9.548507202999226e-07,-1.2017142157912057e-06,-1.0846831454056876e-06,-1.2868147642509372e-06,-9.534437515664232e-07,-5.456430153022239e-07,1.6703410152962104e-07,1.1669215509843603e-07
-2.4254986555508456e-07,-2.5413141057753273e-08,2.1829532706502686e-07,-7.937659520872953e-07,9.30385738580344e-07,-6.682932959564936e-07,-6.069013041206949e-07,4.225537525031512e-07,8.226244361765311e-08,-4.5124059652199814e-07,-9.62592637445449e-07,-1.1961501480489277e-06,-1.0938180303733266e-06,-1.110373974858638e-06,-9.053461582261412e-07,-5.033392480308044e-07,1.4684271290998925e-07,1.4254867944218147e-07
-2.489611033395373e-07,-1.4270939297890423e-09,2.398880959441638e-07,-7.846394615213081e-07,8.964982017664769e-07,-6.193616914699458e-07,-5.427757909176516e-07,4.1759681290520284e-07,-7.798315724911846e-09,-4.4212234195949596e-07,-9.588701886535908e-07,-1.2005575726769985e-06,-1.1087382533067697e-06,-9.722826682350214e-07,-8.458809317022351e-07,-4.339427125062944e-07,1.4870664286657522e-07,1.6673587225316468e-07
-2.523314247977895e-07,1.7671158812868923e-08,2.6280806246581753e-07,-7.817886596330259e-07,8.716319602494019e-07,-5.689642365141468e-07,-4.7462965574759824e-07,3.7810639148610265e-07,2.5356693335118135e-07,-4.23290864551201e-07,-9.484456231413122e-07,-1.214303142773829e-06,-1.124940258469179e-06,-9.008418679839e-07,-7.941601117687544e-07,-3.635718369624627e-07,1.7430895802316191e-07,1.8095678771069123e-07
-2.525457465340847e-07,3.095893606270581e-08,2.8081691378750254e-07,-7.90842345100591e-07,8.564540983732823e-07,-5.237276585141837e-07,-4.181647593656449e-07,3.3692312430661865e-07,7.381164881407867e-07,-3.998639939195861e-07,-9.342885396059612e-07,-1.2350986467818324e-06,-1.1399575757364685e-06,-9.008218737541294e-07,-7.723151916122364e-07,-2.393393903392042e-07,2.1801736415905173e-07,1.8165495041419127e-07
-2.5064483363948233e-07,3.839976947073521e-08,2.873211288885309e-07,-8.114865952360063e-07,8.472891811770544e-07,-4.753967641937927e-07,-3.726559406174725e-07,3.105197378597437e-07,1.2450723562402461e-06,-3.7122729301822386e-07,-9.215119194579422e-07,-1.2588310433509842e-06,-1.151797104802913e-06,-9.552628655193064e-07,-7.548937718874278e-07,-6.224489907015036e-08,2.526582584586949e-07,1.7698817283511237e-07
-2.488099316650231e-07,4.6378365995015235e-08,2.778155774199055e-07,-8.401351717422917e-07,8.439264641529317e-07,-4.2908276807477004e-07,-3.67363289337564e-07,2.912630491734714e-07,1.611881984928328e-06,-3.489760212423592e-07,-9.146981251324194e-07,-1.2792546035702464e-06,-1.1595845128432493e-06,-1.0362999307522272e-06,-7.482322661637489e-07,1.6769929482029326e-07,3.187744753272457e-07,1.77180503586284e-07
-2.5040451345828403e-07,5.542678719814473e-08,2.517941927469034e-07,-8.69933601528571e-07,8.458039881995186e-07,-4.1072481380256674e-07,-3.6120463718731066e-07,2.698007112525334e-07,1.6973698298720467e-06,-3.4216937579310147e-07,-9.206028882144833e-07,-1.2878759055771542e-06,-1.160474175656507e-06,-1.1158618936207222e-06,-7.166013050782221e-07,4.973288396309504e-07,4.243401701217213e-07,2.2236437621431896e-07
-2.5872529326614973e-07,6.61175595509899e-08,2.1416054009522192e-07,-8.912143698711726e-07,8.530057484330614e-07,-3.729065689348455e-07,-3.335691038533206e-07,2.588872972166068e-07,1.4255404523906238e-06,-3.3776549072802634e-07,-9.131646128860126e-07,-1.2751507258946065e-06,-1.1474989047367436e-06,-1.1749198128825398e-06,-5.838529588747498e-07,9.392863811839489e-07,6.096192803446235e-07,3.1090240521969864e-07
-2.762659193519347e-07,7.963649715894487e-08,1.7422897819477395e-07,-8.971467947357048e-07,8.68527530104039e-07,-2.7721967119604425e-07,-2.4567188630045266e-07,2.949959582359663e-07,8.157190804060075e-07,-3.0744194930436936e-07,-8.663828361252927e-07,-1.2335297247539971e-06,-1.1113777083743488e-06,-1.2062061723461632e-06,-4.973015964974427e-07,1.2153782269482685e-06,8.739353652262269e-07,4.2810479205229094e-07
-3.048421368762251e-07,9.031237896336023e-08,1.4203963111082474e-07,-8.828133464839611e-07,8.922279261576746e-07,-1.3888372704662154e-07,-6.988672633363705e-08,4.2878323130579766e-07,-3.443847565500672e-08,-2.539206377948712e-07,-7.785160573459379e-07,-1.1607125399647282e-06,-1.0440580611223083e-06,-1.2175532087026332e-06,-4.5600825198220784e-07,1.4500039197392226e-06,1.0086375420220855e-06,5.281630693651526e-07
-3.4382861783730577e-07,1.08234008803284e-07,1.2472024502567893e-07,-8.461263887128299e-07,9.182079462735259e-07,8.222558790995966e-09,4.3285059177156076e-08,6.690567927727889e-07,-9.734002194226132e-07,-2.0685726780429407e-07,-6.712260000785488e-07,-1.0612946878614907e-06,-9.401313631187395e-07,-1.2263981386681591e-06,-4.112000472228236e-07,1.7446941048026291e-06,1.0556371472120196e-06,6.16209765109402e-07
-3.8972310474926015e-07,1.3009917962828766e-07,1.238953845949294e-07,-7.904750875630983e-07,9.375952755835874e-07,1.3295639284031707e-07,1.1254458572567434e-07,9.917781793994926e-07,-1.8176794634677588e-06,-1.5873302279289182e-07,-5.919912557362323e-07,-9.456615666188675e-07,-8.036329827531181e-07,-1.2499412952138151e-06,-3.373213726594743e-07,1.8387150259109893e-06,1.054136658386853e-06,6.967084008826816e-07
-4.3461325655091706e-07,1.594286159041985e-07,1.3471664518171486e-07,-7.327919863870837e-07,9.39484220562469e-07,2.566431516561335e-07,1.8619658712268745e-07,1.33692982825458e-06,-2.313337705690471e-06,-1.2574083647408723e-07,-5.190728957302556e-07,-8.274701194434652e-07,-6.397639389748706e-07,-1.2964593150331958e-06,-2.8955489485559085e-07,1.7697852420372066e-06,1.1354306764324095e-06,7.837457839915321e-07
-4.68998131035576e-07,1.5985890734629307e-07,1.478807127253219e-07,-6.881007763730269e-07,9.183385437170145e-07,3.653027376986635e-07,2.7186112014675194e-07,1.608212097760827e-06,-2.235413116670087e-06,-9.665325087012089e-08,-4.4900609452772994e-07,-7.203116885885993e-07,-4.6771660220584697e-07,-1.3629272930018011e-06,-2.8779228573000686e-07,1.8111114788378753e-06,1.3133024064114099e-06,9.134930361247202e-07
-4.861893301222545e-07,1.0141867893530414e-07,1.5407564980747667e-07,-7.195714938184763e-07,8.762039156677982e-07,4.1485367705132494e-07,3.443061319676889e-07,1.716738336218463e-06,-1.5319291921206259e-06,-5.446554858682467e-08,-3.783956619319743e-07,-6.35587968137923e-07,-3.092373468980857e-07,-1.4327989667671924e-06,-2.533415964191483e-07,2.1623906095889e-06,1.4079273625945528e-06,9.782257707380388e-07
-4.845770875147126e-07,-1.8054292100966418e-08,1.4830745291532085e-07,-7.52787931848884e-07,8.178007553037916e-07,4.807448874478401e-07,3.7821085058579317e-07,1.6300233036613714e-06,-3.8535850627665577e-07,3.1826587040361697e-09,-2.343637243630439e-07,-5.803768065572836e-07,-1.7983684344978496e-07,-1.4860266892685247e-06,-1.8315282149441695e-07,2.3915670486213232e-06,1.417373832158038e-06,1.0271246375659523e-06
-4.68372700696566e-07,-1.5160110167788272e-07,1.3253504641786594e-07,-7.583206227573864e-07,7.514793444175363e-07,5.730491112400182e-07,5.113302679444806e-07,1.4062015984395841e-06,8.477010474553995e-07,5.93668247636978e-08,-1.0564581936817774e-07,-5.575631881265583e-07,-1.2253358601935678e-07,-1.5082003582272636e-06,-1.3604927280309402e-07,2.5733555619671615e-06,1.5070563441500751e-06,9.991124990685656e-07
-4.4880732071117937e-07,-2.5884416565143544e-07,1.1318976672086476e-07,-8.285708513266801e-07,6.89562396803811e-07,6.593416719091999e-07,5.83077507852041e-07,1.16901090059091e-06,1.837695239751155e-06,1.3194408770446026e-07,-1.576438546620669e-08,-5.663808404475354e-07,-1.0937466630177446e-07,-1.4968055957240034e-06,-1.1002112871149946e-07,2.6541534241250987e-06,1.5940549729306578e-06,7.849898572744972e-07
-4.255761261132406e-07,-3.35892444622464e-07,9.477988948011635e-08,-9.405852930985437e-07,6.517857842746602e-07,7.163306510551725e-07,5.52270653025658e-07,1.0344975281816817e-06,2.426921716346291e-06,1.6907716407354862e-07,6.655325912183776e-08,-6.022742632685953e-07,-7.615948449758304e-08,-1.458641142394824e-06,-7.308549963594011e-08,2.7468201165046904e-06,1.6132547270086597e-06,8.333446335349978e-07
-4.038214762511581e-07,-3.9800063098982285e-07,7.925039617007578e-08,-1.0402939134563077e-06,6.400698491530069e-07,7.766280267396344e-07,6.096441827381721e-07,1.0286478465778636e-06,2.651352550574819e-06,2.010116505219015e-07,1.4800335035850538e-07,-6.563286962739547e-07,-1.0303938574572198e-07,-1.4102117867013207e-06,4.006848690617403e-08,2.751074593998912e-06,1.722621887915608e-06,9.9471818120323e-07
-3.8914943168605917e-07,-4.416713923284807e-07,6.711238203394816e-08,-1.1141294651978871e-06,6.310881817036276e-07,8.321491418062925e-07,6.420956355672801e-07,1.0795778259165211e-06,2.669618145009729e-06,2.0570396898268587e-07,2.4174363215016776e-07,-7.149738282397735e-07,-1.919846746930493e-07,-1.3575407083842658e-06,1.09642399447294e-07,2.7459311364908278e-06,1.7863097953482925e-06,1.1628833990624913e-06
-3.807750742226039e-07,-4.706655335701093e-07,5.8305070248758814e-08,-1.1715955809978082e-06,6.331251448183152e-07,8.706393987907109e-07,6.740081755283647e-07,1.0745088255438781e-06,2.538926530703897e-06,2.3379849766842537e-07,2.9552289197030064e-07,-7.629346614030784e-07,-2.639956602011751e-07,-1.310796007286867e-06,1.7355286277419332e-07,2.9466746053543827e-06,1.7570210649479218e-06,1.2280680583948327e-06
-3.798069932250882e-07,-4.931579792317239e-07,5.255467690605632e-08,-1.2128251820886898e-06,6.34463723421452e-07,8.591718967448315e-07,6.949683146484532e-07,9.548859948473978e-07,2.269365141337747e-06,2.8448586651475316e-07,3.544927952501905e-07,-7.882908307978613e-07,-3.1550684862136383e-07,-1.2771660677348757e-06,2.823285294870401e-07,3.0455392620556825e-06,1.6638237817227764e-06,1.1514400997848347e-06
-3.843918530681767e-07,-5.123070288064254e-07,4.806322348716821e-08,-1.2469501614186116e-06,6.207832091798996e-07,9.073481395972711e-07,7.610156429347424e-07,7.34881977294221e-07,1.8645743584006509e-06,3.26398291568308e-07,3.544337147225298e-07,-7.865106202814356e-07,-3.432535603637435e-07,-1.2515865418904847e-06,3.6630782004297843e-07,3.004221384366227e-06,1.5855302174823164e-06,1.2957835091941011e-06
-3.8883352323321627e-07,-5.309114632388345e-07,4.107838039091205e-08,-1.2796600610894967e-06,5.966599883645261e-07,9.587316272831084e-07,8.291159682424773e-07,5.130001046760845e-07,1.3210446508586931e-06,3.633919923549323e-07,3.645576904127785e-07,-7.593236784018722e-07,-3.4298566844016717e-07,-1.2267215123604258e-06,4.488790854056467e-07,2.948099851347169e-06,1.5407964872206193e-06,1.5161905972776033e-06
-4.0020508494006534e-07,-5.543443373940917e-07,2.7981634601716762e-08,-1.3116281902869123e-06,5.553710558959023e-07,1.0455081699031892e-06,8.387684323858726e-07,3.779028894280326e-07,6.251862238836941e-07,3.831066598427329e-07,3.8925912535611037e-07,-7.177632896045705e-07,-3.2122483854063454e-07,-1.1964285945256727e-06,5.469476724088173e-07,2.9228375390159705e-06,1.525886454726893e-06,1.43441719395668e-06
-4.1648394366689587e-07,-5.815017112667364e-07,6.7590663186733715e-09,-1.3418801826381175e-06,4.894904928703434e-07,1.111522405789617e-06,8.800902726562264e-07,4.0194074773574094e-07,-1.1198526666823516e-07,3.8552635916905365e-07,4.0858251289895133e-07,-6.715148700467357e-07,-2.9541925118003306e-07,-1.154938957837294e-06,6.289372823831311e-07,2.903352214627332e-06,1.5706530452477485e-06,1.386219391510251e-06
-4.2593703771246865e-07,-6.103390618738887e-07,-2.3027209122654502e-08,-1.38050078630037e-06,4.0956606932449617e-07,1.089399613713671e-06,9.283057579340532e-07,5.778375757011501e-07,-7.288212315559547e-07,3.918332969867313e-07,4.4077596450648523e-07,-6.27064932562371e-07,-2.537584586093866e-07,-1.1149943793652181e-06,7.224504965170176e-07,2.827792023821731e-06,1.6089728807814066e-06,1.482350970406036e-06
-4.2924851619859267e-07,-6.514701458553097e-07,-5.652808662517388e-08,-1.4002988502955643e-06,3.298179546510781e-07,1.0430243268542837e-06,9.32236727387013e-07,8.028766070578678e-07,-1.1371175966456587e-06,4.0307464537384205e-07,4.78610792400804e-07,-5.970288343841398e-07,-2.104165962155765e-07,-1.090172709106329e-06,8.260530085504364e-07,2.7971314920707325e-06,1.6349086788827825e-06,1.6079866057455865e-06
-4.268027690813269e-07,-7.035923694338957e-07,-9.242807273377112e-08,-1.4028306016745377e-06,2.5629528345490865e-07,1.020565275316141e-06,9.331664291481229e-07,9.492735940377329e-07,-1.3489714778767228e-06,4.1899230504314645e-07,5.10813605795094e-07,-5.890032267637935e-07,-1.7973105593768058e-07,-1.0598338747265307e-06,9.532363635580721e-07,2.7507859463557077e-06,1.6496707734392728e-06,1.6121622175547217e-06
-4.2061616545208205e-07,-7.6168948608531e-07,-1.323823204892227e-07,-1.3934362414970353e-06,1.99001986381822e-07,1.0185330893941633e-06,9.085811011957644e-07,9.17162150974728e-07,-1.4522553795067382e-06,4.1660500202659625e-07,5.13262201728847e-07,-6.083864481303409e-07,-1.6242609977514798e-07,-1.0314788813288569e-06,1.0554983081010312e-06,2.6730936827225403e-06,1.6185805550782526e-06,1.5471761880665677e-06
-4.182859535876228e-07,-8.183295627861358e-07,-1.7307073563378893e-07,-1.36829154274019e-06,1.6474678621573657e-07,9.711214911123956e-07,9.082508446682023e-07,6.862711521992669e-07,-1.5518459391553744e-06,3.983790975994292e-07,5.018531610176697e-07,-6.55031376148495e-07,-1.680682865472411e-07,-1.0152080914799107e-06,1.145431045395273e-06,2.68984890091913e-06,1.5744617700199861e-06,1.4825405032896182e-06
-4.2403571925886117e-07,-8.690782091036851e-07,-2.1301611111939714e-07,-1.3323495633775093e-06,1.4885269918992012e-07,9.374026383759723e-07,9.53362137122182e-07,3.0320467200192353e-07,-1.6515332681089534e-06,3.722640395951582e-07,4.792023990121043e-07,-7.289632667319193e-07,-1.6332382554004755e-07,-1.006797659481485e-06,1.2059507348992735e-06,2.617681158966832e-06,1.5386235190188514e-06,1.4671929795233914e-06
-4.10236095437001e-07,-9.293425361099436e-07,-2.470191699503136e-07,-1.3165767906606596e-06,1.451788901246665e-07,8.953980004481724e-07,1.064146245072926e-06,-1.2835500254910652e-07,-1.599881162820591e-06,3.2746012337241055e-07,4.458421580967697e-07,-7.870973225290617e-07,-1.3466749295311658e-07,-9.67154002432718e-07,1.2193586647865045e-06,2.5550824223111464e-06,1.5364185826037088e-06,1.687150081134934e-06
-3.832918092188943e-07,-9.946955458111516e-07,-2.737307743648239e-07,-1.3297470097537085e-06,1.4701773949278694e-07,8.528649708142306e-07,1.192905965490545e-06,-5.024761965906578e-07,-1.3879037312467917e-06,2.9498855139828083e-07,4.7331003033316484e-07,-8.059991046537692e-07,-3.345224212454548e-08,-9.052417472653736e-07,1.2138531037188504e-06,2.5572489517358477e-06,1.64035102177397e-06,1.8299475885761917e-06
-3.351348740870939e-07,-1.115900302443723e-06,-2.986941765460966e-07,-1.3864067625830176e-06,1.4289149370738786e-07,8.421241700964997e-07,1.2796203380501906e-06,-7.257346546331243e-07,-1.0567851972838763e-06,2.705848846518194e-07,5.84403164940369e-07,-7.628427343743819e-07,1.3389989218198104e-07,-7.690602598861822e-07,1.1946204997974738e-06,2.57957392724393e-06,1.7100668479714249e-06,1.72267275455883e-06
-2.502730229620703e-07,-1.275419632069732e-06,-3.6066582832232316e-07,-1.4733265845529853e-06,1.1363928190635997e-07,8.466157381840969e-07,1.2872480085043006e-06,-7.178993909642947e-07,-7.227183014314759e-07,2.750218387696254e-07,6.67672596773509e-07,-7.013993567920735e-07,2.6682089407835353e-07,-5.333374008931451e-07,1.1798617404753359e-06,2.6327577842609554e-06,1.7628505184114183e-06,1.7535074616651905e-06
-1.765714237772452e-07,-1.416262151737814e-06,-4.935870097753122e-07,-1.5417990866891279e-06,3.6200600177524215e-08,8.637977983232237e-07,1.2427337039350267e-06,-4.2792411535468026e-07,-4.6910842768183003e-07,3.2650730524886145e-07,7.098921027740378e-07,-6.583350325901383e-07,3.3458271621217797e-07,-4.802576604192291e-07,1.1737297194145525e-06,2.6975172680135555e-06,1.8419680285221958e-06,1.8409885267597006e-06
-1.1848962681298886e-07,-1.5108625485677843e-06,-6.809736495880909e-07,-1.5754129850947821e-06,-1.2140196528394672e-07,9.002174189091429e-07,1.2311100588899839e-06,1.4470499195160437e-07,-2.723523192625555e-07,3.64526787248492e-07,7.682827716511564e-07,-6.247382233724615e-07,4.194525358344603e-07,-5.835121015805006e-07,1.1797704858706775e-06,2.777847535834414e-06,1.8640356269224143e-06,1.9096896165334903e-06
-6.367620089134402e-08,-1.6042978868396538e-06,-8.519432570972031e-07,-1.595091367124807e-06,-3.188056408676017e-07,9.758788899945645e-07,1.2547607406111427e-06,9.516055495472106e-07,-2.272703974305748e-08,3.6491894477051373e-07,8.154362957547379e-07,-4.748143019135221e-07,4.81668459438807e-07,-6.653594256373844e-07,1.181160566591991e-06,2.73667162716976e-06,1.890368998891058e-06,1.9772203990697026e-06
-3.4427046274554245e-08,-1.6704281407458059e-06,-9.934412122956017e-07,-1.5972071049654974e-06,-4.4079775326926937e-07,1.0500760029782025e-06,1.277961951717584e-06,1.8121649097377795e-06,3.1040168794800087e-07,4.2327664768459535e-07,8.813540633742693e-07,-3.29472757124985e-07,6.076878290779202e-07,-6.990829774294566e-07,1.187752503593458e-06,2.7349880450635688e-06,1.9475878579791456e-06,2.057885915911011e-06
4.954148391307e-09,-1.7687603272890234e-06,-1.1239824371693772e-06,-1.592572896212406e-06,-5.449473303972777e-07,1.1559799244617886e-06,1.233803521053071e-06,2.5789583672483095e-06,7.722928403498571e-07,5.096123056086227e-07,1.0021404622891761e-06,-1.86359379958142e-07,7.47824013727629e-07,-5.950228017566769e-07,1.223860561479861e-06,2.7631117544215953e-06,1.96978120372744e-06,1.951409023950309e-06
6.736919602278714e-08,-1.892005993846854e-06,-1.3606169879477996e-06,-1.5755758321042022e-06,-7.264343172900649e-07,1.2796839685862123e-06,1.1480879666169217e-06,3.12472870510266e-06,1.3693239125735538e-06,5.812590614390748e-07,1.0825036302563874e-06,-3.541524430023182e-08,8.757401602270033e-07,-4.347004748778003e-07,1.283556565194673e-06,2.8302221935479316e-06,2.029321263970336e-06,1.9716261576559345e-06
1.53425352988602e-07,-1.994649731601868e-06,-1.5332867394008758e-06,-1.5690375228579771e-06,-9.260146780358979e-07,1.3918293994040309e-06,1.1144229533147289e-06,3.3651469900414713e-06,1.9143876503301325e-06,6.630493700678533e-07,1.0914016380091967e-06,2.6548928873400565e-08,9.76807656960899e-07,-2.6811629500623353e-07,1.3487109956671016e-06,2.847482250238838e-06,2.034191777454143e-06,2.079396837038213e-06
2.2622941577813378e-07,-2.070049955330933e-06,-1.6180417749031134e-06,-1.5818302968469282e-06,-1.0694963720588297e-06,1.4896334395073727e-06,1.1052091018617007e-06,3.313675050396684e-06,2.2073051626138227e-06,7.468773400201475e-07,1.1019267785228912e-06,3.7704268311888275e-08,1.0341570869079149e-06,-1.1577810991687523e-07,1.4178772606521702e-06,2.7978765194053667e-06,2.0746453761043213e-06,2.070297642094308e-06
2.926183404977302e-07,-2.1363593385043875e-06,-1.7528628885938686e-06,-1.5999390361851227e-06,-1.166510307839165e-06,1.5397668653026318e-06,1.0411532030686273e-06,3.0471409317311385e-06,2.1256105581013746e-06,7.871743390509346e-07,1.1446503120599257e-06,3.703987678207822e-08,1.046032690906955e-06,-3.3408493185575355e-08,1.4871748985628163e-06,2.72854932324101e-06,2.103023853694325e-06,2.030822994593411e-06
3.538475441840123e-07,-2.2047754908173087e-06,-1.8675966318203932e-06,-1.601779475931557e-06,-1.2229710050954864e-06,1.5528036308862963e-06,9.965473216477857e-07,2.619105408578941e-06,1.6325404563409194e-06,7.910503894984208e-07,1.1773652828591885e-06,3.1414351676433784e-08,1.0477441365492265e-06,-1.1898708456467398e-08,1.5480747147662328e-06,2.6932632817286095e-06,2.063629249614436e-06,1.9680046833721373e-06
3.9960835865251087e-07,-2.2992717897615574e-06,-1.999266351397139e-06,-1.5773050980530952e-06,-1.294497164216467e-06,1.5512605416554805e-06,8.784460839904756e-07,2.090037656504554e-06,7.789482494176187e-07,7.998116411900075e-07,1.201918301605933e-06,3.850570282606318e-08,1.0497544022229048e-06,-1.6430775244567e-08,1.6030404247216122e-06,2.715318811577245e-06,2.088737363147831e-06,2.001917232705176e-06
4.763612785992837e-07,-2.373302955463321e-06,-2.0517220140954524e-06,-1.6069160864631478e-06,-1.3789458233664152e-06,1.5337052267547745e-06,8.202386538653379e-07,1.6087594406129346e-06,-1.509359336866766e-07,7.970830663132785e-07,1.1946277521169552e-06,4.305714315171925e-08,1.1129911073018662e-06,-1.3499436669529968e-08,1.6647490073380974e-06,2.71006755223673e-06,2.0996653490121494e-06,2.058139208898036e-06
5.348148861492591e-07,-2.427862428195126e-06,-2.029951265092897e-06,-1.6456172646186296e-06,-1.3980495968694562e-06,1.5134603064435376e-06,8.730690200764733e-07,1.1953002086816738e-06,-9.867764179857474e-07,7.602498423403637e-07,1.1997190560181587e-06,5.118336374738178e-08,1.1955038359657275e-06,1.3429551601705466e-08,1.7096400691008546e-06,2.6313793119259132e-06,2.107370090439878e-06,2.082007179960291e-06
5.91003166236981e-07,-2.414768015011537e-06,-2.018242464217077e-06,-1.6570565279477224e-06,-1.4224914515818544e-06,1.4687381628291933e-06,9.144357416851212e-07,8.520383511701462e-07,-1.603988857322795e-06,7.336591942358028e-07,1.240691683351589e-06,6.738529916831033e-08,1.2416862728549852e-06,3.732951372529611e-08,1.7380382033754858e-06,2.625522729828149e-06,2.0977509699219077e-06,2.0971200836352844e-06
6.277790609204582e-07,-2.4006946245840747e-06,-1.979796011732762e-06,-1.6775060467591513e-06,-1.4672063129996335e-06,1.3962848695170591e-06,9.276929500246604e-07,5.84207714806719e-07,-1.8638350920885896e-06,6.968195605088762e-07,1.2461583412746252e-06,8.47118598353712e-08,1.2522449661955953e-06,5.3547595992636386e-08,1.744897718379511e-06,2.7348768291299124e-06,2.0384424834574214e-06,2.1907148687727712e-06
6.460410448409575e-07,-2.397685646885325e-06,-1.9120014548234673e-06,-1.6823451960695279e-06,-1.4826115432679286e-06,1.30313402617856e-06,9.257425526291052e-07,3.525728919454459e-07,-1.7003358346555114e-06,6.595334613049672e-07,1.2278874974590019e-06,9.601080181722963e-08,1.2476796263173283e-06,5.8511385101731893e-08,1.728715771218621e-06,2.8480460085017714e-06,2.0504021318787316e-06,2.2499715527988755e-06
6.684998744777046e-07,-2.4092675571071856e-06,-1.879357388961889e-06,-1.6911251564242496e-06,-1.507336794146056e-06,1.1918392345255083e-06,8.413602987428586e-07,8.233334712979737e-08,-1.1174056900756601e-06,6.346473584105502e-07,1.2106611955502214e-06,9.497207183001098e-08,1.2385224351858154e-06,2.3348992798362014e-08,1.6971909449710036e-06,2.901999785161439e-06,2.1001545522314565e-06,2.2400035869553463e-06
6.941144658127877e-07,-2.4344187142246453e-06,-1.8668386130815566e-06,-1.7231987443907481e-06,-1.5372198291315822e-06,1.062034640504978e-06,6.969940717037965e-07,-1.9748386150073398e-07,-2.428756683849937e-07,6.065387291638282e-07,1.1840707444654867e-06,7.770377813014429e-08,1.2068300500794159e-06,-3.0246550354433765e-08,1.6510649583375573e-06,2.8629857710502317e-06,2.1931756825951466e-06,2.23617866110949e-06
7.06202408948664e-07,-2.4499094396949423e-06,-1.8710038577813007e-06,-1.7487053390753312e-06,-1.5610446756049617e-06,9.217874515168145e-07,5.321009691928463e-07,-4.6203969400671276e-07,6.788851709518189e-07,5.508474433547503e-07,1.1896201735096843e-06,4.3128116609859895e-08,1.1623083360453705e-06,-9.485222156726711e-08,1.592899194521402e-06,2.750831013692089e-06,2.2539218096740256e-06,2.3026287652010922e-06
7.248962173627195e-07,-2.453392570014432e-06,-1.8875090122636036e-06,-1.807455659947075e-06,-1.5938161656880048e-06,7.909364551640505e-07,3.43580310409804e-07,-7.253331899237648e-07,1.3006005339410631e-06,4.802412711590158e-07,1.184367948727166e-06,-6.8765699045342165e-09,1.1413973272960733e-06,-1.636255909217711e-07,1.533656877007733e-06,2.6853440695499645e-06,2.2571059711513336e-06,2.4345001898303387e-06
7.320451475484573e-07,-2.4450798347692957e-06,-1.8965388439647635e-06,-1.8819696589207627e-06,-1.6223938375021907e-06,6.53558099528677e-07,1.5112864851379163e-07,-9.128377082039672e-07,1.31282246642586e-06,4.1948341615492513e-07,1.1605269297394946e-06,-6.726219081825573e-08,1.0876063677858309e-06,-2.1229725943335553e-07,1.45204914948365e-06,2.646180173405593e-06,2.176658728276911e-06,2.5366252583279935e-06
7.17520584836382e-07,-2.4128654608694957e-06,-1.8986944454115415e-06,-1.9516816580813898e-06,-1.6271613780688057e-06,5.308450134002436e-07,-2.143519868557969e-08,-9.912016308914758e-07,6.308840144897398e-07,3.481169519644525e-07,1.1367522960937812e-06,-1.309669924208794e-07,1.0288932332581014e-06,-2.2930576914961623e-07,1.3529833967320837e-06,2.6465780230812646e-06,2.0950568773792254e-06,2.536362578855835e-06
7.007301105345166e-07,-2.366459464219702e-06,-1.8956937335165371e-06,-1.9970419388336625e-06,-1.6141306825953075e-06,4.336561019114499e-07,-1.7198028434281822e-07,-9.70349278651747e-07,-6.555417407623327e-07,2.8042080129279056e-07,1.097264765265992e-06,-1.9139293129839582e-07,9.75214642896517e-07,-2.2728960971847495e-07,1.2601647836729542e-06,2.6208924668993514e-06,2.0188313997383604e-06,2.4275377168330193e-06
6.753303817596034e-07,-2.3178739943479524e-06,-1.887378576788781e-06,-2.0000241364225655e-06,-1.6104725076486104e-06,3.640454713880075e-07,-2.8809829307661804e-07,-8.724336667572409e-07,-2.310257691117123e-06,2.1995154421926935e-07,1.0612976316256457e-06,-2.4428199485236396e-07,8.994097546625708e-07,-2.0801242753539866e-07,1.176913130721886e-06,2.565448120041277e-06,1.9128468584791132e-06,2.157297995010145e-06
6.4389869562386e-07,-2.261889251895041e-06,-1.8757514134072845e-06,-1.9880771255208605e-06,-1.6088807771833007e-06,3.2680703271256465e-07,-3.704113006971621e-07,-6.961770902552592e-07,-4.002710224777162e-06,1.5779791036091326e-07,1.0333855650596406e-06,-2.880481792910059e-07,8.051135608622898e-07,-1.836660823430136e-07,1.1313522682487464e-06,2.5586349288917567e-06,1.8482084574685702e-06,1.8104825426388814e-06
6.106856703467779e-07,-2.222563107341748e-06,-1.8625382331366133e-06,-1.962405134406395e-06,-1.6042401369535968e-06,3.1193921529928626e-07,-4.305509078015986e-07,-4.979809718173923e-07,-5.396240363382832e-06,9.971702762279284e-08,9.952129306549484e-07,-3.2262148504192167e-07,7.145043547870222e-07,-1.6786969074923375e-07,1.1234672996296983e-06,2.6014894664677368e-06,1.833594891873298e-06,1.528962196421071e-06
5.87877415262081e-07,-2.1942266034385718e-06,-1.8481696264626569e-06,-1.929067132759363e-06,-1.6033819248056703e-06,3.093336611955715e-07,-4.6197011104808297e-07,-2.979529138557402e-07,-6.1775205236284465e-06,6.017983245845592e-08,9.526372859834507e-07,-3.485035596948338e-07,6.2959677334371e-07,-1.6359134174894065e-07,1.1416059883325264e-06,2.710755651282293e-06,1.8565134379096768e-06,1.3844449732058421e-06
5.719978045070058e-07,-2.167976502665206e-06,-1.832547898924078e-06,-1.8996189460385064e-06,-1.599270050523437e-06,3.0754188141393294e-07,-4.86634926750785e-07,-6.61896246864555e-08,-6.228012541117127e-06,2.9475993988606292e-08,9.270636051760193e-07,-3.6694987211380285e-07,5.570411762777384e-07,-1.7094309517327485e-07,1.1708040974713872e-06,2.8612932028843284e-06,1.9337297860148642e-06,1.444356346096503e-06
5.647788778963383e-07,-2.1439605495637407e-06,-1.8165506294248387e-06,-1.8738488078935002e-06,-1.5904237979108502e-06,2.9612809579150037e-07,-5.136518571922367e-07,1.7830307859770112e-07,-5.617903677084562e-06,-1.8045631690515354e-12,9.005672492968389e-07,-3.8010263898615314e-07,5.136465704526856e-07,-1.7220987135330765e-07,1.1913549885149197e-06,2.986674059914612e-06,2.008366033563643e-06,1.7024142666355359e-06
5.612002505370482e-07,-2.1201780844730626e-06,-1.8029710454390297e-06,-1.8588180137343127e-06,-1.5809127956161764e-06,2.8997053293107695e-07,-5.445503274414644e-07,4.1707484369330743e-07,-4.593404682168959e-06,-2.21198517831245e-08,8.735716999694652e-07,-3.907708012915102e-07,4.700312241408402e-07,-1.4689621684438087e-07,1.201263528539405e-06,3.048409297472342e-06,2.037320530621449e-06,2.0853794369390833e-06
5.553516738373974e-07,-2.0996899649165146e-06,-1.7945104922789393e-06,-1.8616902458799059e-06,-1.5704324428611494e-06,2.8150197269469114e-07,-5.823660189735201e-07,6.30683844576739e-07,-3.4211142653498904e-06,-4.2392876384059986e-08,8.514544891142944e-07,-4.0116661596375995e-07,4.300392662510032e-07,-9.859520740834916e-08,1.1980117043363258e-06,3.0604740275749504e-06,2.021306602980061e-06,2.4842326165813945e-06
5.492111345137601e-07,-2.0803972025175658e-06,-1.7919668586764407e-06,-1.8843812009763513e-06,-1.554980457027668e-06,2.6411314406191967e-07,-6.202232985267747e-07,8.040250885929828e-07,-2.356114844163934e-06,-5.75000253162421e-08,8.255616456583349e-07,-4.120002624956466e-07,3.9631534017891853e-07,-3.4732324790662065e-08,1.1855787332225524e-06,3.018883759490252e-06,2.0025980081614873e-06,2.834801936136212e-06
5.423774086865216e-07,-2.0501607996644034e-06,-1.7947265740438395e-06,-1.9252352749087876e-06,-1.5455231356991323e-06,2.424875413387462e-07,-6.511171324395855e-07,9.317837209105968e-07,-1.5602257938243244e-06,-6.156243651272744e-08,7.984155228618167e-07,-4.224618029936289e-07,3.72743920957181e-07,2.24954576480318e-08,1.1625435573403516e-06,2.942774906778635e-06,1.980741947829522e-06,3.0465662781417824e-06
5.364485387189324e-07,-2.010337636655079e-06,-1.8012853599428607e-06,-1.9799696423518044e-06,-1.5468328022728278e-06,2.1839429685788689e-07,-6.683626037144028e-07,1.0353101713950172e-06,-1.075454669523545e-06,-5.3724412612632776e-08,7.772834787644284e-07,-4.3078665153502226e-07,3.707660183665568e-07,2.311073670731012e-08,1.1361258837824725e-06,2.8845444609177924e-06,1.9644296261784557e-06,3.093639569188911e-06
5.292583747349401e-07,-1.9667668486731332e-06,-1.8092384724501182e-06,-2.0285211961660354e-06,-1.5550408461853978e-06,1.8821331430213048e-07,-6.716415453273796e-07,1.130185894752137e-06,-9.033828507998271e-07,-3.6516517134948313e-08,7.609961206225602e-07,-4.3466730153669677e-07,3.9198615819692075e-07,-5.2543055541474425e-08,1.119378251778495e-06,2.8608325903378358e-06,1.9750149630605776e-06,3.0203887062872283e-06
5.213321381954549e-07,-1.921234013622977e-06,-1.8148774461174686e-06,-2.0674030575259014e-06,-1.5637231437753127e-06,1.6134227819746974e-07,-6.511258501286026e-07,1.2116110889735887e-06,-9.991851435928997e-07,-8.506864263256696e-09,7.478414891833426e-07,-4.3067382830873874e-07,4.29168458532746e-07,-2.0070032023082128e-07,1.117934781871902e-06,2.9012946907438314e-06,2.005705502907436e-06,2.8721134814719414e-06
5.186273514918145e-07,-1.8749195604656558e-06,-1.8129405455889497e-06,-2.1020010142334474e-06,-1.5635086251331163e-06,1.6023723021013852e-07,-6.051755537921779e-07,1.2691235536386637e-06,-1.272297764122801e-06,2.943696314243158e-08,7.450849444248829e-07,-4.151801389194404e-07,4.7065115563214e-07,-4.034128602767088e-07,1.1499777816350568e-06,3.020364786236786e-06,2.0764175366461724e-06,2.7070673868695775e-06
5.22591086238264e-07,-1.838969412332489e-06,-1.799216787049236e-06,-2.1233628056760262e-06,-1.5553339439929021e-06,1.808433405398859e-07,-5.39379073781003e-07,1.2851580157592628e-06,-1.6681096017775095e-06,7.14766084429745e-08,7.519186246022259e-07,-3.857421152063365e-07,5.112593403674211e-07,-6.162232887440532e-07,1.20054899306755e-06,3.1893673862075845e-06,2.1913464442751265e-06,2.5680563214199215e-06
5.323525355548906e-07,-1.812777998461095e-06,-1.7721326798176422e-06,-2.1225871664969276e-06,-1.536018253970903e-06,2.228250890134844e-07,-4.6045515806742874e-07,1.2363703229195932e-06,-2.1020919492682923e-06,1.0830885061991131e-07,7.635139898108421e-07,-3.4407399863289395e-07,5.374481798739783e-07,-7.941299798732918e-07,1.2567874092585805e-06,3.37643824946742e-06,2.328592995536882e-06,2.488334421130519e-06
5.45232310236671e-07,-1.7843031384423e-06,-1.733938529788169e-06,-2.1083249074452387e-06,-1.4891585973346863e-06,2.764827653784922e-07,-3.806654145653763e-07,1.0911363870903094e-06,-2.4472646539608376e-06,1.3418705234820967e-07,7.770967322193909e-07,-2.9603140476430927e-07,5.428714337020095e-07,-9.138381717461243e-07,1.3095976713603586e-06,3.5530903173759707e-06,2.454048896724071e-06,2.4859269756870796e-06
5.566915110996182e-07,-1.7491772035410149e-06,-1.6897365308749783e-06,-2.0812272729047188e-06,-1.4302145248665433e-06,3.225837073033714e-07,-3.17763036727493e-07,8.208198054845396e-07,-2.61846136674977e-06,1.4623162305711754e-07,7.830798310498431e-07,-2.504298540995976e-07,5.374733518400586e-07,-9.62505978821979e-07,1.34071887250618e-06,3.6813000460534492e-06,2.5398948788177784e-06,2.581550506939083e-06
5.631922385717938e-07,-1.7087457529519195e-06,-1.6451201146406877e-06,-2.0450856620483156e-06,-1.3734477113150071e-06,3.467949479844745e-07,-2.853879956894376e-07,4.139137415894653e-07,-2.605886895362974e-06,1.4520910338218472e-07,7.874409876079572e-07,-2.171211467744128e-07,5.082296425323672e-07,-9.443440245221276e-07,1.340710149029357e-06,3.7404875334671167e-06,2.5684197912670807e-06,2.7455100362158043e-06
5.634305133672222e-07,-1.6666299521248337e-06,-1.6057888507189005e-06,-2.0121962756472853e-06,-1.319186189403856e-06,3.3979013625637275e-07,-2.944272079922736e-07,-1.0997049850140943e-07,-2.505035640384644e-06,1.3553214759296325e-07,7.778911637241046e-07,-2.0267548632060403e-07,4.5496020081264513e-07,-8.768496119384989e-07,1.307012050037866e-06,3.7226068031901012e-06,2.5294672241781206e-06,2.924640071934071e-06
5.562322136963609e-07,-1.6302828642030482e-06,-1.5736311160319142e-06,-1.9883600206541853e-06,-1.2765088809763065e-06,2.9768951262137743e-07,-3.434597538609948e-07,-6.815028074661043e-07,-2.4480299688881085e-06,1.2078569723575997e-07,7.441588261444091e-07,-2.1332450379540858e-07,3.818655867245762e-07,-7.893105110161104e-07,1.2388298203359892e-06,3.6178709088470135e-06,2.4322419513981847e-06,3.073985461718779e-06
5.391532073564569e-07,-1.604880054006318e-06,-1.5527989318423076e-06,-1.9772070922163765e-06,-1.249367617327226e-06,2.2003947309354203e-07,-4.276033402119646e-07,-1.1870270797148313e-06,-2.5294541103738455e-06,1.0179662394245894e-07,6.917282348115241e-07,-2.4956717502299806e-07,2.9263543700262154e-07,-7.042641650231396e-07,1.1408042113691673e-06,3.4471999387019915e-06,2.3031271347928012e-06,3.1441548682496237e-06
5.124121040386633e-07,-1.5868639970257559e-06,-1.545683114842219e-06,-1.981892756059923e-06,-1.2351831795275896e-06,1.0808946424952868e-07,-5.389916712552187e-07,-1.50903992492607e-06,-2.740387690792447e-06,8.035626355178168e-08,6.209590109545857e-07,-3.0552722731981625e-07,1.9391346967274555e-07,-6.359437644551785e-07,1.0239842421905194e-06,3.2113813562108155e-06,2.1877922720576664e-06,3.122055100908428e-06
4.7739564514688e-07,-1.5709810482564754e-06,-1.5509853977753413e-06,-2.0032962353255846e-06,-1.2366772014205675e-06,-2.6857009880344655e-08,-6.645612087568206e-07,-1.5613156650208342e-06,-3.0471325478746094e-06,5.860930159939969e-08,5.462129592714832e-07,-3.7085930587903967e-07,9.322257752506007e-08,-5.757185269092624e-07,9.040039796549532e-07,2.976073520976348e-06,2.1082914333710974e-06,3.0107617729067063e-06
4.36993270613909e-07,-1.554873521211702e-06,-1.565194567348162e-06,-2.029190857604163e-06,-1.2601293186631913e-06,-1.708953957116757e-07,-7.918614631350027e-07,-1.3104208157638922e-06,-3.3740024171822417e-06,3.674986058288602e-08,4.78915568907102e-07,-4.322313577638593e-07,-2.9492018216181174e-10,-5.309722619192651e-07,7.933760820364295e-07,2.776571114514776e-06,2.074029540805483e-06,2.8270069838475854e-06
3.9435620773077106e-07,-1.5442657159230914e-06,-1.5821428782329654e-06,-2.048581569937631e-06,-1.2965038983414036e-06,-3.119898780397973e-07,-9.078189003408996e-07,-7.941304283394219e-07,-3.6997648309443115e-06,1.5441887109393935e-08,4.212633261971962e-07,-4.784606587987133e-07,-8.021107231067529e-08,-5.07214189858626e-07,7.153309805381876e-07,2.6382308650020566e-06,2.092610237064246e-06,2.6238896296437865e-06
3.531042835037892e-07,-1.529780377763513e-06,-1.5946164965094832e-06,-2.057087816768266e-06,-1.339160030769679e-06,-4.387447345195593e-07,-1.0044750937097074e-06,-1.2930303914780866e-07,-4.040300791648955e-06,-3.3461978303581067e-09,3.774003141206017e-07,-5.037392798496274e-07,-1.3900315333811053e-07,-5.017135280480697e-07,6.781459459046068e-07,2.589716653511462e-06,2.1496775759635195e-06,2.4467965598662038e-06
3.143150510536581e-07,-1.5037905575179406e-06,-1.5970417489501511e-06,-2.0653933350751354e-06,-1.384825831382121e-06,-5.455474827215306e-07,-1.0798588765275416e-06,5.147210360623759e-07,-4.374323110069866e-06,-1.9207866221717345e-08,3.505864546328744e-07,-5.091157334171447e-07,-1.775107621863031e-07,-5.220055257192894e-07,6.776086577394853e-07,2.6266929641437954e-06,2.228237984752678e-06,2.3504145374242116e-06
2.7971312473595306e-07,-1.4656490445062915e-06,-1.5889788092746577e-06,-2.072854268168568e-06,-1.4189296384150792e-06,-6.287959746525515e-07,-1.1313771424998445e-06,9.381040797853764e-07,-4.661127766664428e-06,-3.017492695784173e-08,3.420410939040407e-07,-5.004174324359545e-07,-1.961341432551508e-07,-5.682896091503146e-07,6.92413012445523e-07,2.730883174701364e-06,2.306904206379913e-06,2.3518543553399207e-06
2.521866383412686e-07,-1.4152117728550221e-06,-1.5727715275427848e-06,-2.0763132027521595e-06,-1.4347040657876435e-06,-6.793866225546814e-07,-1.16804703212799e-06,9.349330675978292e-07,-4.832675348133196e-06,-3.3947470538711304e-08,3.4257187330638425e-07,-4.86875246174457e-07,-2.0468519559591227e-07,-6.432120441543235e-07,7.10953940372002e-07,2.8611878951948113e-06,2.348295933457755e-06,2.439308992515639e-06
2.3340155789553606e-07,-1.3554778437115837e-06,-1.554452725888801e-06,-2.083552310361105e-06,-1.4281790519151847e-06,-7.008397379505832e-07,-1.1976079619913912e-06,7.747407307126898e-07,-4.806889163306098e-06,-3.077664927634676e-08,3.4154724037342764e-07,-4.783400349632648e-07,-2.1505871156061072e-07,-7.52511059494612e-07,7.196947326676228e-07,2.9642708760384633e-06,2.324930215228294e-06,2.53966686851126e-06
2.2476193857013883e-07,-1.2939766373194128e-06,-1.5409323965784444e-06,-2.097727358189376e-06,-1.3968022177721036e-06,-7.004254437846133e-07,-1.224024851057966e-06,2.2911370765169684e-07,-4.53919512401714e-06,-2.0885943970912863e-08,3.272149270889986e-07,-4.819728236610769e-07,-2.3618492434563683e-07,-8.915253850363059e-07,7.027359375916447e-07,3.0035785340286058e-06,2.2458745913095044e-06,2.436501903635732e-06
2.2681078027292474e-07,-1.2399003238314964e-06,-1.534091286873824e-06,-2.1195831945255562e-06,-1.3532064889017539e-06,-6.846728461771359e-07,-1.2511079986892356e-06,-3.623821407912555e-07,-4.0762063111034225e-06,-6.381186802713479e-09,2.927945430727385e-07,-5.011008424972034e-07,-2.7619479037514957e-07,-1.0391021814033102e-06,6.602425125806332e-07,2.966262568104195e-06,2.1300412812591994e-06,2.322569945456655e-06
2.3939353924868194e-07,-1.1938582126550476e-06,-1.5316902963057637e-06,-2.142286171514698e-06,-1.3129877674385407e-06,-6.636489563554633e-07,-1.2758721558095422e-06,-8.808458196880118e-07,-3.518899690756755e-06,1.0156463434936556e-08,2.3733774444155142e-07,-5.347486209420975e-07,-3.3691342793378205e-07,-1.1616973290996388e-06,5.837693485671596e-07,2.8593057305884187e-06,2.0018238877816217e-06,2.3018544568052343e-06
2.6107262665268636e-07,-1.1554779689174543e-06,-1.527699070113618e-06,-2.160797385079201e-06,-1.287881520386308e-06,-6.454872374625503e-07,-1.293627587174136e-06,-1.217042224814302e-06,-2.980388480996562e-06,2.6082080004989772e-08,1.615987928920915e-07,-5.788624137969037e-07,-4.078447065985088e-07,-1.2333603184773426e-06,4.925505483590863e-07,2.7146751839853423e-06,1.8888181782600536e-06,2.163786190554973e-06
2.891873693503817e-07,-1.1226765484164843e-06,-1.5144585080006123e-06,-2.1658237259594538e-06,-1.2828312076180982e-06,-6.364417408626003e-07,-1.2972279896291903e-06,-1.3262274569804078e-06,-2.5431052253722956e-06,3.9027779381547066e-08,7.571095530911904e-08,-6.286940971134703e-07,-4.779328540276841e-07,-1.2477339365163625e-06,4.072216597062587e-07,2.559203651047549e-06,1.8099963491719445e-06,1.997480861998581e-06
3.2033883568539945e-07,-1.090031107989827e-06,-1.4867430569275722e-06,-2.148122506527769e-06,-1.290189134588053e-06,-6.405524617145933e-07,-1.2847843123975357e-06,-1.224217200218509e-06,-2.222932808155042e-06,4.7738442044970636e-08,-1.0764833582339546e-08,-6.789781412257705e-07,-5.38353149685884e-07,-1.2132375542088889e-06,3.401680100454204e-07,2.423689468885681e-06,1.7686272983944002e-06,1.995685594043688e-06
3.515758347133496e-07,-1.0542400203393234e-06,-1.4422165722596388e-06,-2.1127293755054915e-06,-1.2946644729203061e-06,-6.591100421696077e-07,-1.2548860438400916e-06,-9.642190802862651e-07,-1.986023564224648e-06,5.289619106500833e-08,-8.856717964205557e-08,-7.254688977405899e-07,-5.803859011146026e-07,-1.1545123641266374e-06,3.068122009989163e-07,2.334460264226169e-06,1.7648502603915408e-06,1.9890403524396353e-06
3.8101147574765316e-07,-1.015089331623663e-06,-1.3839073596376054e-06,-2.0660435319561603e-06,-1.2842601381518196e-06,-6.861280244906453e-07,-1.2101111469191886e-06,-6.112607829902142e-07,-1.8070560270122562e-06,5.6654176574450256e-08,-1.492462041349918e-07,-7.65560252964291e-07,-6.016527910882477e-07,-1.0971450049314794e-06,2.9598143174839256e-07,2.314419749652391e-06,1.786505714493912e-06,2.0996196083396045e-06
4.0722847641311814e-07,-9.7449746691386e-07,-1.3212257935516747e-06,-2.017998384546225e-06,-1.2552512549071495e-06,-7.143643173924586e-07,-1.1592809836803744e-06,-2.252192716412887e-07,-1.6790754409257928e-06,6.109562082889239e-08,-1.8760886272766403e-07,-7.979484387878226e-07,-6.057299911900933e-07,-1.0647049787182011e-06,2.949814355798192e-07,2.3474205572544988e-06,1.8176990807415778e-06,2.1853288636459467e-06
4.28837057858128e-07,-9.361205329564381e-07,-1.26689855135912e-06,-1.9823013751065293e-06,-1.2105550539594715e-06,-7.388838514188397e-07,-1.1117449749453419e-06,1.5236912264054153e-07,-1.6181397844658265e-06,6.799279239987383e-08,-2.100228855530624e-07,-8.229961657178907e-07,-5.995141047304031e-07,-1.0672794970868446e-06,2.947324986247743e-07,2.4179213835936214e-06,1.84726979297763e-06,2.2369373265600377e-06
4.452855121725099e-07,-9.034927434736618e-07,-1.231010379050656e-06,-1.9688628192817886e-06,-1.159683775061646e-06,-7.571926860672914e-07,-1.0759900005031546e-06,4.940645354367523e-07,-1.6125782714978384e-06,7.811531234913137e-08,-2.2242953902141557e-07,-8.426971244452621e-07,-5.928666457352607e-07,-1.1098888366020015e-06,2.8787435194555014e-07,2.508317264440177e-06,1.8634871723790151e-06,2.2465141791744467e-06
4.5668700112076257e-07,-8.809640510490586e-07,-1.2168432215180417e-06,-1.9798222469659277e-06,-1.1113645727592645e-06,-7.703687327728617e-07,-1.0559191695947564e-06,7.677506397233698e-07,-1.600191716379362e-06,9.078365811163826e-08,-2.3052310294488035e-07,-8.60593367630237e-07,-5.959984833648645e-07,-1.1914692695132852e-06,2.6983721383018233e-07,2.5861974634864503e-06,1.8603032600218845e-06,2.2320077614280672e-06
4.643289750901817e-07,-8.696938346933287e-07,-1.2205724213864495e-06,-2.0068345820357654e-06,-1.0705129303318671e-06,-7.76638890842961e-07,-1.0513148047565077e-06,9.302834629726212e-07,-1.5034439444172351e-06,1.0463130151148313e-07,-2.4210969722048887e-07,-8.808335334743849e-07,-6.179221562445032e-07,-1.2995487423673849e-06,2.37624851523458e-07,2.639384536099642e-06,1.83199164378712e-06,2.2037520719926035e-06
4.688801037382955e-07,-8.670485077496483e-07,-1.2338284596937036e-06,-2.042804777096206e-06,-1.0417910714018693e-06,-7.78765141300586e-07,-1.0608778994077602e-06,9.422989359484135e-07,-1.2596831840941212e-06,1.1659469144418073e-07,-2.613187425460691e-07,-9.063979808369018e-07,-6.603981841343467e-07,-1.4164069663681461e-06,1.94436792528608e-07,2.642455165958259e-06,1.7858363249211627e-06,2.1700566075626412e-06
4.6987168114511476e-07,-8.68297055808884e-07,-1.2476034707135298e-06,-2.0765185799791075e-06,-1.02472066319327e-06,-7.814106064899739e-07,-1.0797621446666517e-06,7.932964275532343e-07,-8.607360353556228e-07,1.2279309202225245e-07,-2.880803325239936e-07,-9.361699186040998e-07,-7.17358096822226e-07,-1.5145816318795038e-06,1.3646826697955746e-07,2.583601090948048e-06,1.7313879177010919e-06,2.1370885113403346e-06
4.672717129459732e-07,-8.664643623411596e-07,-1.252368605772986e-06,-2.089010890182747e-06,-1.015038097360733e-06,-7.806073425379893e-07,-1.102580756229394e-06,5.035605491872623e-07,-3.7781266588858997e-07,1.203533989002076e-07,-3.192271806061601e-07,-9.638802387796228e-07,-7.770802567634453e-07,-1.5633432822501403e-06,7.111640633056652e-08,2.4698567211745878e-06,1.6818236376925026e-06,2.1280963345670374e-06
4.6210587688411877e-07,-8.476376992766616e-07,-1.2392815626176325e-06,-2.075641512180088e-06,-1.0074393707567235e-06,-7.722162175893084e-07,-1.1232539296802813e-06,1.2890135987597686e-07,4.8205568013203016e-08,1.0800323571380353e-07,-3.478640290487462e-07,-9.801286882612775e-07,-8.243133093253031e-07,-1.5371864583975376e-06,6.618719241359075e-09,2.3205904516058806e-06,1.6435214971749966e-06,2.16250918690027e-06
4.56166964846177e-07,-8.085064449810377e-07,-1.2035927093570315e-06,-2.0293155773284818e-06,-9.94389836961538e-07,-7.529650269517877e-07,-1.1352042283885281e-06,-2.4703136478848935e-07,2.816503363720815e-07,8.632701044958485e-08,-3.679737235218387e-07,-9.788377876018785e-07,-8.470858493133845e-07,-1.426717383020676e-06,-5.2922531599797843e-08,2.160411917641817e-06,1.614438944748113e-06,2.2332531423299205e-06
4.506305150276877e-07,-7.574174139527094e-07,-1.1467410935652372e-06,-1.9516542923870704e-06,-9.675826517297036e-07,-7.2181999775822e-07,-1.1349798085280979e-06,-5.424214098040366e-07,2.6746496059053076e-07,5.734664684032972e-08,-3.743463370831709e-07,-9.581273914732984e-07,-8.424662704926041e-07,-1.248654591722842e-06,-9.91999640958924e-08,2.0254230059236137e-06,1.5917657364598935e-06,2.3159785411736844e-06
4.458395377187424e-07,-6.951312648790914e-07,-1.0759299335586311e-06,-1.8512308026062154e-06,-9.220530050426382e-07,-6.83216359042753e-07,-1.1226592356293947e-06,-7.045069765317648e-07,4.749048961259613e-08,2.4572407320656138e-08,-3.6845736613752864e-07,-9.230103383943865e-07,-8.159168193522499e-07,-1.0428613366916568e-06,-1.3146047590592568e-07,1.948505545478184e-06,1.571577522180293e-06,2.372007615387336e-06
4.4154712523637935e-07,-6.297526842423323e-07,-1.001613756845711e-06,-1.7440906991986404e-06,-8.584072926968401e-07,-6.441469879373842e-07,-1.1011727151924086e-06,-7.236256565919143e-07,-2.8603721948149684e-07,-8.519831341414465e-09,-3.541421913257553e-07,-8.834537325405965e-07,-7.767351334469864e-07,-8.62461883475166e-07,-1.5129975503298018e-07,1.9504063258834926e-06,1.5557083487768745e-06,2.3773068398666884e-06
4.387148659596282e-07,-5.694383652310268e-07,-9.335448389158413e-07,-1.647385298621656e-06,-7.852941255529855e-07,-6.086416114553842e-07,-1.0727621611502507e-06,-6.279338535748814e-07,-6.578711605162277e-07,-3.8083139542229874e-08,-3.368172019388361e-07,-8.470887981300006e-07,-7.339159998065162e-07,-7.532431570794195e-07,-1.5952027339107096e-07,2.0329788919118077e-06,1.5438683858651228e-06,2.335923894582788e-06
4.377717170882319e-07,-5.176403977141869e-07,-8.766329671372712e-07,-1.571228603638413e-06,-7.179577042061567e-07,-5.775193266563679e-07,-1.0409358675734566e-06,-4.624277002747203e-07,-1.0463800401189987e-06,-6.089991005344181e-08,-3.199916558085049e-07,-8.203068001243043e-07,-6.944948717800917e-07,-7.469647403373586e-07,-1.6041769247640404e-07,2.174274991715093e-06,1.5340885137724741e-06,2.278000921271983e-06
4.381385452809392e-07,-4.788469143399214e-07,-8.331017223132525e-07,-1.5236948653218929e-06,-6.727547318700412e-07,-5.516713564834562e-07,-1.010894506068079e-06,-2.596389330228742e-07,-1.4889638622529478e-06,-7.610857801456927e-08,-3.0750757310309324e-07,-8.053763413425598e-07,-6.619169010384358e-07,-8.453995550274849e-07,-1.5691185519800766e-07,2.346680682038264e-06,1.5241263998619014e-06,2.232542112275704e-06
4.379011747086827e-07,-4.5665269069859023e-07,-8.037499771440229e-07,-1.5057704078707397e-06,-6.610207264721857e-07,-5.311679190748899e-07,-9.887528114143317e-07,-2.8325965052448443e-08,-2.0637968407263994e-06,-8.466601030879069e-08,-3.0583085516567876e-07,-8.017441862238222e-07,-6.381326117207749e-07,-1.018056370830671e-06,-1.533108992878215e-07,2.497261314998408e-06,1.5136286575921437e-06,2.2155059481967088e-06
4.3371624035345183e-07,-4.5023104958757624e-07,-7.882572590957628e-07,-1.5119799804742638e-06,-6.858214611263125e-07,-5.163425154403581e-07,-9.809871607750273e-07,2.38216215552353e-07,-2.832233263280244e-06,-8.875219035276064e-08,-3.155742874764343e-07,-8.061635506500706e-07,-6.242698624747098e-07,-1.2099942554571906e-06,-1.5384328614897522e-07,2.589301952467545e-06,1.5049946013886973e-06,2.2261866686423054e-06
4.227092667161233e-07,-4.5275826961789625e-07,-7.861498829820551e-07,-1.5333761989141432e-06,-7.432027839827276e-07,-5.084101683945146e-07,-9.926606952850326e-07,5.479504675043156e-07,-3.7496501744002093e-06,-9.099957665886363e-08,-3.3534440778946116e-07,-8.141392286496567e-07,-6.206312357957028e-07,-1.3585170695231946e-06,-1.6297858817676922e-07,2.6179716355918265e-06,1.5004740629321267e-06,2.24616722260825e-06
4.024613644621622e-07,-4.6423232082316194e-07,-7.973029014922653e-07,-1.5610647463650174e-06,-8.24391177598867e-07,-5.087589174576898e-07,-1.0270757808953237e-06,8.969291712473374e-07,-4.636098246068177e-06,-9.435680224767783e-08,-3.6395626934721225e-07,-8.217174550643895e-07,-6.262822412916854e-07,-1.415057731991277e-06,-1.800488483566937e-07,2.593070573023472e-06,1.5006887961664952e-06,2.2607394760455135e-06
3.7222692268674805e-07,-4.854688239336757e-07,-8.215986465863116e-07,-1.5874932523186213e-06,-9.183945454608887e-07,-5.190389393714553e-07,-1.0853209367475376e-06,1.2574570374685074e-06,-5.226750079411882e-06,-1.0093249436133116e-07,-3.988748019540911e-07,-8.261015698960837e-07,-6.389534224597612e-07,-1.363492025445845e-06,-2.0278909839722197e-07,2.5384991833841612e-06,1.5008738087755317e-06,2.260755276729061e-06
3.323657223982699e-07,-5.137028343277482e-07,-8.574928080267736e-07,-1.6089491363135266e-06,-1.0145221052114957e-06,-5.407817976281564e-07,-1.1679591907600093e-06,1.5714922166647767e-06,-5.287310977135787e-06,-1.1236176162686523e-07,-4.38758740616989e-07,-8.271690879080687e-07,-6.58325170510885e-07,-1.229751805690091e-06,-2.2685380077965202e-07,2.4818538662070446e-06,1.4958848044019695e-06,2.247477776930601e-06
2.858998451190089e-07,-5.491326252100735e-07,-9.012587779794463e-07,-1.625155347737501e-06,-1.1024347295970508e-06,-5.761624891401347e-07,-1.2698601124480356e-06,1.7565126604794785e-06,-4.7332983063114435e-06,-1.2872022808915682e-07,-4.812536481452705e-07,-8.251606805472807e-07,-6.821926624461486e-07,-1.0689695455714434e-06,-2.5181337943283855e-07,2.428744208197683e-06,1.4792120185456662e-06,2.2430897338663526e-06
2.374281493785471e-07,-5.883497884396999e-07,-9.466422926107115e-07,-1.6387508416280721e-06,-1.1757616709740471e-06,-6.222069590445738e-07,-1.3835389356788046e-06,1.7346604635400372e-06,-3.6710485728028903e-06,-1.483118697821529e-07,-5.226452427576501e-07,-8.212421460511009e-07,-7.072258950618186e-07,-9.443506546743914e-07,-2.773533134925566e-07,2.3831242991036364e-06,1.4609901137128236e-06,2.273742329369528e-06
1.9199551616289792e-07,-6.285312490530287e-07,-9.86572034261228e-07,-1.6470696726096481e-06,-1.233964569448245e-06,-6.744635453483878e-07,-1.5018250805523126e-06,1.4633873802039192e-06,-2.3537402082895465e-06,-1.6866839438309393e-07,-5.592560233971111e-07,-8.156383118625853e-07,-7.312884559889957e-07,-9.044487666227062e-07,-3.015967075534717e-07,2.340234546935301e-06,1.4479656192231716e-06,2.3587535071066167e-06
1.5353403227476903e-07,-6.667829888553781e-07,-1.0183314928931824e-06,-1.6513744102328226e-06,-1.2817336880547208e-06,-7.291069218691316e-07,-1.6184227650322516e-06,9.56500482982688e-07,-1.0956314719429038e-06,-1.8745552703175552e-07,-5.879928082348241e-07,-8.074404777247577e-07,-7.516540085495585e-07,-9.712125662829304e-07,-3.2426518359416436e-07,2.295017372589507e-06,1.45011591867113e-06,2.4979457818352827e-06
1.2296710365463465e-07,-7.009724387608863e-07,-1.0432540450229244e-06,-1.6563011840476776e-06,-1.3238657040983886e-06,-7.828260832603248e-07,-1.7300409509536041e-06,2.9127209027003834e-07,-1.8336024626128046e-07,-2.0321037558677468e-07,-6.093256097332427e-07,-7.966193017301877e-07,-7.670026366371244e-07,-1.1379432630030566e-06,-3.4065480273062343e-07,2.2479364170583576e-06,1.4753663008255726e-06,2.6641874663903427e-06
9.921816608203265e-08,-7.321729330179304e-07,-1.065066319980572e-06,-1.6671825228093682e-06,-1.3634064512004929e-06,-8.349504951770089e-07,-1.8345670341630407e-06,-4.069672607302152e-07,2.0136615680617688e-07,-2.1511867877655944e-07,-6.248214479208262e-07,-7.82830929163457e-07,-7.769354286644718e-07,-1.3710846706180803e-06,-3.5194120401858394e-07,2.1998038310609755e-06,1.5215632745122334e-06,2.823320643740062e-06
8.057892060081121e-08,-7.590631227652907e-07,-1.0874454305411916e-06,-1.6892770126785197e-06,-1.4008342628037608e-06,-8.864638617992393e-07,-1.929522400843969e-06,-1.0030666122969644e-06,1.2248100013215683e-08,-2.226411819785455e-07,-6.358074496859876e-07,-7.66378703620544e-07,-7.812883062096125e-07,-1.619307130922798e-06,-3.598050540691259e-07,2.1582735242863508e-06,1.57700478375083e-06,2.9450532294158098e-06
6.468636655909461e-08,-7.814573025661484e-07,-1.1116160172518011e-06,-1.7286697451345286e-06,-1.4307347552364811e-06,-9.393355138421066e-07,-2.0118687558273297e-06,-1.402833870527848e-06,-6.932448826044751e-07,-2.2568877665143383e-07,-6.428821914702263e-07,-7.486620149569238e-07,-7.799085991297648e-07,-1.8295782275409857e-06,-3.656435420870276e-07,2.1316261950283933e-06,1.6235336176075323e-06,3.0031814034283936e-06
5.075164124940284e-08,-7.981490166802267e-07,-1.137277868710143e-06,-1.7829770743280226e-06,-1.4506703780745633e-06,-9.957796044823937e-07,-2.0804101910939027e-06,-1.5888888225752866e-06,-1.8144223571156918e-06,-2.2500150451999418e-07,-6.47858340517968e-07,-7.318667970226962e-07,-7.732127749922411e-07,-1.958121833220884e-06,-3.7320333840857187e-07,2.1307451882560367e-06,1.6490504885410766e-06,3.000244971075122e-06
3.8002010238757235e-08,-8.071627579779621e-07,-1.1630612477816685e-06,-1.8468211025592204e-06,-1.4627917593615726e-06,-1.0586217635804913e-06,-2.1357372806211075e-06,-1.6176626947760196e-06,-3.2412708518038885e-06,-2.217204173433091e-07,-6.528482922139578e-07,-7.173127581034333e-07,-7.622103976419722e-07,-1.982425028906558e-06,-3.7935580919244734e-07,2.1696422415345843e-06,1.6438368081479512e-06,2.9499005272369403e-06
2.5675231864113698e-08,-8.071176448377511e-07,-1.1871832973760506e-06,-1.914344968377609e-06,-1.4719477613483802e-06,-1.1290317067326282e-06,-2.1795293073648473e-06,-1.5790014105589497e-06,-4.8439917720542126e-06,-2.1683157676690846e-07,-6.59993186598095e-07,-7.054881386289806e-07,-7.475426037979652e-07,-1.9033441459931605e-06,-3.804285802212068e-07,2.2564802076734295e-06,1.6162359442830795e-06,2.8485468215947635e-06
1.484675630178417e-08,-7.974897747647518e-07,-1.2071921737562034e-06,-1.976881967692216e-06,-1.484274786765863e-06,-1.205444724164836e-06,-2.2139061998635736e-06,-1.5480340106426847e-06,-6.446374333697603e-06,-2.1018810806906333e-07,-6.692078712522135e-07,-6.961694982885525e-07,-7.300621756406687e-07,-1.742479826505201e-06,-3.799947452646212e-07,2.3876787800440823e-06,1.5723766128294945e-06,2.6787949845293127e-06
5.8646829742039505e-09,-7.801634911023996e-07,-1.2222509224096438e-06,-2.026953757996074e-06,-1.5033938779095408e-06,-1.2843793466153004e-06,-2.239930557917852e-06,-1.5566432965329967e-06,-7.831287595162832e-06,-2.0186896829109225e-07,-6.796098380934809e-07,-6.880078731941047e-07,-7.113413901361839e-07,-1.5385488724996965e-06,-3.773015996186668e-07,2.506164633656173e-06,1.5181353760573762e-06,2.4551690374370877e-06
-1.2369728548831997e-09,-7.563319078369631e-07,-1.231163399298946e-06,-2.057599672215179e-06,-1.5277514629560574e-06,-1.3612927441839153e-06,-2.259241378395735e-06,-1.5960116344810956e-06,-8.796950032913768e-06,-1.928065609907547e-07,-6.899506111243507e-07,-6.796700948387705e-07,-6.942784098775697e-07,-1.3409336562356182e-06,-3.7366500148624234e-07,2.5913631064357134e-06,1.463014143544314e-06,2.136783754291989e-06
-6.700344562752548e-09,-7.278284725565606e-07,-1.2341013621310193e-06,-2.064192828334595e-06,-1.552454603895515e-06,-1.4320504075764144e-06,-2.270614935146171e-06,-1.6384792827448004e-06,-9.228557093019731e-06,-1.820312479783064e-07,-6.982120796488236e-07,-6.699303505348631e-07,-6.811334428286265e-07,-1.1967852102178383e-06,-3.7164795942906367e-07,2.626763911114977e-06,1.4174835744047874e-06,2.0061034508521285e-06
-1.0271352481185474e-08,-6.968575002098386e-07,-1.231905858967544e-06,-2.0436660105292183e-06,-1.5713740043977712e-06,-1.4927841045460837e-06,-2.2737663268008393e-06,-1.658352059645782e-06,-9.151947218494935e-06,-1.6830617157826938e-07,-7.024342550655469e-07,-6.579528069597178e-07,-6.731362182608273e-07,-1.1337177995223548e-06,-3.7110508705419286e-07,2.6171441125646845e-06,1.3851195119857857e-06,2.094193287488819e-06
-1.1048134472324567e-08,-6.637772766773808e-07,-1.2243680525601537e-06,-1.997745254232951e-06,-1.5790481376186446e-06,-1.539877447792411e-06,-2.2679382382843802e-06,-1.6406414273105427e-06,-8.732248718991743e-06,-1.5064535531617726e-07,-7.01646502783037e-07,-6.441584390314044e-07,-6.699490133614293e-07,-1.150418496762894e-06,-3.7078761686205696e-07,2.6117821602553794e-06,1.3726309548413913e-06,1.9819437874118488e-06
-7.450319486501019e-09,-6.291106606330426e-07,-1.2115221269880614e-06,-1.931347213681795e-06,-1.5730879500721834e-06,-1.5721715860646388e-06,-2.252115147678476e-06,-1.5838614288842988e-06,-8.193483867103063e-06,-1.2831442289720855e-07,-6.968056608622204e-07,-6.311537280101511e-07,-6.697455625227579e-07,-1.2188111349638583e-06,-3.6558304209318055e-07,2.5275473872103395e-06,1.3677816591849e-06,1.7876933809137562e-06
2.0486386474774685e-09,-5.94902619148827e-07,-1.194868253719077e-06,-1.8498975246764072e-06,-1.5541552400151144e-06,-1.5900206404715428e-06,-2.2278432394179666e-06,-1.4997673776075256e-06,-7.699092320370934e-06,-1.0172516638825723e-07,-6.908134892671826e-07,-6.21803389658424e-07,-6.718954577072577e-07,-1.2936483831812242e-06,-3.6019648388012886e-07,2.34695225953583e-06,1.337965884605961e-06,1.5839394924493547e-06
1.8867807180081053e-08,-5.623797224821774e-07,-1.1750303709908424e-06,-1.7618132224138473e-06,-1.5228309791608207e-06,-1.5947477813825897e-06,-2.1984943882947355e-06,-1.4048956614241415e-06,-7.286440494130427e-06,-7.140612048863709e-08,-6.867471376101033e-07,-6.154868401137279e-07,-6.767529610018544e-07,-1.3321811488456099e-06,-3.608245159384229e-07,1.9541548451320273e-06,1.2665084018059709e-06,1.3890151398414537e-06
4.3372401706061226e-08,-5.292618573308648e-07,-1.1514603966011783e-06,-1.6710565494301377e-06,-1.4815938853000206e-06,-1.5884249007053284e-06,-2.1689879830720677e-06,-1.3174741239707181e-06,-6.909325977670717e-06,-3.8574521214844344e-08,-6.858815914834591e-07,-6.137163683687647e-07,-6.842816934525467e-07,-1.309386461938087e-06,-3.769970295205337e-07,1.5052336090400565e-06,1.143200229268673e-06,1.2503115413171615e-06
7.844996482331258e-08,-4.956694180858045e-07,-1.1232482602986569e-06,-1.5863045205501668e-06,-1.435214233872438e-06,-1.5732052552517443e-06,-2.143661413969037e-06,-1.2650281945039877e-06,-6.53321267323841e-06,-3.6709824371685217e-09,-6.888600841000431e-07,-6.157791307731679e-07,-6.872240113515799e-07,-1.2303987607605486e-06,-4.1640439541822856e-07,1.2579733933395018e-06,9.611953922740092e-07,1.0460289101226557e-06
1.2255697885854405e-07,-4.607964517464538e-07,-1.08677097284388e-06,-1.5157402287419792e-06,-1.3867711286471172e-06,-1.5516258693343347e-06,-2.1254223665590808e-06,-1.2843552581329027e-06,-6.178086149109442e-06,3.189484873720307e-08,-6.946874242728223e-07,-6.258669690352261e-07,-6.860090257762484e-07,-1.1276686623099603e-06,-4.818157094546605e-07,1.2473880464583701e-06,7.249858029585652e-07,7.027650361173712e-07
1.7425469136471514e-07,-4.229474551797882e-07,-1.0469430960774213e-06,-1.4590847993457798e-06,-1.343391923477817e-06,-1.5265957144844298e-06,-2.1137824620751218e-06,-1.4047254649351522e-06,-5.8735074436485305e-06,6.452729725278158e-08,-7.01388099543557e-07,-6.397553377489627e-07,-6.805697119373133e-07,-1.0466839545135405e-06,-5.697537356119327e-07,1.189700083946285e-06,4.652510801931869e-07,4.858801850089791e-07
2.3214622364845992e-07,-3.820675090410629e-07,-1.0031909558932832e-06,-1.4170586772266187e-06,-1.3090831127871903e-06,-1.5007203019815102e-06,-2.105292552128123e-06,-1.6193441000849396e-06,-5.5940019267957465e-06,9.609608248564051e-08,-7.068744517183732e-07,-6.518854829289147e-07,-6.689474341648775e-07,-1.022183867500119e-06,-6.688127778529538e-07,9.95039784643364e-07,1.9828609933122768e-07,4.6386647530682123e-07
2.934194933591364e-07,-3.373003567246045e-07,-9.51277042839505e-07,-1.3865774867229882e-06,-1.2815917976044793e-06,-1.475275034530986e-06,-2.0951009476965074e-06,-1.873905836443719e-06,-5.251904406682317e-06,1.2568935257141792e-07,-7.073733124606457e-07,-6.583311127131987e-07,-6.501470874744562e-07,-1.0621221337027664e-06,-7.680036227815408e-07,6.630119503147624e-07,-2.40218752714667e-08,4.115878263310934e-07
3.612618603274236e-07,-2.8942571706050954e-07,-8.910519556749247e-07,-1.3628460124399453e-06,-1.2523660141833047e-06,-1.450543219348954e-06,-2.078875403898528e-06,-2.0886422510065428e-06,-4.752488810271884e-06,1.5291436672439316e-07,-6.993257725993812e-07,-6.536973363890461e-07,-6.233866887610633e-07,-1.1460621319552273e-06,-8.552903354770173e-07,4.989242640732492e-07,-1.4246975985794284e-07,3.918701752120422e-07
4.313932279262569e-07,-2.343586730517777e-07,-8.23492462459833e-07,-1.3413858545623872e-06,-1.2134439528256594e-06,-1.4263781889816816e-06,-2.0550428817630003e-06,-2.193112050992058e-06,-4.059770984401418e-06,1.7869159988716452e-07,-6.815795422229768e-07,-6.382155252292962e-07,-5.881317057733559e-07,-1.238876187046139e-06,-9.210270543478985e-07,4.431071831745429e-07,-1.353218772027431e-07,2.9812778356710655e-07
4.988081617766442e-07,-1.736081345642675e-07,-7.484175486988679e-07,-1.3193750946218167e-06,-1.162574096949705e-06,-1.4024912880678739e-06,-2.025113371911497e-06,-2.158793631114966e-06,-3.2195690282093835e-06,2.025826414402014e-07,-6.548864108578814e-07,-6.136444451535075e-07,-5.49906329779971e-07,-1.3001552554652568e-06,-9.67946602620731e-07,3.4872529074667944e-07,-1.5475832216838548e-07,1.2567435391359311e-07
5.567325864455673e-07,-1.1241378489827582e-07,-6.743284077939082e-07,-1.2952344419297292e-06,-1.1009596582563047e-06,-1.3786713143246137e-06,-1.992375211133112e-06,-2.0159109155652792e-06,-2.3385780975130415e-06,2.2283563902320151e-07,-6.214170713976523e-07,-5.825877426790117e-07,-5.116549372843323e-07,-1.29747235920102e-06,-9.958388511988358e-07,4.3973476856189e-08,-2.5876982567436505e-07,-4.825225337003798e-08
6.030932488916608e-07,-5.531674409227936e-08,-6.086978896746646e-07,-1.2696641330289193e-06,-1.0364512479077189e-06,-1.354971809338146e-06,-1.9619859120165796e-06,-1.8466694405379694e-06,-1.5622372970509782e-06,2.418625378767241e-07,-5.816736278475917e-07,-5.461501131497586e-07,-4.734562232229467e-07,-1.2048052486248158e-06,-1.007845719363187e-06,-2.4923496032170455e-07,-3.3896984157173086e-07,-1.977268600612994e-07
6.367969942347156e-07,-8.695445016533407e-09,-5.522040871201514e-07,-1.2477101554684988e-06,-9.800405302701872e-07,-1.3326476692253666e-06,-1.9392407855349056e-06,-1.7529820264071495e-06,-1.0574019492061005e-06,2.612518125109648e-07,-5.394725673667058e-07,-5.069612969026877e-07,-4.3993483163329794e-07,-9.863614589795044e-07,-1.0125689462891475e-06,-4.896901093285827e-07,-3.9495043992254385e-07,-2.6780595397086133e-07
6.595269046217259e-07,2.8373243419545682e-08,-5.070108856046949e-07,-1.234587926627076e-06,-9.413516603850039e-07,-1.31499909787405e-06,-1.9296127065182786e-06,-1.8109407483495967e-06,-9.793288963364403e-07,2.7997724260650725e-07,-4.93828768138461e-07,-4.683501080215635e-07,-4.109474643056551e-07,-7.600125443497468e-07,-1.0129222578883754e-06,-6.486959865323177e-07,-3.942813613951361e-07,-2.722634841960049e-07
6.745767197122778e-07,5.647745791498365e-08,-4.7385668525287123e-07,-1.2337213798776925e-06,-9.265026140288288e-07,-1.3068702301732751e-06,-1.9373653484082143e-06,-2.0291844510791434e-06,-1.4215078640062723e-06,2.985952933203064e-07,-4.507950125651375e-07,-4.3389738895635244e-07,-3.8839255782852005e-07,-4.755017179442732e-07,-1.0215629656692055e-06,-6.73779439006792e-07,-3.5439332076120856e-07,-2.810714304965559e-07
6.824843052517406e-07,7.694249833283552e-08,-4.5226926873854804e-07,-1.247552577177711e-06,-9.365916266690523e-07,-1.3129708435458528e-06,-1.9638785527879025e-06,-2.332437865706292e-06,-2.3530246099616958e-06,3.164053259606247e-07,-4.17739636565944e-07,-4.0902249887087656e-07,-3.7512562908062745e-07,-2.79282970353088e-07,-1.047908120145953e-06,-6.22473178267088e-07,-2.92942419675914e-07,-3.29740519032359e-07
6.86778867642252e-07,8.926109360233316e-08,-4.410939665332172e-07,-1.2721826243549048e-06,-9.633606312991297e-07,-1.3362441738252403e-06,-2.006916161373962e-06,-2.5844132023401367e-06,-3.583251214698356e-06,3.3279093663847746e-07,-3.9914826117010477e-07,-3.9894766012692004e-07,-3.694164157943522e-07,-2.0864522279079037e-07,-1.0969027871506123e-06,-5.364696012344693e-07,-2.0677281667839932e-07,-4.344808579104888e-07
6.90883566617657e-07,9.306014579623306e-08,-4.3781895218358846e-07,-1.2987524152034906e-06,-9.916080893979661e-07,-1.3771737552477416e-06,-2.061520691473799e-06,-2.6410479116936773e-06,-4.796531303979844e-06,3.4740006519380344e-07,-3.958255088625337e-07,-4.0582846221209976e-07,-3.733919599458036e-07,-3.178588147238681e-07,-1.1708195401677623e-06,-4.521766249969704e-07,-1.5385207980053416e-07,-5.944912714498939e-07
6.962800912611755e-07,9.168511400924818e-08,-4.387283699720863e-07,-1.319856644419732e-06,-1.0092052474668101e-06,-1.433654663208467e-06,-2.123749169351714e-06,-2.4139919624888053e-06,-5.657578060758727e-06,3.5890683271371443e-07,-4.0620347968749926e-07,-4.285173685422555e-07,-3.8846222704012824e-07,-4.0598284176653345e-07,-1.268207271029709e-06,-4.825237771660857e-07,-1.4128127760916532e-07,-7.783773015037955e-07
7.038373344928254e-07,8.910572142886503e-08,-4.3815914356168344e-07,-1.3318816506803227e-06,-1.0065334799381356e-06,-1.500669004946223e-06,-2.189499281380491e-06,-1.9168548948564484e-06,-5.9313821121701045e-06,3.653719001938759e-07,-4.25895966846818e-07,-4.589997628195252e-07,-4.108077920242941e-07,-4.294437842729506e-07,-1.3831410724618727e-06,-5.857292950859563e-07,-1.5661842331852804e-07,-9.270545286715828e-07
7.12974326926418e-07,9.095389143999622e-08,-4.281978141884589e-07,-1.3279900093742373e-06,-9.804810211937688e-07,-1.5700614189896888e-06,-2.2531290037000388e-06,-1.2647555510503082e-06,-5.556219724474928e-06,3.669188986432716e-07,-4.4615715984640454e-07,-4.862538666299117e-07,-4.3208106353542316e-07,-6.252334190139206e-07,-1.5050826442750845e-06,-7.024796691121689e-07,-1.9556066025762253e-07,-1.0133515253949104e-06
7.233324427603011e-07,1.0067962589734558e-07,-4.0222470969470465e-07,-1.3083897459125268e-06,-9.343537849513678e-07,-1.631901359121714e-06,-2.3067099517034334e-06,-6.164875911337477e-07,-4.644670721510072e-06,3.654870754337666e-07,-4.599467205408775e-07,-4.994425799299975e-07,-4.428288199263447e-07,-8.607925736698464e-07,-1.623933556097643e-06,-8.1270851655409e-07,-2.425062289231446e-07,-1.0226027195551231e-06
7.359200570367731e-07,1.1762758268814486e-07,-3.579909543785999e-07,-1.2744735866068016e-06,-8.723585059030326e-07,-1.6779027801979702e-06,-2.3416698636382067e-06,-1.0359405484019677e-07,-3.4237960695430643e-06,3.658288888725294e-07,-4.64217133624189e-07,-4.957970745371406e-07,-4.3750357936709985e-07,-1.004457371147803e-06,-1.7296106694763645e-06,-8.546758287751116e-07,-2.940025869520259e-07,-9.4609439391298e-07
7.501120565016533e-07,1.3821639680296657e-07,-3.014741202170662e-07,-1.2349113363717777e-06,-7.991207269422234e-07,-1.7047642730766741e-06,-2.3531012782696057e-06,2.1687899673591687e-07,-2.1703506317170424e-06,3.7279727126615147e-07,-4.5661156467703727e-07,-4.770022678296964e-07,-4.175215709306742e-07,-1.1029087880025879e-06,-1.8172516423832948e-06,-8.211812656782466e-07,-3.4644721851611036e-07,-8.124540386067422e-07
7.657432651451913e-07,1.5552605581275384e-07,-2.4184328570942885e-07,-1.2007532308238918e-06,-7.180880610782526e-07,-1.7146815101536517e-06,-2.3421325148938925e-06,3.6063078884886817e-07,-1.1662671490072056e-06,3.881652620532638e-07,-4.4073717742361525e-07,-4.497293581960579e-07,-3.9163015240474547e-07,-1.1031562121658383e-06,-1.8835611195041444e-06,-7.389069089255471e-07,-3.951590958542716e-07,-6.555024729116224e-07
7.828507634779051e-07,1.6507446707288807e-07,-1.9070900297414853e-07,-1.1781210881235265e-06,-6.34263967420602e-07,-1.7128418291724635e-06,-2.3148145597996146e-06,3.7980732120073175e-07,-6.540165052849788e-07,4.1228597440133215e-07,-4.221566359311401e-07,-4.212458380390556e-07,-3.647603358755991e-07,-1.009994135654153e-06,-1.9245591396642977e-06,-6.303672624132011e-07,-4.362967179216376e-07,-5.054147720117071e-07
8.022433014484781e-07,1.653184031187089e-07,-1.5466966916078227e-07,-1.1674552858418558e-06,-5.548811328044797e-07,-1.7042886712922645e-06,-2.2781621838968277e-06,3.1735015566424255e-07,-7.668839753327948e-07,4.4260715105826497e-07,-4.071518450672832e-07,-3.957568235230476e-07,-3.409433998268242e-07,-8.651402393647611e-07,-1.9392345250115177e-06,-5.214956800267544e-07,-4.676922768322315e-07,-3.8551368076169673e-07
8.232524958024123e-07,1.5804068165660796e-07,-1.3474880395967976e-07,-1.164092417827676e-06,-4.875999081485185e-07,-1.6923222821218076e-06,-2.2390151237850013e-06,1.7719370391832363e-07,-1.451101739916895e-06,4.7431356853881316e-07,-3.956260746211456e-07,-3.7490392437634886e-07,-3.204613462224916e-07,-6.885018907856514e-07,-1.9297479227159668e-06,-4.3395289785402935e-07,-4.888329287655513e-07,-3.083970580006109e-07
8.440734552952126e-07,1.4740120897860416e-07,-1.2963057495411982e-07,-1.1624990023867996e-06,-4.372866375716339e-07,-1.6784647117143962e-06,-2.2018271298523297e-06,-6.090476246325214e-08,-2.453025638644836e-06,5.023467273808637e-07,-3.8382988079204823e-07,-3.5676083167536385e-07,-2.992338973394144e-07,-5.351190623007096e-07,-1.9029301343272697e-06,-3.7561393400077693e-07,-5.009379256231696e-07,-2.7665112274415706e-07
8.618450139969745e-07,1.3566163836941357e-07,-1.3507689140632336e-07,-1.156046128130248e-06,-4.029730933888405e-07,-1.6629332617780985e-06,-2.169008166959769e-06,-3.9756164430566714e-07,-3.409407324420693e-06,5.220002286534312e-07,-3.727804813588587e-07,-3.381536377114034e-07,-2.752377462658007e-07,-4.3390528797593246e-07,-1.8694183216577695e-06,-3.447516264004354e-07,-5.056809537151514e-07,-2.941764348424554e-07
8.743810461340431e-07,1.2416709149638202e-07,-1.459037232492393e-07,-1.1499760286477406e-06,-3.783762651942652e-07,-1.6451101042877474e-06,-2.141334496363814e-06,-7.829348992465107e-07,-3.997116570687061e-06,5.299550040122008e-07,-3.601070170219524e-07,-3.1095993409397936e-07,-2.530862789400938e-07,-3.9133243898326184e-07,-1.838410735594569e-06,-3.3056548907588687e-07,-5.042929463539763e-07,-3.464776059659379e-07
8.802300479354667e-07,1.097594094756752e-07,-1.5691284928546048e-07,-1.1392014380690217e-06,-3.552262162115902e-07,-1.6242039948841774e-06,-2.1186111790714823e-06,-1.1302491530084425e-06,-4.050885483460554e-06,5.250189121938922e-07,-3.462528864129516e-07,-2.730574536837138e-07,-2.2088455763381402e-07,-3.8792989989965446e-07,-1.8147555621727752e-06,-3.185461443233416e-07,-5.002516636156184e-07,-4.1117080216245705e-07
8.757387234866877e-07,1.0301884112329143e-07,-1.6800856924051715e-07,-1.1273403797439052e-06,-3.311510202384588e-07,-1.6002075298693457e-06,-2.102050923313113e-06,-1.3578940803354408e-06,-3.5850630179650337e-06,5.070196337439386e-07,-3.3039769188179273e-07,-2.299347808541895e-07,-1.7932077938716297e-07,-3.971118455967801e-07,-1.8019214181093685e-06,-2.877872588012707e-07,-4.980045505317648e-07,-4.6339672072876e-07
8.701476559375989e-07,1.0215994182011435e-07,-1.7363053012752554e-07,-1.1272502787109735e-06,-3.112309340739123e-07,-1.574588915039089e-06,-2.0946451889116174e-06,-1.4252599923914949e-06,-2.73389435204822e-06,4.866739777084158e-07,-3.1480996174707873e-07,-1.8291697992116802e-07,-1.292632752414052e-07,-3.9651301892424946e-07,-1.8016608938547917e-06,-2.176445423063365e-07,-5.018990895254434e-07,-4.80944590494157e-07
8.615696013614562e-07,9.812843690952787e-08,-1.7855954373713155e-07,-1.143546096935562e-06,-3.0125540760609406e-07,-1.5499461318016704e-06,-2.099038872568123e-06,-1.3439717666262826e-06,-1.688124102694896e-06,4.639673374337911e-07,-2.9990118335091165e-07,-1.3594250340132793e-07,-8.216588144423206e-08,-3.667459407968885e-07,-1.8135791847867113e-06,-1.0433342820760452e-07,-5.138410092689524e-07,-4.54578953709341e-07
8.515667505980501e-07,9.358901272721764e-08,-1.833393331267858e-07,-1.1674588618077785e-06,-3.1790491837451875e-07,-1.5287509911297035e-06,-2.1145413751650152e-06,-1.1668218334491997e-06,-6.692907735100695e-07,4.4420244349515983e-07,-2.820996744870025e-07,-9.194459247439059e-08,-4.183022697040455e-08,-3.0938433604567656e-07,-1.8352552632128997e-06,2.1815874461032338e-08,-5.372478967580357e-07,-4.0442738024507437e-07
8.394137371300623e-07,8.851183055382763e-08,-1.7916813220188388e-07,-1.2001917383864103e-06,-3.505099882653021e-07,-1.5124275844658408e-06,-2.1360241652871974e-06,-9.623159499084642e-07,8.863261335968907e-08,4.3575565056513665e-07,-2.647952025975515e-07,-5.730851429534714e-08,-1.2593635861809503e-08,-2.3790880380284945e-07,-1.8632000065219633e-06,1.2991968864552918e-07,-5.713316141099321e-07,-3.2523515757248334e-07
8.290007462666079e-07,8.187949772733075e-08,-1.6862004685228386e-07,-1.2398230453187207e-06,-3.994663132420087e-07,-1.501650527756675e-06,-2.1560088210698674e-06,-7.895737831314325e-07,3.828513069226187e-07,4.3237012017444555e-07,-2.4991376722045467e-07,-3.3871242402505746e-08,6.950642749157647e-09,-1.6974067428988744e-07,-1.8949469160948471e-06,2.0564995093649182e-07,-6.199027057727527e-07,-2.2337061885153438e-07
8.257195733564225e-07,7.616348949531794e-08,-1.5662648652227565e-07,-1.281321561819461e-06,-4.651092769244184e-07,-1.497348840126562e-06,-2.1696273420506164e-06,-6.856297333055861e-07,1.0522337412284005e-07,4.3793059529176346e-07,-2.3809414197271995e-07,-3.2643601670962e-08,2.0114593926240346e-08,-1.2249100612164863e-07,-1.93093180657342e-06,2.3775774312877675e-07,-6.929890771935694e-07,-1.1939541452138156e-07
8.221997033034443e-07,7.291064461434017e-08,-1.4876416277522231e-07,-1.3227764325644368e-06,-5.372391561739092e-07,-1.5012043798320864e-06,-2.178157891685e-06,-6.696360216653237e-07,-7.009907210366853e-07,4.546073805989021e-07,-2.328026593947732e-07,-5.3763091312995207e-08,2.055966787839199e-08,-1.1296540569778203e-07,-1.97430216914486e-06,2.2490813334297796e-07,-7.953008943136925e-07,-3.3233230877047246e-08
8.26843991799952e-07,5.909879319432837e-08,-1.5164993014919572e-07,-1.3615199341409381e-06,-6.10943169673974e-07,-1.5149450003772834e-06,-2.1881665057095845e-06,-7.460443638687886e-07,-1.8249634766332376e-06,4.80618124819602e-07,-2.3528975160617855e-07,-9.355762813570595e-08,7.443694610296528e-09,-1.4387960558657787e-07,-2.0279631753154163e-06,1.5443294331692195e-07,-9.283587352555097e-07,4.263725775469912e-09
8.409391014781708e-07,3.736367188012185e-08,-1.7649340535748123e-07,-1.3922261649538032e-06,-6.695757943571214e-07,-1.5386639206974617e-06,-2.207246129068177e-06,-8.933595942330045e-07,-2.9363262827016766e-06,5.179045328652105e-07,-2.4523980870537683e-07,-1.51773927429284e-07,-1.896672250302797e-08,-2.158859127651661e-07,-2.0896961104048074e-06,1.6883806513386582e-08,-1.082015470536919e-06,-3.4350790441759704e-08
8.692377270179501e-07,1.2864682207156374e-08,-2.1214577733925886e-07,-1.4118062085425829e-06,-7.017369562646253e-07,-1.5689551126004607e-06,-2.2390342895116793e-06,-1.0555429985921898e-06,-3.6923016347689585e-06,5.57188449422819e-07,-2.5753890001562574e-07,-2.2037762180233898e-07,-5.362291266250415e-08,-3.2903231612513203e-07,-2.1545995450003846e-06,-1.7992589001667497e-07,-1.2379113000471039e-06,-1.673358816914889e-07
9.064090875112849e-07,-7.296942199080632e-09,-2.511875846937905e-07,-1.4210211054176248e-06,-6.970033747399697e-07,-1.597920064642291e-06,-2.279394643795445e-06,-1.1546750278144496e-06,-3.863581912269497e-06,5.92470786007687e-07,-2.6883182924756917e-07,-2.862370152002253e-07,-8.892231697574107e-08,-4.603892434662587e-07,-2.2141559239793782e-06,-4.099974546936052e-07,-1.3425645527430853e-06,-3.973035528944928e-07
9.5273777586861e-07,-1.4038467997506851e-08,-2.795046645659707e-07,-1.411746359049604e-06,-6.533884057001011e-07,-1.6140777067306537e-06,-2.3167764707352593e-06,-1.1251170031354067e-06,-3.410298509395848e-06,6.195874810338783e-07,-2.7196241331110925e-07,-3.177935782157652e-07,-1.1322766160927157e-07,-5.865549508024636e-07,-2.257973261867106e-06,-5.765399557704257e-07,-1.3800421607509171e-06,-7.098656107169932e-07
9.985193309271151e-07,-9.169890103276391e-09,-2.7808471237605717e-07,-1.3776773221313783e-06,-5.750478930545123e-07,-1.6056860811165928e-06,-2.3361806365625292e-06,-9.462203090433952e-07,-2.4724062558427704e-06,6.334547172629665e-07,-2.675440920097509e-07,-3.2473210197231147e-07,-1.1814495852412441e-07,-6.75377576524619e-07,-2.2796664674188895e-06,-5.933713328743369e-07,-1.3428886112692266e-06,-1.0544222194652284e-06
1.0307062300572244e-06,1.9346107781050918e-08,-2.4181573041430795e-07,-1.3136011568441657e-06,-4.78956759738177e-07,-1.5655127294935263e-06,-2.3254240501409014e-06,-6.581327361085023e-07,-1.2986463162008049e-06,6.349959356366539e-07,-2.498109998152564e-07,-2.6932580484473274e-07,-8.533469857166205e-08,-6.581809744739546e-07,-2.274712032810982e-06,-3.967751398796313e-07,-1.2337663238481496e-06,-1.355917287802214e-06
1.0657822376680999e-06,8.1198491446099e-08,-1.8126007865581212e-07,-1.2223052249720538e-06,-3.7660425168283877e-07,-1.4923594186700055e-06,-2.2827198883258768e-06,-3.5176501026239565e-07,-1.55064266254397e-07,6.376963385466272e-07,-2.1791309997934507e-07,-2.1430725221624312e-07,-3.136597710982747e-08,-5.908809883147771e-07,-2.244348508971773e-06,-2.5907911313668245e-07,-1.151883918253765e-06,-1.538892985454631e-06
