0,1,2,3,4,5,6,7,8,9,10,11,12,13,14,15,16,17
-1.7802430277218778e-07,-1.7921019126670474e-07,-1.8937138689629938e-07,9.445836176488642e-08,-6.153633554937711e-07,-2.1179870801447516e-07,-3.862718621776505e-07,-9.291865532274656e-08,1.798524386228999e-08,4.83041038590356e-08,-1.330998574472633e-07,-9.854241046584979e-08,4.200849713592056e-08,-2.9906458773433177e-07,3.3984006594942306e-07,7.53441722648873e-08,-2.2491960842268242e-07,3.389223681933434e-09
-1.5383182049124216e-07,-1.5142674832992437e-07,-1.3736581099688802e-07,1.1575431233288992e-07,-5.649243554641383e-07,-1.9865635021531752e-07,-3.6602643752121325e-07,-8.194628290435217e-08,2.4454541025877114e-08,3.3300126974667254e-08,-1.1530396486940993e-07,-1.1038384876128324e-07,2.257678898772049e-08,-2.9309384844441666e-07,3.4185680542157134e-07,5.6940238596773035e-08,-2.18504435543982e-07,8.752394203165747e-10
-1.228347856862778e-07,-1.226459152024711e-07,-9.384268863237464e-08,1.2706130596176229e-07,-5.051610556777201e-07,-1.6600875596771383e-07,-3.220664004409506e-07,-6.472488727788595e-08,4.016924450230407e-08,2.004829839138771e-08,-9.038127487389084e-08,-1.0430143074024719e-07,8.160470598901421e-09,-2.6956568859005895e-07,3.394270191303904e-07,4.823432581937004e-08,-2.0293311982415108e-07,-8.228633221146518e-10
-9.194146101507239e-08,-9.75221790523496e-08,-6.466219993392416e-08,1.1856053110816329e-07,-4.374503723613331e-07,-1.1605367184503386e-07,-2.549908017803807e-07,-4.449367152678935e-08,6.036308010032856e-08,6.344765149389046e-09,-6.393784269125425e-08,-8.103832041135058e-08,-2.8349212801836923e-09,-2.3452153350475272e-07,3.190888324346435e-07,3.981210963007733e-08,-1.8923033621223356e-07,-6.148968910775089e-09
-6.823755773988196e-08,-8.185625688793076e-08,-5.473985030514278e-08,8.497349005317615e-08,-3.6516077289132405e-07,-6.458338530001183e-08,-1.7454488307558488e-07,-2.357291433830451e-08,7.653893268262408e-08,-1.0681978675900597e-08,-4.281330262517258e-08,-4.692047285370933e-08,-1.4505928853843874e-08,-1.964801767916917e-07,2.733159737345587e-07,2.2550232212646504e-08,-1.763022816632439e-07,-1.655173797194831e-08
-5.563446031950937e-08,-7.790119413734059e-08,-6.123428536825192e-08,2.8455623927194275e-08,-2.8991693791744484e-07,-9.636830577175094e-09,-9.363838079560543e-08,-2.0567272280457197e-09,8.064856023954768e-08,-3.142342339195145e-08,-3.0998291438473746e-08,-9.325219117416514e-09,-3.3936057562602184e-08,-1.5864505703379097e-07,2.02083986110408e-07,-7.730556192537295e-09,-1.6438822101102496e-07,-3.1396540986791715e-08
-5.227067189427689e-08,-8.274440817877532e-08,-7.52184432507952e-08,-4.111230763927433e-08,-2.097107062416369e-07,3.417635321547577e-08,-2.1592895776160896e-08,2.0442324902413605e-08,6.895716754641375e-08,-5.13605187158487e-08,-2.6418037481928892e-08,2.7408827093328722e-08,-4.6989325394138525e-08,-1.1684238175525834e-07,1.1289390439519476e-07,-3.978782706853155e-08,-1.4473904365433058e-07,-4.672631964741082e-08
-5.0376810553894816e-08,-8.832705182960593e-08,-8.428843202590581e-08,-1.0914282816653051e-07,-1.1994248415513907e-07,6.478769001999233e-08,3.935316811115989e-08,4.59119698543499e-08,4.365162974849022e-08,-6.378142151385187e-08,-2.185246038362877e-08,6.196692446200573e-08,-6.395489503313446e-08,-6.236499351006221e-08,2.003899943007306e-08,-6.612967356142376e-08,-1.056065491938112e-07,-5.636691458228798e-08
-4.072533476883104e-08,-8.375416310566948e-08,-7.712642171147993e-08,-1.6120041506111608e-07,-1.6310551506505855e-08,8.90120335375353e-08,9.2966493449173e-08,7.34774328270895e-08,1.1587564259404228e-08,-6.308573675008093e-08,-9.308609568916831e-09,9.341436239071008e-08,-7.587719119360943e-08,1.025733304675442e-08,-6.722530504221211e-08,-8.222319289462168e-08,-5.21581122004276e-08,-5.4788297088122124e-08
-1.6209128073636043e-08,-5.896036003400872e-08,-4.821677223480424e-08,-1.87333957983666e-07,1.0189736160189022e-07,1.052852300970655e-07,1.4458051487499118e-07,9.593953499934212e-08,-1.9089663176096763e-08,-4.803906653931276e-08,1.4924572081081903e-08,1.1690584577943497e-07,-7.612128670093832e-08,9.588716073014406e-08,-1.470396014628742e-07,-1.0015515561306219e-07,1.4882887481692578e-08,-4.411000494713414e-08
2.1759162090200603e-08,-1.2932192394412376e-08,1.0555868379884486e-11,-1.8396091079674808e-07,2.2974866466888103e-07,1.1513499414221615e-07,1.9804359074374834e-07,1.0098888574605665e-07,-4.262895584837986e-08,-2.3424046974105406e-08,4.731275061204887e-08,1.2346315181710073e-07,-7.170789551958985e-08,1.7879025078939337e-07,-2.1592823384267152e-07,-1.1603756050023375e-07,8.293699464259459e-08,-2.988143483046579e-08
6.696939233392495e-08,4.905140394603743e-08,5.8301630929176954e-08,-1.5219989776265555e-07,3.5739578945391123e-07,1.1457451916300475e-07,2.4217344131755974e-07,8.437093656106919e-08,-5.762588908790988e-08,2.3033729431722624e-09,7.872022696438452e-08,1.0461585924745269e-07,-5.155921651521608e-08,2.4020985049146746e-07,-2.753832514951285e-07,-1.029494794358224e-07,1.549676396881931e-07,-2.789525675771208e-09
1.1270837200050977e-07,1.207783133321885e-07,1.1892187427384096e-07,-9.393089909709769e-08,4.7428306952651356e-07,1.0017905945891119e-07,2.670836254385355e-07,4.209700749223068e-08,-6.639775228024425e-08,2.2226764158780212e-08,9.959359230302581e-08,5.9242978427957516e-08,-1.9324668143929886e-08,2.6946760544737563e-07,-3.219251639901211e-07,-7.132740412473285e-08,2.124822256720403e-07,1.3949967575210415e-08
1.5698766023328983e-07,1.979383408713106e-07,1.7712343939260419e-07,-8.370040778236826e-09,5.742550959278044e-07,7.648690459240157e-08,2.6517518465373325e-07,-4.062128257591654e-09,-7.265081953634323e-08,3.630220911952291e-08,1.0546742663658413e-07,-1.276001666334318e-09,4.7263662361248366e-08,2.7237700308729155e-07,-3.4371634762042616e-07,1.1569631049070182e-08,2.6178579212094053e-07,3.7936021263455146e-08
2.0644098848969198e-07,2.8802270174822604e-07,2.3379229826295566e-07,1.0834765421313435e-07,6.576059076480037e-07,4.7273611118501334e-08,2.2464725815413363e-07,-5.0592780877255034e-08,-7.916671673210867e-08,5.019740645509468e-08,9.913782804500687e-08,-5.5530807980763975e-08,1.3203592321356095e-07,2.708292354271748e-07,-3.2489993955051037e-07,1.4382580117963726e-07,3.288500722136468e-07,9.831602897639234e-08
2.652207581671931e-07,3.814899005214308e-07,2.979164926289078e-07,2.59639977924118e-07,7.287547028820091e-07,1.9827306574622553e-08,1.451083848245119e-07,-9.886004464958007e-08,-8.67961673061963e-08,7.276914551000257e-08,8.895724473780705e-08,-7.969943722103518e-08,2.0476604389983454e-07,2.927598283447617e-07,-2.524277436023189e-07,1.8806433863850372e-07,4.228760959067794e-07,1.3511612704551313e-07
3.4269899173807826e-07,4.834002859584794e-07,3.65187131862203e-07,4.420409591241451e-07,7.917344645934001e-07,6.286884885696095e-09,2.579764844367673e-08,-1.3901849173536099e-07,-9.484481933626115e-08,1.130087772290521e-07,8.424072027097321e-08,-5.808431222355378e-08,2.6446769020946704e-07,3.5840142869650955e-07,-1.3039040795977895e-07,2.3732923951323543e-07,4.758390722671052e-07,1.6811194842526386e-07
4.268994324785071e-07,5.872975095658159e-07,4.4461995125167763e-07,6.398369341712989e-07,8.469613021168864e-07,1.766173582520285e-08,-1.1947841116673024e-07,-1.4234592526966262e-07,-1.0198716351349017e-07,1.7326134752760747e-07,9.054867072175412e-08,8.883331211130186e-09,3.1081290198646977e-07,4.702902400970155e-07,1.9554128734520527e-08,3.026010935679029e-07,5.320434497415893e-07,2.3223335277425793e-07
5.074696530116914e-07,6.422195853322616e-07,5.353201744531973e-07,8.259923896795263e-07,8.913574024092689e-07,6.241968528486509e-08,-2.901563432217655e-07,-1.3306636763258582e-07,-1.0672129472817456e-07,2.4815250573236167e-07,1.0781765187765546e-07,1.053615121756179e-07,3.91674676527317e-07,6.125944649753778e-07,1.6467213645890723e-07,3.6805935992689077e-07,6.27906218357765e-07,2.540195674308616e-07
5.636140889391721e-07,6.205284792275464e-07,6.229009988673497e-07,9.711779468101332e-07,9.217251868081373e-07,1.433777735179467e-07,-4.188476459575988e-07,-2.8424880331860474e-08,-1.068958425584297e-07,3.2288292046296846e-07,1.3233591549708884e-07,2.0779159195165542e-07,4.478010783873117e-07,7.59650798342387e-07,2.1406187993589426e-07,4.546869141869479e-07,7.155484110920375e-07,2.3259747007806048e-07
5.622221780133461e-07,5.948295402120507e-07,6.880536066128435e-07,1.0559836997985384e-06,9.390405019702084e-07,2.591578981015249e-07,-4.128236575080767e-07,1.714697521173274e-07,-9.880120678528196e-08,3.881011614540904e-07,1.6034998487119205e-07,2.954057087071371e-07,4.80189758099336e-07,8.872603493044808e-07,1.9270720329654017e-07,4.921467668843878e-07,7.433723025513741e-07,2.035391351213971e-07
5.739113988946338e-07,5.753111773467971e-07,6.938331263441204e-07,1.078067020818271e-06,9.503941140499884e-07,3.970921735725252e-07,-3.1376049066705025e-07,2.8162093895524217e-07,-7.707710727270166e-08,4.3424652298239405e-07,1.9040446516298643e-07,3.578475340625083e-07,4.85030640823389e-07,9.80983817594223e-07,2.2893405173178808e-07,4.961039377761383e-07,7.728853970192865e-07,1.8279613430270726e-07
5.762529577567378e-07,5.521064141364582e-07,6.236460094854809e-07,1.0497915047078455e-06,9.672067870025794e-07,5.516403663833415e-07,-1.3673459786051092e-07,3.0187014021461604e-07,-3.621172664950856e-08,4.5868807707974296e-07,2.228814163042411e-07,3.969286656802243e-07,4.7039809723884805e-07,1.038343865873626e-06,2.283491161631765e-07,5.293755751545245e-07,8.597501316989729e-07,1.7788585546466413e-07
5.923876153867865e-07,5.349007476373672e-07,5.631701373555967e-07,9.89127866145926e-07,1.0008214272683798e-06,7.148318081731444e-07,-7.5052904571267e-08,3.2832349128394045e-07,2.688872393945189e-08,4.713149840655365e-07,2.5761324791711536e-07,4.220332025124637e-07,4.7555878288944667e-07,1.0645648493561973e-06,1.4042127020567764e-07,5.955775342423121e-07,9.166146709334657e-07,1.6543898919711676e-07
6.071381198616773e-07,5.35150725319072e-07,5.846750201875603e-07,9.111275791115543e-07,1.057233647096616e-06,8.758850018022116e-07,-1.0086280385143193e-08,4.2421207004627876e-07,1.1051053100240305e-07,4.6997461887092424e-07,2.92071029168233e-07,4.427398752993098e-07,4.6520802130728575e-07,1.0659889391042848e-06,8.633774789903768e-09,6.702374707864567e-07,9.428412688215515e-07,1.305567922201691e-07
6.025601751710564e-07,4.7480345355528835e-07,5.94010876306494e-07,8.256309870251872e-07,1.1331824885458513e-06,1.0263839982176553e-06,1.8040262684461625e-07,6.164475647150849e-07,2.071989683982747e-07,4.690503731367053e-07,3.213732675059138e-07,4.6225595087628807e-07,4.5055471416681845e-07,1.0463993804830357e-06,-8.964790562930086e-08,6.803644435346747e-07,9.45143600498113e-07,6.166455079075234e-08
6.059559530436144e-07,4.0531036589020036e-07,6.111679255576907e-07,7.399268422958395e-07,1.2165842360020095e-06,1.1557275582239623e-06,3.963237244581789e-07,8.498219078530692e-07,3.052714537468381e-07,4.671976229163902e-07,3.40543415577694e-07,4.768859532863984e-07,4.237630213605084e-07,1.0085214368169711e-06,-1.6975104309661818e-07,6.702223006158993e-07,9.621342649611264e-07,-2.223253192956247e-09
5.858279759749094e-07,3.349119140971536e-07,6.243349470467741e-07,6.611871229350765e-07,1.2923803389533698e-06,1.256954540418795e-06,6.113568413026711e-07,1.0630749049838051e-06,3.926869434971798e-07,4.574868871503902e-07,3.475137943229143e-07,4.821877167992369e-07,3.8275461499730905e-07,9.584642766148568e-07,-2.425385468120267e-07,6.438505664429458e-07,9.517098292553249e-07,-5.5432540002078106e-08
5.488777810190558e-07,2.594530378126178e-07,5.691636560791163e-07,5.951205948074121e-07,1.3504653306520841e-06,1.3288040901457309e-06,8.171802675568794e-07,1.2668115281433707e-06,4.614829313723095e-07,4.489244106124392e-07,3.4452661734587546e-07,4.797751698472693e-07,3.1252528087822344e-07,9.079091191274642e-07,-3.0208507675102923e-07,6.051608842041946e-07,9.243457568650897e-07,-1.0647875638787685e-07
5.178463334199125e-07,2.2209044411445387e-07,4.920179319751655e-07,5.425349162413967e-07,1.3903992504833995e-06,1.3746492956277845e-06,9.60151937984348e-07,1.4110308413688556e-06,5.102566722435531e-07,4.2665505240730917e-07,3.3688795657230527e-07,4.789098302263411e-07,2.450510956591775e-07,8.707823693098486e-07,-3.42475851746867e-07,5.673968609519934e-07,8.989692925285473e-07,-1.460383413682309e-07
4.892698755020845e-07,2.1302707524432716e-07,4.317797907523122e-07,4.985211064698996e-07,1.4197885873941102e-06,1.4022994260670585e-06,1.0672845300010263e-06,1.4764173043456822e-06,5.431911396484058e-07,4.001262296813944e-07,3.297991948282421e-07,4.909168604330092e-07,2.234316016916097e-07,8.559606071526276e-07,-3.590200260614013e-07,5.05752063296744e-07,8.777574627074469e-07,-1.680657726583895e-07
4.798239149761556e-07,1.971362052145846e-07,3.8411351698317725e-07,4.556183983972688e-07,1.447730711947166e-06,1.417851271509105e-06,1.136472080934696e-06,1.4879244697660285e-06,5.662394493621058e-07,3.8536688530765353e-07,3.252095608658673e-07,5.21155330440188e-07,2.2878586559877284e-07,8.61152639510314e-07,-3.538704210132219e-07,4.624166432087462e-07,8.794952271927256e-07,-1.7958191720106536e-07
4.841918509960494e-07,1.8031530020702016e-07,3.62202183745094e-07,4.0806122300448864e-07,1.4783302108066252e-06,1.4215741105746017e-06,1.1734761985682152e-06,1.5088225391677438e-06,5.831683771158352e-07,3.7387557675229343e-07,3.2057834543479647e-07,5.624179433888872e-07,2.3868518433616517e-07,8.732023707603888e-07,-3.338908410775745e-07,4.313792511418406e-07,8.914079102361256e-07,-1.84840220219155e-07
4.913066014293574e-07,1.803446070261112e-07,3.5502341359028774e-07,3.533080692000526e-07,1.5090272150281965e-06,1.4098650655431316e-06,1.2002096780706738e-06,1.5177470393633119e-06,5.944288644583698e-07,3.632056249015575e-07,3.1086964966447345e-07,5.977596065396044e-07,2.2846012048506743e-07,8.759557785483224e-07,-3.0879989090401427e-07,4.0109899057994737e-07,8.971613369195044e-07,-1.9422835093690273e-07
4.916484167796514e-07,1.8312693221537302e-07,3.4699641158568414e-07,2.906610186461379e-07,1.5343451045990742e-06,1.3801036803475359e-06,1.214885420540937e-06,1.5200677113714802e-06,5.992434829669589e-07,3.4833856413023877e-07,2.9302525663999535e-07,6.172702793810497e-07,2.1070673839598566e-07,8.608976106623572e-07,-2.865333615902934e-07,3.521841375422095e-07,8.918674197611888e-07,-2.1991274251194418e-07
4.922905634675445e-07,1.8375367667262053e-07,3.316831881674825e-07,2.1965305046158042e-07,1.5511526052358015e-06,1.3359661902199397e-06,1.2217651349648263e-06,1.5632209217659483e-06,5.984031628401736e-07,3.1608317899201645e-07,2.6746751574851336e-07,6.21143357796119e-07,1.7517181514181467e-07,8.327698339307101e-07,-2.6957164733936983e-07,2.768906352215892e-07,8.728492914914753e-07,-2.390319456177068e-07
4.888154543602771e-07,1.7838494311833926e-07,3.2242093812621893e-07,1.4056043470928037e-07,1.5607993383907734e-06,1.2942592823813625e-06,1.234095415139314e-06,1.5593120683846235e-06,5.951773247669279e-07,2.7449012387965413e-07,2.405682574119545e-07,6.199860227182644e-07,1.3486095816499446e-07,8.061184808709092e-07,-2.605225145719894e-07,1.8960377965258764e-07,8.490703220064803e-07,-2.4849961778783887e-07
4.787855218828998e-07,1.6025830034160352e-07,3.108811093562297e-07,5.662819445264971e-08,1.5671379202305023e-06,1.2592305871775473e-06,1.2635243840566036e-06,1.5339798220424867e-06,5.935912559657917e-07,2.4080696296481684e-07,2.2035516000619643e-07,6.280769337905905e-07,1.0325861790408957e-07,7.958397763363688e-07,-2.571511846748503e-07,9.742892093845649e-08,8.373928899649362e-07,-2.520766471903214e-07
4.6595579317703006e-07,1.3557521705338067e-07,2.914733843273529e-07,-2.4776339696675012e-08,1.5726303835751243e-06,1.2433536828044625e-06,1.3137254319742245e-06,1.4840824065318247e-06,5.949972984262089e-07,2.1652290647950044e-07,2.1208065423883147e-07,6.49753976437565e-07,7.593554603856339e-08,8.0752711740412e-07,-2.5842847120213126e-07,2.5696006974425686e-08,8.351816721607517e-07,-2.471100385749002e-07
4.491210744703517e-07,1.160930422302261e-07,2.6628804445070786e-07,-9.373734974400733e-08,1.5757821702149962e-06,1.2429828248257196e-06,1.376075924523566e-06,1.4063554027646404e-06,5.95225068947779e-07,2.0217093439336005e-07,2.1324163391683758e-07,6.787262383535888e-07,5.690673623586817e-08,8.33194111791154e-07,-2.687766753056077e-07,-3.916246998140816e-08,8.301692103056923e-07,-2.4382034160460226e-07
4.2650660393509545e-07,1.0057017541813237e-07,2.3676749809415253e-07,-1.4102502662087398e-07,1.571972311981371e-06,1.2418777183509069e-06,1.431739257239526e-06,1.3568234397471498e-06,5.849400944823764e-07,1.9305656327643496e-07,2.163127907116195e-07,6.943810565846274e-07,3.5572060795391415e-08,8.559675950776776e-07,-2.9205075770012013e-07,-9.946414828715818e-08,8.109028988205407e-07,-2.491088477528474e-07
3.9606147919711233e-07,8.119149163366308e-08,2.0543743042741326e-07,-1.6080566540692042e-07,1.5570892425536297e-06,1.2279560813553568e-06,1.459641341710932e-06,1.3218472106026823e-06,5.537791377003524e-07,1.8053550395869772e-07,2.132563542541151e-07,6.750833587332702e-07,1.2384827879101822e-09,8.605742736503394e-07,-3.3061562070471656e-07,-1.623990679001824e-07,7.687035736378908e-07,-2.6603533093816905e-07
3.5894484854511903e-07,6.144156470458838e-08,1.7531069741125905e-07,-1.5176377370444628e-07,1.5310608160473508e-06,1.1898913233281107e-06,1.4459523216400737e-06,1.3262552716415207e-06,4.958144338712201e-07,1.6167089178690705e-07,1.992326437370722e-07,6.090169070472399e-07,-4.7099093818402264e-08,8.420091581622705e-07,-3.8381050096731544e-07,-2.3080697628608377e-07,7.070909639871962e-07,-2.933569767362761e-07
3.146833075507271e-07,4.4628892217407736e-08,1.5028797115916824e-07,-1.170388614914177e-07,1.4985399871960306e-06,1.1271114997525423e-06,1.3896806400836044e-06,1.3184005095601314e-06,4.1293214743978256e-07,1.3913585426946859e-07,1.756926771388986e-07,4.988058419743031e-07,-1.072945663854227e-07,8.072943091047498e-07,-4.4455228040286735e-07,-2.9803325024551214e-07,6.381270273613125e-07,-3.2932133882872245e-07
2.7116389429608925e-07,3.4996019796351254e-08,1.2822157269782947e-07,-6.328174663821042e-08,1.4678316965037376e-06,1.0465163799433074e-06,1.3016367503120351e-06,1.2723954022228183e-06,3.1422555982480613e-07,1.1514905147580506e-07,1.4711832106571362e-07,3.607454678766925e-07,-1.7344106921419876e-07,7.69845019378975e-07,-5.031463814827183e-07,-3.568825446633222e-07,5.746049960971537e-07,-3.657952706902129e-07
2.3563995132693192e-07,3.685494333958673e-08,1.1276415984782266e-07,1.1718767335439581e-09,1.4435175480136943e-06,9.555514479520633e-07,1.1980779670517072e-06,1.1999357272508666e-06,2.119231786671663e-07,9.038891677869614e-08,1.1971121617587805e-07,2.1459429262198473e-07,-2.3486220192111076e-07,7.400208835259142e-07,-5.540130574670559e-07,-4.1140046375918565e-07,5.212641907519866e-07,-3.9679091676290694e-07
2.091204842189433e-07,4.7550299812780045e-08,1.0436184234850146e-07,6.852292348016429e-08,1.423629581820846e-06,8.655104802905722e-07,1.0931393504368922e-06,1.0973757481805463e-06,1.163699653839026e-07,6.703290527414294e-08,9.58844974808201e-08,7.473978972328431e-08,-2.851998946779244e-07,7.182578859003844e-07,-5.970796443680455e-07,-4.6078467381271243e-07,4.769201843789713e-07,-4.230674947197209e-07
1.8926827498540453e-07,6.065134715917191e-08,9.822652219225899e-08,1.3346832452991037e-07,1.3990192495851186e-06,7.849965683476663e-07,9.943206479524034e-07,9.941988385322077e-07,3.2950403077460865e-08,4.40880127882819e-08,7.404463979394218e-08,-5.548430345328297e-08,-3.2460255289236803e-07,6.939568495333621e-07,-6.359036039991489e-07,-4.994327773536694e-07,4.3349226631525165e-07,-4.4834869558665517e-07
1.6986219464311543e-07,6.963889274091437e-08,9.089181956229766e-08,1.9438402913091426e-07,1.3618575721162983e-06,7.17175397964897e-07,9.027673953895713e-07,9.251473490698319e-07,-3.777846269293303e-08,2.001498429900899e-08,5.308014726629456e-08,-1.8272739208726664e-07,-3.56297765835864e-07,6.569778597442177e-07,-6.743998305898688e-07,-5.327761330307526e-07,3.825645493447568e-07,-4.783128489204772e-07
1.461012393609359e-07,7.102588426865891e-08,8.134380155846855e-08,2.537099901743181e-07,1.3067372278201676e-06,6.638175979838686e-07,8.166613892694769e-07,8.830183421577329e-07,-9.768021599206579e-08,-5.801760111053263e-09,3.18644154383522e-08,-2.884693948912049e-07,-3.8482774500326485e-07,6.05133277312616e-07,-7.123167321940293e-07,-5.594852343311689e-07,3.231922127568875e-07,-5.156162162772887e-07
1.1790574862284865e-07,6.716143685808921e-08,7.161558406066521e-08,3.170721521838132e-07,1.2360232182771096e-06,6.254117677531224e-07,7.344085053508825e-07,8.306823818457328e-07,-1.4849669078460503e-07,-3.157700495195916e-08,9.550289706401039e-09,-3.790606133863445e-07,-4.1220661484486794e-07,5.41785004093375e-07,-7.435020607060518e-07,-5.799311504675219e-07,2.605522766173952e-07,-5.581934428382934e-07
8.925478964536333e-08,6.54736130048995e-08,6.669342699560534e-08,3.9091242063075774e-07,1.1518271237558146e-06,6.016404123348295e-07,6.554856611316743e-07,7.77435177236983e-07,-1.9092786206433184e-07,-4.6430806897092156e-08,-8.433805038657328e-10,-4.5594349400641264e-07,-4.371828290115493e-07,4.756213226834058e-07,-7.615716533782313e-07,-5.773550159501355e-07,2.0237372456161208e-07,-6.011271272801944e-07
6.524373014936353e-08,7.387437510809353e-08,7.324400848891315e-08,4.789131118315765e-07,1.057500711462493e-06,5.887581443369838e-07,5.79467025445764e-07,7.280131283742474e-07,-2.254954676857283e-07,-4.9769129252246007e-08,1.0680314406515796e-09,-5.128943722928465e-07,-4.5710941696019125e-07,4.137741481014815e-07,-7.635487183462622e-07,-5.530716995263404e-07,1.5212832787302793e-07,-6.400302023269037e-07
4.820891827458467e-08,9.517384636191923e-08,9.305708242248105e-08,5.783047056141373e-07,9.549858941166818e-07,5.856166868932081e-07,5.055692015443098e-07,6.810829650728144e-07,-2.53825413301299e-07,-4.699006510337502e-08,1.0083695639905921e-08,-5.553344690044173e-07,-4.7011347999824086e-07,3.572075184077218e-07,-7.556250373266043e-07,-5.160038659840177e-07,1.0649593437649712e-07,-6.734999868439185e-07
3.5705768816516475e-08,1.2371157402333907e-07,1.2129245466697063e-07,6.784027233915172e-07,8.53034025669458e-07,5.832059893229127e-07,4.322885289354852e-07,6.447513953806427e-07,-2.7880370921636196e-07,-4.220487431694056e-08,1.0448402435883649e-08,-5.758549068079008e-07,-4.761125771477886e-07,3.055794656325673e-07,-7.471212340338896e-07,-4.687742608952308e-07,5.858892809625013e-08,-7.028235291737624e-07
2.2085479068146536e-08,1.4745418026145322e-07,1.4875818174690474e-07,7.63323760130815e-07,7.955788245281082e-07,5.753587910625554e-07,3.6714960240567964e-07,6.21315444950289e-07,-3.032598672567448e-07,-4.87666751373467e-08,-1.0530116120373043e-09,-5.956071757968125e-07,-4.759602608039424e-07,2.7487469025908704e-07,-7.444894698375767e-07,-4.0874060927502475e-07,4.6771355304665555e-09,-7.294952962338021e-07
2.7121434583332044e-09,1.545915374041197e-07,1.6375771470808328e-07,8.180832468482399e-07,7.883508882845176e-07,5.652587193370052e-07,3.205255350505084e-07,5.782209783581542e-07,-3.28136956845539e-07,-6.406806239169559e-08,-2.3382215729381635e-08,-5.668756180002349e-07,-4.696116720778217e-07,2.6767045774365737e-07,-7.546772441097005e-07,-3.734784790604019e-07,-5.055376432113836e-08,-7.524969695427875e-07
-2.2311174920341875e-08,1.400560937406507e-07,1.4830296172219953e-07,8.344624034503387e-07,8.68929491985123e-07,5.612601362513446e-07,3.048846914536311e-07,5.309042264645971e-07,-3.526237595322827e-07,-7.075178420586255e-08,-4.050976597739124e-08,-5.256732847545517e-07,-4.5521380085298577e-07,2.7472847568576497e-07,-7.770751918877902e-07,-3.501993947613228e-07,-9.481264264466684e-08,-7.678182564772864e-07
-4.756703415281832e-08,1.0748845091824603e-07,1.0516019131766856e-07,8.129948379554639e-07,1.0396917455233323e-06,5.740286785297438e-07,3.358697336738125e-07,5.031388962638987e-07,-3.7210927116535075e-07,-6.236774091473566e-08,-3.3275967268781314e-08,-4.874662995418955e-07,-4.2996862012181065e-07,3.154371188346151e-07,-8.043042509141597e-07,-2.954136121601788e-07,-1.1464767522116564e-07,-7.704759686173046e-07
-6.523115750439785e-08,6.591200638925045e-08,5.057102994594531e-08,7.607052892151091e-07,1.1201411603905441e-06,6.112417135413949e-07,4.095439170604612e-07,4.962373973648727e-07,-3.8134290285004324e-07,-3.7060016164624394e-08,-1.8290170146825136e-09,-4.2242493187539573e-07,-3.9240115298201833e-07,3.665187781327686e-07,-8.324650236086753e-07,-2.5057465937906764e-07,-1.0355512978054318e-07,-7.579517372497548e-07
-6.968151683209304e-08,2.3960920165610254e-08,-1.4806217662046616e-08,6.867258319086888e-07,1.1310502514612144e-06,6.721226697312193e-07,5.101865154516573e-07,5.136580483848031e-07,-3.7664472870545167e-07,1.8551662633489017e-08,7.236575573949726e-08,-3.999664199389926e-07,-3.4466648742194453e-07,4.315710110437778e-07,-8.533137217995542e-07,-2.1913554133187197e-07,-6.577147628782933e-08,-7.325761011399966e-07
-6.087409959296532e-08,-1.484496369682642e-08,-7.974412309355545e-08,5.993443183384385e-07,1.12874786182722e-06,7.496326717293898e-07,6.119941027849169e-07,5.419837593956519e-07,-3.58705427048138e-07,4.5552766764798604e-08,1.0822551654780154e-07,-3.9820738342251576e-07,-2.931606252985557e-07,5.348835047169081e-07,-8.371561926323427e-07,-1.524237398463182e-07,-1.4322324631595012e-08,-7.009409441410152e-07
-4.400591561259032e-08,-5.171753581875517e-08,-1.6319936436793123e-07,5.061251356541272e-07,1.2607649018587854e-06,8.304674574811154e-07,6.556745613938319e-07,5.593869540641664e-07,-3.3090516207027543e-07,4.924434247461772e-08,1.2790649095356599e-07,-3.5300833269574735e-07,-2.465411502772628e-07,6.219888071099863e-07,-7.851840675389118e-07,-1.0727384366855971e-07,3.6119461787918503e-08,-6.703292671103262e-07
-2.566818698458293e-08,-8.836175479377569e-08,-2.551033069856663e-07,4.1793717249103115e-07,1.40409117648852e-06,9.110450146304071e-07,5.898718375256736e-07,5.382644205910586e-07,-2.978921194227945e-07,8.354010390874297e-08,1.8215564038875914e-07,-2.564518471345172e-07,-2.1220239994678614e-07,7.023066060498535e-07,-6.948408346042985e-07,-7.472796325803557e-08,7.571579886880324e-08,-6.446753108192869e-07
-9.56554397132152e-09,-1.2244681130172607e-07,-3.0143045797325243e-07,3.4701914707058963e-07,1.430249886185677e-06,9.887538392247307e-07,5.504219787713461e-07,4.7475738215892273e-07,-2.6104224658762123e-07,1.3222392046243794e-07,2.3623406423189718e-07,-1.212236371604618e-07,-1.9354838424462047e-07,7.44750660921628e-07,-5.282235615761815e-07,1.2871999274092113e-08,1.0236529810844577e-07,-6.230834994256691e-07
4.967958833607943e-09,-1.4702762089937583e-07,-3.032146219562843e-07,3.0806487906563657e-07,1.4751236136224274e-06,1.051855778653668e-06,4.97836587257476e-07,3.67096967973815e-07,-2.0950604584769795e-07,2.0167621890669282e-07,3.0170176994680365e-07,4.7097056375495906e-08,-1.8959878914310612e-07,6.969538991259871e-07,-4.1939466533068974e-07,1.143996708671829e-07,1.1840457847706067e-07,-6.015999324862252e-07
2.0842639538986653e-08,-1.5035770881709258e-07,-3.0768532010998706e-07,3.1346425767772974e-07,1.4623262961188608e-06,1.0614090280700783e-06,3.0084987809045034e-07,2.3633472971222305e-07,-1.4815123557475213e-07,2.3609227452112832e-07,3.027575149498202e-07,1.3314126024905776e-07,-1.9685754810641717e-07,6.838112303063758e-07,-3.357535852960741e-07,2.1618144979787251e-07,1.256408197579025e-07,-5.767578018849722e-07
3.923452337322045e-08,-1.2503639847489873e-07,-3.026994357163362e-07,3.7109522147455864e-07,1.3952424446346026e-06,1.0007487964486096e-06,7.306128365415528e-08,9.30566353167786e-08,-6.545369393115745e-08,2.43561573216077e-07,3.2110748730126133e-07,1.255058431643241e-07,-2.1164104890757272e-07,7.145943512760667e-07,-1.273725810593645e-07,3.1671113289978993e-07,1.226246268115983e-07,-5.485304484960573e-07
5.6903277596231576e-08,-7.105857717585444e-08,-2.917169878010095e-07,4.787458340262591e-07,1.3556253688636584e-06,9.141321348006801e-07,-1.3099783577134412e-07,-5.962426780258338e-08,-1.6881101233049522e-09,2.6294337190624155e-07,3.4254900304023363e-07,1.5897760108410385e-07,-2.313137524486807e-07,6.806947240567109e-07,8.485049227598828e-08,3.81528306622747e-07,1.0588729575897343e-07,-5.205796896972985e-07
6.729667172479827e-08,1.5166720410476676e-09,-2.671798074766194e-07,6.19883558127917e-07,1.3250844645512793e-06,8.397763198740961e-07,-2.8105336892183086e-07,-2.1400892368742288e-07,-1.5607661004404046e-08,2.8141965769808476e-07,3.5506706358669065e-07,2.315486087272959e-07,-2.539527741568976e-07,5.886414504981394e-07,2.076241324558458e-07,4.5219765659645885e-07,7.491876956490452e-08,-4.977369166192253e-07
6.487993327183858e-08,7.684230719579632e-08,-1.9100252645185593e-07,7.666150043273289e-07,1.1742373749292171e-06,7.670352287451427e-07,-3.503367310754837e-07,-3.6155071391811404e-07,-9.942538225756865e-08,2.971952965056442e-07,3.5861628831477407e-07,3.007168193550169e-07,-2.7723586739845134e-07,4.820204622437375e-07,2.7592357685252373e-07,5.562619312199309e-07,3.6664770326773655e-08,-4.824562977001613e-07
4.926124359357001e-08,1.3900752891568863e-07,-9.353443031762962e-08,8.868931421271369e-07,9.924211146538408e-07,7.037480260885805e-07,-3.8550566766466307e-07,-4.851232223060625e-07,-1.6794675951706207e-07,2.7935081593331227e-07,3.134572526914321e-07,2.685204876090481e-07,-2.97727111221039e-07,3.6988614602082095e-07,3.066005168637706e-07,6.23423157976891e-07,5.158433068007833e-09,-4.7279649915828664e-07
2.6045777290599454e-08,1.7786391851935317e-07,-2.871069731247012e-08,9.576980122100258e-07,9.019898808107271e-07,6.47789457425262e-07,-3.8706173798727167e-07,-5.739020212671026e-07,-2.146257105971106e-07,2.449926480362631e-07,2.6340390422126477e-07,1.6075022379093265e-07,-3.114544994175861e-07,2.954065863452044e-07,3.8478298700519095e-07,6.43676541828485e-07,-4.7992599086871275e-09,-4.6346225170413993e-07
4.044434266906556e-09,1.9314599575310545e-07,1.1138306459085004e-08,9.727033319615462e-07,7.975027679136192e-07,6.234639654743521e-07,-3.495679404770311e-07,-6.021181696166563e-07,-2.3495117520763414e-07,2.1923657518842143e-07,2.34758355031748e-07,8.588928464973185e-08,-3.155607719302874e-07,3.2299022184531545e-07,4.224202042965711e-07,6.748816543769334e-07,1.4317669508976698e-08,-4.4941902504361184e-07
-9.366168658287616e-09,1.908710159808914e-07,3.680174154418243e-08,9.425726605419088e-07,7.034758019642315e-07,6.507729721429179e-07,-2.939056608025347e-07,-5.597567491405653e-07,-2.1998803353944057e-07,1.8667007303257653e-07,2.1864439365189168e-07,4.888646090082471e-08,-3.1014349523427547e-07,3.439291233788951e-07,4.1902048092888677e-07,7.001492736856481e-07,5.7838976114738525e-08,-4.2968701020462467e-07
-1.2066468363389281e-08,1.8253462650655903e-07,2.7775388819307918e-08,8.913748389784116e-07,7.030432802772047e-07,6.796312593935024e-07,-2.2837187848343538e-07,-4.916081814521277e-07,-1.710512928341145e-07,1.5025565806108671e-07,1.749110633176104e-07,7.078929019666774e-08,-2.9908605284742696e-07,3.8669223846266236e-07,3.8513508818257953e-07,7.063312666225654e-07,1.1055631130941881e-07,-4.0822447610746765e-07
-7.789258051408597e-09,1.755442455225066e-07,2.512148781981661e-09,8.422819353101455e-07,7.487856086709827e-07,6.926152432412876e-07,-1.730450675904632e-07,-4.311696769602025e-07,-1.1732919878025039e-07,1.4692683915231773e-07,1.7270540108310381e-07,1.2514106839883497e-07,-2.887397467706047e-07,4.616149167326002e-07,3.3772970235171966e-07,7.319279201844418e-07,1.5434030699335224e-07,-3.916344815835246e-07
-3.0163664185351717e-09,1.7503843659394014e-07,-2.6394070790814266e-08,8.156903827055666e-07,7.65345616379422e-07,7.013633689062186e-07,-1.5728790135673794e-07,-3.762139139889483e-07,-7.545665344319331e-08,1.7323085886560567e-07,1.8948674498715274e-07,1.724959929370426e-07,-2.846711313393307e-07,5.018945845573638e-07,2.799898553635173e-07,7.389969415744005e-07,1.773217499103226e-07,-3.8479909602995194e-07
-2.4084078021749276e-09,1.835491671009809e-07,-5.2356880882426945e-08,8.276400008092385e-07,7.507692776196659e-07,6.725720443404888e-07,-1.923658286842037e-07,-3.413782317745236e-07,-5.6051149581857545e-08,2.0288683452053175e-07,2.0129014781811887e-07,1.9199401428757035e-07,-2.8825697480117326e-07,4.988044691887062e-07,2.1524542953291145e-07,7.253375181205851e-07,1.790010276294628e-07,-3.8760958336699e-07
-5.91868779254225e-09,2.0672630733750324e-07,-6.440458616507971e-08,8.706348290889751e-07,6.780640177224657e-07,6.076918565142433e-07,-2.7704835004798575e-07,-3.4012061591219303e-07,-6.59762552402784e-08,2.16644366222146e-07,2.0577126659521967e-07,1.8208981578966936e-07,-2.955601077956601e-07,4.76663295379092e-07,1.797303784828326e-07,7.007055177960591e-07,1.6887762429735533e-07,-3.949512086510555e-07
-9.331400315444514e-09,2.5222455225954975e-07,-6.035408612976363e-08,9.549220699348818e-07,5.937751144958023e-07,4.828719094008214e-07,-4.105495282192592e-07,-3.728280581706079e-07,-1.0155101456150214e-07,2.1832230276536505e-07,1.8482974306618143e-07,1.5628035374171052e-07,-2.9929350098973287e-07,4.5061684653500103e-07,1.750452126180513e-07,6.66012065382964e-07,1.5959238666127077e-07,-3.997623449061318e-07
-7.779075295974084e-09,3.2392789516611804e-07,-4.1664806472341286e-08,1.0805065350713242e-06,5.097015161945676e-07,3.824019192721897e-07,-5.421481848417148e-07,-4.3247914628130763e-07,-1.5707607157404668e-07,2.1050515522402137e-07,1.459602063058994e-07,1.3112743859521948e-07,-2.9273665638823147e-07,4.352145399144567e-07,1.9274954241661165e-07,6.405075368365124e-07,1.5932482746839092e-07,-3.9738161129531237e-07
-5.273346130922569e-11,4.122674853028587e-07,-1.4163201797510882e-08,1.24379794506833e-06,4.209946768585288e-07,3.095041087316959e-07,-6.588004252778782e-07,-5.103773834051271e-07,-2.236644459536502e-07,1.9516283736329347e-07,1.1367164740915813e-07,1.193063336195817e-07,-2.732199981983446e-07,4.3491753027083356e-07,2.2435216881807853e-07,6.32672594787255e-07,1.6772176359567104e-07,-3.882259646427764e-07
9.323347031891613e-09,4.8030092286008e-07,1.1676911560072506e-08,1.389699189000361e-06,3.409337735452154e-07,2.5356485578048854e-07,-7.632017392061147e-07,-5.906457630307014e-07,-2.8958362149851005e-07,1.7203776945471757e-07,8.3093582481547e-08,1.211927103192497e-07,-2.431619858355076e-07,4.449315466659492e-07,2.48668588664891e-07,6.395564962981887e-07,1.7802141350682308e-07,-3.7689811881924613e-07
1.2081249299554202e-08,5.127441539253343e-07,2.4662512728385354e-08,1.4544286366755364e-06,2.7029422811365695e-07,2.1965175984757437e-07,-8.802572629736339e-07,-6.645932762708689e-07,-3.306214926724385e-07,1.4052875605784345e-07,4.3443645787122556e-08,1.330610783066869e-07,-2.0813677776928974e-07,4.5838281757661986e-07,2.5003508588914906e-07,6.420233164923578e-07,1.8441312656717885e-07,-3.6830241765475426e-07
1.1538830375445773e-09,4.738623732557455e-07,1.8667058038796825e-08,1.3956232215507439e-06,2.0782698178428415e-07,1.9376643774941882e-07,-9.73872891723176e-07,-7.209655911538562e-07,-3.4277591082878086e-07,1.0321570936352136e-07,4.530869950208896e-09,1.4983926266448437e-07,-1.7335723420142198e-07,4.7366742687535636e-07,2.2342551094769935e-07,6.398141329405249e-07,1.8809450932799298e-07,-3.6336945572066996e-07
-2.501654723410667e-08,4.080650826638118e-07,-7.187877318588072e-09,1.3060741937636262e-06,1.5031135505920985e-07,1.8124045035299817e-07,-1.0590239303650665e-06,-7.597774897235645e-07,-3.100507479434152e-07,6.656113268123132e-08,-2.1955327748432815e-08,1.6959233329734474e-07,-1.411517577277869e-07,4.962786575198296e-07,1.6642433271203685e-07,6.316407783265943e-07,1.9784228739115115e-07,-3.5832509768326745e-07
-6.184033810328831e-08,3.9907683084431454e-07,-4.92238192861038e-08,1.2647153765277869e-06,1.0436876262475619e-07,1.802799180383123e-07,-1.015481026153e-06,-7.638160293354641e-07,-2.445366541519175e-07,3.938620551248107e-08,-3.529913375103445e-08,1.9880153805987165e-07,-1.1117670834365364e-07,5.342995345369947e-07,8.908553505881004e-08,6.275839451627309e-07,2.2343832992346528e-07,-3.45573820502763e-07
-1.0175417830317845e-07,3.7303415236871776e-07,-1.0090399308205101e-07,1.249096411367962e-06,7.35698660405709e-08,1.900210172268651e-07,-7.695654856337306e-07,-6.657702120845151e-07,-2.1784015309431333e-07,2.9155622325502458e-08,-2.9538028485798256e-08,2.426680539125037e-07,-8.293748266178335e-08,5.908939875034343e-07,4.729246820557451e-09,6.441451702712061e-07,2.7021047383437844e-07,-3.2084703970780336e-07
-1.3888314604884732e-07,3.021555630698599e-07,-1.5687932136013616e-07,1.238025907626885e-06,6.387784953101834e-08,2.364911818337841e-07,-7.157678637068689e-07,-5.443396145830973e-07,-1.8676023394112815e-07,3.807904919221777e-08,7.10933094675638e-09,3.0350205387358814e-07,-5.840948218640334e-08,6.590939727590557e-07,-7.367345413990597e-08,6.795433935257057e-07,3.327070395078144e-07,-2.856961898549501e-07
-1.7201606692244376e-07,2.0206014422529773e-07,-2.1525941995409486e-07,1.1465586228394054e-06,7.464853192800974e-08,2.947849512738405e-07,-7.64126851867994e-07,-4.0421265467375217e-07,-1.3120502618061498e-07,6.228449732487801e-08,5.317443934328951e-08,3.7646175244973974e-07,-4.242683589321556e-08,7.231595706987801e-07,-1.1836084743067002e-07,7.293832751446025e-07,3.962261051315882e-07,-2.4751946700372314e-07
-2.0378757388889574e-07,6.433638161926627e-08,-2.755747285026381e-07,9.851720749533087e-07,9.541126516577919e-08,3.6150602458732935e-07,-7.11080903326121e-07,-2.5045841818682615e-07,-3.315091006509784e-08,9.422053381461777e-08,9.859517958752847e-08,4.475146636544744e-07,-4.011095905845109e-08,7.662087451499914e-07,-1.2771586041891425e-07,7.756358129138572e-07,4.4385013976318915e-07,-2.1633084491561487e-07
-2.368110232462942e-07,-9.362612080035691e-08,-3.3614827063155976e-07,8.778575385225723e-07,1.1449468148080137e-07,4.3729640304081323e-07,-6.053641964128452e-07,-1.1232369214577918e-07,7.603207290430442e-08,1.26271663998714e-07,1.3786068093982024e-07,5.058222545211536e-07,-5.386381826092036e-08,7.790487554810298e-07,-1.2930801626813433e-07,8.064629764378101e-07,4.667700950110021e-07,-1.9802240214356158e-07
-2.7005234311856967e-07,-2.495624438416704e-07,-3.917170122414008e-07,8.75060626246465e-07,1.2138040837390611e-07,4.991011375862162e-07,-4.3050637641348786e-07,-9.580681487905264e-09,1.8362379765119878e-07,1.5244414718804816e-07,1.5675317139888797e-07,5.46236091434197e-07,-7.946397583188579e-08,7.642040206727758e-07,-9.915335581758201e-08,8.372470368003351e-07,4.6615269835776313e-07,-1.9170812454894385e-07
-2.9828200108371327e-07,-3.5809803518276475e-07,-4.365119692533062e-07,8.552993875002641e-07,1.1139545921848458e-07,5.644150476158404e-07,-2.0699614372951922e-07,4.97243516801601e-08,2.864171173014206e-07,1.7313068201972396e-07,1.6728818681571612e-07,5.699858884154009e-07,-1.0958131859437606e-07,7.328377610395362e-07,-4.002125074127379e-08,8.679137694175782e-07,4.5088669557725635e-07,-1.944329769532843e-07
-3.149854736435582e-07,-4.1640789937536584e-07,-4.662191578785825e-07,8.390677031919919e-07,8.53956414193923e-08,6.336308756257314e-07,5.0356628720828035e-08,6.492664664659615e-08,3.6147495181918815e-07,1.883339898938807e-07,1.7415436526049875e-07,5.813234434041088e-07,-1.366652027620265e-07,6.970958256130605e-07,1.7624839687936753e-08,8.966959923292745e-07,4.273642343057757e-07,-2.019197746098259e-07
-3.1678249478574403e-07,-4.3631068941405446e-07,-4.817418107827029e-07,8.118943107692382e-07,4.8270105713486085e-08,7.014026174758688e-07,1.8347020807379738e-07,4.258297506201752e-08,4.089238137964711e-07,1.9647947452739587e-07,1.7661991810310228e-07,5.809926219473355e-07,-1.5730677361868665e-07,6.630952540438367e-07,9.824945127216375e-08,9.321944891977908e-07,3.9455977576607236e-07,-2.1223635284872739e-07
-3.0637940408625424e-07,-4.2398050515416624e-07,-4.901339601620818e-07,8.27202831999968e-07,2.5934424365616453e-09,7.697596602161293e-07,1.901605300571566e-07,-1.4802561779299983e-08,4.3445350916497846e-07,1.9501601987185024e-07,1.7670908433412372e-07,5.68018862298219e-07,-1.7188630140191085e-07,6.292689234965549e-07,1.9151974865406703e-07,9.454384093904193e-07,3.4699972577580804e-07,-2.2782220062416415e-07
-2.916766104955581e-07,-4.0503812581867514e-07,-5.011760347061241e-07,9.160622626161787e-07,-4.784667078923167e-08,8.263046195316976e-07,1.6122553140781689e-07,-9.612055603053209e-08,4.3838941798878163e-07,1.7877343198443449e-07,1.6553951007988448e-07,5.396047630365166e-07,-1.8407925562041356e-07,5.911621634694696e-07,2.8765862760992743e-07,9.18126924715457e-07,2.830033313335826e-07,-2.475151558660684e-07
-2.811274096555059e-07,-3.933241519687849e-07,-5.227764310244386e-07,1.0129699586990704e-06,-1.0185928882578258e-07,8.629520343399062e-07,1.0998819706873558e-07,-1.8204186401603533e-07,4.300074024784301e-07,1.4873420173293226e-07,1.4442967367534322e-07,5.015429048538899e-07,-1.9677384177458743e-07,5.488580015996704e-07,3.6054449368638237e-07,8.848245493572376e-07,2.2648147602597917e-07,-2.574451863186263e-07
-2.784567613614581e-07,-3.9713951568262063e-07,-5.564357442448833e-07,1.0019298154811178e-06,-1.5448376952155377e-07,8.758650588071928e-07,5.5410984462708596e-08,-2.1694292736094558e-07,4.1706339619548863e-07,1.1372562191796229e-07,1.1466533132983533e-07,4.617992558292514e-07,-2.1037757295145982e-07,5.107738903385653e-07,3.769592035544057e-07,8.476756500883005e-07,1.876817749769836e-07,-2.5973381737024973e-07
-2.8054782549934446e-07,-4.211215038089287e-07,-5.96842729001585e-07,9.717283874428247e-07,-2.0125378514631679e-07,8.647900841741609e-07,-7.56916050685613e-09,-1.9241698709952801e-07,4.1175563646354114e-07,9.555749905500743e-08,8.621983238344428e-08,4.364925367470602e-07,-2.207979491541114e-07,4.903709226323783e-07,3.612937894058107e-07,7.945067774821516e-07,1.9908430350541805e-07,-2.485541022663458e-07
-2.799161958293234e-07,-4.61160778845451e-07,-6.341465669544519e-07,9.301095622909005e-07,-2.404480250424602e-07,8.349079883015596e-07,-6.719534738650005e-08,-6.07801719474509e-08,4.2847625790740925e-07,1.0830565261078781e-07,8.169679252045347e-08,4.471770499545285e-07,-2.1962387850272574e-07,4.98023875609587e-07,3.4684908785964287e-07,7.788368207860178e-07,2.6767660893071943e-07,-1.7460814964214487e-07
-2.699881178204542e-07,-5.113517332178134e-07,-6.586146180929444e-07,9.181867560764108e-07,-2.7663815723966173e-07,7.947697249208686e-07,-1.1130515858317268e-07,2.1187074194502078e-08,4.7646602521766953e-07,1.6964849385472456e-07,1.1708037515085498e-07,4.8559661502552e-07,-1.9925285591280884e-07,5.336639520972622e-07,3.368618520085561e-07,8.375832264817398e-07,2.825939744923885e-07,-1.5924380874186035e-07
-2.4964221199471386e-07,-5.690940858665594e-07,-6.65137759780081e-07,8.03953425659258e-07,-2.971398798206883e-07,7.535583888922358e-07,-1.548702902933407e-07,1.4664931577436436e-08,5.564029256646256e-07,1.9736971239703493e-07,1.6300112763118804e-07,5.623534591842805e-07,-1.554310731699079e-07,5.85343783497912e-07,3.5858275550165157e-07,8.796989961549704e-07,3.107933546287233e-07,-1.4033787036863345e-07
-2.238246587639948e-07,-6.348038572004592e-07,-6.547654312121588e-07,6.975819469214472e-07,-3.380937703411188e-07,7.182214933253061e-07,-2.0636313038988268e-07,1.8697327252191036e-07,6.59431337148494e-07,2.2012333163289516e-07,2.070283102880344e-07,6.750862120734472e-07,-9.44387491154542e-08,6.356526481976791e-07,4.2350385499725716e-07,9.65354292513135e-07,3.7232370399083365e-07,-6.913118552383852e-08
-1.9963605824368982e-07,-7.11403814994308e-07,-6.339091813671898e-07,5.118406310089252e-07,-4.0313315441737383e-07,6.919765070887867e-07,-2.4681000380174615e-07,4.3134890282922423e-07,7.697792816310189e-07,2.8483975452366447e-07,2.707605298567982e-07,8.036954020886148e-07,-2.755273186445161e-08,6.72058023781895e-07,5.313756982462981e-07,1.085948963085357e-06,4.741201975286689e-07,9.209406219174305e-09
-1.806921391308486e-07,-7.89740579214574e-07,-6.106809965590487e-07,3.360238122399205e-07,-4.5496994910387565e-07,6.746986626245696e-07,-2.6743417946163785e-07,6.270940585116084e-07,8.703535709429864e-07,3.709441792283098e-07,3.1753159570972163e-07,9.077091580353149e-07,3.2865858585908425e-08,6.935181593059511e-07,6.417918586770675e-07,1.2098876277742037e-06,5.62539131111025e-07,6.454499824761695e-08
-1.638495433234779e-07,-8.65542956126433e-07,-5.943743208411382e-07,1.9490971016434758e-07,-4.831614945876801e-07,6.647465038447987e-07,-2.4599967990485767e-07,7.534237383226875e-07,9.483619779267337e-07,4.330767587995088e-07,3.3643539964583345e-07,9.710317703621605e-07,7.425468480270948e-08,7.090716104321277e-07,7.344267371245167e-07,1.3008839711439216e-06,6.310035102729242e-07,1.1999790589292534e-07
-1.405552233863604e-07,-9.284709071185387e-07,-5.901983728817266e-07,8.921387876357667e-08,-4.2341263950767554e-07,6.603997636052496e-07,-1.726300769240576e-07,7.591869810975466e-07,9.997544872747677e-07,4.979468711175064e-07,3.271716908431232e-07,9.459192926263835e-07,9.440828990354939e-08,7.304601714981415e-07,7.371104379385389e-07,1.316937456347981e-06,6.873465111075336e-07,1.2250644115359488e-07
-1.0211796098521675e-07,-9.836572915747184e-07,-5.885244305326447e-07,6.92441728442966e-08,-3.1045986068906634e-07,6.596914424711264e-07,-4.95341766023453e-08,7.81810039581961e-07,1.0257954757211842e-06,5.483959506995264e-07,2.9288658768146064e-07,7.993383223180823e-07,9.232750141224887e-08,7.637021582138654e-07,6.188323335108081e-07,1.2354367443693588e-06,7.091490114674524e-07,6.847628777212254e-08
-4.5960867432128844e-08,-1.0643948947480265e-06,-6.107853589803749e-07,1.1133877887258794e-07,-2.0076714231150274e-07,6.595323900903565e-07,1.1099641124013398e-07,8.348615542369365e-07,1.0313249667743994e-06,5.825400395178385e-07,2.6715975783742504e-07,7.379500845674273e-07,7.056982555741912e-08,8.043561410617346e-07,5.336626917882629e-07,1.1987545591132857e-06,6.979912687022378e-07,4.3118792961368357e-08
2.0978639504612317e-08,-1.1750964620378163e-06,-6.698555128821746e-07,1.8406293482525194e-07,-1.904967071683699e-07,6.557248872973908e-07,3.0072304546013656e-07,8.638503918963932e-07,1.022043896084736e-06,6.052055784591974e-07,2.404694927949306e-07,7.292028165830579e-07,4.306405534600847e-08,8.396281159188149e-07,5.298563393577457e-07,1.1861525253470123e-06,6.91807620726808e-07,4.1348948393037825e-08
8.447438102026911e-08,-1.333814557483379e-06,-7.316344051888585e-07,2.6806871244273743e-07,-1.5773289826935272e-07,6.446231586623047e-07,5.315118732408305e-07,7.918477177680146e-07,1.0022751407119203e-06,6.075892730728669e-07,2.1168114232579038e-07,7.514076399140368e-07,8.929680847834868e-09,8.56408091496453e-07,5.55747208391446e-07,1.1773588230163045e-06,6.909817388995353e-07,5.6390472384470117e-08
1.3014886244371129e-07,-1.4548354792799407e-06,-7.957733194803629e-07,3.3738736290994186e-07,-3.6044487982758616e-08,6.253802214242755e-07,7.101824836465859e-07,6.698312470268447e-07,9.757997869282148e-07,5.954718398939811e-07,1.7034146179546358e-07,7.631716480203684e-07,-3.0176705336911466e-08,8.476441190884808e-07,5.334938051196735e-07,1.1545363537846375e-06,6.801243767149054e-07,4.140182850632183e-08
1.509490897851167e-07,-1.5233566414372467e-06,-8.704886449026748e-07,3.875607500752876e-07,1.1982100360771438e-07,6.00962146622875e-07,7.560440264062115e-07,5.906801391995821e-07,9.459936213313498e-07,5.739373787059901e-07,1.1344666809974825e-07,6.990413902253766e-07,-7.452181462934921e-08,8.200574943734441e-07,4.900968833692244e-07,1.1050934804062796e-06,6.314251165047032e-07,-2.0902697984535006e-09
1.5041546815413855e-07,-1.5328929495310315e-06,-9.27403885644441e-07,4.206316370811882e-07,1.9574073150879076e-07,5.772016649705092e-07,6.594533980472381e-07,4.953872177349071e-07,9.148690112765128e-07,5.500955574574503e-07,6.963780350777286e-08,5.823759274278293e-07,-9.357552762000318e-08,7.861804588625554e-07,4.254807452552949e-07,1.0338624430145535e-06,5.818082725232877e-07,-4.1250160044810717e-08
1.3857591131812483e-07,-1.4973433374061654e-06,-9.520463232306883e-07,4.379207246772255e-07,2.1561629606061514e-07,5.605281062099015e-07,5.632543438266022e-07,4.496923871976924e-07,8.860744912089394e-07,5.35724589030328e-07,8.710040630564943e-08,5.559509150163568e-07,-6.395292540701935e-08,7.57715844167547e-07,4.6440891951024705e-07,1.05858764399566e-06,5.718021605488619e-07,-3.6516860442242893e-08
1.2508905179492003e-07,-1.4773949497076027e-06,-9.667871316636895e-07,4.3924496067034786e-07,1.5570004402093685e-07,5.554279108891127e-07,4.879151305480691e-07,4.6349833540173654e-07,8.633854523085988e-07,5.374640670378051e-07,1.0419905331436707e-07,6.395816408996954e-07,3.3639870776231614e-08,7.409255697294293e-07,5.44357430874446e-07,1.114041550735144e-06,6.318898321916089e-07,-8.081102594706098e-09
1.1604354381767066e-07,-1.5012268065256282e-06,-9.307390803860736e-07,4.2109122467595713e-07,7.798308058079791e-08,5.628766582187462e-07,4.3022841297921627e-07,5.198204419031337e-07,8.493767551526408e-07,5.559017039056204e-07,9.661039147579043e-08,6.679221506267035e-07,1.257556715637174e-07,7.294605948172582e-07,5.749693976440302e-07,1.1466781485908312e-06,6.663731844177486e-07,1.552430421266114e-08
1.1172980255117182e-07,-1.5256135618725547e-06,-8.555371859658283e-07,3.784499493240947e-07,8.899712780888292e-08,5.807536224182099e-07,4.373027621860004e-07,6.29843294871982e-07,8.464675182615425e-07,5.885524866730443e-07,1.2987841423116666e-07,7.155425139097906e-07,1.6338391783558982e-07,7.140370248429361e-07,6.116138854097686e-07,1.1942048981739892e-06,6.538757621815178e-07,2.8430391566868686e-08
1.0974387869338923e-07,-1.4653697796425377e-06,-7.887450631317029e-07,3.089279504170764e-07,9.336142664474848e-08,6.058010547693403e-07,3.301588268859172e-07,7.769077580173567e-07,8.568628326413315e-07,6.199295735613965e-07,1.792621943724156e-07,7.900738314446719e-07,1.885957258039912e-07,6.908013388999458e-07,6.370101473072426e-07,1.2416614649932163e-06,6.777808918553839e-07,4.2378420177435375e-08
1.097652661301674e-07,-1.366097690246684e-06,-7.536853396562298e-07,2.1243150110065885e-07,9.068156268731156e-08,6.356054777418856e-07,1.188102589103562e-07,9.524499187353323e-07,8.828098917097632e-07,6.491143961437556e-07,2.3357661505032208e-07,8.234203450188786e-07,1.981698048166312e-07,6.663754429550931e-07,6.320233405086417e-07,1.2397035259052514e-06,7.072491498728586e-07,4.027160915726807e-08
1.1349859997960765e-07,-1.3019983949281923e-06,-7.250012321437075e-07,9.996796589652767e-08,4.075335871331339e-08,6.692436006009702e-07,-2.2295111430025427e-08,1.1447475267966345e-06,9.25127541639717e-07,6.806413710035502e-07,2.7941646294935365e-07,8.04667863313507e-07,2.1368028152867922e-07,6.566867842798977e-07,6.241136501158129e-07,1.228548308685807e-06,7.349641583201079e-07,5.637344406125194e-08
1.2444098694306607e-07,-1.2327003567664827e-06,-7.148574938065639e-07,-1.0157492689720123e-08,-7.199044705788573e-08,7.05310309923861e-07,-4.403463706753954e-08,1.293173605615311e-06,9.807639616617144e-07,7.217140597042432e-07,3.176603626152652e-07,8.773997628989006e-07,2.597969523287577e-07,6.759394715887526e-07,6.947995336572547e-07,1.2829841926747436e-06,7.721436168246292e-07,8.9980190008275e-08
1.451784556496513e-07,-1.2118025504936041e-06,-7.267678256899044e-07,-9.693441276258707e-08,-1.988012166413254e-07,7.434920159648261e-07,-6.733867405558831e-08,1.3545177668621154e-06,1.0397337506023016e-06,7.528662478380428e-07,3.527731439112915e-07,9.615161496894036e-07,2.9539314156721335e-07,7.271382267026936e-07,7.718097687153465e-07,1.3147270092896617e-06,8.144293395805566e-07,1.3898844255116086e-07
1.8014200673895927e-07,-1.2495802637817862e-06,-7.551766830372634e-07,-1.4566307538603133e-07,-2.633629794365359e-07,7.802350290926272e-07,-4.627015903440388e-08,1.2932017371736655e-06,1.0870450218256357e-06,7.670001238438792e-07,3.7041488738981196e-07,1.0965008974483504e-06,2.649520268083346e-07,7.93326418311807e-07,7.672771455762049e-07,1.3257403244035869e-06,7.893817580111073e-07,1.1950571504195758e-07
2.219666478771409e-07,-1.2939009858581887e-06,-8.294004421267123e-07,-1.5082197875983636e-07,-2.59801469999546e-07,8.103904551571813e-07,3.60101222481971e-08,1.1940035794460498e-06,1.1062264562308693e-06,7.407575940468071e-07,3.4133791857969937e-07,1.1520779753517446e-06,2.388480292218445e-07,8.519590176528406e-07,7.56440631016793e-07,1.3243000763913828e-06,7.580480403722237e-07,8.728672576840236e-08
2.609721257426074e-07,-1.3766113508283097e-06,-8.742985114802524e-07,-1.1173650066217619e-07,-2.7832086136393095e-07,8.299159606834035e-07,8.624095408852175e-09,1.1289866467169746e-06,1.085160467957839e-06,6.490466630617725e-07,2.452834697284893e-07,1.2114441210470108e-06,2.3354558056082126e-07,8.792299593167803e-07,7.860979114396407e-07,1.3094082784860752e-06,7.507737028521227e-07,7.869169790058506e-08
2.90282885422764e-07,-1.5135276787717034e-06,-8.993905443789852e-07,-3.6976045985943814e-08,-3.207206080670544e-07,8.387613150231618e-07,1.795921310869856e-08,1.0232967173730634e-06,1.022874119645629e-06,6.159788182484567e-07,1.9743052516328936e-07,1.2907870367275092e-06,2.33068346325927e-07,8.600194668250365e-07,7.886186340160138e-07,1.2779168770981605e-06,7.372000301618591e-07,6.40539414312583e-08
2.9226499975612744e-07,-1.6378875943181038e-06,-9.55156325140162e-07,6.075589616332835e-08,-3.35061029925677e-07,8.400922045977248e-07,1.9483479056917725e-07,9.531134044133743e-07,9.31873321974912e-07,6.327628205943367e-07,1.926046932999907e-07,1.3482173011221746e-06,2.5188823254732744e-07,8.152028243814957e-07,8.074706385916426e-07,1.2790615198592315e-06,7.521019634915938e-07,5.4324415633560316e-08
2.706420678595317e-07,-1.7666157458072605e-06,-1.0568721469601529e-06,1.6552517766289288e-07,-3.376814695037376e-07,8.387997404362241e-07,3.8103172989046545e-07,9.144554841769803e-07,8.344976622757983e-07,6.627947004340222e-07,1.828423164247971e-07,1.401262563233287e-06,2.619577685868111e-07,7.511797920099669e-07,8.458934370201868e-07,1.288146771088292e-06,7.678679799557876e-07,6.213347495958736e-08
2.3154655568316379e-07,-1.8701120645553157e-06,-1.184493656394146e-06,2.5903193018777373e-07,-2.0754023154930564e-07,8.374588139142217e-07,5.628220625835925e-07,8.057444435949847e-07,7.543086092899353e-07,6.467629295303903e-07,1.477971307623239e-07,1.4937235607004375e-06,2.593969513353437e-07,6.786807207711802e-07,9.220219751288705e-07,1.2890727274624858e-06,7.226189021290029e-07,4.1123327388125146e-08
1.7747824470468687e-07,-1.9429576906770244e-06,-1.2927453600883603e-06,2.975276463858994e-07,-6.90545968539369e-08,8.312185606812986e-07,6.086546235834789e-07,7.483968362592505e-07,7.059518300125454e-07,6.024364718285288e-07,9.967545882923045e-08,1.595463413134768e-06,2.44183405786282e-07,6.097990980727955e-07,9.221890478410974e-07,1.2392987050782066e-06,6.868755373664065e-07,-1.8316667775947402e-09
1.2375830386054373e-07,-1.9618228650960762e-06,-1.3804371706356007e-06,2.746762098186167e-07,-5.649195365813845e-08,8.073627107133e-07,5.408117479787734e-07,7.217640462883831e-07,6.902830648140437e-07,6.068871191009471e-07,9.046426575772634e-08,1.6038606595263422e-06,2.4973831724200456e-07,5.634992655132917e-07,9.068603146516604e-07,1.215779689701328e-06,7.341465692396114e-07,-1.2378707374764623e-08
7.797239649009525e-08,-1.8786489734689564e-06,-1.438998842161252e-06,2.104884194143273e-07,-3.198396461053381e-08,7.574768774087925e-07,4.929159399652812e-07,6.814542610398664e-07,7.010588517083122e-07,6.461508905074713e-07,8.927506226704513e-08,1.609428534593165e-06,3.140952933309656e-07,5.383831814221418e-07,9.797584271230976e-07,1.2193553183394493e-06,7.634242358430213e-07,-6.690823509072714e-09
3.226307437520659e-08,-1.8503836120206883e-06,-1.482444948644853e-06,9.782487481834009e-08,-2.919135666583196e-08,6.859123153921981e-07,5.003256273767827e-07,7.724689515319593e-07,7.392825156309705e-07,6.979830639472342e-07,1.104076242559407e-07,1.651091249810423e-06,3.6857461643379235e-07,5.865826680886274e-07,1.0779223267386938e-06,1.2404157132230794e-06,7.71001911418495e-07,7.701381361412841e-09
9.746804007364235e-10,-1.867170197577963e-06,-1.512792308364856e-06,-1.3627414332822366e-08,-2.659948085568746e-08,6.044339205447879e-07,4.6721407306570945e-07,8.653825512555363e-07,7.730536716215468e-07,7.451019236025587e-07,1.3500068792587923e-07,1.7703424836069312e-06,3.9171877003323726e-07,7.455173988494998e-07,1.1076177376706736e-06,1.2419523194569195e-06,7.844450087707759e-07,1.909741289245836e-08
3.158144361824861e-08,-1.8301533579959218e-06,-1.5280717591603605e-06,-9.279085223862866e-08,-7.119243327154529e-08,5.651146345545928e-07,3.7042940428620166e-07,9.097768121542848e-07,8.36610181182534e-07,7.649516887942324e-07,1.4801192631293273e-07,1.8777539417673095e-06,4.378323149608286e-07,7.986082541280983e-07,1.1664439963688016e-06,1.2791997660112907e-06,8.144009899052456e-07,4.0815847412639076e-08
5.45471752120517e-08,-1.7638812240378986e-06,-1.5303843070024201e-06,-1.8673821279848908e-07,-1.8147360107568682e-07,6.089400924371216e-07,1.1476481966968824e-07,9.652793349815182e-07,9.199232048173956e-07,7.736928287482419e-07,1.4005492067859546e-07,1.9959966868012204e-06,4.705204694089367e-07,8.466944925092606e-07,1.2036960951300045e-06,1.2807770677432644e-06,8.363132404968059e-07,5.1993449160852664e-08
7.270404645068403e-08,-1.6444230041706135e-06,-1.5026023844643382e-06,-2.8814068830828674e-07,-3.233299784889106e-07,6.295097741890145e-07,-8.285674764250672e-08,1.115081040749193e-06,1.030479126826862e-06,7.921891574941882e-07,1.5296015739877906e-07,2.1091813827068978e-06,5.019994308920957e-07,8.744443748233762e-07,1.2113403821002162e-06,1.2921927323349723e-06,8.520144097557983e-07,6.776255575313386e-08
9.298065296556417e-08,-1.5418876721464539e-06,-1.4623119585559684e-06,-3.911803374944801e-07,-4.372918145573508e-07,6.273556450817816e-07,-9.968494943432245e-08,1.3368253580558008e-06,1.1520297964396527e-06,8.403432337280362e-07,1.9717606870399598e-07,2.150942232327944e-06,5.429670046939507e-07,8.85616998003366e-07,1.2472445035474245e-06,1.317211166155929e-06,9.137273344147028e-07,1.2127040832539572e-07
1.303313698936532e-07,-1.4835914437568011e-06,-1.4188466070475137e-06,-4.4605123218652377e-07,-5.441941008868532e-07,7.321286368501177e-07,-1.5161361500545844e-07,1.5810851427471679e-06,1.2732674924661531e-06,8.858269538385767e-07,2.881870546034488e-07,2.2857806901688465e-06,5.824295457558389e-07,9.533448029903991e-07,1.3084177367927678e-06,1.338275171371885e-06,9.478567542989216e-07,1.6100490464539858e-07
1.9386751107639949e-07,-1.4481508922542455e-06,-1.3755129004587348e-06,-3.8000827525177436e-07,-6.20883847310182e-07,8.570546937000754e-07,-7.069314738455718e-08,1.7008151225604168e-06,1.379605690255335e-06,9.416220190780357e-07,3.837831888408988e-07,2.3521181132869797e-06,6.157842325896911e-07,1.0054239762737186e-06,1.353166927684995e-06,1.3483565689874817e-06,9.612937477840138e-07,2.0218382136782185e-07
2.890949317957035e-07,-1.4947324025195055e-06,-1.3446433703682533e-06,-3.0582214474634266e-07,-6.776919288289656e-07,9.423413848556675e-07,-4.2839158193263214e-08,1.81409982133007e-06,1.4600494688133963e-06,9.948987583088665e-07,4.4753750559242686e-07,2.447270387827175e-06,6.601460570962327e-07,9.803684002651195e-07,1.3321756183237483e-06,1.3314231677555372e-06,9.571526428853771e-07,2.1893634286039663e-07
3.5610428765366147e-07,-1.5448662508317262e-06,-1.3115051363987925e-06,-2.0684040065741153e-07,-7.382467810381918e-07,1.0001009934542585e-06,2.072738062758823e-08,1.957750965010472e-06,1.5169027527004277e-06,1.0182696873766301e-06,5.004410880000687e-07,2.523234789214034e-06,7.202565672354545e-07,9.580442221690632e-07,1.3065594349784109e-06,1.3302826344279931e-06,9.61702432542466e-07,2.4250357403320893e-07
3.9502518087908356e-07,-1.565180705542171e-06,-1.2692993488526041e-06,-1.9436253479683966e-07,-8.054702598063444e-07,1.0487965281704647e-06,1.5359398394780253e-07,2.0038026499537993e-06,1.554689999637396e-06,1.0005983698126785e-06,5.255330196620676e-07,2.59311993150306e-06,7.655223113418837e-07,9.613931670615794e-07,1.2837448450109365e-06,1.3009085900815605e-06,9.469909133178637e-07,2.741607706002294e-07
4.0751103268471535e-07,-1.5466961715456037e-06,-1.2155107516614103e-06,-2.600829120073752e-07,-8.88553882715666e-07,1.0902296435619985e-06,2.7746704329759955e-07,1.9917206591416887e-06,1.5781696832016656e-06,9.55682520496802e-07,5.662592761020288e-07,2.69374313809453e-06,7.998672954452715e-07,9.894927529148377e-07,1.2676452147129636e-06,1.2350182485923964e-06,9.464579246770088e-07,2.7559324197451257e-07
4.147609380795915e-07,-1.4877790595143276e-06,-1.1492784165838175e-06,-2.1776626326373887e-07,-9.662449607429726e-07,1.1254966926316786e-06,5.156288385994155e-07,2.0023963453783386e-06,1.600791462607136e-06,9.373061927059218e-07,6.170594155379337e-07,2.8136450643699218e-06,8.66507633889518e-07,1.0198543849868242e-06,1.2293779230871035e-06,1.2415306345278631e-06,9.39168859333331e-07,2.945965696941656e-07
4.133344300782985e-07,-1.4031597349595191e-06,-1.0823304799467858e-06,-2.778587407521814e-08,-1.0344167648601014e-06,1.149412860132983e-06,7.999636338590361e-07,2.051494800509045e-06,1.6182142122291795e-06,9.624556165111488e-07,6.446246356544313e-07,2.8534162293673188e-06,9.262862528108163e-07,1.0208888737240658e-06,1.2096482742266286e-06,1.2462216646133385e-06,9.508725339720478e-07,3.0172081313581095e-07
4.131671752010438e-07,-1.3156370877095168e-06,-1.0216869759962316e-06,1.5346740317955136e-07,-1.0882413438100957e-06,1.1559558393959555e-06,1.0692461303600143e-06,2.0734577132516225e-06,1.6198571675505796e-06,9.685080617136223e-07,6.617380142271507e-07,2.8710031826217883e-06,9.710696862665454e-07,9.829171658002677e-07,1.1472387993326589e-06,1.2371955217030682e-06,9.469181027553359e-07,3.0523239820459197e-07
4.0467599634139856e-07,-1.2504420751284875e-06,-9.734868223852225e-07,3.0326807713676967e-07,-1.1291516492344273e-06,1.142607471947281e-06,1.3429571398254236e-06,2.0702120169487164e-06,1.6078688485186382e-06,9.77379228504606e-07,6.403005223855858e-07,2.8575277200626156e-06,1.02098200576501e-06,9.241830554057358e-07,1.1145769308303257e-06,1.2350571091555487e-06,9.387101981890689e-07,2.946391611890681e-07
3.633954693175048e-07,-1.2105540590504186e-06,-9.393515603334068e-07,3.87545878387462e-07,-1.1551426114129972e-06,1.1108611417141686e-06,1.5061339801644697e-06,2.05074391976919e-06,1.5644415167133424e-06,9.686645506691508e-07,6.000243983486449e-07,2.8545730596003146e-06,1.0365484895360691e-06,8.600319851313025e-07,1.1740802323876154e-06,1.2226184354772146e-06,9.31452363240001e-07,2.77514811958639e-07
3.124047490880228e-07,-1.1933814644338803e-06,-9.148560028384673e-07,4.0342216947727377e-07,-1.1587176860816472e-06,1.0666509215470571e-06,1.5906831709805198e-06,2.001749462305026e-06,1.4963610062337247e-06,9.56719159657504e-07,5.671584207018249e-07,2.8385241443171896e-06,1.0365313244543716e-06,7.85519225651743e-07,1.2172395498791441e-06,1.2252872700738726e-06,9.181738797136015e-07,2.5577720863876985e-07
2.579207812208475e-07,-1.1928971892259072e-06,-8.983035738166752e-07,4.344804747887215e-07,-1.1376290184182504e-06,1.0197209933811644e-06,1.6331912735136752e-06,1.9361167052864385e-06,1.4190242986043848e-06,9.438760270948033e-07,5.296431326099759e-07,2.815634781162957e-06,1.0588050905169827e-06,7.054638612510855e-07,1.2076682473591329e-06,1.253828604339376e-06,9.069815431494171e-07,2.3449113126187564e-07
1.9927073622347856e-07,-1.2054293216710564e-06,-8.869562027930194e-07,4.836613082280981e-07,-1.0908314044018835e-06,9.75355184163226e-07,1.6279889346592868e-06,1.8420502640878273e-06,1.3337495595700321e-06,9.295641692668085e-07,4.983112765857396e-07,2.8518890249919236e-06,1.0555954138214418e-06,6.433029205289961e-07,1.204441239988437e-06,1.2684487924502397e-06,8.883211851469546e-07,2.2404866334779164e-07
1.5682397928762394e-07,-1.2311627053562624e-06,-8.825740623448103e-07,5.310328128785344e-07,-1.0282610827977585e-06,9.45289905889103e-07,1.6040460356579816e-06,1.7445095939671638e-06,1.2419636505200056e-06,9.263962361963258e-07,4.777080970975854e-07,2.8707454230719034e-06,1.0617933815492905e-06,5.747193072758028e-07,1.1825112316000245e-06,1.308630458073774e-06,8.652126682782552e-07,2.0161449876063874e-07
1.2668340301430507e-07,-1.2713392017117351e-06,-8.867924474443879e-07,5.664736764235463e-07,-9.590453111500402e-07,9.221003901190251e-07,1.5618558553040133e-06,1.6450865710669493e-06,1.1668922006540639e-06,9.249548726759404e-07,4.5537388363045804e-07,2.860019029445415e-06,1.0660387819420997e-06,4.918561405036683e-07,1.1348157341854407e-06,1.3365791756706159e-06,8.540913359001644e-07,1.544246604665169e-07
1.0026034040430255e-07,-1.3213856803358133e-06,-8.998538931966733e-07,5.887291418162887e-07,-8.914286077191386e-07,9.017122482612522e-07,1.5011977927615143e-06,1.549457767283191e-06,1.1045384784411993e-06,9.055651568638076e-07,4.297648935165047e-07,2.832594406763644e-06,1.052905101846864e-06,4.0816934157509103e-07,1.1691130749809935e-06,1.345467778762554e-06,8.314151628195854e-07,9.281538851110985e-08
7.771157289693917e-08,-1.3667960496815421e-06,-9.190893090918005e-07,6.028401228238192e-07,-8.264821478922677e-07,8.828026247896605e-07,1.4309062716397804e-06,1.4865626465078955e-06,1.031086307987967e-06,8.693972739652737e-07,4.017604284545525e-07,2.785516605040598e-06,1.0419317845057844e-06,3.138176936865582e-07,1.2495499145139036e-06,1.3601992948721323e-06,7.998283313799179e-07,2.5674893548533566e-08
5.6280573799386496e-08,-1.4054860222644632e-06,-9.452948100517845e-07,6.106168140217333e-07,-7.667966603534245e-07,8.576778288497654e-07,1.357753742695112e-06,1.433968668448412e-06,9.796215555353238e-07,8.224385755468273e-07,3.621789702808151e-07,2.7338592718620944e-06,1.0149775881348248e-06,2.2556081654794528e-07,1.2911522088064521e-06,1.3744764374806312e-06,7.717502666315789e-07,-3.8895914493958975e-08
3.174220330517749e-08,-1.437808638872569e-06,-9.630851399965488e-07,6.049518991379017e-07,-7.023706865853157e-07,8.135683437238248e-07,1.2850270777399862e-06,1.395630194880964e-06,9.380841204375852e-07,7.638697064409929e-07,3.133055216118751e-07,2.719860074440155e-06,9.753356107254537e-07,1.743417744978689e-07,1.2910457884760652e-06,1.3975731552248103e-06,7.367154782575896e-07,-9.626110038800569e-08
2.663828642150366e-09,-1.469410502522378e-06,-9.690349599373303e-07,5.579662837236217e-07,-6.485942886651738e-07,7.474201056029604e-07,1.2105137164848286e-06,1.3529837732403476e-06,8.713093098806566e-07,6.961276601323292e-07,2.572014333049255e-07,2.712795550290299e-06,9.145965082117411e-07,1.4541115472691304e-07,1.2421193641050322e-06,1.4110389115905411e-06,6.905516238148442e-07,-1.536539161751128e-07
-3.4412668684248467e-08,-1.4833144573791121e-06,-9.81150330374987e-07,4.6664171821929195e-07,-5.979769647838842e-07,6.740269842153927e-07,1.1280310273399313e-06,1.318741878039078e-06,8.307246831037829e-07,6.197122213326482e-07,1.9398881088685742e-07,2.691832919576679e-06,8.484052685388364e-07,1.319551536576118e-07,1.239053123164786e-06,1.417223308787281e-06,6.275642416745795e-07,-2.137509215904173e-07
-7.28673548187648e-08,-1.4731716249638745e-06,-9.741738604530292e-07,3.466686151958426e-07,-5.619334361096603e-07,5.878263156199781e-07,1.031180153370442e-06,1.2748356494591625e-06,8.761323527714569e-07,5.361004697809366e-07,1.3617174102413787e-07,2.662033175990746e-06,7.724492448971208e-07,1.2975147761670464e-07,1.3149312181699303e-06,1.4149326786791239e-06,5.481164120145984e-07,-2.6537895570193174e-07
-1.1594906677836691e-07,-1.4198666629884126e-06,-9.50194383143327e-07,2.1528544251869233e-07,-5.230086759448199e-07,4.969501365996396e-07,9.17592023395314e-07,1.2058032332507346e-06,8.618845705124282e-07,4.6187547372553586e-07,8.880611309008203e-08,2.6047124737064493e-06,6.864065519699142e-07,1.3270424818369738e-07,1.3423681544308464e-06,1.4203783940696212e-06,4.589602468701768e-07,-3.081246778108191e-07
-1.5632573574211355e-07,-1.3221296543671742e-06,-9.063106649842606e-07,9.259700624739478e-08,-4.907492744270652e-07,4.401219492132997e-07,7.914072434756908e-07,1.1066603551663418e-06,7.933618038082491e-07,4.045058686825301e-07,5.2833291190186773e-08,2.51569768501546e-06,6.019125040668707e-07,1.5365442913633538e-07,1.2846500535446682e-06,1.4035715873865104e-06,3.738320551400469e-07,-3.4301967766752925e-07
-1.7465654349552212e-07,-1.2658383094726882e-06,-8.394452011607263e-07,-3.4471575215514364e-09,-4.4822057610999734e-07,4.145851795380626e-07,6.619043511623127e-07,9.56159597972161e-07,6.703919938199074e-07,3.654229829893265e-07,3.420676610165127e-08,2.395887588171844e-06,5.220014813018281e-07,1.9640098282528167e-07,1.2371325830355992e-06,1.3667685063898292e-06,3.0835034384331834e-07,-3.6859259314636843e-07
-1.7373671459387577e-07,-1.2539959028046414e-06,-7.715242407796616e-07,-6.249064237553166e-08,-3.8467766172946436e-07,4.487222003062169e-07,5.398759240085324e-07,7.929185256058327e-07,5.160200051199308e-07,3.4500727332578565e-07,3.3682827668701124e-08,2.247712963652097e-06,4.5965627623199514e-07,2.555859274312303e-07,1.1597486149886565e-06,1.3081524269212593e-06,2.650893144611941e-07,-3.8679045695956874e-07
-1.6213879234997462e-07,-1.2035490449803096e-06,-7.122914387589134e-07,-8.373391532567483e-08,-3.503872595026652e-07,5.762274412249173e-07,4.337748170925576e-07,6.371299287492848e-07,3.409830384978291e-07,3.3667263610362394e-07,4.6800533828419474e-08,2.0771007516922655e-06,4.202903202473087e-07,3.1486863147326814e-07,1.0569760911656237e-06,1.2237370390387124e-06,2.479380528384101e-07,-3.9675665902017407e-07
-1.346128702968136e-07,-1.1253991834202266e-06,-6.639274948226815e-07,-7.482042722903966e-08,-3.236229330928438e-07,6.723998334969329e-07,3.485017031873924e-07,5.456220784635737e-07,2.229616666818623e-07,3.3457431138872473e-07,7.80431733890132e-08,1.945482584470154e-06,3.937120935937854e-07,3.748575997279816e-07,1.005812391389807e-06,1.131665312527716e-06,2.504173177280463e-07,-3.9478556464468605e-07
-1.1129635594140173e-07,-1.0110337191930792e-06,-5.780198583931589e-07,-4.947618077516734e-08,-3.0365887932616255e-07,6.824765905112495e-07,2.8702677307316596e-07,4.958247121710071e-07,1.545806378989148e-07,3.354307886598428e-07,1.259574630393504e-07,1.8425530218559438e-06,3.747148875072141e-07,4.4350031435915705e-07,9.509240699541918e-07,1.0359342495385933e-06,2.416466288035774e-07,-3.7909422389290937e-07
-1.0936616016828979e-07,-8.814308649732958e-07,-4.5145936505942044e-07,-2.1503468153327847e-08,-2.892056664589439e-07,6.873477511733733e-07,2.52563297338088e-07,5.094328118399535e-07,1.2807320859225983e-07,3.3816803974341064e-07,1.616232886559944e-07,1.8588116994465012e-06,3.6413627978366163e-07,5.291065219910921e-07,8.847030389877677e-07,9.471879610423674e-07,2.271975499750114e-07,-3.501233935129747e-07
-8.95232250173554e-08,-7.494831413876053e-07,-3.142550132611681e-07,-4.2231319253717915e-10,-2.8127330918327746e-07,6.934389506815475e-07,2.486950955283869e-07,6.3572784333201e-07,1.587928579749114e-07,3.408775182680373e-07,1.8715424905459107e-07,1.8943217927822835e-06,3.6421948634868175e-07,6.397730775799114e-07,8.188509565151008e-07,8.729312074388238e-07,2.053128391764253e-07,-3.09061881591371e-07
-6.672546231777254e-08,-6.382731627261345e-07,-1.7465438034643388e-07,7.550802661549073e-09,-2.2139612155513583e-07,7.073069216378689e-07,2.772337373633265e-07,6.760623880602187e-07,1.5955861590964693e-07,3.4482574477907403e-07,2.0653572156708055e-07,1.8482499996684347e-06,3.7443195776317875e-07,7.683846845706068e-07,7.643028881005057e-07,8.204437590824545e-07,1.667800692603418e-07,-2.6231613744993585e-07
-3.832429733018711e-08,-5.43998299845894e-07,-6.601415532172596e-08,-1.5964850425585573e-09,-1.5336286301145295e-07,7.431597779772889e-07,3.360181901914642e-07,6.274184841292335e-07,7.257235326868322e-08,3.493571458821478e-07,2.2241184041735867e-07,1.8014774696443675e-06,3.862757176703961e-07,8.998680504148301e-07,7.169374472492749e-07,7.921950415164993e-07,1.3320289967387854e-07,-2.19700755655306e-07
6.40128025450533e-09,-4.568521308349101e-07,-8.226524103545389e-09,-2.8408038910453114e-08,-9.626829430499354e-08,7.800063212308349e-07,4.1872166793484797e-07,5.248165213150887e-07,-3.436220380177232e-08,3.519662644946909e-07,2.417531787395242e-07,1.7846338138662356e-06,4.0042618232143737e-07,1.0165125564442103e-06,6.780483122074991e-07,7.745873718289528e-07,1.263162735396623e-07,-1.8957496054551893e-07
3.485612615901908e-08,-3.800899361384339e-07,3.446410462923406e-08,-6.824481982464713e-08,1.1174007508505685e-08,8.176457719638732e-07,5.174746105560821e-07,4.7415083224591383e-07,-1.1917306105519612e-07,3.5252883484157e-07,2.7586866402137775e-07,1.8275147801446373e-06,4.0657319123219815e-07,1.106915459492618e-06,6.442547901558065e-07,7.635403273472662e-07,1.1414394830565519e-07,-1.7563902191230202e-07
5.595462791075813e-08,-3.0554761017954387e-07,7.116046108941485e-08,-1.1184616661753895e-07,1.1610337488116536e-07,8.942365857789553e-07,6.264868672616484e-07,4.3046618781713126e-07,-1.417937835836638e-07,3.52666525527297e-07,3.249123868154922e-07,1.9196696095151042e-06,4.048283600855273e-07,1.169517801316275e-06,6.097126116513348e-07,7.526866334657389e-07,9.216396221381357e-08,-1.737404807100499e-07
7.639690972112732e-08,-2.534095868389346e-07,9.026834592779971e-08,-1.4895237368203882e-07,2.0937474431174392e-07,9.698940148014777e-07,7.434886979400028e-07,4.0544492809863274e-07,-2.0469084025673308e-07,3.55990953864255e-07,3.7397972073408286e-07,2.022410307132204e-06,4.0227853245307903e-07,1.211396896687561e-06,5.945030693220351e-07,7.415908726518211e-07,1.0654487361087268e-07,-1.764441631232737e-07
1.1197598139054253e-07,-2.11713082743827e-07,1.1057208492963254e-07,-1.7227984736676625e-07,3.1570680284071695e-07,1.037581339324398e-06,8.682186204788476e-07,3.908654578115777e-07,-2.2793378971019365e-07,3.664313865855682e-07,4.5128216061464443e-07,2.148838864512891e-06,4.026973345785812e-07,1.2414250577710052e-06,6.055231708081979e-07,7.350628813068367e-07,1.2621249383519194e-07,-1.772245916467298e-07
1.6761533800085444e-07,-1.6793550256770294e-07,1.3452937221253155e-07,-1.800135382009518e-07,4.0209881592083257e-07,1.1149730589009909e-06,9.994568608412495e-07,3.80614071542958e-07,-2.09388506500648e-07,3.845227741830577e-07,5.338424196064388e-07,2.2409984045408068e-06,4.099793334202157e-07,1.2625440508627392e-06,6.404980524468912e-07,7.352042041157294e-07,1.5130385267405e-07,-1.7319754133031782e-07
2.3464500093542477e-07,-1.2486492540420613e-07,1.6151902103508382e-07,-1.7537611556344162e-07,4.4368637758937803e-07,1.186788903091077e-06,1.1334399243826063e-06,3.717550735278552e-07,-1.6370821283027318e-07,4.076053836407216e-07,6.0302445246386e-07,2.286491569416372e-06,4.2230734589216194e-07,1.268019627103034e-06,6.806960215488605e-07,7.5961613774849e-07,1.8883983742168787e-07,-1.6687855027432295e-07
2.988510800569388e-07,-8.71736829622591e-08,1.8793206792354088e-07,-1.643633007379299e-07,4.617659881674237e-07,1.25967223984444e-06,1.2654608811924762e-06,3.724122121679415e-07,-8.618047535861344e-08,4.3178713722667774e-07,6.645545175340274e-07,2.30693024192083e-06,4.357491554796134e-07,1.2564466650385647e-06,6.963863456961667e-07,7.980314175519626e-07,2.1967150119734168e-07,-1.6275040112537207e-07
3.39088167559642e-07,-7.434554982532855e-08,2.177455164697599e-07,-1.528147336640812e-07,4.672028276841371e-07,1.3395413171145382e-06,1.392841684143643e-06,4.362757143056969e-07,-2.02555240592028e-08,4.543822358339008e-07,7.115613875442628e-07,2.3034332767705034e-06,4.4270171681478004e-07,1.2322282204973074e-06,6.901842356401826e-07,8.49347824461027e-07,2.5341445873532896e-07,-1.6574285354623323e-07
3.565192492373384e-07,-8.921773574195453e-08,2.3408696288812256e-07,-1.4442694495162395e-07,4.6787947805009193e-07,1.3928804457204167e-06,1.5161789326349262e-06,5.616403595475944e-07,4.51074450185837e-08,4.7503089681653887e-07,7.53428555991588e-07,2.30134361018052e-06,4.4477339354716137e-07,1.209019332894299e-06,6.658994982948372e-07,9.155554408014938e-07,2.988534929117939e-07,-1.7528217027496506e-07
3.6144757992358265e-07,-1.2900449311404922e-07,2.268839168840881e-07,-1.4118597073175272e-07,4.965359862286375e-07,1.4021585011049635e-06,1.6373620581539158e-06,7.08169030696459e-07,1.2638430399345047e-07,4.945727666901712e-07,7.986206101385171e-07,2.3123833079679746e-06,4.49683306726331e-07,1.1976626704151557e-06,6.199050063914008e-07,9.933812130742247e-07,3.5194055776494087e-07,-1.890821162331429e-07
3.655922019910745e-07,-1.7528729008751538e-07,2.0672092526380392e-07,-1.4356208826915674e-07,5.082207250938809e-07,1.3605967019238584e-06,1.7557263075981105e-06,8.798028323320642e-07,2.0583325313814414e-07,5.128356100867241e-07,8.519719922280581e-07,2.349549965452183e-06,4.59669703388186e-07,1.2015795794512219e-06,5.76927431457061e-07,1.083941367518763e-06,3.912074290079763e-07,-2.0617165113251495e-07
3.6567858464815334e-07,-2.2783457125685052e-07,1.7061397055746083e-07,-1.5199596841080761e-07,4.850970035569396e-07,1.2829154570965851e-06,1.865010928971496e-06,1.0594113797075087e-06,2.7998297981306963e-07,5.270903805377534e-07,8.927492308853521e-07,2.411538836662153e-06,4.7416598709586345e-07,1.2162066771931537e-06,5.284761856445913e-07,1.179118542956614e-06,4.155186581857156e-07,-2.2793236665898275e-07
3.536869723034282e-07,-2.885293918903521e-07,1.220079662986444e-07,-1.6484780834764915e-07,4.7055929527357357e-07,1.2508683715069557e-06,1.953627205602017e-06,1.1863345594775632e-06,3.3382709465966165e-07,5.333613246009969e-07,9.172310277045578e-07,2.4845019128787745e-06,4.888009838584246e-07,1.2296228313410211e-06,4.6614134901960393e-07,1.259298998975482e-06,4.197311117317564e-07,-2.571037756714619e-07
3.1775045092826625e-07,-3.509142368628737e-07,5.631707939759849e-08,-1.7528931470025683e-07,4.2208475257171813e-07,1.245657687896171e-06,2.0088306546010035e-06,1.229726816241291e-06,3.020272792269351e-07,5.289797461574882e-07,9.246870898186021e-07,2.5504409252621875e-06,4.973304441074452e-07,1.2335032884867346e-06,3.9518335161878155e-07,1.3097709658992976e-06,3.967142468790536e-07,-2.947106295428433e-07
2.5834607728593184e-07,-4.079685915905357e-07,-1.4005565873332007e-08,-1.7168888459120438e-07,4.541902094196374e-07,1.2916420962070948e-06,2.0225666049535638e-06,1.282010128221137e-06,2.726779347598823e-07,5.148766706018314e-07,9.10567085655751e-07,2.5924785864905805e-06,4.98252450264761e-07,1.2251382707359772e-06,3.2256399219580636e-07,1.3250812982159472e-06,3.6011987448017476e-07,-3.38229781733993e-07
1.9721256914161264e-07,-4.358744314192197e-07,-8.379848190127169e-08,-1.3909978437312382e-07,6.046328932171669e-07,1.3609675306920513e-06,1.9956175434890766e-06,1.301508039890379e-06,3.106381722047031e-07,4.956534089181966e-07,8.837291938348433e-07,2.605762269272853e-06,4.934307699288992e-07,1.208980781861384e-06,2.5873186470945084e-07,1.3073178159776091e-06,3.1660427268390086e-07,-3.8149211005997945e-07
1.4261105072413022e-07,-4.255885854531326e-07,-1.406933422096086e-07,-7.132708191861019e-08,7.360457181706588e-07,1.3357824423698612e-06,1.9375986466728934e-06,1.318786380589449e-06,3.3406151359074264e-07,4.767062292692711e-07,8.515429490666124e-07,2.5967126486079746e-06,4.875785387074698e-07,1.1917158445697127e-06,2.1318072767187704e-07,1.265534679435603e-06,2.722268173579485e-07,-4.190359829468117e-07
1.0726720339306095e-07,-3.78530236602544e-07,-1.7147690694698487e-07,2.6609805522471024e-08,7.730946430368457e-07,1.2768886121423917e-06,1.8628696138513219e-06,1.3479024002324678e-06,3.6947323965100436e-07,4.6107908260141965e-07,8.195099618890497e-07,2.571231117233648e-06,4.840454642175082e-07,1.1774039012507791e-06,1.9012730519920332e-07,1.2093692460066283e-06,2.3390174402495753e-07,-4.486622589743129e-07
8.85507823665162e-08,-3.1273225264298714e-07,-1.8753437506585718e-07,1.3832089276528902e-07,7.777217949412322e-07,1.2547306875198187e-06,1.7845316748133021e-06,1.3197361368465354e-06,3.184753688846651e-07,4.4751506237778395e-07,7.894905967515345e-07,2.5376587957228118e-06,4.832921928127511e-07,1.16302535725248e-06,1.7641577877769348e-07,1.1447527616106715e-06,2.0110002239169198e-07,-4.7186719524361037e-07
7.290501988289428e-08,-2.4687484677231367e-07,-2.0189231831000295e-07,2.394714985283629e-07,7.854853395387723e-07,1.2092670056100349e-06,1.710278493323182e-06,1.2203564434060518e-06,2.4217075363125727e-07,4.31304315460347e-07,7.631175780125832e-07,2.502421951546148e-06,4.825090240728054e-07,1.1401053207312045e-06,1.6465784045995013e-07,1.0734785342595748e-06,1.6570372420734855e-07,-4.93006152070763e-07
5.691316319152443e-08,-1.9762695229770462e-07,-2.2625171731504344e-07,3.079754019829741e-07,7.721688715150984e-07,1.1459777664422098e-06,1.6419551875650545e-06,1.1351198946934738e-06,1.723274066017633e-07,4.0799362810268286e-07,7.359225836201851e-07,2.4661302483822935e-06,4.749876953101647e-07,1.1021452282014335e-06,1.4335994390296535e-07,9.96426750632511e-07,1.2304069272908498e-07,-5.156368170260443e-07
3.057180332458259e-08,-1.7921393999079516e-07,-2.581774228274493e-07,3.3138437315099344e-07,8.110936181727892e-07,1.0992321109774902e-06,1.5778737481909621e-06,1.0579250886152322e-06,8.060355906946381e-08,3.7650037793379316e-07,7.054378204112739e-07,2.4297956916578144e-06,4.579215339079703e-07,1.051176956824298e-06,1.0778611805123958e-07,9.107479353258913e-07,7.609884143221735e-08,-5.395834478397083e-07
-6.2519048557177724e-09,-1.919126202780482e-07,-2.9842264891738874e-07,3.109053407096252e-07,8.84284728152417e-07,1.0525655085965328e-06,1.5156947262835255e-06,1.0151922062351054e-06,3.7457135880569525e-08,3.4017433976581273e-07,6.746870627548175e-07,2.3937425635387286e-06,4.3132583451837994e-07,9.965086979849316e-07,6.977055030755592e-08,8.227435914687233e-07,3.265759472542449e-08,-5.607498270633253e-07
-4.9824196776077546e-08,-2.2948435013612753e-07,-3.397090691048702e-07,2.5954414711023156e-07,9.598046414672847e-07,1.0061259537674883e-06,1.452999229299266e-06,1.0155265146115465e-06,9.867473028349941e-09,3.0542627939190706e-07,6.479349350124531e-07,2.3573960637717087e-06,3.980744800401514e-07,9.507434202756269e-07,3.590046719090956e-08,7.399096512143771e-07,2.8657461158328134e-09,-5.737111052906564e-07
-9.117517654910002e-08,-2.768842282091532e-07,-3.7315517976230167e-07,1.9788045064091734e-07,1.0099293991148853e-06,9.68947163214245e-07,1.3862639593909192e-06,1.0438849781781122e-06,-1.8095956651445447e-08,2.7849864749945163e-07,6.302928692724434e-07,2.3167390921473004e-06,3.6091432527693084e-07,9.201245096740565e-07,1.2597080613857253e-08,6.674683027019412e-07,-9.259993851175487e-09,-5.76580149135214e-07
-1.2222902763441925e-07,-3.193772519922945e-07,-3.9294848485186097e-07,1.4711710625853838e-07,1.0304698875988274e-06,9.252656629327791e-07,1.3096957442021835e-06,1.0533649480973453e-06,-3.900099628175718e-08,2.620900269916739e-07,6.230728083619082e-07,2.2629983346432854e-06,3.213310155543973e-07,9.002497674568376e-07,3.321392063140926e-09,6.083815077722041e-07,-1.0322384867777494e-08,-5.71858881310214e-07
-1.426443666952148e-07,-3.4760946028116536e-07,-3.968147816777208e-07,1.2119275681073857e-07,1.01702773731905e-06,8.596373007525034e-07,1.21632728362291e-06,1.0365481274991774e-06,-5.555416195688401e-08,2.537904920966632e-07,6.216905560692834e-07,2.1842866683139057e-06,2.801600858041688e-07,8.766057759009005e-07,-6.370598131041571e-09,5.572082015561135e-07,-1.4667203010794591e-08,-5.672928517255797e-07
-1.5676194704610657e-07,-3.6334069854699266e-07,-3.887665786501781e-07,1.266380176672603e-07,9.68170848447918e-07,7.951838161990211e-07,1.1021560377555283e-06,1.03536875342964e-06,-6.846838550194828e-08,2.473666518890264e-07,6.178440203220037e-07,2.0733047355638144e-06,2.368391505104707e-07,8.323244041688711e-07,-2.1011414527944984e-08,5.057512851816481e-07,-3.675183183290648e-08,-5.717963395855268e-07
-1.735296189815222e-07,-3.741972280616634e-07,-3.7564569910172037e-07,1.5993963044961734e-07,9.07029414785379e-07,7.28281576421997e-07,9.70770892106547e-07,1.0169971158678608e-06,-8.56751415228869e-08,2.362015165857426e-07,6.038963488711762e-07,1.933761423074639e-06,1.9307690529574555e-07,7.593625523709608e-07,-4.20774791871589e-08,4.480586894201581e-07,-8.274716748313313e-08,-5.902266526359127e-07
-1.971280659073504e-07,-3.8605415178509595e-07,-3.65528919466121e-07,2.1115140235463833e-07,8.263381655451288e-07,6.511058019278963e-07,8.341136545595307e-07,9.80219776992565e-07,-1.1102607211013758e-07,2.1692996022111682e-07,5.770368222887735e-07,1.7795398709274321e-06,1.5137941259329502e-07,6.632521812459718e-07,-7.019899893098042e-08,3.831945390205776e-07,-1.4676281691075417e-07,-6.216921300550393e-07
-2.262819146941603e-07,-4.0221247692700983e-07,-3.589468659278363e-07,2.688510031534478e-07,7.20866532623363e-07,5.75965850018728e-07,7.089633667895118e-07,9.377352215196493e-07,-1.487303647766517e-07,1.9059985959182535e-07,5.405960142490602e-07,1.6311308771166655e-06,1.1580605810552087e-07,5.618748650326685e-07,-9.998759677637213e-08,3.1233700162999307e-07,-2.1615124055156336e-07,-6.597927808942177e-07
-2.5548502983341667e-07,-4.226423795111596e-07,-3.5420870214365133e-07,3.2101502791079643e-07,6.130747751161308e-07,4.918359803176038e-07,6.115670577652507e-07,8.812740985383616e-07,-1.8462612764939942e-07,1.612198396307818e-07,5.020867907830087e-07,1.5089370457223883e-06,8.96898091658458e-08,4.7651197127229814e-07,-1.267869912043411e-07,2.5009657008290266e-07,-2.754002478783257e-07,-6.960402858606874e-07
-2.7999423923312865e-07,-4.422822155397339e-07,-3.5121785525732087e-07,3.593786388620017e-07,5.258044131718752e-07,4.21523107440664e-07,5.523220003431361e-07,8.149133763554462e-07,-2.1228038347484853e-07,1.329189255140651e-07,4.69242790071258e-07,1.4252882094834106e-06,7.469828047945769e-08,4.2131072087110877e-07,-1.4995359186460946e-07,2.0033600351238904e-07,-3.1631130683600265e-07,-7.243328480238872e-07
-2.983392769457016e-07,-4.601778534461572e-07,-3.5454423153554536e-07,3.8024507977079995e-07,4.479414884729961e-07,3.71545841202575e-07,5.321298868838115e-07,7.624693385477356e-07,-2.3224194170309756e-07,1.0747233397686162e-07,4.4611438001418454e-07,1.3815964515944956e-06,6.897941631705645e-08,3.961497575087698e-07,-1.7335746946549737e-07,1.6311103472256577e-07,-3.425122233763616e-07,-7.443482968837057e-07
-3.126043126041818e-07,-4.7649021802017087e-07,-3.648738911073261e-07,3.8425577081143325e-07,3.807021111576207e-07,3.35229172538242e-07,5.418039554233675e-07,7.226341161812613e-07,-2.5117624562274925e-07,8.36655044755739e-08,4.314029379917241e-07,1.366618242968933e-06,6.62589228109141e-08,3.884373992646369e-07,-2.014728600450728e-07,1.358032155919649e-07,-3.637407972944249e-07,-7.610675667739414e-07
-3.2749277664309075e-07,-4.925714711911314e-07,-3.830285412605438e-07,3.738928456605045e-07,3.1907455617290904e-07,2.9614107059600724e-07,5.655063971210255e-07,6.810317687602959e-07,-2.7458857688633014e-07,5.933422524581377e-08,4.200910561342898e-07,1.3615453934810836e-06,5.9009271689460466e-08,3.820684589843117e-07,-2.4351652262416586e-07,1.0508176749163332e-07,-3.9198416860200556e-07,-7.796577322073276e-07
-3.463759329805482e-07,-5.103350852726312e-07,-4.108192517042518e-07,3.531333819862986e-07,2.509699656854466e-07,2.5988269018052626e-07,5.869900848726755e-07,6.458857792413565e-07,-3.0473574582796357e-07,3.3469209785328805e-08,4.0715970586935305e-07,1.3496880383926887e-06,4.180445411388795e-08,3.669199665429797e-07,-3.047213071632846e-07,6.576656377134506e-08,-4.3178539014347784e-07,-8.03075285363972e-07
-3.69068973155809e-07,-5.293526330436538e-07,-4.435393222088804e-07,3.2334020608695904e-07,1.8799078947700367e-07,2.209876201721357e-07,5.952607849165507e-07,6.120636089489984e-07,-3.410841911062402e-07,7.2601271614735544e-09,3.906787285294133e-07,1.3228098141897253e-06,1.3153038512219317e-08,3.432510643391062e-07,-3.833508182329021e-07,1.6648056387349248e-08,-4.784410371968128e-07,-8.30416103502902e-07
-3.9171753868914233e-07,-5.47268837338253e-07,-4.7601123645318684e-07,2.881452179725633e-07,1.4109202133856423e-07,1.7514501981434135e-07,5.863760022219201e-07,5.851589174610583e-07,-3.7928348375187613e-07,-1.607475771418362e-08,3.7230107846656566e-07,1.2812216650103101e-06,-2.4263265907788204e-08,3.1839837125699e-07,-4.61672936352325e-07,-3.922610740939964e-08,-5.246098577297802e-07,-8.57965578490136e-07
-4.0886888616468096e-07,-5.601937566242418e-07,-5.026062374115738e-07,2.5284646744734927e-07,1.1045868855511909e-07,1.3392976234957645e-07,5.612174531552157e-07,5.682094589908012e-07,-4.162018043108896e-07,-3.2239243296023175e-08,3.5518682828397804e-07,1.2295390611877137e-06,-6.514218098831082e-08,2.990288825866594e-07,-5.354280728895595e-07,-9.954365022085316e-08,-5.631527821711e-07,-8.821127024998238e-07
-4.1682993721147214e-07,-5.661696441194473e-07,-5.189444233313319e-07,2.2182182031003248e-07,1.1177742428122599e-07,9.071674401055361e-08,5.211044656955944e-07,5.569995877588117e-07,-4.508365883952774e-07,-4.0133411695272133e-08,3.4100611647394553e-07,1.1704596902612497e-06,-1.0587296406241123e-07,2.843391003807484e-07,-6.051659978263442e-07,-1.6162221125042896e-07,-5.939671033741122e-07,-9.025365898666127e-07
-4.159656782593543e-07,-5.650783963394018e-07,-5.260328506986525e-07,1.9956679371869326e-07,1.2341861038611358e-07,4.451421771378711e-08,4.646633162398109e-07,5.46564538174087e-07,-4.833793622464847e-07,-4.1454303459745326e-08,3.2824027015852535e-07,1.1004088807063693e-06,-1.4511263147557318e-07,2.651660015322771e-07,-6.69616045365458e-07,-2.2507895297277442e-07,-6.239225577632569e-07,-9.219346943462227e-07
-4.1026841248211426e-07,-5.603291953107839e-07,-5.277466632168896e-07,1.8858976483452784e-07,1.2233554164493999e-07,-5.1230990085962205e-09,3.8888853666711195e-07,5.293709789039841e-07,-5.159545180927129e-07,-4.023901241678474e-08,3.1301780493295317e-07,1.0138340431482651e-06,-1.8273065446700927e-07,2.3020384979958541e-07,-7.31867026855828e-07,-2.9142363082467936e-07,-6.610207482733011e-07,-9.431324262691669e-07
-4.0443220802539235e-07,-5.55362684774226e-07,-5.292446091837312e-07,1.8772198128055015e-07,9.877500040920231e-08,-5.999789093399711e-08,2.9397137827130185e-07,5.018543940495133e-07,-5.504836637021843e-07,-4.0117993277630973e-08,2.917751148805687e-07,9.099067106845627e-07,-2.1777158962868873e-07,1.747844577405764e-07,-7.882522051837247e-07,-3.588203252228931e-07,-7.076418967272484e-07,-9.667114497370967e-07
-4.005421709083747e-07,-5.516170517264272e-07,-5.345665436862608e-07,1.9322469469567188e-07,4.643677783629293e-08,-1.2121393462999308e-07,1.8772858327732687e-07,4.6387173201120547e-07,-5.867351363708405e-07,-4.24919134719646e-08,2.6377982725169246e-07,7.971228696012562e-07,-2.469724468575813e-07,1.0574527728308876e-07,-8.326086707832139e-07,-4.230517045631136e-07,-7.582744462495846e-07,-9.891187578049644e-07
-3.967987049101847e-07,-5.470120872230825e-07,-5.440769057068958e-07,2.0107815709422636e-07,-2.0574846483246095e-08,-1.8066533031925618e-07,8.559902629049772e-08,4.1973693933827906e-07,-6.23539419115648e-07,-4.6315766068603634e-08,2.3192192621461348e-07,6.922942992199522e-07,-2.650683837656398e-07,3.915366823703338e-08,-8.590233101092948e-07,-4.796382435868586e-07,-8.022465561228988e-07,-1.0042560096184025e-06
-3.8915978295731667e-07,-5.382618031295967e-07,-5.55954055242589e-07,2.0549317623381974e-07,-8.100142350939415e-08,-2.2818774949796508e-07,5.7148158607485936e-09,3.729135937282854e-07,-6.601567189832253e-07,-4.883838252022695e-08,2.0136484945646866e-07,6.132369516051013e-07,-2.6750119810549444e-07,-7.707149744388954e-09,-8.682445285184852e-07,-5.230133094840646e-07,-8.314425886655181e-07,-1.0073045240651504e-06
-3.748200470075542e-07,-5.241770367525903e-07,-5.692858846161685e-07,2.0515719015603828e-07,-1.2137820161278766e-07,-2.5319561447220175e-07,-3.795173275271766e-08,3.2750841218794286e-07,-6.96328508279571e-07,-4.856066897378073e-08,1.7676188018155208e-07,5.714961382959498e-07,-2.5331346302273606e-07,-2.5621570425677908e-08,-8.632009083277144e-07,-5.519272074445718e-07,-8.44513519196076e-07,-9.981769446470178e-07
-3.552159114792892e-07,-5.075721342368438e-07,-5.852806226946104e-07,1.9994375904388637e-07,-1.4072268595986298e-07,-2.5607659108964867e-07,-4.100332157898745e-08,2.8515931821108337e-07,-7.329196768700696e-07,-4.624773887786747e-08,1.5970530169277747e-07,5.686518443614776e-07,-2.2512569052335454e-07,-1.8391097572272033e-08,-8.523875433772069e-07,-5.681236514722471e-07,-8.493584382199688e-07,-9.824489922189194e-07
-3.3627603711225734e-07,-4.943528188375428e-07,-6.057644089635294e-07,1.8903611021347737e-07,-1.4084829414008496e-07,-2.429194811950936e-07,-1.0344038270302516e-08,2.443025523068803e-07,-7.714826046851593e-07,-4.5107156118047294e-08,1.482490351351928e-07,5.949333179062672e-07,-1.8997341321639346e-07,2.799040755560493e-10,-8.488288639643203e-07,-5.767623408875336e-07,-8.590767322523293e-07,-9.690509635217537e-07
-3.2543705337292196e-07,-4.916071199533055e-07,-6.349492988917831e-07,1.7331878375399236e-07,-1.2717154786334404e-07,-2.2192633472453628e-07,3.890779133766699e-08,2.0372536118656985e-07,-8.132786916789434e-07,-4.847957202736007e-08,1.3892319667031795e-07,6.345798286359406e-07,-1.5704815172024975e-07,1.6019496680759935e-08,-8.612719052919511e-07,-5.848217876776238e-07,-8.835016772846265e-07,-9.659239358547749e-07
-3.273299435712163e-07,-5.034093135154747e-07,-6.741106369272354e-07,1.527278204350864e-07,-1.0598031372187538e-07,-2.0003827070095694e-07,9.057751549389913e-08,1.640593146365566e-07,-8.586657505602675e-07,-5.761142332622714e-08,1.2961399808883068e-07,6.736770459857397e-07,-1.3355623690237812e-07,2.233243258592895e-08,-8.909229859542489e-07,-5.9574400278804e-07,-9.233053933570588e-07,-9.763538746447757e-07
-3.409034558429459e-07,-5.282777824574081e-07,-7.199520114308854e-07,1.2896684803098835e-07,-8.088920480136893e-08,-1.838602519461219e-07,1.3444710587153287e-07,1.2859228590184227e-07,-9.067239820106885e-07,-7.052168692917249e-08,1.2110499649724787e-07,7.053928725909277e-07,-1.2151156406565595e-07,2.287017792917042e-08,-9.308289886547756e-07,-6.11231103793241e-07,-9.703647765591847e-07,-9.976491949473468e-07
-3.5989857058029284e-07,-5.587591837957835e-07,-7.672032580397071e-07,1.055417471875528e-07,-5.442796339917017e-08,-1.7027703684604532e-07,1.6892364053785817e-07,1.0162312657556285e-07,-9.550902885656993e-07,-8.2760507532746e-08,1.1622055732877179e-07,7.304873644428828e-07,-1.1827152015956557e-07,2.6829825867445366e-08,-9.697860056618457e-07,-6.296380696841351e-07,-1.012980565599989e-06,-1.023043329310523e-06
-3.756210503354867e-07,-5.845111880639332e-07,-8.09264518209293e-07,8.642200172049306e-08,-2.5245596240326385e-08,-1.5298185252526925e-07,1.9873372860193955e-07,8.695305889422152e-08,-1.0005419752214982e-06,-9.009138693274663e-08,1.1724006161086118e-07,7.527157701843841e-07,-1.1845838955608157e-07,4.0979445107426686e-08,-1.0014948205480673e-06,-6.500147630816441e-07,-1.040266118156398e-06,-1.0457537020483838e-06
-3.8189324827982953e-07,-5.97631098945454e-07,-8.410845547091151e-07,7.444909261948064e-08,9.199399209868711e-09,-1.32688511694182e-07,2.2969241847825288e-07,8.354154838449517e-08,-1.0405877884069786e-06,-9.108851711626673e-08,1.2337983473860467e-07,7.728351878482925e-07,-1.1769224602556524e-07,6.368430026756826e-08,-1.0226661295841957e-06,-6.722495912027818e-07,-1.0536204859910832e-06,-1.0623849899683192e-06
-3.785672345801959e-07,-5.964109638772498e-07,-8.625318802987733e-07,6.875369511076765e-08,4.331561798137706e-08,-1.0760975494638626e-07,2.6384426631083375e-07,8.686605492832732e-08,-1.0743214486898663e-06,-8.77232913620362e-08,1.303316897958482e-07,7.864109823287038e-07,-1.1664328540956819e-07,8.518272743337368e-08,-1.0367129383247424e-06,-6.978527547172092e-07,-1.0624778669085387e-06,-1.0737065347483978e-06
-3.7090466693273236e-07,-5.863179685907114e-07,-8.780529634554772e-07,6.62190678353931e-08,7.535342841393419e-08,-8.091542208060554e-08,2.9814838182898374e-07,9.217369325623013e-08,-1.1024804387683355e-06,-8.420480611552639e-08,1.3263286360734594e-07,7.876345305292141e-07,-1.1733028214185464e-07,9.422390403861272e-08,-1.051943302312118e-06,-7.280760967886777e-07,-1.0769565933670454e-06,-1.0832668903713696e-06
-3.660001876494806e-07,-5.755082680854723e-07,-8.932493279456395e-07,6.306503568219381e-08,1.0139163672096759e-07,-5.6824874693996276e-08,3.2754669540074237e-07,9.684499083552697e-08,-1.1280558843383887e-06,-8.43641990548317e-08,1.274376361536707e-07,7.747543978246931e-07,-1.205619907093285e-07,8.646868371031219e-08,-1.0730086914449003e-06,-7.604527328039951e-07,-1.101978792240958e-06,-1.0938203155613492e-06
-3.6790792030493783e-07,-5.701105612972115e-07,-9.119520430673058e-07,5.5377356653662e-08,1.1766484115727861e-07,-3.4664247775119395e-08,3.498157408397747e-07,1.0111533266486226e-07,-1.152706838231522e-06,-8.967906316679808e-08,1.1701881782464051e-07,7.541719734518637e-07,-1.2781208746398049e-07,6.867637973605559e-08,-1.1018177672459438e-06,-7.892225194060586e-07,-1.1321938547539037e-06,-1.1068948578949998e-06
-3.7578385085897345e-07,-5.713535116551031e-07,-9.337617178176779e-07,4.311214654569189e-08,1.2759799224195118e-07,-8.932112332237609e-09,3.681490735533376e-07,1.083760787879131e-07,-1.1751932483557766e-06,-9.745681804419857e-08,1.0823959750202173e-07,7.396264902597654e-07,-1.373246308669788e-07,5.5811403267613206e-08,-1.1341145452225105e-06,-8.07559025893475e-07,-1.1553265702976444e-06,-1.11963563209925e-06
-3.8485717497787215e-07,-5.758818890456734e-07,-9.555451961882836e-07,2.6774392081944632e-08,1.3873506923405346e-07,2.685586450760376e-08,3.8945260391619097e-07,1.2327261905569532e-07,-1.1924415886631695e-06,-1.0328702844472744e-07,1.0924589928193389e-07,7.451334055196533e-07,-1.4737975184022692e-07,6.269245455685327e-08,-1.1625664061713776e-06,-8.078666722013599e-07,-1.1597954610869937e-06,-1.1286832596932652e-06
-3.901301752296536e-07,-5.789962221916276e-07,-9.738472946148414e-07,1.2448183217613043e-08,1.5571104768399795e-07,7.717182024804516e-08,4.193598332469767e-07,1.4849208162791755e-07,-1.2017141021049406e-06,-1.0391308820460739e-07,1.250601438218337e-07,7.796677679483485e-07,-1.556862852779454e-07,9.48029638640612e-08,-1.1821019342712027e-06,-7.867497557938593e-07,-1.1423559899539812e-06,-1.1334009569648104e-06
-3.9010095977373846e-07,-5.782435542539995e-07,-9.872116862770383e-07,3.0004868421871013e-09,1.8027897085356502e-07,1.4206589061506611e-07,4.576062508422086e-07,1.8340759272321041e-07,-1.2020586898845813e-06,-9.896813964702122e-08,1.5443356220419197e-07,8.416138701899786e-07,-1.6228925870828838e-07,1.439106801972114e-07,-1.1936605971434194e-06,-7.509750512835714e-07,-1.1105910214281285e-06,-1.136095371018239e-06
-3.8759613795469837e-07,-5.765183577045418e-07,-9.985699391004725e-07,-1.3418064346265522e-09,2.097482148241419e-07,2.141989514657947e-07,4.97262507196259e-07,2.2288977988784834e-07,-1.1966421571412822e-06,-9.245658246922556e-08,1.9007077472313078e-07,9.169955968980775e-07,-1.7062952184798956e-07,1.9216968520452143e-07,-1.2026996378400595e-06,-7.097151014794417e-07,-1.0790772833668024e-06,-1.1416367287965329e-06
-3.882371896885843e-07,-5.786455477677925e-07,-1.011952938465363e-06,-9.11126381151308e-10,2.3652058700714963e-07,2.8331129639564597e-07,5.284987685513605e-07,2.593735149601042e-07,-1.1891055788948101e-06,-8.930828091003219e-08,2.2247571688636345e-07,9.892907128012828e-07,-1.843287241400015e-07,2.2272160248021555e-07,-1.2143953435291558e-06,-6.738038967844756e-07,-1.060261201400842e-06,-1.1552554325075947e-06
-3.960054091629675e-07,-5.881668959643206e-07,-1.0293266641524322e-06,1.6510912208524113e-09,2.5292856115989134e-07,3.410208921534026e-07,5.446986455262301e-07,2.8069965318423827e-07,-1.181267897816015e-06,-9.213648111637298e-08,2.4511128120925085e-07,1.0477354522285248e-06,-2.0485283540288931e-07,2.296466375132561e-07,-1.2304280021941383e-06,-6.501579495683617e-07,-1.0565930714791644e-06,-1.1749559551295992e-06
-4.102888153178194e-07,-6.045613129793878e-07,-1.0494979687582153e-06,4.3806722433612935e-09,2.570015481606701e-07,3.8419539735723116e-07,5.470880080198742e-07,2.881091871834706e-07,-1.1717821626737925e-06,-9.973883793732055e-08,2.5766658451835113e-07,1.091641917032243e-06,-2.2841020393134614e-07,2.208005144403048e-07,-1.2435942496100133e-06,-6.387859384668389e-07,-1.059511824278623e-06,-1.1947547499641336e-06
-4.254280682689643e-07,-6.222122600728594e-07,-1.0674059416314683e-06,7.178822160236085e-09,2.540211558871151e-07,4.1622842928825233e-07,5.450160110426369e-07,2.8839118712636855e-07,-1.15772943886997e-06,-1.072360131779227e-07,2.6563806482159216e-07,1.1296505720011516e-06,-2.48082998318291e-07,2.1237227524039908e-07,-1.2445925387026167e-06,-6.369675691407806e-07,-1.0549813599225666e-06,-1.2078617189430365e-06
-4.339296454271298e-07,-6.343815090612169e-07,-1.0782106562103596e-06,1.2870990576841163e-08,2.494117632820804e-07,4.440748577448092e-07,5.514109022493196e-07,2.8877103432506377e-07,-1.1343193468122736e-06,-1.0927472715776033e-07,2.7672151769907503e-07,1.1728413384185986e-06,-2.5671386918655994e-07,2.189068480653523e-07,-1.227816553092782e-06,-6.384733093955685e-07,-1.0323431799527643e-06,-1.20865063634428e-06
-4.3113252108159845e-07,-6.354582070087439e-07,-1.0774129338233269e-06,2.2183071038696198e-08,2.489232412867557e-07,4.7335809110483706e-07,5.757701754377119e-07,2.9587871162013305e-07,-1.0990599553405393e-06,-1.0321072878698639e-07,2.9626222423786326e-07,1.2255832369514877e-06,-2.517203145498859e-07,2.447066251555186e-07,-1.1971827714146243e-06,-6.388771020565831e-07,-9.91079204518179e-07,-1.1970999812544334e-06
-4.1792267691873666e-07,-6.260243905565192e-07,-1.065551948601599e-06,3.4413694463475896e-08,2.5307529037329473e-07,5.05735686742062e-07,6.187820452048421e-07,3.097422211639049e-07,-1.0545133037958242e-06,-9.093046577847254e-08,3.2456652010433236e-07,1.2845865498735537e-06,-2.3537170367810028e-07,2.8182448457833533e-07,-1.161211001892538e-06,-6.364967492044107e-07,-9.426903870683851e-07,-1.1767417580752893e-06
-4.0021976481607057e-07,-6.120421383283176e-07,-1.0473635131094265e-06,4.9948214459475325e-08,2.561260140800286e-07,5.372530431163501e-07,6.699751876701539e-07,3.2520255476517005e-07,-1.006649422071112e-06,-7.707123493470352e-08,3.5769558560927636e-07,1.3418420324289362e-06,-2.157783694112442e-07,3.159773139472268e-07,-1.130530887360199e-06,-6.324375453971969e-07,-8.992475103715768e-07,-1.1550263529136161e-06
-3.8513657074612185e-07,-5.991629651464909e-07,-1.0282782327976585e-06,7.390340082152512e-08,2.527536865427048e-07,5.618991392250696e-07,7.1680270172237e-07,3.342747029767367e-07,-9.638147616449775e-07,-6.657012634591605e-08,3.9085404163886166e-07,1.3877296479491834e-06,-2.0206224711605224e-07,3.360965145373203e-07,-1.1111597222659476e-06,-6.282419106424335e-07,-8.658946884106965e-07,-1.1371488551583646e-06
-3.7627128239029945e-07,-5.905500909517857e-07,-1.0117838674537035e-06,1.0755940695515544e-07,2.4035462222673806e-07,5.756997409895961e-07,7.487222598605892e-07,3.3150633612348267e-07,-9.319084618241327e-07,-6.155503955729779e-08,4.217301177117074e-07,1.4192718498520992e-06,-1.9894706844329223e-07,3.4082158009242645e-07,-1.1021345640313693e-06,-6.241644328258026e-07,-8.424553456614917e-07,-1.1240683370854629e-06
-3.714809317640776e-07,-5.82277402959092e-07,-9.963978258392152e-07,1.53695192264257e-07,2.2323253692974673e-07,5.783285962831125e-07,7.602346802976552e-07,3.133061146982228e-07,-9.118435099422265e-07,-6.043927839300625e-08,4.5163909335227177e-07,1.441346129598186e-06,-2.041374927703998e-07,3.3823175375978155e-07,-1.095312212858621e-06,-6.193420159890576e-07,-8.205405769738751e-07,-1.1120543614183513e-06
-3.641269828278821e-07,-5.672577235035921e-07,-9.758461782858e-07,2.172019927603786e-07,2.0966096527296356e-07,5.726177471526219e-07,7.515226260204688e-07,2.8019260801015016e-07,-9.005862598443856e-07,-5.984959155482971e-08,4.840344457165881e-07,1.4627472825907227e-06,-2.093624882250667e-07,3.397118690733681e-07,-1.0782306216841071e-06,-6.082571540426901e-07,-7.903169478584061e-07,-1.095208317743915e-06
-3.468140247582557e-07,-5.360804543836194e-07,-9.432246796322665e-07,3.0076307080483056e-07,2.0783346195867e-07,5.617338042190345e-07,7.257853788105178e-07,2.353889393281284e-07,-8.944852604007496e-07,-5.696154332715079e-08,5.213492402007358e-07,1.4902697787844027e-06,-2.048120562250577e-07,3.5167409424575793e-07,-1.042058472814649e-06,-5.935758556627328e-07,-7.483465802930894e-07,-1.0696175699992287e-06
-3.1557497240838264e-07,-4.849874436050336e-07,-8.925325426377111e-07,4.0429793506082365e-07,2.1266424220977441e-07,5.469431039919141e-07,6.835244684601749e-07,1.8217954610171315e-07,-8.903295270391329e-07,-5.221485628463272e-08,5.620846558987534e-07,1.521268181602471e-06,-1.8548818315276777e-07,3.7022670344885817e-07,-9.855111141288045e-07,-5.81083440449676e-07,-6.993578128791951e-07,-1.0357333895834858e-06
-2.721633079258031e-07,-4.1940698081603956e-07,-8.258478234954906e-07,5.169696969504751e-07,2.240851987946679e-07,5.286257719208138e-07,6.255217292264535e-07,1.2467148705802373e-07,-8.859044107316498e-07,-5.035894288095313e-08,5.999560103759756e-07,1.5431146968406055e-06,-1.5523142402799997e-07,3.829545475871266e-07,-9.184909891817933e-07,-5.754185452576079e-07,-6.53759502460355e-07,-9.990696678097894e-07
-2.234892266329571e-07,-3.5080420102743713e-07,-7.548904974622455e-07,6.283924660073234e-07,2.330046604273663e-07,5.0607968077816e-07,5.562919697802039e-07,7.103437002824812e-08,-8.809813062234534e-07,-5.602936196686573e-08,6.287599516805286e-07,1.5398573543625563e-06,-1.2084613476765048e-07,3.7724787924964687e-07,-8.523839410324084e-07,-5.81737046912363e-07,-6.214274648020413e-07,-9.658235225906442e-07
-1.7685776484818578e-07,-2.9111492129059093e-07,-6.861353847527983e-07,7.257223137958682e-07,2.3467900340955273e-07,4.814180394644947e-07,4.868236083723394e-07,2.8672193883047272e-08,-8.744353076868095e-07,-7.26820337473377e-08,6.44217407657892e-07,1.5046174352444346e-06,-8.985668395209274e-08,3.4909402063014167e-07,-7.991566390967628e-07,-5.983200120823209e-07,-6.046418442410307e-07,-9.390314888115936e-07
-1.3561161320303484e-07,-2.520680422742681e-07,-6.247890126322599e-07,7.996760949376626e-07,2.3230357797022858e-07,4.610625236039372e-07,4.3054578871026775e-07,6.811526001963286e-09,-8.63503984389963e-07,-9.983166448712866e-08,6.472449255207934e-07,1.4427111050086828e-06,-6.66428514291658e-08,3.062188412927908e-07,-7.637870012891172e-07,-6.178555062432589e-07,-5.9575427114551e-07,-9.179632373933159e-07
-1.001715063013294e-07,-2.328075293534195e-07,-5.710225606229645e-07,8.50197471170531e-07,2.2834586235751323e-07,4.531431560493026e-07,4.0207309887633654e-07,1.3616885871315385e-08,-8.475243178924708e-07,-1.326260871988534e-07,6.46207980778692e-07,1.3691489067156775e-06,-5.0482278023385115e-08,2.6402319567759343e-07,-7.45573782540552e-07,-6.311540446903067e-07,-5.835420057281061e-07,-8.986635073598109e-07
-6.806825823371689e-08,-2.2783148976152036e-07,-5.233973759806927e-07,8.808943626407853e-07,2.2851422635203505e-07,4.6416415152675223e-07,4.1192682469934437e-07,5.7875041443909424e-08,-8.255453017439611e-07,-1.6540237237584171e-07,6.508207765253127e-07,1.3013151607910433e-06,-3.722411504699451e-08,2.3655398277599343e-07,-7.414854223754666e-07,-6.315391255457489e-07,-5.604044500572819e-07,-8.76656295116841e-07
-3.4764536636055084e-08,-2.2733709610990956e-07,-4.827558255611108e-07,8.986237371910349e-07,2.353808113874229e-07,4.948694308472185e-07,4.598874319808907e-07,1.296665545238862e-07,-7.971689593371162e-07,-1.9417083315966926e-07,6.6665133611324e-07,1.249476245864956e-06,-2.4997415014714622e-08,2.2796296526786588e-07,-7.452954641712354e-07,-6.177644950463405e-07,-5.272824344489445e-07,-8.515412560551265e-07
-1.3304519831417625e-09,-2.2303146135869173e-07,-4.50784745711254e-07,9.103173468134795e-07,2.474453806515313e-07,5.291803012384412e-07,5.357556676898086e-07,2.049766291908385e-07,-7.612352417238478e-07,-2.1860462873442078e-07,6.927918777464585e-07,1.2134300901955805e-06,-1.441212601284686e-08,2.302684971935922e-07,-7.55757186628497e-07,-5.951757118325239e-07,-4.942132384384911e-07,-8.283620223166104e-07
2.7871999483760566e-08,-2.1593478829707955e-07,-4.2900129498678213e-07,9.211794792877942e-07,2.5555174193831795e-07,5.710616799364569e-07,6.190133103467462e-07,2.701754623269846e-07,-7.279128816484998e-07,-2.413844301596299e-07,7.221721619499371e-07,1.1841459615563325e-06,-8.046908988348513e-09,2.288994339207461e-07,-7.748157832966009e-07,-5.735895928214167e-07,-4.7179534772564374e-07,-8.133552027902817e-07
4.9403053496400273e-08,-2.1092648744456547e-07,-4.2108936823347294e-07,9.318008480917235e-07,2.5339839496841105e-07,6.066606715810686e-07,6.920188425035844e-07,3.111740031672844e-07,-7.04752079285589e-07,-2.660983219816497e-07,7.458659490732613e-07,1.151314249065476e-06,-8.484245311398349e-09,2.126035180111621e-07,-8.038440526151186e-07,-5.60797499966353e-07,-4.6564613137293874e-07,-8.091645213578961e-07
6.176891236298243e-08,-2.1421167530233398e-07,-4.2556505500202036e-07,9.396564675595898e-07,2.386035593082497e-07,6.287738380378432e-07,7.439322415217703e-07,3.2070089741853764e-07,-6.887196971145927e-07,-2.955180285756231e-07,7.598678867892485e-07,1.1107079567680015e-06,-1.6926417018578668e-08,1.812121372254187e-07,-8.423451496730478e-07,-5.587968772643115e-07,-4.723863882050242e-07,-8.14329635533349e-07
6.765542346483465e-08,-2.2755234682557647e-07,-4.39490454284157e-07,9.464028693787966e-07,2.1602221698078262e-07,6.44895409598119e-07,7.745056535635137e-07,3.0872647749750773e-07,-6.807389133192791e-07,-3.264717877082464e-07,7.651808762319091e-07,1.0664228973005447e-06,-2.992309191010713e-08,1.4591027999859252e-07,-8.807748347007764e-07,-5.631523665413439e-07,-4.794771698448066e-07,-8.20730320408841e-07
7.241292373253416e-08,-2.4840739826476225e-07,-4.5745399348099215e-07,9.456625122297823e-07,1.9797842948270231e-07,6.590323502797461e-07,7.948664131957972e-07,2.8643065987048365e-07,-6.702630981440354e-07,-3.5034484489545835e-07,7.68264275641814e-07,1.0279379261088243e-06,-4.221702614354813e-08,1.2204172073487635e-07,-9.120953816460028e-07,-5.641390521693993e-07,-4.7375223357797226e-07,-8.195279371156851e-07
8.183566522202741e-08,-2.733844057726795e-07,-4.7201300757828284e-07,9.382650202411269e-07,2.0006388441246117e-07,6.813831654704395e-07,8.162073223722265e-07,2.622545883559272e-07,-6.439383073425007e-07,-3.6445390347237337e-07,7.754857870980842e-07,1.003552925140409e-06,-5.0720085485034846e-08,1.1908818868693576e-07,-9.353966120100828e-07,-5.542890781829282e-07,-4.490746861177375e-07,-8.067773992288604e-07
9.767168809154274e-08,-3.0001378059070256e-07,-4.805246799903962e-07,9.258846735069103e-07,2.2433004346929738e-07,7.1762886124757e-07,8.487443853127658e-07,2.484289642315936e-07,-5.963119673744526e-07,-3.6786879574559725e-07,7.904992531765476e-07,9.948096815212648e-07,-5.4770272165086074e-08,1.3400478164911707e-07,-9.496112784910781e-07,-5.317572195932949e-07,-4.1026202085764764e-07,-7.849331597749186e-07
1.1891550220342215e-07,-3.291492540719542e-07,-4.857589469388657e-07,9.027640362155284e-07,2.6917469747541097e-07,7.684892236355807e-07,8.994184514824441e-07,2.4349793933421127e-07,-5.301113651818212e-07,-3.6491192582073834e-07,8.092427336426546e-07,9.94532220611172e-07,-5.786183630387768e-08,1.5254708400481068e-07,-9.631975288846843e-07,-5.024089060214234e-07,-3.704635528716834e-07,-7.625515610107842e-07
1.4015817262778127e-07,-3.6061422068333955e-07,-4.953135235532766e-07,8.695397569684681e-07,3.288720735000333e-07,8.13517808837786e-07,9.630913256598606e-07,2.402955772276903e-07,-4.6528988942493523e-07,-3.669511392312199e-07,8.263565623219357e-07,9.912240857057419e-07,-6.69305856725685e-08,1.5810933963240355e-07,-9.735006697437255e-07,-4.772707010563708e-07,-3.4440298596390334e-07,-7.487990398633904e-07
1.6014263615205783e-07,-3.979249811548677e-07,-4.97771755450959e-07,8.252547849373597e-07,3.889732956355909e-07,8.47663629346272e-07,1.0313614150877218e-06,2.1624642863128943e-07,-4.1132820648594473e-07,-3.768707385371865e-07,8.268660672237505e-07,9.769358969456537e-07,-8.60144570398397e-08,1.418156191461768e-07,-1.0048207431336386e-06,-4.6585564108700837e-07,-3.367048535280085e-07,-7.493906009016551e-07
1.7912228422146095e-07,-4.375509982182422e-07,-5.061430720767685e-07,7.717736116159762e-07,4.4196152774194364e-07,8.706627658178023e-07,1.0752060164550038e-06,1.753354712478508e-07,-3.7751084701326946e-07,-3.94168106722775e-07,8.103775472793864e-07,9.504051866855962e-07,-1.1330434736047598e-07,1.071078450396687e-07,-1.0473931336532931e-06,-4.7229390402318237e-07,-3.40601698546838e-07,-7.616983662356033e-07
1.9236598827009268e-07,-4.7531830296749647e-07,-5.153735909116583e-07,7.159286295427969e-07,4.827642716496259e-07,8.813961998931776e-07,1.0933682124227383e-06,1.4164388875487884e-07,-3.6612261520170783e-07,-4.1414745586874734e-07,7.937304144702143e-07,9.175627431113187e-07,-1.426581396228009e-07,6.666812344202734e-08,-1.0719430452056994e-06,-4.94155249578389e-07,-3.47032328301374e-07,-7.769998529910592e-07
2.0671041480499004e-07,-5.03402962117592e-07,-5.10731102575564e-07,6.820484254733828e-07,5.168484841657468e-07,8.919645173238565e-07,1.0955184247732245e-06,1.3296868130072035e-07,-3.6842195621540425e-07,-4.333314297753307e-07,7.797153670928725e-07,8.874886170255263e-07,-1.6513263153106362e-07,3.4314276883070276e-08,-1.0848059714192008e-06,-5.229418800063259e-07,-3.4660234570609474e-07,-7.887523930482536e-07
2.2855343134166143e-07,-5.168265068401828e-07,-4.886718487821011e-07,6.725267790424255e-07,5.496856868140645e-07,8.891162490001733e-07,1.092731106443709e-06,1.457771823414768e-07,-3.848057179767951e-07,-4.4940794362359667e-07,7.746259041464576e-07,8.675324161326056e-07,-1.7572912572173428e-07,1.7210729034488036e-08,-1.0519288741557367e-06,-5.497894251083222e-07,-3.39719536675651e-07,-7.93952619636521e-07
2.581800103607682e-07,-5.086985747849327e-07,-4.4439228499870563e-07,6.895352924390261e-07,5.767257803330572e-07,8.675782852567012e-07,1.08491185135609e-06,1.391351989094955e-07,-4.216596698354222e-07,-4.6142537827284126e-07,7.637968621435243e-07,8.565803032888831e-07,-1.7623448000239147e-07,1.490415664718436e-08,-1.0350284541928003e-06,-5.664425266175986e-07,-3.330642357560919e-07,-7.952154773627805e-07
2.798580837855081e-07,-4.873251104323253e-07,-3.9932913043098274e-07,7.369498187367477e-07,5.942686867538855e-07,8.448708305617121e-07,1.0282045944859298e-06,1.2742030648691902e-07,-4.86742972745916e-07,-4.7146331192594344e-07,7.385824697999306e-07,8.487651622159103e-07,-1.7412007804163166e-07,1.7677706637894133e-08,-1.0561026443690071e-06,-5.696135790617027e-07,-3.3236526461168196e-07,-7.962321094155435e-07
2.956805609834937e-07,-4.6254859308126265e-07,-3.796251295419647e-07,8.083747995243417e-07,5.981259513967048e-07,7.463889441028415e-07,9.238243313914711e-07,3.179145080068284e-08,-5.962901756283575e-07,-4.798222490580496e-07,7.001091657515467e-07,8.375150214493738e-07,-1.7733416415063076e-07,2.3610068117302912e-08,-1.1808305186449632e-06,-5.580354738271807e-07,-3.2494441933981176e-07,-8.001823092473572e-07
2.9595802604171134e-07,-4.3921442410578196e-07,-4.3723689204838116e-07,9.00680359053964e-07,5.887414612318e-07,6.520569003110013e-07,7.209754078704651e-07,-1.5807221823734915e-07,-6.819427438355574e-07,-4.848487190110036e-07,6.528003386208703e-07,8.192801317922303e-07,-1.9314464078560717e-07,3.902273629023241e-08,-1.2801340296801835e-06,-5.31797038321873e-07,-3.043568773794001e-07,-8.039800070370307e-07
2.4125227932287496e-07,-4.284134706800025e-07,-4.6797444141240016e-07,9.975370008011633e-07,5.729744320053785e-07,5.645960951867142e-07,4.4681469943450653e-07,-2.0123792788139826e-07,-7.531355847333917e-07,-4.832592240584546e-07,5.831733639537113e-07,7.999253507323725e-07,-2.1441689367147747e-07,7.590508871625886e-08,-1.2926279080608872e-06,-4.930761745989559e-07,-2.694653451743022e-07,-7.988278706999369e-07
1.8829228982328963e-07,-4.274687261845473e-07,-4.6542813653943676e-07,1.0815841370331454e-06,5.634884599871372e-07,5.006343261145304e-07,3.3972819067012835e-07,-2.2644181534677817e-07,-7.790068283168221e-07,-4.6422639483775875e-07,5.040364649810904e-07,7.878984893428068e-07,-2.459315469903804e-07,1.4541688497006e-07,-1.3347346105880953e-06,-4.4424856883110546e-07,-2.0000078067085988e-07,-7.815556951378751e-07
1.5020018999192667e-07,-4.3440310770132625e-07,-4.3584293969361997e-07,1.1461122505345065e-06,5.634635157426144e-07,4.554233305057849e-07,2.9943449206775704e-07,-2.8371744130200206e-07,-7.840759911115286e-07,-4.1905767557993564e-07,4.226263884708916e-07,7.890456957539856e-07,-2.8452778886742113e-07,2.48228524558945e-07,-1.3831294260278176e-06,-3.9339026240149177e-07,-1.1458666090730427e-07,-7.524052643254302e-07
1.1854812409451469e-07,-4.327176955320237e-07,-3.8808571231482387e-07,1.1812815967902728e-06,5.586310791320493e-07,3.7220516949191546e-07,2.745156206329727e-07,-3.0607691272815687e-07,-8.00665549861398e-07,-3.624218351621272e-07,3.635868171640484e-07,8.030694705005003e-07,-3.2867022015639806e-07,3.7090956107211244e-07,-1.4870701361686515e-06,-3.53097740548948e-07,-1.740765775670876e-08,-7.156477863502048e-07
1.0915658444082659e-07,-4.3360793767681856e-07,-4.060997971870012e-07,1.1797988960019665e-06,5.688301162395885e-07,2.717017196299853e-07,1.869671723706531e-07,-3.357381953505651e-07,-8.47447887873688e-07,-3.205927159505193e-07,3.108213887010586e-07,8.239617524692421e-07,-3.7496501414671653e-07,4.720378605180222e-07,-1.5606142138112603e-06,-3.3232367561121833e-07,1.0041084317170955e-07,-6.814931852846878e-07
8.972273138088401e-08,-4.514043900004821e-07,-4.517940703859789e-07,1.1399026072117154e-06,5.860809986651075e-07,1.5630429024981144e-07,1.1911493953858382e-08,-4.528530889117002e-07,-8.852069267681744e-07,-3.0775482977562043e-07,2.6745106013472007e-07,8.397571739037873e-07,-4.087365996605692e-07,5.64315159299796e-07,-1.628718657776214e-06,-3.3789884853484925e-07,2.0494526502447472e-07,-6.613910697239806e-07
4.4854226952100686e-08,-4.98113368489117e-07,-4.30468616446725e-07,1.0569732121205627e-06,5.80235998517378e-07,7.68169328961444e-08,-1.5130346285673015e-07,-4.978172462705941e-07,-8.910788628210359e-07,-2.951931069339193e-07,2.6077686239234284e-07,8.407452074249834e-07,-4.2367930045989426e-07,6.27445187778836e-07,-1.6036325510215602e-06,-3.723912233607412e-07,2.939992731224464e-07,-6.606464386272885e-07
-1.7212333642631373e-08,-5.487149761840577e-07,-3.4853653832771436e-07,9.417258440761027e-07,5.529996451216972e-07,-1.9003426325613532e-08,-2.8752065779026027e-07,-5.90650494895324e-07,-9.024119074632303e-07,-2.703447536761555e-07,2.654821147077629e-07,8.278464906143182e-07,-3.924642003352822e-07,5.944461337904748e-07,-1.4499093055458448e-06,-4.2342306910685657e-07,3.620281442540127e-07,-6.737740696063291e-07
-6.619080442667234e-08,-5.948148741195915e-07,-2.7146591819327423e-07,8.17278687011259e-07,5.19658481110348e-07,-1.1908821240455031e-07,-3.6283484255393145e-07,-7.162028924697291e-07,-9.04079917318115e-07,-2.570673647515446e-07,2.5896334429761915e-07,8.054723637292216e-07,-3.226435864666562e-07,5.604581085010258e-07,-1.3205535780171692e-06,-4.573564619668651e-07,3.932724797981223e-07,-6.986668240333631e-07
-5.126409667465422e-08,-5.792815404360522e-07,-2.2161901586320955e-07,7.101763161844857e-07,4.978168533198002e-07,-1.6891181444583257e-07,-2.6313692007856306e-07,-8.445751392734554e-07,-8.539128864165977e-07,-2.2131472567763393e-07,2.3500009668562654e-07,7.798251498223392e-07,-2.9610990456872676e-07,5.120462815593261e-07,-1.2964909867844346e-06,-4.6426067978700884e-07,4.065328633579303e-07,-7.074920451608533e-07
