0,1,2,3,4,5,6,7,8,9,10,11,12,13,14,15,16,17
-1.4186371480747434e-07,-1.2615403294932262e-07,-5.1198630781198094e-08,-2.5597514392919165e-07,3.5228950081425915e-07,-2.7340870067782457e-06,-1.9057988220947383e-06,-3.1938874765299258e-06,-9.78553896487941e-06,-4.0333217550695425e-07,2.6693242487458607e-06,-6.806758405928074e-07,-3.6150618755745295e-06,5.806096993720048e-06,-2.8380537436207375e-06,1.9971740767153893e-06,1.929535092096623e-06,9.619462293701027e-06
-1.488972817476702e-07,-1.1254848118121125e-07,-4.582561526386041e-08,-2.0966936557521597e-07,7.997913085080618e-07,-4.630361296377609e-07,-1.4741154229064936e-06,-3.1908901210604335e-06,-7.108019601155811e-06,-3.0878159906610305e-07,1.6110069589764659e-06,-6.168498124262502e-07,-3.714887317092301e-06,6.005052737671845e-06,-5.222130662488283e-06,5.649627405474254e-07,-6.160200706493441e-07,9.124196873332028e-06
-1.362681003121746e-07,-9.171140864092388e-08,-3.356793506303707e-08,-1.6746260695914408e-07,1.0840313419745665e-06,2.047966321409758e-06,-9.127744501899335e-07,-2.932470085383678e-06,-3.6487666934818346e-06,-2.1992601935417883e-07,5.138300858050989e-07,-4.858446584320754e-07,-4.795282254464627e-06,5.570518443832642e-06,-7.085210744171709e-06,-8.244005494866802e-07,-2.70918573020174e-06,7.372569516252441e-06
-1.0310373747594974e-07,-6.444483064365542e-08,-1.2197406062268546e-08,-9.15669828558841e-08,1.1321595375261036e-06,4.343773555191505e-06,-1.8765414983429953e-07,-2.3065767200388935e-06,1.707223596521597e-07,-1.4305283115578873e-07,9.294874814212462e-08,-3.0244479069034023e-07,-6.7246552319245925e-06,4.688579735060593e-06,-7.756640863658914e-06,-1.8762831118186402e-06,-3.383985792529502e-06,4.682446224549126e-06
-5.353195458014205e-08,-3.2536153934827456e-08,1.3539412389614812e-08,-2.2370256704108085e-08,9.6291869485865e-07,5.896239369219026e-06,5.94712018824125e-07,-1.349555052153009e-06,3.888220926265806e-06,-7.637216022024047e-08,1.1798255433654006e-07,-1.0578560166653168e-07,-8.832934323563726e-06,3.546005013850244e-06,-6.836193988078419e-06,-2.437216660842681e-06,-2.0890034878356e-06,1.5571303692885012e-06
4.485480288480335e-09,1.3344604866699316e-09,3.834671279276265e-08,4.54590458934311e-08,6.732020568696638e-07,6.348061835080923e-06,1.2127771507111777e-06,-2.505503147249399e-07,6.841466353714925e-06,-1.1782715960310652e-08,-1.9737397700449092e-07,5.775478318477789e-08,-1.0161075974928854e-05,2.250262241142333e-06,-4.165257101422491e-06,-2.5485196816516156e-06,9.099456170946239e-07,-1.436740124398845e-06
6.078603641416255e-08,3.272491276870418e-08,6.14784238459707e-08,9.808979473017966e-08,3.8461521544566736e-07,5.648311301999994e-06,1.4500498826438649e-06,7.35536259607096e-07,8.464599824325804e-06,2.483446833696977e-08,-2.7371559816128276e-07,1.5718913237978344e-07,-9.87509397524148e-06,8.618792995169524e-07,-1.3295949406841365e-07,-2.362143723360074e-06,4.615265133247553e-06,-3.824724579446887e-06
1.053419059917779e-07,5.6040159763247054e-08,8.486652593542151e-08,1.262319453833147e-07,1.9065057308626553e-07,3.973903625461008e-06,1.1583433319026734e-06,1.3999267385039136e-06,8.458323400125784e-06,4.1346375571965736e-08,-4.483930327257848e-07,1.895562804760274e-07,-7.636816642176562e-06,-5.55603422721264e-07,4.444765751047742e-06,-1.952138533698805e-06,7.721486873370868e-06,-5.376223770340645e-06
1.295423796462481e-07,6.704644130552083e-08,1.0711375778009006e-07,1.371574058404675e-07,1.247269458757324e-07,1.6320634875704329e-06,2.903704590681169e-07,1.65155698386707e-06,6.948434103424868e-06,4.156204488470173e-08,-5.850312152045343e-07,1.7742908722443434e-07,-3.74249021011765e-06,-1.9285139296287672e-06,8.211405457333493e-06,-1.2456489443736689e-06,9.120930667122519e-06,-6.034016714936093e-06
1.3083962630022029e-07,6.574308886897024e-08,1.2058753359512974e-07,9.701285141936687e-08,1.471962254726245e-07,-9.748152243988379e-07,-9.719911963066941e-07,1.537135408460637e-06,4.419477140025974e-06,2.232809121866015e-08,-5.17586816616159e-07,1.5629823072946046e-07,1.0338388219856646e-06,-3.1694524051584383e-06,9.255565747004325e-06,-1.840641046583628e-07,8.32191748496416e-06,-5.783231687128267e-06
1.1248271572102839e-07,5.660367573723197e-08,1.1466256137030033e-07,7.948986915850785e-08,1.5133751719704323e-07,-3.400048377805979e-06,-2.1260223117122706e-06,1.2198296184207001e-06,1.5331143375391674e-06,1.1216267874501777e-08,-4.674227188244714e-07,1.575281051075164e-07,5.75929013288962e-06,-4.16038842775923e-06,9.49909909132786e-06,1.08367904959813e-06,5.597318323344445e-06,-4.766017875778938e-06
8.030713822270503e-08,4.56523314681995e-08,8.129722558462443e-08,7.945517934907814e-08,-7.303542874431131e-10,-5.194333623387477e-06,-2.5213709666367914e-06,9.190636918523977e-07,-1.1266174079726366e-06,2.1669875261498584e-08,-6.072487623861991e-08,1.9332007363479168e-07,9.59833364687634e-06,-4.764785250872459e-06,6.554710055543498e-06,2.206063009140409e-06,1.7227918696209144e-06,-3.30087800548473e-06
4.056932351072326e-08,3.566322197023868e-08,1.9204611105676318e-08,7.765293975982686e-08,-4.134013789262003e-07,-5.966005643989689e-06,-1.7413643931921196e-06,8.342379832680775e-07,-3.2282884372005977e-06,9.123317365102733e-08,9.090441047722626e-08,2.501085857286306e-07,1.1915846133379049e-05,-4.867678867544579e-06,3.0835681046601486e-06,2.8027636174052876e-06,-2.4502846668764658e-06,-1.7791299552833033e-06
1.4980533058736938e-10,2.7342429046416243e-08,-6.616663949133216e-08,7.087263387640569e-08,-1.0886104281958359e-06,-5.543716144270675e-06,1.1424869971815874e-07,1.0687145391999772e-06,-4.679068368857412e-06,2.1268181358377022e-07,-5.248375684062109e-07,2.9550550859305323e-07,1.2325614594912797e-05,-4.3937895227184534e-06,-1.6828649614507798e-07,2.6484517185884403e-06,-6.360375432068182e-06,-5.566213015901867e-07
-3.363937228570768e-08,2.0958415543811264e-08,-1.6533478880866227e-07,-7.587404601323284e-10,-1.8939419358154898e-06,-3.9844428935959e-06,2.4707955927335977e-06,1.5931388423331975e-06,-5.499509043776803e-06,3.0397261560482483e-07,-1.2228543471081122e-06,2.994380099835199e-07,1.0781941715487587e-05,-3.299025616673811e-06,-2.6143159422452907e-06,1.7624218737262275e-06,-9.768163514688963e-06,1.57374764184043e-07
-4.720025021681609e-08,1.828577039093074e-08,-2.668057489292297e-07,-6.361856892690003e-08,-2.60623482040367e-06,-1.629834452068083e-06,4.549794577271627e-06,2.264789704377813e-06,-5.64854992774999e-06,3.924027752756551e-07,-7.980568561936508e-07,2.5747290676600995e-07,7.683432759553256e-06,-1.5891570217176527e-06,-4.2300651710177245e-06,3.648992241692211e-07,-1.2562172366011915e-05,3.444039730807311e-07
-1.2843973952683222e-08,2.31119992544587e-08,-3.593633236584232e-07,-9.872373053013537e-08,-3.019948786449062e-06,9.000540564560585e-07,5.70294855385486e-06,2.900845482183662e-06,-5.008298238525802e-06,4.622964029091346e-07,-2.3351495539597764e-07,1.9411418654301586e-07,3.884214839459071e-06,5.958975623230058e-07,-5.242758211297986e-06,-1.2489188425641322e-06,-1.45633637790608e-05,1.1786501574457119e-07
2.1947710543063328e-08,3.8652413855635424e-08,-4.3348466686091786e-07,-1.5376523287934598e-07,-3.0452074310371102e-06,2.941295620429178e-06,5.615077207758781e-06,3.353014317124867e-06,-3.5815287499621883e-06,5.098529539569419e-07,-3.8687464567747123e-07,1.7351034465808653e-07,5.141252315539248e-07,2.8844195085346564e-06,-5.7687756465483595e-06,-2.8076395704185467e-06,-1.5451999366576362e-05,-3.8158032298427755e-07
1.1360135645082387e-07,6.596108237575085e-08,-4.81539615790115e-07,-2.195987352072021e-07,-2.730168622492885e-06,3.982035518772139e-06,4.330412226728389e-06,3.5574419171616397e-06,-1.7600160990797542e-06,5.661301489862755e-07,-1.056135607066438e-06,3.0552171039841884e-07,-1.3855762874161494e-06,4.703995629694978e-06,-5.685738687638808e-06,-4.115579363184052e-06,-1.4764853321916779e-05,-9.074972904385241e-07
2.1195170488212698e-07,1.0316444135239969e-07,-4.990364692662249e-07,-2.797942163787663e-07,-2.215869493335631e-06,3.868796460976638e-06,2.1421279863743177e-06,3.524988589159322e-06,-3.951985981646533e-07,6.591794547151478e-07,-1.4020743940925902e-06,4.378052611895034e-07,-1.2291135149972736e-06,5.512004648872832e-06,-4.741966903883411e-06,-5.049821712788045e-06,-1.2221672858339784e-05,-1.331029798083232e-06
3.053220294537272e-07,1.4569488987022114e-07,-4.864303199090428e-07,-2.979050059489436e-07,-1.6602106678831793e-06,2.8384665415849106e-06,-5.334601225053006e-07,3.3244759332287145e-06,-4.920141401863334e-07,6.932471154565657e-07,-1.8170879082209834e-06,7.422531183102457e-07,9.531927543928122e-07,5.0623195775480786e-06,-2.766209611476789e-06,-5.528385058698134e-06,-7.987681738386826e-06,-1.4772775288971096e-06
3.3456298122204843e-07,1.8552265581093778e-07,-4.511125598231763e-07,-2.8860851224303254e-07,-1.1645752057376103e-06,1.3301841553245176e-06,-3.216620554768918e-06,3.0635877379284397e-06,-2.6227449209999815e-06,6.541384800658901e-07,-2.0301158360489387e-06,1.0297818854365897e-06,4.591996303325204e-06,3.4668593132451643e-06,8.118966851108461e-08,-5.508081478917231e-06,-2.7392132053797404e-06,-1.120446944344331e-06
3.312457001760796e-07,2.1281255811883345e-07,-4.0684398047457683e-07,-3.181119156668452e-07,-7.494848567347362e-07,-2.8003856766881055e-07,-5.455235927829349e-06,2.8394928595839815e-06,-6.5160157704321064e-06,6.665392486968616e-07,-1.287865131082309e-06,1.2395349851885465e-06,8.790731592757238e-06,1.0530390644706777e-06,3.4562259188136084e-06,-5.0614416761672224e-06,2.476885678083697e-06,-2.647815551829406e-07
3.1198586121290003e-07,2.2000509458920635e-07,-3.691068060072035e-07,-3.3724097304642207e-07,-3.937217484569106e-07,-1.8159742989819776e-06,-6.972317263449073e-06,2.66716744701061e-06,-1.1166158993631545e-05,6.581083183700378e-07,6.018550483683849e-08,1.3178549108588112e-06,1.2602508154094067e-05,-1.7590314316692922e-06,6.833110364553858e-06,-4.432223014687701e-06,6.5563482527904574e-06,1.5385554675741768e-06
2.941445743076809e-07,2.0503069621374221e-07,-3.492882313786995e-07,-3.375583162773397e-07,-8.648951756551427e-08,-3.1541425844082566e-06,-7.788561768330351e-06,2.4850800414634804e-06,-1.532582977584592e-05,6.97572777598267e-07,1.2094590688096165e-06,1.2581780791423615e-06,1.5327511710794625e-05,-4.4475763476528255e-06,9.699067872521273e-06,-3.9329787516033526e-06,8.829370189080881e-06,4.683606825361707e-06
2.0364953007607408e-07,1.7192670711584933e-07,-3.5164059624201556e-07,-3.5842357454389097e-07,1.542435915521437e-07,-4.2143496118426005e-06,-8.226999835561136e-06,2.219068398013341e-06,-1.800518760037049e-05,7.63542280407954e-07,1.6087703791630606e-06,1.0907895269455667e-06,1.668812192250391e-05,-6.376742814129637e-06,1.1649915211816212e-05,-3.790822480424767e-06,9.243658710458076e-06,8.672741421542343e-06
9.816114914183626e-08,1.285478758902248e-07,-3.736829486114209e-07,-3.7879125090658656e-07,2.9149794435656555e-07,-4.716774612530835e-06,-8.748457872804834e-06,1.845614707407236e-06,-1.875350886437368e-05,7.598557990298171e-07,1.1166118251975692e-06,8.615551238994134e-07,1.6755343020946464e-05,-6.927542213163889e-06,1.2523073741455335e-05,-3.819327397679473e-06,8.193275312521115e-06,1.1949207886408788e-05
2.1887518695950422e-08,8.372300730131012e-08,-4.080465437461017e-07,-4.0393293261211205e-07,2.869566355913842e-07,-4.200465979541624e-06,-9.643135289264326e-06,1.40895218313136e-06,-1.7707699216464075e-05,7.334530084373609e-07,5.430510921248979e-07,6.160176184337128e-07,1.5755995347443112e-05,-5.748618277413033e-06,1.2399744149514435e-05,-3.6535044743407908e-06,6.5175770466759815e-06,1.3031246649246257e-05
-2.9629546867924938e-08,4.5478295466048185e-08,-4.450185648958846e-07,-4.298621945586522e-07,1.226414196785436e-07,-2.6382897928903456e-06,-1.078623364750857e-05,9.982484616287695e-07,-1.544865292995079e-05,7.041152403960178e-07,4.5175506687282585e-07,4.019524532896095e-07,1.3983830618273182e-05,-2.9953383255426635e-06,1.144623070591472e-05,-3.052644143876962e-06,4.571701823121609e-06,1.0374353892542523e-05
-6.508312848146286e-08,1.8821410810650962e-08,-4.769607114728713e-07,-4.447982934211285e-07,-1.8693706603447197e-07,5.271149741840847e-08,-1.169001961196649e-05,6.905868273306145e-07,-1.2733823041433162e-05,6.638053835488708e-07,6.21857712026253e-07,2.660860623070603e-07,1.17913668979528e-05,5.804625022224922e-07,9.887877474105512e-06,-1.9773042052345184e-06,2.6091827224765074e-06,7.980967347162801e-06
-8.711383787295394e-08,3.9891141909516005e-09,-4.972850235225163e-07,-4.5116515765922133e-07,-6.025490030098725e-07,3.6728898194396953e-06,-1.1817145645272825e-05,5.042791046916824e-07,-1.0225990954327765e-05,5.933389903342166e-07,3.028619937470955e-08,2.3734776239714598e-07,9.511016865679991e-06,3.823723989338768e-06,7.920173226989994e-06,-6.429611532162613e-07,1.0679815645638997e-06,7.9869010998252e-06
-1.0909861862262365e-07,-4.477964844094402e-09,-5.12724775645062e-07,-4.548433385308965e-07,-1.0734108006468979e-06,7.5968480529459275e-06,-1.0911869435103598e-05,4.242422377296546e-07,-8.347359109822687e-06,5.484713440150743e-07,-2.5033049190915193e-07,3.1869499451779967e-07,7.3371840061683e-06,5.6986537283587236e-06,5.732435042572147e-06,6.544517111056994e-07,8.367652725272704e-07,8.584369488694816e-06
-1.3889039136893625e-07,-1.5970138168113092e-08,-5.342359933157853e-07,-4.5328172909528863e-07,-1.5369378807109006e-06,1.0858372695113977e-05,-9.187986173609373e-06,4.422512861862514e-07,-7.29262366427339e-06,5.394613601034563e-07,2.217024097318501e-07,4.826652784040597e-07,5.270017200855442e-06,5.897803656537029e-06,3.5013134334469917e-06,1.7569646632374e-06,2.6399028240328704e-06,5.392895623583659e-06
-1.7491738001066622e-07,-3.91044953882083e-08,-5.741156061950084e-07,-4.4733719995361657e-07,-1.907892189647149e-06,1.2856962548817575e-05,-7.3115096733544935e-06,6.157243189422758e-07,-7.102833003365067e-06,5.887618020501358e-07,5.0981758665341966e-08,6.841214937230118e-07,3.3693412945226203e-06,5.063021204578808e-06,1.3854511288994491e-06,2.872054478250329e-06,6.972273947914326e-06,1.917431512943379e-06
-2.073201165919848e-07,-7.918863724906219e-08,-6.666748266546907e-07,-4.3989346737881106e-07,-2.089029422595681e-06,1.1949523234938314e-05,-6.153294524112983e-06,9.116615198154096e-07,-7.686049546202931e-06,6.236670731382684e-07,-2.2581630220262603e-07,8.832094650109486e-07,1.7023263546073852e-06,4.418093597024151e-06,-5.140200069966785e-07,4.255339277084605e-06,1.1585560489709568e-05,1.6695079871962376e-06
-1.7166405114239928e-07,-1.3220247381697456e-07,-7.906165442561117e-07,-4.3441951117084694e-07,-2.011070652957253e-06,9.111456829054089e-06,-6.3702955231538345e-06,1.2297703706892815e-06,-8.783465894144346e-06,6.5444954160699e-07,2.7721726639490076e-07,1.0565273404381693e-06,3.827506238864527e-07,5.126281164399183e-06,-2.151722505636501e-06,6.1720191293033595e-06,1.4193303673565856e-05,2.42186579318874e-06
-1.1386998778300229e-07,-1.8835622144442122e-07,-9.020720640885796e-07,-4.3769805734134697e-07,-1.669607611644409e-06,7.64846915418998e-06,-7.99629514551589e-06,1.441628673637673e-06,-9.973140524272351e-06,6.598341069284291e-07,1.1271518754855557e-06,1.1910765768124669e-06,9.505719739706893e-08,7.746531268779783e-06,-3.422119427737234e-06,8.630597671862409e-06,1.4485303205423977e-05,1.8415559099155523e-06
-6.29928439584748e-08,-2.3997563924978543e-07,-1.0541547582643105e-06,-4.510177162722332e-07,-1.131239356770586e-06,7.739980049456186e-06,-1.0334188420285284e-05,1.4138030661006921e-06,-1.077221625372512e-05,6.591221238318185e-07,1.8699736452539003e-06,1.2735839741779613e-06,8.865188779524319e-07,1.1939422570384285e-05,-4.137897512715415e-06,1.1288877353153743e-05,1.2920094799162057e-05,1.76675323831681e-06
-3.6244932846816646e-08,-2.60882540224395e-07,-1.254035693351906e-06,-4.708397996411731e-07,-5.03502362181178e-07,7.39381420596449e-06,-1.2257108807330604e-05,1.0478264571753778e-06,-1.0806392631614022e-05,7.022645608034885e-07,2.006082858573497e-06,1.2890725128196423e-06,9.752895795188079e-07,1.656792661015081e-05,-4.064005528673825e-06,1.36369192514603e-05,1.086639857843045e-05,3.582235212386826e-06
4.531536970602946e-08,-2.4212069025458186e-07,-1.4096354451634468e-06,-4.88887937857941e-07,1.1996073435479646e-07,5.025451015797383e-06,-1.2748543836055738e-05,4.809327300971943e-07,-9.968275953270707e-06,7.504912753841798e-07,1.9292682169016295e-06,1.2293883155228164e-06,2.309431591149179e-06,2.0250670926352748e-05,-3.0009079375134153e-06,1.5157959882179955e-05,9.179903475681389e-06,7.347051158763365e-06
7.343018328847096e-08,-2.4842938586019266e-07,-1.492901795864569e-06,-4.968387217170164e-07,7.093493112714885e-07,7.09726633340155e-07,-1.13756804452616e-05,-6.82921009940861e-08,-8.47282507185552e-06,8.057766707976588e-07,1.7110410723240906e-06,1.1038665603787647e-06,4.214768209066796e-06,2.20244577068406e-05,-9.898896089013515e-07,1.5497291161208334e-05,7.707988845763731e-06,9.900906662654824e-06
3.427903997978855e-08,-2.4664706627967794e-07,-1.5732119205594151e-06,-4.896913176665435e-07,1.300760076690589e-06,-2.7188265702510302e-06,-8.463925243993936e-06,-4.969324039621585e-07,-6.75009023492356e-06,8.082098944557389e-07,1.2130064904835725e-06,9.441194064053247e-07,5.097167702506323e-06,2.1643897486508264e-05,1.6835362610419518e-06,1.4438081051492359e-05,6.8602809873418845e-06,1.1595860650330204e-05
-3.6766615150810756e-08,-1.8665403655797218e-07,-1.6304089553586675e-06,-4.6278601750194964e-07,1.9364372840904114e-06,-6.274819389367187e-06,-4.916520322701378e-06,-6.420899264595347e-07,-5.246605264872025e-06,8.222198602294162e-07,9.97487463782767e-07,7.910836721701116e-07,4.269540965943247e-06,1.9454034860523468e-05,4.4163611792674766e-06,1.1730046638620559e-05,7.232021806512663e-06,1.2333397157749247e-05
-1.278475254399955e-07,-1.3094572499147773e-07,-1.6806364389157067e-06,-4.139998010725602e-07,2.5715305258916127e-06,-8.313167571415289e-06,-1.7709997052066898e-06,-3.94735790269254e-07,-4.2888130464139285e-06,8.25407807983891e-07,1.2698302020749867e-06,6.935208037996532e-07,4.029256193129432e-06,1.611117689399807e-05,6.417831130481121e-06,7.425205891331789e-06,8.183689561146393e-06,1.0530079773557659e-05
-2.0149269727816644e-07,-1.137302359473576e-07,-1.6542796749372417e-06,-3.494365940415808e-07,3.098396467471149e-06,-9.35494401294206e-06,2.682356680144986e-07,2.0982584964985294e-07,-4.051211047071345e-06,8.928066476992768e-07,1.9336968967926576e-06,6.464537380313994e-07,2.641917057670889e-06,1.2358753938715574e-05,7.015357008865612e-06,2.6725528893588228e-06,9.255909416618068e-06,7.064813703271455e-06
-2.4831216800101496e-07,-1.1866477103539711e-07,-1.617261659702059e-06,-2.8078902881954316e-07,3.413882351173802e-06,-9.720670706211122e-06,1.0587414580203237e-06,1.1437213737449882e-06,-4.545657104583085e-06,9.368189905316442e-07,2.939316630704464e-06,5.970980366404943e-07,-4.607552554867266e-07,8.892730558392812e-06,5.8752463373853305e-06,-1.7209133645260158e-06,9.84714793407709e-06,3.013605869506926e-06
-3.8924416266535086e-07,-1.3566875909874381e-07,-1.614007330051836e-06,-2.2129434952068623e-07,3.4669724483414716e-06,-9.653131661173426e-06,9.396631869682765e-07,2.386190514106723e-06,-5.594261177100377e-06,9.427777589939052e-07,3.9650913838882395e-06,5.221889663866737e-07,-4.6435943831123915e-06,6.2730988356998265e-06,3.102252065259254e-06,-4.412662131820109e-06,9.365399002412415e-06,-3.877563063300604e-07
-5.642748780678663e-07,-1.5727594976486542e-07,-1.6313820865488091e-06,-2.062232292888339e-07,3.303301179253919e-06,-8.97772117030821e-06,5.219664428252508e-07,3.4520171593044163e-06,-6.8493885817683605e-06,9.803608922241613e-07,4.773299088894994e-06,4.070404831411898e-07,-7.845439829986366e-06,4.830927846360197e-06,-8.218524244778123e-07,-4.713098326096725e-06,7.86100102876063e-06,-2.0472611850629265e-06
-7.302959511892011e-07,-1.7253112464099004e-07,-1.6445588072107211e-06,-2.584828556991697e-07,2.9803459436805367e-06,-7.401994641440892e-06,4.964432103699511e-07,4.075884954754404e-06,-7.906239963406139e-06,9.680460880110444e-07,5.223210016091798e-06,2.6573965219163e-07,-9.156125443946893e-06,4.566231590986931e-06,-5.1345862617645175e-06,-5.733963291729756e-06,5.679837329112184e-06,-2.2438487486282353e-06
-8.923221431495984e-07,-1.7724806546149303e-07,-1.6521998342377946e-06,-2.83140309625658e-07,2.5504292508280045e-06,-5.300902361673998e-06,1.406899509708265e-06,3.7940862277802096e-06,-8.44898601406389e-06,9.546772358231518e-07,5.323642178664967e-06,1.450689025292904e-07,-1.0446475035309755e-05,5.102639148200391e-06,-8.947926248739926e-06,-7.671727465083474e-06,3.7356424570807002e-06,-1.7940019933759615e-06
-1.037880386520789e-06,-1.749196031527432e-07,-1.6254417484452373e-06,-3.4019841287481224e-07,2.086011351536916e-06,-3.3285736770843796e-06,3.336000809153098e-06,2.8531489487471643e-06,-8.3290753717785e-06,9.500805490040654e-07,5.261678908029607e-06,9.001359647793947e-08,-9.825577567180754e-06,5.798534315070054e-06,-1.1407160630579377e-05,-8.898804903479785e-06,2.7930576628727556e-06,-1.7945530284171904e-06
-1.1401405384675785e-06,-1.740589223408591e-07,-1.599969421445049e-06,-4.4651561107530003e-07,1.7960843848588539e-06,-2.0887710935988073e-06,5.750747830441204e-06,2.0505862647231095e-06,-7.556225286508055e-06,9.413155623703103e-07,5.251064373916136e-06,8.689232288339963e-08,-6.782330554838036e-06,6.024439705494321e-06,-1.1928108186622963e-05,-8.73891073541589e-06,2.9444401859840635e-06,-3.1602637220043647e-06
-1.245837176753579e-06,-1.8323799333356853e-07,-1.5697333715424477e-06,-5.704917796859781e-07,1.9207290942372624e-06,-1.9781603068093804e-06,7.722245463206117e-06,1.5988020903451153e-06,-6.276094336433508e-06,9.6818535738646e-07,5.421146714369365e-06,1.5094183209442038e-07,-2.1029388382999495e-06,5.467291187775283e-06,-1.0466916125486517e-05,-8.38536552259318e-06,4.05442361496846e-06,-6.378147412509427e-06
-1.3572365604886154e-06,-2.0661904971740723e-07,-1.546180961326266e-06,-6.610622549731816e-07,2.554565689090561e-06,-3.011835699889597e-06,8.379333555886266e-06,1.2608728165823607e-06,-4.762171372662957e-06,1.0168856278004826e-06,5.6997828950037874e-06,3.179535593712957e-07,2.7435733892585676e-06,4.285396435726483e-06,-7.600090077009713e-06,-9.13193908248218e-06,5.7649500766716484e-06,-1.0958312887005168e-05
-1.4342732972109084e-06,-2.4262140193523246e-07,-1.531702386439348e-06,-7.179897721282441e-07,3.006646629438e-06,-4.8289306122292996e-06,7.2698949776989796e-06,6.237540034847744e-07,-3.3469330351641175e-06,1.0352246107807746e-06,5.8599955252419435e-06,5.303757765938638e-07,7.3770826325450045e-06,3.015800279658031e-06,-4.3137761655388586e-06,-1.0065651237643288e-05,7.659286189660455e-06,-1.53339499984039e-05
-1.5043488115700588e-06,-2.856445981055408e-07,-1.5238890172600673e-06,-7.479220754330308e-07,3.1469874006977664e-06,-6.836353356993366e-06,4.50045219754723e-06,-2.135157236938478e-07,-2.2698809435580847e-06,1.002750455898464e-06,5.651635144867613e-06,7.386699994729045e-07,1.1483166387343992e-05,2.2580783854277926e-06,-1.560154147567049e-06,-1.0529852418164512e-05,9.349017105358025e-06,-1.7442460468042693e-05
-1.5632447528464011e-06,-3.2903184115867705e-07,-1.5189873845266192e-06,-7.546614633696447e-07,3.719448329009449e-06,-8.553494393328957e-06,7.357601159009917e-07,-1.0837264639099822e-06,-1.5623049855915772e-06,1.003601655352706e-06,4.989654654895754e-06,9.044583460348323e-07,1.4556138305208902e-05,2.3040093950644556e-06,1.2739413710711298e-07,-9.944320824038966e-06,1.0383359662193762e-05,-1.711477051892266e-05
-1.6089894940655726e-06,-3.6737471059797193e-07,-1.5144799505197042e-06,-7.475881577904201e-07,4.476165542890864e-06,-9.513599245341274e-06,-2.9562527381062517e-06,-1.54895761811144e-06,-1.0695992746393333e-06,1.0259203514768732e-06,3.9856476051279285e-06,9.92238489669122e-07,1.6166414318382066e-05,2.958434206210478e-06,6.241372942793894e-07,-9.354347066734536e-06,1.0164436413700679e-05,-1.465651082409461e-05
-1.6570795798231878e-06,-3.9738737731962365e-07,-1.5106418047769268e-06,-7.361630083305593e-07,4.782842470484792e-06,-9.565197696999309e-06,-5.484490146011383e-06,-1.6693939364396233e-06,-5.599848313482697e-07,1.021857536941878e-06,2.884155422456961e-06,1.0045611434890233e-06,1.609527158872626e-05,3.6907085820369273e-06,1.615900810385694e-08,-7.987192769818444e-06,8.152925171469788e-06,-1.1000560683143265e-05
-1.708484554999796e-06,-4.181577333246966e-07,-1.5108021483160877e-06,-7.271168995531066e-07,4.431138441095562e-06,-8.961582790996442e-06,-6.225207494963056e-06,-1.4746003059027685e-06,1.7848017704361336e-07,1.0461921981034938e-06,1.8973763845724805e-06,9.8937399556099e-07,1.4528074865600636e-05,4.003526127032771e-06,-1.5137236813801414e-06,-6.235516332826255e-06,4.332610125993563e-06,-5.36413277484991e-06
-1.7542492755523394e-06,-4.313522233043089e-07,-1.5202797948799798e-06,-7.241136741104017e-07,4.036727212100215e-06,-8.191145863771989e-06,-5.306453879507006e-06,-9.133126862619484e-07,1.2795018575959068e-06,1.0380167305531675e-06,1.1271376353109263e-06,9.540506547773715e-07,1.203102576206277e-05,3.7236378086735845e-06,-3.6121947903290086e-06,-5.9437208062473055e-06,-7.480983405157571e-07,1.1176436786538954e-06
-1.7951638144054425e-06,-4.4028651076706925e-07,-1.5440202553315455e-06,-7.278697086650344e-07,3.6828619876597525e-06,-7.792661255495157e-06,-3.4775855997858568e-06,-4.2636762836181917e-07,2.7436306385201823e-06,9.77475451173553e-07,6.0121653100174e-07,8.655625181969372e-07,9.267441763669571e-06,3.030343415012842e-06,-5.680215436945569e-06,-6.759834579421409e-06,-6.124255951262759e-06,6.16708853873776e-06
-1.837285266682113e-06,-4.477515659635837e-07,-1.5841648407280546e-06,-7.366642136957283e-07,3.021621556083337e-06,-8.013595152935553e-06,-1.675105774209259e-06,-1.596122575041447e-07,4.35095104994305e-06,9.095354132144998e-07,3.2273964327101054e-07,7.369105666796707e-07,6.667555747893252e-06,2.321615888730805e-06,-7.02687177551355e-06,-8.637889854405489e-06,-1.0801183262192499e-05,9.520636835498439e-06
-1.8685458565193747e-06,-4.538780007621298e-07,-1.6380602081416719e-06,-7.47128973624726e-07,2.3410200728162747e-06,-8.654464280792128e-06,-5.758551897805757e-07,-2.707996331237717e-07,5.618350704868393e-06,8.430380373697229e-07,2.3961826106489465e-07,5.664262927019546e-07,4.307904488994769e-06,2.09272536199663e-06,-7.169046025580399e-06,-1.109519854573146e-05,-1.4165851113683528e-05,1.1273799063472693e-05
-1.8839903485892235e-06,-4.5627285232897533e-07,-1.6988956618941072e-06,-7.558715162481261e-07,2.0866431232356915e-06,-9.193981042835786e-06,-3.5036367955639924e-07,-6.247960121255511e-07,5.978506992740709e-06,7.882837223447601e-07,2.7096411555793783e-07,3.5861341715633837e-07,2.060874069720618e-06,2.8364415114527395e-06,-6.033819982745493e-06,-1.302490345619958e-05,-1.6057985144322654e-05,1.1123789413445325e-05
-1.8826529625540803e-06,-4.5253569445075483e-07,-1.7585964092934541e-06,-7.611985059756581e-07,2.3106950652899054e-06,-9.092694876812595e-06,-6.808183191750198e-07,-4.4762320140519277e-07,5.156324554095458e-06,7.661853267692216e-07,3.6695422230001547e-07,1.4501794509682219e-07,-1.4734938929311423e-07,4.8962182318502495e-06,-3.890617548983853e-06,-1.3446945372734415e-05,-1.6631336143129967e-05,9.94561579963944e-06
-1.8645151972843596e-06,-4.4236499119707455e-07,-1.809666276602303e-06,-7.634595613274078e-07,2.695181115897647e-06,-8.11218574598326e-06,-1.0104975353232877e-06,-2.792015438982041e-07,3.391097992082539e-06,7.673420943417472e-07,5.312891639785143e-07,-4.761980288859677e-08,-2.214523157438598e-06,8.290198888465542e-06,-1.1476338133104814e-06,-1.1712680640348078e-05,-1.6139967016371227e-05,8.315131540603287e-06
-1.8373697688140876e-06,-4.273274825461433e-07,-1.84603929598505e-06,-7.639185849736726e-07,2.9638451701346758e-06,-6.459314544699809e-06,-8.99068919398711e-07,-6.074890232407994e-07,1.2435360805764343e-06,7.859014511579794e-07,7.872363293443259e-07,-2.032347625674566e-07,-3.9701671538540475e-06,1.2582904002493433e-05,1.7691031053420879e-06,-7.633423551407883e-06,-1.4761333822162494e-05,6.811431028694964e-06
-1.8091203432208744e-06,-4.091991283608707e-07,-1.863630821302493e-06,-7.638878179462313e-07,2.906107801368279e-06,-4.685158895910364e-06,-2.669772500920153e-07,-9.210747610782483e-07,-8.16479727889341e-07,8.597824610230503e-07,1.2121226952267461e-06,-3.059612625234457e-07,-5.357287164480964e-06,1.6882185283769168e-05,4.3989025687446634e-06,-1.7655113444970518e-06,-1.2548987782818798e-05,5.53800551063521e-06
-1.785482945495546e-06,-3.8919132935549444e-07,-1.861597053810428e-06,-7.645868140958527e-07,2.461292151349867e-06,-3.4292425131043956e-06,6.216161525392383e-07,-1.2208751366646024e-06,-2.649441011185835e-06,9.384178521468157e-07,1.85232754062795e-06,-3.484790546896259e-07,-6.467348623790822e-06,2.0058276540951095e-05,6.280637477239204e-06,4.635649556283025e-06,-9.522152110730781e-06,4.553786508845577e-06
-1.7710180209677479e-06,-3.685230419233162e-07,-1.8433959255972768e-06,-7.678152000612123e-07,1.7218005214863111e-06,-3.1544421016877407e-06,1.3407258706289014e-06,-1.48160148175039e-06,-4.374548141631089e-06,1.0023400279762645e-06,2.610104252596998e-06,-3.4940202775399584e-07,-7.3674497738169955e-06,2.1205137304234772e-05,7.057875895953766e-06,1.0034198395308551e-05,-5.798621484364454e-06,4.024633633387483e-06
-1.7681705581211587e-06,-3.4892553353318086e-07,-1.8158146533620098e-06,-7.755729992765583e-07,8.700137595785072e-07,-3.892750106267579e-06,1.46379205368112e-06,-1.2004770384947936e-06,-6.14589846611571e-06,1.0365091904722063e-06,3.250207389640083e-06,-3.2891357052603343e-07,-7.875993922071792e-06,2.0087437254753854e-05,6.627043807938387e-06,1.2969295394522015e-05,-1.6480651399097818e-06,4.0571311373834775e-06
-1.7762609830660168e-06,-3.32135995055792e-07,-1.7855986503690373e-06,-7.890428510102778e-07,1.0839435624186725e-07,-5.371593474436329e-06,6.847469589282672e-07,-6.823807188136914e-07,-7.989702062405476e-06,1.0307130980143024e-06,3.5383502641645945e-06,-3.0908067146861506e-07,-7.539740323574961e-06,1.7186183117682897e-05,5.178276362254401e-06,1.2658198875824295e-05,2.539439668546781e-06,4.7298016324771125e-06
-1.7923003065053926e-06,-3.192315235221823e-07,-1.7585567014390449e-06,-8.079842435473988e-07,-3.776473807123707e-07,-7.040253979773344e-06,-1.022961144886627e-06,-4.0823827350249424e-07,-9.78824593361481e-06,1.001826150259315e-06,3.43191838755615e-06,-3.150124626547905e-07,-5.895013128287244e-06,1.3323490278361486e-05,3.131755796247931e-06,9.35114130669176e-06,6.282382404914856e-06,5.735748706551069e-06
-1.8127895552550795e-06,-3.108012132732957e-07,-1.738191724275216e-06,-8.303537729910844e-07,-4.4406092826165467e-07,-8.27273444718418e-06,-3.278521826180695e-06,-2.4160517116108254e-07,-1.1354695281099767e-05,9.736762388127394e-07,3.0791610757306964e-06,-3.567415134864209e-07,-2.815129401696583e-06,9.280401228578786e-06,1.0509550353210333e-06,4.1632149886627965e-06,9.064009475044987e-06,6.509420622827602e-06
-1.8344071536090029e-06,-3.074239135761889e-07,-1.7258873802908252e-06,-8.562137287042856e-07,-3.806022317415265e-08,-8.459288844838108e-06,-5.379194944160601e-06,-4.5804106489845567e-07,-1.2514610870298345e-05,9.489586942133452e-07,2.735622118949869e-06,-4.240034760389143e-07,1.3199570570155043e-06,5.713352662628079e-06,-5.121266294261426e-07,-1.4852825041453918e-06,1.042188477491607e-05,6.5413580443942045e-06
-1.8550877960334826e-06,-3.095192221336928e-07,-1.7217134840955404e-06,-8.832356778503154e-07,7.375573254848116e-07,-7.0540051592389144e-06,-6.617905772780489e-06,-7.086699016975165e-07,-1.316598123451043e-05,9.127720310847296e-07,2.6960068395765093e-06,-4.889481140273588e-07,5.733807458701914e-06,3.239003659280707e-06,-1.2087434817167045e-06,-6.453266187425675e-06,1.017143852430863e-05,5.718907978944893e-06
-1.8728677783847657e-06,-3.1672304281467133e-07,-1.7250229675716634e-06,-9.078242811687963e-07,1.6822200523589913e-06,-3.896526055094494e-06,-6.615914188298598e-06,-4.772197347212723e-07,-1.330373457067869e-05,8.771734455627204e-07,3.1527740926427487e-06,-5.198725232917876e-07,9.541855241812253e-06,2.3907894179279573e-06,-1.0170270711520767e-06,-1.013714617364341e-05,8.527591157266363e-06,4.291789378440288e-06
-1.8855420065587272e-06,-3.276337174138864e-07,-1.7332347661642735e-06,-9.271787034365416e-07,2.511801643964093e-06,7.958007353335483e-07,-5.4395741923204766e-06,1.372925963730822e-07,-1.2982754804475425e-05,8.443865303150323e-07,3.9350133216685216e-06,-5.010776761858784e-07,1.2026793110817187e-05,3.3759347385603273e-06,-1.7889939810476975e-07,-1.2352934366003173e-05,6.026107237263948e-06,2.7091334665239916e-06
-1.891107081604301e-06,-3.401666323457328e-07,-1.7435802736951403e-06,-9.427546675359768e-07,2.961710388383078e-06,5.479248804008699e-06,-3.4853541047786427e-06,9.730615774766567e-07,-1.2249985319552309e-05,8.185647045509485e-07,4.771971055853225e-06,-4.4096553728732397e-07,1.2801936285176763e-05,5.853404278692984e-06,1.0012705250153999e-06,-1.3116552389732723e-05,3.3422011028339915e-06,1.469521241149868e-06
-1.8879205814742065e-06,-3.519025392398147e-07,-1.7531810388988612e-06,-9.562870534417882e-07,2.8768083272709594e-06,7.760230697789194e-06,-1.2975595780292665e-06,1.8101632231644076e-06,-1.1135576443516942e-05,8.001013883410715e-07,5.334077131454697e-06,-3.649023730802994e-07,1.1876282681322778e-05,8.95542546880972e-06,2.3433779969329777e-06,-1.2581210197126617e-05,1.0899041346845592e-06,8.392024165616597e-07
-1.8735535963358708e-06,-3.5997313085214573e-07,-1.7574014258194081e-06,-9.724206656370305e-07,2.23238032824804e-06,7.649361728030515e-06,5.675161203147024e-07,2.1565044972302703e-06,-9.725754152862823e-06,7.824346941390404e-07,5.043973824342296e-06,-2.972575483584265e-07,9.631721982024641e-06,1.1620479014590918e-05,3.820812896888714e-06,-1.1143202226716194e-05,-3.2400617659748365e-07,8.604745491448265e-07
-1.8451234809646417e-06,-3.6090027446934455e-07,-1.7515531644381695e-06,-9.968749784203378e-07,1.1582786324927633e-06,6.324261915880672e-06,1.6600137191334196e-06,1.8714985523139649e-06,-8.214358349071604e-06,7.668652970703545e-07,4.386330708122599e-06,-2.512402014217565e-07,6.710041972732998e-06,1.3060761599435917e-05,5.4324300629860555e-06,-9.304599601879321e-06,-8.024330217531783e-07,1.4385803174471776e-06
-1.8013898346545091e-06,-3.511302776312688e-07,-1.7280792551682792e-06,-1.0333207317993023e-06,-9.027602772040785e-08,5.7240584158515514e-06,1.7305547990684602e-06,2.5377901166686883e-06,-6.825698313571461e-06,7.532101663081928e-07,3.852946379041629e-06,-2.3207587012790155e-07,3.845138056497278e-06,1.3040508845344513e-05,7.047647767332612e-06,-7.47658146043326e-06,-5.289424695829771e-07,2.3367258376471912e-06
-1.7445965009003816e-06,-3.28376226635567e-07,-1.6841695829247451e-06,-1.0835847580117442e-06,-1.0649559891096017e-06,4.498014474901169e-06,7.586385426232746e-07,3.311010740115676e-06,-5.643312515911397e-06,7.328827465857488e-07,2.9483895621411238e-06,-2.439040586347054e-07,1.6968524431351329e-06,1.178370061093343e-05,8.369187722771776e-06,-6.0092158832801546e-06,2.0388640304464603e-07,3.261380604402345e-06
-1.6813014428238e-06,-2.9301145396081894e-07,-1.6254027348786204e-06,-1.1440511434701004e-06,-1.6656266417052572e-06,8.758770441885255e-07,-1.0495909475646914e-06,3.6851104045182805e-06,-4.51987989339105e-06,7.128876945024543e-07,1.864089587296809e-06,-2.895264801264788e-07,7.099796712695556e-07,9.68975196452828e-06,9.086799446764395e-06,-4.959193443850738e-06,1.1625973966098074e-06,3.91237641691432e-06
-1.6205688242646364e-06,-2.4853946618219535e-07,-1.5589183233424034e-06,-1.204957753224121e-06,-1.7333723346595219e-06,-3.1851885988137597e-06,-3.2509874890708053e-06,3.6599956752348918e-06,-3.2084833684725793e-06,6.794018029297347e-07,1.1839095989854956e-06,-3.648639665084666e-07,9.874968274753357e-07,7.149014727974142e-06,9.118448719584894e-06,-3.885359399458112e-06,2.184169965277553e-06,4.069520869394849e-06
-1.5694586491721237e-06,-2.008459366751091e-07,-1.4958477990781862e-06,-1.2537788345704918e-06,-1.2074731240718688e-06,-6.507459054126333e-06,-5.273245846668063e-06,2.9926142592919376e-06,-1.6341833504987892e-06,6.684118899054861e-07,9.751748281511602e-07,-4.5734914760888935e-07,2.2191165789259314e-06,4.568305879112058e-06,8.649235727421039e-06,-2.2765797140869694e-06,3.084866581963279e-06,3.643997004277051e-06
-1.5312911192303137e-06,-1.5660576558463597e-07,-1.4563881016461295e-06,-1.2874417617429041e-06,-4.990350865896211e-07,-8.597513058116874e-06,-6.605079924909559e-06,1.9574082298693423e-06,-5.424338490464144e-08,6.848561811913875e-07,1.0153804866865744e-06,-5.490993723065422e-07,3.7757810386599525e-06,2.4455123098404873e-06,7.925742394983136e-06,2.45202938234088e-07,3.617030041700603e-06,2.746619505826267e-06
-1.5037402704618785e-06,-1.2124257616673724e-07,-1.4446046313594038e-06,-1.3062741836954252e-06,5.285522005384427e-07,-9.533608862616488e-06,-7.0184293170310005e-06,9.536836114675834e-07,1.0562322264012047e-06,7.329089888738844e-07,1.1307306725177014e-06,-6.212998685724896e-07,4.9919683405097975e-06,1.2462425911223815e-06,7.05332936683723e-06,3.8079607175757557e-06,3.5123294827602263e-06,1.6845348789439215e-06
-1.4851228370584094e-06,-9.707967166435276e-08,-1.4619385349223597e-06,-1.321147622847485e-06,1.6038563729833126e-06,-8.83331735449586e-06,-6.596133140433184e-06,-2.5748734973535804e-07,1.3057570981203383e-06,7.917556612022889e-07,1.150741100092223e-06,-6.639521803542118e-07,5.46279256647012e-06,1.1278620758730144e-06,5.968581410107347e-06,7.973074076371e-06,2.562380934135861e-06,8.313983653547267e-07
-1.471461009716488e-06,-8.293000915130433e-08,-1.5081138361084175e-06,-1.3263123336744983e-06,2.3928171226102418e-06,-6.971813902155418e-06,-5.6221972981377024e-06,-7.964952478192072e-07,6.319217373282534e-07,8.470446148582613e-07,8.320900959543412e-07,-6.6109936271483e-07,5.1592277498978315e-06,1.8265690469254205e-06,4.531243632617735e-06,1.1105577761425233e-05,6.900653694640352e-07,4.4716122395682216e-07
-1.4530383167044362e-06,-7.583559198545435e-08,-1.569986027978321e-06,-1.325529447374972e-06,2.9996116147410382e-06,-4.591229715330553e-06,-4.415736221166434e-06,-1.0034290066521707e-06,-6.841205744534636e-07,8.815581911720823e-07,3.8572574242438835e-07,-5.975720903804731e-07,4.362974558960944e-06,2.8653506315709035e-06,2.625664879433029e-06,1.2584148698876275e-05,-1.9818425922354105e-06,5.854369062446347e-07
-1.4298819889906566e-06,-7.374001333331987e-08,-1.6138155256287788e-06,-1.3271642801381454e-06,3.140297830670808e-06,-1.9835342820806462e-06,-3.2475352401323834e-06,-9.000092662202462e-07,-2.210810012928164e-06,8.372058671030731e-07,6.115674646692919e-08,-4.643424654374806e-07,3.5439045100949123e-06,3.873901825645865e-06,2.4632631702080645e-07,1.2733645776962558e-05,-5.078650686544862e-06,1.0632161810285585e-06
-1.4055032998323455e-06,-7.678337434297284e-08,-1.64343793191696e-06,-1.3343272735234355e-06,2.8668877521605937e-06,3.9139517307838605e-07,-2.1954045922737233e-06,-5.677677914803452e-07,-3.60031327974848e-06,8.088703795110307e-07,-2.278221934948609e-07,-2.8517479169986623e-07,3.2160437130233432e-06,4.754306021054281e-06,-2.4637256469723124e-06,1.0445695819316068e-05,-8.007950916629367e-06,1.5547568218685513e-06
-1.384238908134661e-06,-8.626638431567695e-08,-1.636362573905101e-06,-1.3568351338793038e-06,2.329013574132684e-06,2.3476264892577335e-06,-1.1528410920260359e-06,-1.3388376821976756e-07,-4.6990435647693595e-06,7.740755196587849e-07,-8.865415197692874e-08,-1.1717135505025042e-07,3.733041754181151e-06,5.648892693923188e-06,-5.229988386115009e-06,7.176774201341216e-06,-1.0103064918969685e-05,1.7420214644104628e-06
-1.370938392153409e-06,-1.0258871519693211e-07,-1.5179571138400113e-06,-1.377308688597875e-06,1.564486141846105e-06,3.608359194467795e-06,3.175508132125139e-08,2.1162912677849623e-07,-5.484451442387474e-06,7.380772848611394e-07,1.0557456967287648e-07,-3.4774822681368663e-08,5.060307024340798e-06,6.825145753405127e-06,-7.69506290120949e-06,2.980820273770439e-06,-1.0838124290374557e-05,1.522402392661984e-06
-1.365984384562745e-06,-1.240270504817433e-07,-1.444185152959919e-06,-1.395487696615841e-06,8.012956598511958e-07,3.703478573488175e-06,1.4249507108661632e-06,3.3995680211253746e-07,-5.91900430217626e-06,7.280019025842235e-07,-1.6199426406658615e-07,-7.820617368912684e-08,6.672258610821324e-06,8.54135459187445e-06,-9.497846839278937e-06,-3.6651109635806563e-06,-1.0060932628571986e-05,1.1310672316868165e-06
-1.36640902189277e-06,-1.469885238119586e-07,-1.3668201494666736e-06,-1.3864941617903208e-06,1.9900013242455978e-07,2.3052505100739545e-06,2.8688898705851724e-06,2.405840919769358e-07,-5.871083701728604e-06,7.048994036971395e-07,-3.748884503304204e-07,-1.7982114867142725e-07,7.716920992659837e-06,1.0888596409525504e-05,-1.0377743284799697e-05,-9.32344663914143e-06,-8.1235632488981e-06,1.0703758555664445e-06
-1.3656833980074937e-06,-1.6727251431469752e-07,-1.290358930790309e-06,-1.3023327976245749e-06,-1.785419335736226e-07,-6.103814475162893e-07,4.119220337017911e-06,2.8555462949050272e-08,-5.176546671410406e-06,6.889175888160291e-07,3.977487494091865e-08,-2.754050423768781e-07,7.418795426082088e-06,1.3639611975515939e-05,-1.0243177789495367e-05,-1.2283897765995997e-05,-5.770869032966888e-06,1.8927934431587534e-06
-1.3584007404807676e-06,-1.817552241386849e-07,-1.1758353599034295e-06,-1.2256795394920655e-06,-3.6499738465487943e-07,-4.552790173018454e-06,4.960210524294008e-06,-1.1401138260389244e-07,-3.7850597305743483e-06,6.543933776648131e-07,6.429053802841169e-07,-1.748163942669747e-07,5.473327117247903e-06,1.6193911135490524e-05,-9.142300650986943e-06,-1.0365014601330946e-05,-3.8085480241976723e-06,3.910491184631512e-06
-1.3396338564407359e-06,-1.8990838064102848e-07,-1.0175593156899453e-06,-1.1434443903460947e-06,-4.813350038513299e-07,-8.566243791852586e-06,5.291182884035999e-06,-1.5258363176674063e-08,-1.8789446072113225e-06,5.779061195323347e-07,5.210402727661249e-07,1.0259963202864985e-08,2.1766837581475074e-06,1.7697039848047703e-05,-7.163282474046221e-06,-7.326202824539642e-06,-2.7557968815640028e-06,6.996484873887701e-06
-1.307130104139098e-06,-1.9419419163428376e-07,-8.811387730731139e-07,-1.0747515835289002e-06,-6.465347199706239e-07,-1.1390502157782486e-05,5.061098026503565e-06,3.906604725974912e-07,1.1312995015377739e-07,5.658297848983054e-07,7.278006893595552e-07,7.692784133278002e-08,-1.7326758462546348e-06,1.7359100649114844e-05,-4.388987661645064e-06,-6.2953771390591535e-06,-2.6855378361396516e-06,1.054297706025788e-05
-1.2624587158218109e-06,-1.9858949414023472e-07,-8.315181957842208e-07,-1.0120832362182516e-06,-9.119272522817851e-07,-1.2032537866750538e-05,4.1500212767596325e-06,1.008964368401667e-06,1.6239811146781218e-06,5.488283037692896e-07,1.3942065717329418e-06,-6.172573867453517e-08,-5.361203877676933e-06,1.4855647390933553e-05,-9.979436948326432e-07,-2.743314457809765e-06,-3.3005289347112787e-06,1.360102122219909e-05
-1.209329488076204e-06,-2.0590333641369713e-07,-8.074690307043589e-07,-9.534766228145138e-07,-1.2413267423379552e-06,-1.0463433453088836e-05,2.4013214491447236e-06,1.6956128170214805e-06,2.1483653681913424e-06,5.218578618803358e-07,1.7988766198445853e-06,-1.438675744555392e-07,-7.932880178049184e-06,1.0526602048580115e-05,2.584710454357851e-06,3.2414748922412115e-06,-4.128091621588231e-06,1.5134576500092902e-05
-1.1504803295216145e-06,-2.1584068404556148e-07,-8.290507218333986e-07,-9.019585754508307e-07,-1.5236162640240005e-06,-8.932651855202817e-06,-2.3220503435268676e-07,2.2719592314725263e-06,1.4735486255393796e-06,5.3509770424891e-07,2.0428386191102343e-06,-1.169839858790774e-07,-8.983342054038934e-06,5.209202380219242e-06,5.68505102836436e-06,1.024104355762743e-05,-4.658977289000362e-06,1.4379609624063037e-05
-1.0884647754227705e-06,-2.2520202944371358e-07,-8.759384305532286e-07,-8.140890721705608e-07,-1.6172937415378039e-06,-8.383126894943515e-06,-3.5277982996489757e-06,2.5645700906331627e-06,-1.7295391127999952e-07,4.915321932803969e-07,2.2382474571760123e-06,-5.080875554319757e-08,-8.431243725333748e-06,-9.396714024140279e-08,7.5953654711267855e-06,1.6474904617548426e-05,-4.3894795071143685e-06,1.1136793367079284e-05
-1.0284618081615513e-06,-2.2969625967047685e-07,-8.861201586365914e-07,-7.245521532601607e-07,-1.4264938532941282e-06,-7.64086628988571e-06,-6.933383290686847e-06,2.4856624394347613e-06,-2.1793604937117664e-06,4.1079074222297807e-07,2.46451257322294e-06,-1.2082378759962242e-07,-6.474305745058959e-06,-4.443509193089656e-06,7.892523859033555e-06,2.080189401857959e-05,-2.912069602753266e-06,6.325875096283602e-06
-9.773268893294488e-07,-2.2577114642969306e-07,-9.326138344675005e-07,-6.691743836698176e-07,-9.650202863272126e-07,-7.034097266120305e-06,-9.800298335732408e-06,2.0800588692948636e-06,-3.810820272494343e-06,3.9092275777750685e-07,2.4976000029521767e-06,-1.1836279813412306e-07,-3.3560666421022295e-06,-7.112721597294884e-06,6.6682927895857616e-06,2.2760719122687612e-05,-1.4241706373121248e-07,1.2987883443783809e-06
-9.385301818111466e-07,-2.1156571438266635e-07,-1.0232070755345677e-06,-6.36663484453584e-07,-3.5189145269288003e-07,-7.3381663311783735e-06,-1.1136851328851666e-05,1.472896329220002e-06,-4.5402314781083374e-06,3.566014286198841e-07,2.235926693669144e-06,-2.3803206072002197e-07,7.760332397928769e-07,-7.75204587035732e-06,4.5124624123701365e-06,2.1258065047699986e-05,3.490782306422362e-06,-2.2771844595731254e-06
-9.120178407474156e-07,-1.8719941161343636e-07,-1.154001162437245e-06,-6.051518387000081e-07,2.525532608799607e-07,-7.73951213606074e-06,-1.0491234860997553e-05,8.380875901118311e-07,-4.296031819832839e-06,3.6099376614569523e-07,1.7425131143049452e-06,-3.3609149677544205e-07,5.743212169044006e-06,-6.453545425465418e-06,2.234296656745907e-06,1.71561389890958e-05,7.1368308620628434e-06,-1.4412745512845427e-06
-8.948950156229468e-07,-1.5463763876085245e-07,-1.219532391234561e-06,-5.504292566516078e-07,7.17684041831954e-07,-7.74108761587557e-06,-7.984554241924616e-06,3.420227210988944e-07,-3.50630208095562e-06,3.2966036504281064e-07,1.0171450989927797e-06,-3.8963944183999127e-07,1.1080626255058639e-05,-3.623294588353234e-06,4.980714813591273e-07,1.1989653605233653e-05,9.889427871475319e-06,3.33397970574252e-07
-8.822910347818523e-07,-1.1687272560662504e-07,-1.2819482592248875e-06,-5.350112708845744e-07,9.773547660127254e-07,-7.674442173531281e-06,-4.084536923526913e-06,1.6635605045064973e-08,-2.880680944191643e-06,3.339254622951112e-07,1.123821565475322e-07,-4.019102920835079e-07,1.5972406278172612e-05,1.6874638610127474e-07,-4.502729859417131e-07,6.788107794704114e-06,1.1171416636046544e-05,3.7855844090541867e-06
-8.705042197459574e-07,-7.65803204361215e-08,-1.357311008853949e-06,-5.386560352384797e-07,1.0282633694012255e-06,-7.278462328521268e-06,3.3138392087753833e-07,-3.391806658959814e-08,-3.033594781712189e-06,2.862246127278928e-07,-8.558825771817749e-07,-3.6827572251722887e-07,1.946934524552015e-05,4.1717873636252226e-06,-8.123889762143456e-07,2.6172418195757074e-06,1.0886197601030697e-05,8.50493834852442e-06
-8.570301554904404e-07,-3.5371581163914053e-08,-1.3042777016948879e-06,-5.446374602593811e-07,9.144418561133132e-07,-6.67829494192736e-06,4.4837275616944775e-06,2.7028259922715164e-07,-4.182687914648295e-06,1.470253713423828e-07,-1.8748306523000979e-06,-3.253334638855605e-07,2.0815057532058246e-05,7.405846811796445e-06,-1.0095313907478288e-06,-1.901824049360343e-07,9.303197545348493e-06,1.4152597108828837e-05
-8.421082821231268e-07,5.531729557512741e-09,-1.2119335916814873e-06,-5.74365847727028e-07,7.073478213683189e-07,-6.080952970302662e-06,7.860739184050048e-06,8.570231056444619e-07,-6.103453531805119e-06,1.49405927466704e-08,-2.710289389765269e-06,-3.0080122793555863e-07,1.9724145750362178e-05,8.861933921206493e-06,-1.3957967301119708e-06,-1.496944078083272e-06,6.861457812180624e-06,1.7399423479944976e-05
-8.290243508969637e-07,4.402259051052255e-08,-1.133011694363417e-06,-6.088590272469166e-07,4.914641764902078e-07,-5.413723672505936e-06,1.0506695271942042e-05,1.4473503042897992e-06,-8.344075661486174e-06,-9.831143832076033e-09,-3.0755099135981004e-06,-2.901266568792936e-07,1.6550531188693433e-05,7.911367785381596e-06,-2.0960813422927727e-06,-1.2814635560784328e-06,4.054720215635749e-06,1.746161047775643e-05
-8.231533849235837e-07,7.690312514496859e-08,-1.0601060457344555e-06,-6.128850044145757e-07,3.61092837014754e-07,-4.6520658940907435e-06,1.184036164917734e-05,1.836860899324599e-06,-1.0510267077167466e-05,9.075822158465026e-09,-2.918049743636787e-06,-2.696923521657348e-07,1.2242924635875699e-05,4.877518388664591e-06,-3.0200840716890406e-06,1.8229446462594948e-07,1.361068820843067e-06,1.4847968589827512e-05
-8.287881545671841e-07,1.0119547948361758e-07,-1.003544519049952e-06,-6.097956560120345e-07,4.1404501498692266e-07,-3.7345849808781207e-06,1.157031149292545e-05,1.7104436260974378e-06,-1.2377824378069e-05,6.478595401057199e-08,-2.2589048746901347e-06,-2.1370053848083764e-07,7.99761499336571e-06,8.369124095042192e-07,-3.958897915780678e-06,2.370473465112338e-06,-8.760753639213847e-07,1.0096059405073698e-05
-8.468448530845162e-07,1.1569092157836331e-07,-9.644360601219528e-07,-5.922113745630578e-07,7.313243578158526e-07,-2.6732058369063478e-06,9.734142955265181e-06,9.387777947337532e-07,-1.3725285241079495e-05,1.5567612689936286e-07,-1.21813104917085e-06,-1.158183519238116e-07,4.745938883751196e-06,-2.6748843751100704e-06,-4.706239823874165e-06,4.5190026344338235e-06,-2.5681472834121295e-06,4.463322984374876e-06
-8.732598210253932e-07,1.2133304214915606e-07,-9.252695972908932e-07,-5.487659102015454e-07,1.345371135924878e-06,-1.636987610802394e-06,6.372406413828383e-06,1.3447847672156306e-06,-1.4212655572562631e-05,2.443230382166872e-07,3.385110201473803e-10,-3.182867363147724e-09,2.822372694014405e-06,-3.4868964882339086e-06,-5.164714124538441e-06,5.705545846041162e-06,-3.886680941978566e-06,-5.415135703236281e-07
-9.05073258338734e-07,1.2043664581985747e-07,-8.980460740270874e-07,-5.328824817318586e-07,2.214210281348901e-06,-8.838508772889478e-07,2.2072734558843917e-06,2.1273652670124815e-06,-1.3533400961788275e-05,3.214165855685711e-07,1.2188390413634785e-06,7.889256432091984e-08,2.03949297106241e-06,-2.48600292357475e-06,-5.382034527324866e-06,5.1427290183317844e-06,-5.136987910616996e-06,-3.896041959657243e-06
-9.372172965703528e-07,1.1582096076384746e-07,-8.855636653121666e-07,-5.110191479091494e-07,3.2173944927804937e-06,-6.973604586827554e-07,-1.8833165746128555e-06,2.7047388093012695e-06,-1.1652539481747435e-05,3.8753249802096156e-07,2.2987493348660325e-06,9.411753632838891e-08,2.0293465592415893e-06,-7.458322067210299e-07,-5.526307230462761e-06,2.59247710353041e-06,-6.579201711601809e-06,-6.678069571151009e-06
-9.541257646157559e-07,1.1042229906881087e-07,-8.74268684270858e-07,-4.653935954460636e-07,4.175630805589124e-06,-1.3363735795681001e-06,-4.952401786367206e-06,3.183589502024694e-06,-8.96167123932155e-06,4.6817060196686153e-07,3.072551036244652e-06,3.3059609953891624e-08,2.5120371457205695e-06,2.4256014049794006e-06,-5.83444217731436e-06,-1.4130671515238503e-06,-8.271222599334621e-06,-8.763579916067941e-06
-9.652981105112996e-07,1.0693082059489228e-07,-8.712064015007236e-07,-4.48744075307871e-07,4.9121785990432895e-06,-2.982942539707642e-06,-6.515043705614791e-06,3.1825504952375363e-06,-6.165370794811001e-06,5.248871374109184e-07,3.3969583726912293e-06,-7.831916706380257e-08,3.3399003718497834e-06,5.7177305166101564e-06,-6.503147893076009e-06,-5.734500543834031e-06,-9.978005033431054e-06,-8.438151121916933e-06
-9.716953053354034e-07,1.0719419204842806e-07,-8.833229405042516e-07,-4.4658716706530266e-07,5.296135803025185e-06,-5.467766233494721e-06,-6.157762383425684e-06,2.9165435752595213e-06,-3.966053568440803e-06,5.813501573192356e-07,3.289940790397691e-06,-1.8512891741058758e-07,4.4486401220428375e-06,7.67460109939779e-06,-7.520616485626716e-06,-9.086498232558855e-06,-1.1187593515859016e-05,-6.399319979583011e-06
-9.728068810542627e-07,1.1192514745995456e-07,-9.034416861901272e-07,-4.5022425237395026e-07,5.259555843385191e-06,-8.293950219574385e-06,-4.227967309437468e-06,2.5755060327953237e-06,-2.7800290940652964e-06,6.444254533430477e-07,2.9092736925621937e-06,-2.238227464814816e-07,5.840714992224848e-06,8.177929655388993e-06,-8.553233255328341e-06,-1.0561691703276024e-05,-1.1263497847667471e-05,-4.385273878660491e-06
-9.749502128015494e-07,1.2094928218981365e-07,-9.258484996295128e-07,-4.679253055343632e-07,4.798513152309099e-06,-1.070308394401887e-05,-1.3805635341912444e-06,2.4071940050248907e-06,-2.6271279229283207e-06,6.985213345181399e-07,2.4778836019370985e-06,-1.4218463607061476e-07,7.545002038971283e-06,7.810976025633299e-06,-9.055490759065546e-06,-9.951085311105255e-06,-9.709394892045351e-06,-2.556251033777028e-06
-9.779349376277852e-07,1.3320711309430422e-07,-9.491167874098724e-07,-4.886904349770075e-07,4.011438329470698e-06,-1.1478590454227003e-05,2.0032413264151117e-06,1.7550198158098407e-06,-3.2248774665650273e-06,7.535248563699394e-07,2.2203383666833262e-06,7.063626103193975e-08,9.488771577521428e-06,7.0515119789528835e-06,-8.560735603848767e-06,-7.683500873957912e-06,-6.4581744586417026e-06,-1.1304358898881228e-06
-9.841637325885803e-07,1.4579582038837713e-07,-9.6515828218116e-07,-5.077355062574416e-07,3.086654551644858e-06,-1.0278414073901122e-05,5.587224064539523e-06,9.640419304445014e-07,-4.227418407340965e-06,8.013663437953244e-07,2.2742792102722446e-06,3.708428095314064e-07,1.1360219698472666e-05,6.37656610528135e-06,-6.9301962908487855e-06,-4.455404950564546e-06,-2.0690363276790246e-06,-7.942271095080613e-07
-9.994447993513473e-07,1.5289690637690504e-07,-9.769710642511622e-07,-5.034265817732088e-07,2.2642128693412537e-06,-8.739696111324401e-06,9.303416697380642e-06,7.13193777750875e-07,-5.491630147410965e-06,8.436190152028632e-07,2.6346140029247727e-06,6.760263406893998e-07,1.2610416919255804e-05,6.094729018979593e-06,-4.399892928288877e-06,-8.754804845358208e-07,2.3018544998965392e-06,-1.1461646967011633e-06
-1.0335119090049526e-06,1.4661566872121677e-07,-9.91433469252859e-07,-4.6464504838043966e-07,1.7732165798899391e-06,-5.437615899607977e-06,1.2861907982208908e-05,7.947828488011037e-07,-6.998582830888709e-06,8.631025110453003e-07,3.13618106572983e-06,9.031049412177067e-07,1.2672544535951881e-05,6.293607362663549e-06,-1.4511171530463323e-06,2.5977752027976767e-06,5.264398290287569e-06,-1.9071819674392256e-06
-1.090257247084936e-06,1.2052433855354496e-07,-1.012887518396447e-06,-4.027307218771574e-07,1.6515356821727677e-06,-1.4498489189855557e-06,1.5647523887672407e-05,6.837323021819583e-07,-8.693591491159145e-06,8.709248553590976e-07,3.5521035622834675e-06,1.0041733005887808e-06,1.1289054363187429e-05,6.792811426818493e-06,1.3684584986072594e-06,5.51780981413209e-06,5.795731543933897e-06,-2.9213156217502193e-06
-1.1685739069465309e-06,7.365986259078644e-08,-1.0462683408314081e-06,-3.7315343505064627e-07,1.763584681751511e-06,1.873912735610727e-06,1.6655327667347965e-05,7.113377790860782e-07,-1.0317198974134281e-05,8.81245287999216e-07,3.6353516020513488e-06,9.772750235693744e-07,8.693023474095595e-06,7.175206908730629e-06,3.600235397867434e-06,7.4214719538932075e-06,3.714958715679904e-06,-4.003275480046817e-06
-1.2630973777260255e-06,1.1284974283700368e-08,-1.0924692809735213e-06,-3.774191482754447e-07,1.8820187334092417e-06,3.960766324508938e-06,1.5311591174702984e-05,6.545121707470625e-07,-1.1408013120835798e-05,8.826443248965417e-07,3.277224961605248e-06,8.518297618408769e-07,5.505400529681669e-06,6.990708923631749e-06,4.961298623300361e-06,7.96556512113084e-06,-2.904680569008646e-07,-5.256677384331305e-06
-1.3657445322128436e-06,-5.872554789357115e-08,-1.1556972045246275e-06,-4.0595669683277786e-07,1.7392950218977063e-06,4.754658976383452e-06,1.1492799286496341e-05,6.272666322138828e-07,-1.1754144387575948e-05,8.755815798891344e-07,2.5178814354152e-06,6.612579600605228e-07,2.4784578529052335e-06,6.0470599218531696e-06,5.369880530582862e-06,7.014866338900751e-06,-5.020606888340894e-06,-6.701234451425316e-06
-1.4605022455187321e-06,-1.319097328028589e-07,-1.223380806930679e-06,-4.471531488020441e-07,1.1905360780172885e-06,4.283419469183307e-06,6.039319530863641e-06,7.409048139026055e-07,-1.1518469106920014e-05,8.492153722152407e-07,1.5483069469733398e-06,4.349666485105384e-07,2.973922208516235e-07,4.592562474517981e-06,4.940563760039525e-06,4.625380044451689e-06,-9.186216282155268e-06,-8.151692056418152e-06
-1.549855597841558e-06,-2.0704902117854003e-07,-1.2867954934886533e-06,-5.231442958959025e-07,2.6810642495112846e-07,2.7992793087571335e-06,3.2352732197053857e-07,8.506509998538386e-07,-1.0697033094506142e-05,8.325889086199268e-07,6.94340794480996e-07,1.8654639325702662e-07,-5.146499249848752e-07,3.2701907802404257e-06,3.947081882418385e-06,1.0604520554500882e-06,-1.1709322331705334e-05,-9.316692835896819e-06
-1.6355490589095416e-06,-2.8559122723706304e-07,-1.3415534882403257e-06,-6.071970220034941e-07,-6.353708491006759e-07,5.996463454637379e-07,-4.233898834774498e-06,9.92159251041268e-07,-9.029222379967245e-06,8.250292757560468e-07,3.736809600608829e-07,-7.93429646119106e-08,3.108163483351172e-07,2.824836239649814e-06,2.7428835210176846e-06,-3.169025471543289e-06,-1.1900071406778488e-05,-9.913556700804541e-06
-1.7219741614517235e-06,-3.69197899443424e-07,-1.3890790088502185e-06,-7.163731910008526e-07,-1.0385038349342818e-06,-2.0262763775812515e-06,-6.915109911162329e-06,1.0598353435337546e-06,-6.554948686637751e-06,8.20527355931702e-07,3.813284155418382e-07,-3.324621889130064e-07,2.6668663457383e-06,3.68013713913157e-06,1.6478264188566216e-06,-7.378769401387816e-06,-9.54511250600492e-06,-9.781641284933808e-06
-1.8068722015800129e-06,-4.5771451755110744e-07,-1.4411670639511718e-06,-7.994632803271161e-07,-8.879004014496695e-07,-4.763140489461402e-06,-7.957046022353792e-06,9.661827332500934e-07,-2.650925450216199e-06,8.336878189674478e-07,6.586186883092175e-07,-5.486618560326425e-07,6.051442716822659e-06,5.648688993702595e-06,8.181188037294074e-07,-1.0883854731014101e-05,-4.927187499814227e-06,-8.92441920455962e-06
-1.8873258847395944e-06,-5.504909927147026e-07,-1.5051825408295199e-06,-8.444869994557764e-07,-4.2067129444668865e-07,-7.225136187664449e-06,-8.037214538153979e-06,8.608695077220699e-07,1.617201679972793e-06,8.35881554866817e-07,1.2205482380835597e-06,-6.828200224870497e-07,9.742562515476945e-06,7.988605775400154e-06,1.5876559744322894e-07,-1.3127090253015891e-05,1.1960906175867931e-06,-7.5004243860593325e-06
-1.963110979807791e-06,-6.441998181120585e-07,-1.615337978853321e-06,-8.780864506808575e-07,-2.777150247046141e-07,-9.007189299824616e-06,-7.961528743852238e-06,8.854592927892343e-07,4.426259737647026e-06,8.202596187096247e-07,1.6125969233591375e-06,-6.932333866622855e-07,1.3031539139663865e-05,9.79472372220278e-06,-5.962015198920278e-07,-1.3725614017890602e-05,7.651526734555892e-06,-5.8050746885010075e-06
-2.0295810276513043e-06,-7.377616398480027e-07,-1.7376229439613477e-06,-9.10552777810966e-07,5.573693622712194e-07,-9.813134429153728e-06,-8.089740519867462e-06,9.994916538724304e-07,5.014480812654566e-06,7.928321200986996e-07,1.78967178565703e-06,-5.949431032246818e-07,1.532753049929392e-05,1.0368258517412951e-05,-1.768364940569599e-06,-1.2514296168883205e-05,1.30359344051381e-05,-4.226888632455035e-06
-2.0899692761623934e-06,-8.304221066877522e-07,-1.8757912835782551e-06,-9.474394289878641e-07,1.44549012080488e-06,-9.574494804751397e-06,-8.404887467285316e-06,1.287282421558629e-06,5.242835094023563e-06,7.534637467601321e-07,1.801258575583945e-06,-4.345977134576673e-07,1.6191336433279013e-05,9.44885817554318e-06,-3.500577590009087e-06,-9.605962778497777e-06,1.6140280474144636e-05,-3.1240624624896302e-06
-2.142576800218868e-06,-9.219235092066524e-07,-2.003821521911918e-06,-1.0492074266612275e-06,1.6091458960458895e-06,-8.486472657877437e-06,-8.595014360547224e-06,1.7562274731543394e-06,4.8595591428950845e-06,7.140808133935382e-07,1.7257280444416512e-06,-2.8592684868543237e-07,1.5444981175560873e-05,7.1726826567587075e-06,-5.692936633001382e-06,-5.412286225412956e-06,1.6505490745484945e-05,-2.631171868433962e-06
-2.18580739261181e-06,-1.0138226310723635e-06,-2.114331052302415e-06,-1.144336923025253e-06,1.8462051986197435e-06,-7.032140666521553e-06,-8.52769359848901e-06,2.365442152862252e-06,2.7923813285826153e-06,6.745209880297378e-07,1.684855296697404e-06,-2.096800907028497e-07,1.3274393697493062e-05,3.962417781438124e-06,-8.132509006248105e-06,-6.301879548178694e-07,1.4691386992566899e-05,-2.5239736681449782e-06
-2.217066991498176e-06,-1.1032297953672776e-06,-2.200857564909293e-06,-1.1875683883870898e-06,1.7938869412185894e-06,-5.692521229189225e-06,-8.29311478829608e-06,2.9712313567744493e-06,-9.162845156799564e-07,6.573391209308659e-07,1.7354308133499034e-06,-2.2872058050185605e-07,1.0161827713977748e-05,4.2885519065569976e-07,-1.0483277780439073e-05,3.7952812881877404e-06,1.1919638630551091e-05,-2.2840485934074267e-06
-2.213807036073369e-06,-1.187276557897021e-06,-2.2597562566633586e-06,-1.2103397103639355e-06,9.586217572627001e-07,-4.788103785397977e-06,-8.079352437386297e-06,3.4951966425040633e-06,-4.767269650666488e-06,6.877657303407219e-07,1.8313515231457788e-06,-3.411475026088324e-07,6.70337746449091e-06,-2.698264641304244e-06,-1.2374242012805824e-05,6.8577856277497295e-06,9.301383396561995e-06,-1.3545218044937332e-06
-2.1801828075472183e-06,-1.2620568558109977e-06,-2.2948667123911443e-06,-1.247917848512755e-06,2.6356755471267694e-07,-4.529675970019409e-06,-8.127672563183737e-06,3.761569095792861e-06,-7.1165613547571805e-06,7.239994101678124e-07,2.1079312563811492e-06,-5.168071985926155e-07,3.4735826019633915e-06,-4.720354754036281e-06,-1.3457358042529405e-05,7.871502856764925e-06,7.26073585206348e-06,5.542474771353155e-07
-2.116938558566838e-06,-1.3251003917274654e-06,-2.3171624990858278e-06,-1.2903332791447368e-06,3.918148147134539e-08,-4.864426755777698e-06,-8.73516509581858e-06,3.575880601986707e-06,-8.899363179556738e-06,7.892775180024742e-07,2.509993215289009e-06,-7.123492513594126e-07,9.578730904116307e-07,-5.177506171072521e-06,-1.3484759733050095e-05,6.765152081579421e-06,5.558821391429513e-06,3.2736717771785284e-06
-2.0204134522327785e-06,-1.3748335160230458e-06,-2.32276607657397e-06,-1.281831836432132e-06,3.4369179650723295e-07,-5.664425656626162e-06,-9.84910717160611e-06,3.0570058998420037e-06,-9.823068169940517e-06,8.42554026907483e-07,2.9786232002200664e-06,-8.562367314536262e-07,-5.043218643739978e-07,-3.984449342811555e-06,-1.2408874011676239e-05,4.023643879519366e-06,3.763587362370764e-06,6.200442192339733e-06
-1.932464218620217e-06,-1.4032716304102176e-06,-2.314386367413807e-06,-1.3099799285317112e-06,1.3228106416664415e-06,-6.977792900287116e-06,-1.1335912582820702e-05,2.2423086253684517e-06,-1.0064657232492288e-05,8.221684917632189e-07,3.332416898921005e-06,-9.5430587404249e-07,-7.418258786419653e-07,-1.4849636576131756e-06,-1.0406475190129338e-05,4.090184522049947e-07,1.682150978449196e-06,8.559210725410935e-06
-1.8395748327567167e-06,-1.412508569904432e-06,-2.2943764792656485e-06,-1.366939946044735e-06,2.470815615319814e-06,-8.857331675549418e-06,-1.2944688310721948e-05,1.3484514620457726e-06,-9.142693088552017e-06,7.996158033622658e-07,3.6209789364819494e-06,-9.907248227139248e-07,2.7115013511976167e-07,1.635799148615939e-06,-7.805136483390931e-06,-3.2844453205316346e-06,-5.384217982412577e-07,9.786935404505277e-06
-1.730085646399314e-06,-1.4064968182489992e-06,-2.2570631595156633e-06,-1.398268812897246e-06,3.8445779449540564e-06,-1.05497250010632e-05,-1.4590828065672498e-05,5.685041309121349e-07,-7.464371626991498e-06,7.879639962627756e-07,3.5098358184198556e-06,-9.522426938677566e-07,2.3767898676685864e-06,4.513319107165944e-06,-4.966844373252627e-06,-6.382481104874371e-06,-2.5631037014855395e-06,9.773972273070754e-06
-1.6301142223278178e-06,-1.3905119223081005e-06,-2.212433099284073e-06,-1.4047884068575537e-06,5.041767032031824e-06,-1.171429776334041e-05,-1.6179992852003884e-05,9.601265517859506e-08,-5.8201510014527105e-06,7.81209897481284e-07,3.2590490977467436e-06,-8.829398453122564e-07,5.108679534862283e-06,6.323142228631636e-06,-2.244154968184093e-06,-8.419318223514034e-06,-4.073855379857597e-06,8.832488119290473e-06
-1.5682800523149098e-06,-1.3711434147124767e-06,-2.168968187331465e-06,-1.4241714788050148e-06,5.473867265833286e-06,-1.081541807720975e-05,-1.7454428167663064e-05,-1.399292115975431e-07,-4.465328731002716e-06,7.695402209363656e-07,3.4736664709689553e-06,-7.650170420380873e-07,7.688204117014901e-06,6.528685166859628e-06,9.392007636619632e-08,-9.160040839319497e-06,-4.901146686982267e-06,7.478814759547424e-06
-1.5178098996743461e-06,-1.3530319623402168e-06,-2.127745158857683e-06,-1.4462088551232493e-06,5.0468600757176775e-06,-8.158623652866141e-06,-1.8146639267526737e-05,-2.8700289228224395e-07,-4.083478442193674e-06,8.148086859465277e-07,3.3466164243475183e-06,-6.591762750614211e-07,9.316046608235594e-06,5.099470499372359e-06,1.9508146480700155e-06,-8.578406730270498e-06,-5.023100975330793e-06,6.198990432832883e-06
-1.4783078801277538e-06,-1.343039778908214e-06,-2.0708588171366043e-06,-1.4572038237901507e-06,4.209839711752639e-06,-6.57481618854702e-06,-1.7918798321574615e-05,-1.777149522391096e-07,-5.077942519148849e-06,8.403104048477528e-07,3.3452070371697176e-06,-6.361838841763403e-07,9.572208552029283e-06,2.582671058363202e-06,3.324770347813875e-06,-6.846166875362893e-06,-4.472142586318382e-06,5.2962536960724046e-06
-1.4654713100051649e-06,-1.3301009575352272e-06,-2.0145453405169074e-06,-1.391124909664384e-06,3.3449242095511076e-06,-6.050309105566856e-06,-1.6620428856077464e-05,8.935659329253588e-08,-7.1187831302405395e-06,8.683408405625706e-07,3.091365674968919e-06,-7.112604376902777e-07,8.556823882455108e-06,-9.172666933370427e-08,4.308214136753671e-06,-4.319899725420148e-06,-3.28574857812434e-06,4.845861782128991e-06
-1.4239860803765152e-06,-1.3274927949490849e-06,-1.9793061972237105e-06,-1.3305343064458641e-06,2.564181941551227e-06,-2.4097607007557155e-06,-1.4354815261899444e-05,5.937743963237182e-07,-9.608584412818472e-06,8.907193441441359e-07,2.948106986049342e-06,-8.200230282961003e-07,6.686790998600722e-06,-1.996147358938257e-06,4.850400769274588e-06,-1.4479136959426064e-06,-1.5608915854317264e-06,4.746590122540743e-06
-1.3868626683101419e-06,-1.2879240076346906e-06,-2.0068195865420025e-06,-1.308449825336612e-06,1.4021495120485377e-06,3.52257806414726e-07,-1.1615115987210802e-05,1.2586116462375807e-06,-1.1802924703136052e-05,9.144042186569182e-07,3.0079466314603115e-06,-8.670572323797379e-07,4.401259375353752e-06,-2.6106481012972357e-06,4.776373635861872e-06,1.3651489445326484e-06,4.87021961236799e-07,4.832737566970538e-06
-1.4141998011540287e-06,-1.2077478235290846e-06,-2.106058738650319e-06,-1.28523773306962e-06,3.1953665676597195e-07,1.531842772053226e-07,-9.094677500994203e-06,1.7873352278779467e-06,-1.308784426939545e-05,9.296870129558012e-07,2.768130335622922e-06,-9.331753126406716e-07,2.0111147429114367e-06,-2.02115603495841e-06,4.058581583512923e-06,3.8083083874735978e-06,2.5480423963952396e-06,5.035143243994728e-06
-1.4709853429704185e-06,-1.1425785088736313e-06,-2.224753935420171e-06,-1.248944434899583e-06,-2.0283397053983207e-07,6.848657718903346e-07,-7.258748863125059e-06,2.2284256927562235e-06,-1.32092188756022e-05,9.446069784519265e-07,2.6892831346858674e-06,-1.026467715982515e-06,-2.791029207930075e-07,-7.97528365887748e-07,2.7055600042514233e-06,5.626786124253922e-06,4.283557249742184e-06,5.512889773023761e-06
-1.512340740033337e-06,-1.1078675903926205e-06,-2.2939376533590046e-06,-1.2932264994389592e-06,-4.006773387946374e-07,1.9247213118132028e-06,-6.213414158162776e-06,2.6696699029683716e-06,-1.2337592250738597e-05,9.42076223409916e-07,2.863623486513267e-06,-1.0958924632716153e-06,-2.254076375640716e-06,2.893521851652534e-07,8.473965573624721e-07,6.607779785536844e-06,5.378866640672249e-06,6.563228072057093e-06
-1.4044076641742231e-06,-1.0908396805198603e-06,-2.2500950305267836e-06,-1.3420374876462264e-06,-3.7767681282071834e-07,2.9632243753142796e-06,-5.77081271547466e-06,2.821323756702564e-06,-1.0961682735118924e-05,9.311524052198596e-07,2.5533510296533234e-06,-1.166969846076413e-06,-3.579711982153693e-06,5.77081327035514e-07,-1.2866724033049798e-06,6.646356553017408e-06,5.597033471259863e-06,8.287676521876006e-06
-1.253029191641794e-06,-1.0486966997512687e-06,-2.144146863651236e-06,-1.3580275814573372e-06,4.180660993559106e-07,1.278898184305147e-06,-5.667968926680121e-06,3.4747262151916394e-06,-9.702670323712829e-06,9.177027110297442e-07,2.603639538204685e-06,-1.3330807457671136e-06,-3.826238626590801e-06,-2.6169705273658183e-07,-3.347339742727131e-06,5.83545997406448e-06,4.84777265522393e-06,1.0343071079862342e-05
-1.1121707954360402e-06,-9.68051919693593e-07,-2.028615478463377e-06,-1.371223035718935e-06,1.5936152877584667e-06,-1.477841098967192e-06,-5.87268810089587e-06,4.3535826014871185e-06,-9.104203382310367e-06,9.1265659221962e-07,2.6267255216721832e-06,-1.4915793985371344e-06,-2.5338781897509442e-06,-2.1520098816201184e-06,-4.807069588570053e-06,4.46139521526496e-06,3.2362340900242953e-06,1.2085088358920419e-05
-9.342716511667213e-07,-9.072519998240351e-07,-1.92118333439581e-06,-1.4053196886731114e-06,2.559308405489453e-06,-3.7988190763464578e-06,-6.50011973355432e-06,3.39965074543622e-06,-9.450370091837806e-06,9.226104797468088e-07,2.6904165806598485e-06,-1.5244418111489473e-06,2.84967898839815e-07,-4.6622198897281574e-06,-5.032182190277882e-06,2.8670410134616154e-06,1.0338408058107205e-06,1.2971584433295981e-05
-8.151707898636172e-07,-8.617144717331051e-07,-1.8188228220138713e-06,-1.4222234450390274e-06,2.867556058745808e-06,-5.461475391356087e-06,-7.707103368108512e-06,2.4061522060430703e-06,-1.06284668256375e-05,9.155492376629142e-07,2.9772328743035614e-06,-1.4129618403745215e-06,4.0684555095567086e-06,-7.17103430751714e-06,-3.527156023857974e-06,1.3096536684614646e-06,-1.4427207977045249e-06,1.2843028900808964e-05
-7.391871298169661e-07,-8.329126960481898e-07,-1.7573035787949078e-06,-1.420322617883692e-06,2.5881453297516476e-06,-6.735441788273182e-06,-9.463699014751542e-06,2.6115195662554113e-06,-1.2132906115011689e-05,9.732446241152256e-07,3.162192022371541e-06,-1.4099765278075995e-06,8.186785430251004e-06,-9.026706656916673e-06,-2.7426226873282706e-07,-6.032729705545408e-08,-3.954584628644608e-06,1.189061184541398e-05
-6.582185835881086e-07,-7.984868157614524e-07,-1.653457341318973e-06,-1.4302407111212005e-06,1.9216111258452702e-06,-7.057811133676529e-06,-1.1561037210111975e-05,3.035454001063443e-06,-1.3311225724508982e-05,1.0412778621953392e-06,3.011836470360552e-06,-1.2220150676220386e-06,1.0499508969130883e-05,-9.712862806057414e-06,4.081103829034446e-06,-1.1511266525032763e-06,-6.348683197781418e-06,1.0404787596605088e-05
-6.366362726065533e-07,-7.643004326350292e-07,-1.5500228462560719e-06,-1.4967481646197687e-06,1.067434781704376e-06,-6.812532918171764e-06,-1.3671757759817396e-05,2.4993608882960907e-06,-1.3710737150864862e-05,1.12152080647453e-06,3.485060333853666e-06,-1.2666035743507865e-06,9.177973156823295e-06,-9.011584579225105e-06,8.354122641223293e-06,-1.92983988706228e-06,-8.442047303459054e-06,8.542151164074585e-06
-5.8969372318535e-07,-7.324234621549349e-07,-1.51742622218437e-06,-1.517322574117781e-06,2.1507618529284276e-07,-6.460639938025309e-06,-1.5398734411950854e-05,1.5552908461361256e-06,-1.3247418797782839e-05,1.1733135794119114e-06,3.716511169543887e-06,-1.48818789838864e-06,9.260993197405539e-06,-7.043686596160926e-06,1.0926610930046388e-05,-2.4556754015441874e-06,-9.900713853733414e-06,6.309200936496857e-06
-5.116499205142236e-07,-7.723009286102138e-07,-1.4534376619725256e-06,-1.507445611351747e-06,-5.190507333961494e-07,-6.0360039677344606e-06,-1.638302050389445e-05,1.02699778221427e-06,-1.2123777276729377e-05,1.174624001240132e-06,3.885328144362354e-06,-1.6961422275506334e-06,9.159426495584537e-06,-4.243365614022942e-06,9.947301691099853e-06,-2.8225575506689327e-06,-1.0258054290911089e-05,3.761099379451133e-06
-3.5059526118386856e-07,-7.951150232558148e-07,-1.3994184634596111e-06,-1.51116635823978e-06,-1.054223031537079e-06,-5.683208638019183e-06,-1.628390337622685e-05,9.049398858506516e-07,-1.0663736637454947e-05,1.191496537845733e-06,3.8719281504826995e-06,-1.8796875015646252e-06,4.544392656084895e-06,-1.1508896349642773e-06,7.721710689472473e-06,-2.9937656132839074e-06,-9.100941164007368e-06,1.1958820867865663e-06
-2.3041224223109504e-07,-8.329497884993831e-07,-1.3794601996567866e-06,-1.488580883043234e-06,-1.3807851863121615e-06,-5.235760721663542e-06,-1.480721247600611e-05,9.92044860088698e-07,-9.174383454838691e-06,1.2068893572698104e-06,4.008179231595971e-06,-1.971109704123874e-06,-8.183602478639427e-07,1.6400712394135737e-06,2.155143817306776e-06,-2.7387640057270843e-06,-6.3061781881423066e-06,-8.848359908001864e-07
-1.665601604586562e-07,-8.697684069179611e-07,-1.2981557652145501e-06,-1.456000365262989e-06,-1.5255952157104255e-06,-4.668933148261995e-06,-1.1935201355474969e-05,8.581161556460203e-07,-7.817498903261114e-06,1.2143408635604365e-06,4.4767442312189266e-06,-2.0208125352954028e-06,-3.848299427501185e-06,3.7694803201470477e-06,-3.5374810322967947e-06,-1.852008920863225e-06,-2.193349682163259e-06,-2.0352978423512525e-06
-9.832864511894525e-08,-8.759902729929566e-07,-1.2527447752736069e-06,-1.4500191079047841e-06,-1.5220179481727984e-06,-4.015541306434258e-06,-8.031063993484274e-06,1.0082016488751136e-06,-6.51951439302114e-06,1.1725573239494071e-06,4.888031462779988e-06,-2.105210724903495e-06,-4.487642188994529e-06,5.096114112262052e-06,-8.147320642944044e-06,-4.4155439253887906e-07,2.484136583085371e-06,-2.100740782612799e-06
-4.0021411412487145e-08,-9.236961822120474e-07,-1.286481890480561e-06,-1.4417006030002214e-06,-1.372639279213762e-06,-3.4041419143974765e-06,-3.893324242729468e-06,1.4701140583907036e-06,-5.001834971319763e-06,1.1354303821144581e-06,4.87270461047787e-06,-2.0828247008170412e-06,-3.2431513290534284e-06,5.697607980649697e-06,-1.0619795903713227e-05,1.121750244668708e-06,6.739246167961042e-06,-1.2235609696753548e-06
1.0412204762693612e-08,-9.608937700284072e-07,-1.3430657173983136e-06,-1.404732718367132e-06,-1.0925700542903573e-06,-2.6604284553977056e-06,-5.607284541581996e-07,1.8702527065501287e-06,-2.9561533227003404e-06,1.1212826534306293e-06,4.439656931893231e-06,-2.0383259207820194e-06,-5.621957337601405e-07,5.868942445324845e-06,-1.0752405661405857e-05,2.588643315520965e-06,9.648405520759513e-06,3.332329776517996e-07
3.21136383611109e-08,-9.989658502892392e-07,-1.3400638682205425e-06,-1.3477821127415375e-06,-7.076328180966059e-07,-1.682558412909104e-06,1.1523432891014159e-06,1.6892625445552997e-06,-3.004414700833154e-07,1.1106553840220114e-06,4.07121125326371e-06,-2.016467099817291e-06,2.672504747954101e-06,5.828855553305414e-06,-9.13708362248399e-06,4.053815003220864e-06,1.0571090819307338e-05,2.341465138462385e-06
4.436470254080853e-08,-1.024583739547491e-06,-1.372930805574589e-06,-1.3144577305518484e-06,-2.4256911285093755e-07,-4.170371508048688e-07,1.0873542198218642e-06,1.27712987272807e-06,2.6233938679221724e-06,1.150742458862886e-06,3.60430441380061e-06,-1.9897629873049934e-06,5.5397722562671305e-06,5.679716495444641e-06,-6.814509873948528e-06,5.735494999833616e-06,9.282437146502424e-06,4.6055786553263895e-06
6.389232661693035e-08,-1.0399743628488957e-06,-1.3671961755751028e-06,-1.2445938417133304e-06,2.518497104602819e-07,1.174851868632564e-06,-1.1458609968843302e-07,3.634575793786275e-07,5.087523831408313e-06,1.2078694509173105e-06,2.9074761490595416e-06,-1.990594244369675e-06,7.3677932648377005e-06,5.480258244676e-06,-4.8417423859712584e-06,7.640301057553195e-06,6.1135800494800925e-06,6.8528063555800415e-06
6.193760608330657e-08,-1.0353676416728882e-06,-1.3041388635230085e-06,-1.176485762384685e-06,6.772562627122948e-07,2.955992844446626e-06,-1.348787175676636e-06,-4.5736110708923186e-07,6.314257007485583e-06,1.2968883138934898e-06,2.4440206465043712e-06,-1.9751222745122958e-06,7.945040404097713e-06,5.2354167482972654e-06,-3.904976329351772e-06,9.502307187718239e-06,1.9726575929066315e-06,8.668527175360966e-06
6.680028159712117e-08,-1.0129524289343516e-06,-1.2123305451932954e-06,-1.097215270456423e-06,8.980082528341834e-07,4.511005059178308e-06,-1.6250731410591625e-06,-1.1645596253196162e-06,5.920282917313535e-06,1.4320851867909832e-06,2.1458739395365772e-06,-1.8728362657497388e-06,7.520073967963291e-06,4.987061415548913e-06,-4.119804157812438e-06,1.0946964811347783e-05,-1.9529364996974756e-06,9.569948089720783e-06
7.569908163515308e-08,-1.0077877959288197e-06,-1.146594161827674e-06,-1.0748627222806014e-06,7.736688596606138e-07,5.417511470745782e-06,-5.734802527690612e-07,-1.7983654323212e-06,4.14206944774719e-06,1.568614476935135e-06,2.0013689237033504e-06,-1.685248439288984e-06,6.570686094316825e-06,4.809739151742916e-06,-5.056453333890304e-06,1.1637550401740116e-05,-4.682627125633858e-06,9.18891168770386e-06
8.705354930696679e-08,-1.002108788589589e-06,-1.0492082213073365e-06,-1.0329925441559254e-06,3.7093321474603286e-07,5.225883032563549e-06,1.4763827553554228e-06,-1.9782887930019563e-06,1.6941961834029218e-06,1.6665025229668814e-06,2.1267858537190615e-06,-1.4783722776864637e-06,5.508965776648614e-06,4.71742844845547e-06,-6.013103861880403e-06,1.131420368436927e-05,-5.790227508986728e-06,7.442110755737949e-06
1.0342940995394586e-07,-9.98060519645281e-07,-9.572247759551568e-07,-9.663967863060217e-07,-1.6280497494194213e-07,4.160118725428891e-06,3.786472828412918e-06,-1.7531752602429969e-06,-5.886939971605781e-07,1.7336711258871647e-06,2.2822090699046207e-06,-1.3600381194219825e-06,4.536546357408734e-06,4.6027135045681514e-06,-6.329025713361483e-06,9.799738960184446e-06,-5.463438705219581e-06,4.592354987362381e-06
1.368568197757571e-07,-1.000527720989804e-06,-8.735555995950872e-07,-8.883969151655536e-07,-6.10079805029737e-07,2.854448449899836e-06,5.578554383464552e-06,-1.2158464262512189e-06,-2.072056903699927e-06,1.7725655946268543e-06,2.5070158808415555e-06,-1.3496816764697738e-06,3.680317661354403e-06,4.3385939589521385e-06,-5.603681506097109e-06,7.081538535476802e-06,-4.32719565501846e-06,1.1852614517284305e-06
1.6475936638456723e-07,-1.00282292348595e-06,-7.795570072504168e-07,-7.992897549121111e-07,-7.655496096630231e-07,2.0319186312969286e-06,6.276111598960696e-06,-4.4490990636361294e-07,-2.475756726681135e-06,1.7849811173845507e-06,2.803118378837141e-06,-1.4187719345433288e-06,2.8652755618571708e-06,3.605047480574837e-06,-3.768494184387165e-06,3.4380912609211316e-06,-3.143687424025006e-06,-2.1131351653377867e-06
1.876643387424908e-07,-1.012806164878171e-06,-6.919412421126503e-07,-7.285601406146561e-07,-5.621344093489304e-07,2.3535194295061984e-06,5.588035815732487e-06,3.6305142193402146e-07,-1.8742553309833396e-06,1.7853096195932353e-06,3.0849560898023223e-06,-1.5213610785764114e-06,1.9555522131845424e-06,2.192848990712247e-06,-9.961983997864992e-07,-5.753927273064254e-07,-2.5023105183666814e-06,-4.754556496188348e-06
2.1298769877380522e-07,-1.0391853391927572e-06,-5.95851801525738e-07,-6.595351080868038e-07,-8.240676826855903e-08,2.927469368941556e-06,3.50126526710379e-06,1.0498021546412673e-06,-6.271004290517267e-07,1.7622617608882064e-06,3.332911863260733e-06,-1.583118552427406e-06,8.215936780146258e-07,2.1723253289938813e-07,2.343209922040168e-06,-4.33208502043721e-06,-2.6055182166199776e-06,-6.521746891509353e-06
2.3020131727298829e-07,-1.0775191269415472e-06,-4.828947261672495e-07,-5.934988368694125e-07,4.907417891644541e-07,3.280175431753754e-06,2.3737725861790358e-07,1.5154376365872158e-06,6.855520686357313e-07,1.7249776915453e-06,3.392254719094257e-06,-1.5833822718387592e-06,-5.683526211197306e-07,-2.0131753033053303e-06,5.7518590226041045e-06,-7.328228091696304e-06,-3.258988519556159e-06,-7.578107984889974e-06
2.4402724483473896e-07,-1.122214793930751e-06,-3.978137983941098e-07,-5.547892844781165e-07,1.0067925914916715e-06,1.5140753787370405e-06,-3.857345103517653e-06,1.736411813707419e-06,1.3605239663028488e-06,1.68249445147769e-06,3.1696686772374666e-06,-1.5384519348621892e-06,-2.128420898072065e-06,-3.5946907515316518e-06,8.725750317603923e-06,-9.234437457470225e-06,-4.088389267263392e-06,-8.253643964366597e-06
2.558574686013009e-07,-1.1674045576055578e-06,-3.8726509989456326e-07,-5.78462172509339e-07,1.3353371175610412e-06,-6.722991846881032e-07,-8.378275680462963e-06,1.747265021490577e-06,7.968081353438481e-07,1.658630425274459e-06,2.6737831081475233e-06,-1.4745156091794056e-06,-3.738590171941016e-06,-3.4713576801876205e-06,1.080131068513661e-05,-9.915643904130757e-06,-4.820257874713442e-06,-8.73165673691752e-06
2.6971416998969657e-07,-1.2031361420091255e-06,-4.0522040148946323e-07,-5.930693903428878e-07,1.4517901693532107e-06,-7.563738124699317e-07,-1.2802176082317791e-05,1.651246235032093e-06,-1.1977049104296734e-06,1.6534927119724409e-06,2.3421866823990757e-06,-1.4020817951784053e-06,-5.336013519814216e-06,-1.2862387156808252e-06,1.157927208379423e-05,-9.508382739589702e-06,-5.421112824838732e-06,-8.91470746925782e-06
2.812315310694623e-07,-1.2231071250434563e-06,-4.1932974135838043e-07,-5.988861170207052e-07,1.3983773156682438e-06,9.287096658705376e-07,-1.6516214026330874e-05,1.5804073474178403e-06,-4.259943759138266e-06,1.6629352897985422e-06,2.486907080617449e-06,-1.3465106727919092e-06,-6.908207233611196e-06,2.8541362363697626e-06,1.1002085699230538e-05,-8.453339251720481e-06,-6.049536406276062e-06,-8.539015093534728e-06
2.931561251132646e-07,-1.2250724952896164e-06,-4.185384398035718e-07,-6.193391765473378e-07,1.2722504553750103e-06,5.52830310598835e-07,-1.8950457373267572e-05,1.5914691120522197e-06,-7.657718803347122e-06,1.6777585750508883e-06,2.303246645922485e-06,-1.3381116738980635e-06,-8.397762588049304e-06,8.156148318542284e-06,9.303326241990891e-06,-7.386952727420923e-06,-6.915816732244704e-06,-7.393148445289857e-06
3.0342830525646125e-07,-1.2105610851207002e-06,-3.996975965977214e-07,-6.36456795529582e-07,1.0947886987907471e-06,-1.3750704576729817e-06,-1.9693173737564858e-05,1.701258674055221e-06,-1.065404873299265e-05,1.6832289351779145e-06,2.232122209735793e-06,-1.402985642739546e-06,-9.622761113239086e-06,1.297764205159082e-05,6.911046700464859e-06,-6.915858215280043e-06,-8.142662221257495e-06,-5.4569123363864224e-06
3.120047918340478e-07,-1.1839914502057423e-06,-3.884509657660771e-07,-6.663238528556532e-07,8.358898538011206e-07,-3.2462600131399682e-06,-1.852998944275901e-05,1.8710073267720858e-06,-1.274153421376632e-05,1.6636825898918392e-06,2.848900680951005e-06,-1.538113457448051e-06,-1.0301835634461197e-05,1.6382369553345997e-05,4.324885269422466e-06,-7.338148388647518e-06,-9.623368802418325e-06,-2.9028528404383135e-06
3.1662660601964123e-07,-1.15059184216432e-06,-4.651278710956529e-07,-7.303379092473903e-07,4.6945803349268225e-07,-3.885815203707297e-06,-1.545780647067599e-05,2.013303221821564e-06,-1.364491512165452e-05,1.6201390530606264e-06,3.637126774137152e-06,-1.7167146805680812e-06,-1.0193881634718258e-05,1.8051766339373673e-05,2.0283853774149993e-06,-8.448034578749189e-06,-1.110270206250756e-05,-4.3844554435676005e-08
3.176104466851346e-07,-1.1154453936782643e-06,-5.737875207815215e-07,-7.5979886735588e-07,-2.6944181539909575e-08,-5.028236258937993e-06,-1.074283649099052e-05,2.0425216158557456e-06,-1.322688610024268e-05,1.5609263215181157e-06,4.205878272203051e-06,-1.866573445530214e-06,-9.26817008845532e-06,1.8286937233535505e-05,3.789453788964988e-07,-9.616725401266318e-06,-1.2234454190957702e-05,2.7079100174295136e-06
3.0951878550920997e-07,-1.0829916783613952e-06,-6.617921070193935e-07,-7.8369224226247e-07,-6.721506685273791e-07,-4.26057565854598e-06,-4.974215203168194e-06,1.8860455004161408e-06,-1.1431643335909382e-05,1.5041435485589565e-06,4.540011251777698e-06,-1.920711968558894e-06,-7.770138393800387e-06,1.8263756300593893e-05,-2.418489793422899e-07,-1.0151862703469209e-05,-1.2622816087702697e-05,4.863085427923447e-06
2.951540022094716e-07,-1.0561300894953238e-06,-7.399181553618105e-07,-8.086410344405681e-07,-1.3950970579212273e-06,-3.2109836159008354e-06,9.954280142099346e-07,1.5468157421074987e-06,-8.309417639419553e-06,1.451188784259794e-06,4.7023788506370766e-06,-1.8475517481129779e-06,-6.115974461180723e-06,1.9362865163739317e-05,4.916812608444384e-07,-9.689809047700143e-06,-1.2043813040424118e-05,5.9275787420735665e-06
2.806667667209454e-07,-1.0354918294478492e-06,-7.695255103133335e-07,-8.690195846123021e-07,-2.0684868840780207e-06,-2.4527580539194448e-06,6.232400796757038e-06,1.1107118189391005e-06,-4.129336277037804e-06,1.4015653585717927e-06,4.683209486277857e-06,-1.665610774226365e-06,-4.6839129476597775e-06,2.0551797778123334e-05,2.5361785536681938e-06,-8.377554993712332e-06,-1.0488983177851158e-05,5.565804846935587e-06
2.6871030803067e-07,-1.01995700886999e-06,-7.863234941831637e-07,-9.598238541005818e-07,-2.5875508223948035e-06,-2.4069439881109483e-06,1.0125030288464057e-05,6.701811940806999e-07,5.131382342054451e-07,1.3612883115641843e-06,4.446711156310758e-06,-1.433308730512386e-06,-3.644215672078772e-06,2.1501497398626853e-05,5.44943159275544e-06,-6.753915375853418e-06,-8.137328291097811e-06,3.7861067621435774e-06
2.6276904235326227e-07,-1.0080829548024353e-06,-8.012838677925346e-07,-1.024895211480386e-06,-2.904544994221088e-06,-2.789033499518107e-06,1.2532659901905821e-05,3.203963741048488e-07,4.772251140663188e-06,1.3330324433469085e-06,4.018809569359415e-06,-1.221282875634383e-06,-2.9313354011065726e-06,2.176089861706897e-05,8.524703676722885e-06,-5.409694114531915e-06,-5.359399956263e-06,1.0141988154082987e-06
2.607042461408165e-07,-9.989507752949722e-07,-8.108886225260097e-07,-1.0792993919256126e-06,-3.0007604231811022e-06,-3.2846383541680347e-06,1.369875786207667e-05,8.094940887303497e-08,7.805612481211936e-06,1.325418524380368e-06,3.509039390887089e-06,-1.0787272930298024e-06,-2.347515894471805e-06,1.8529332372093442e-05,1.1127318872977199e-05,-4.663704570250025e-06,-2.702230439050952e-06,-2.040703582276251e-06
2.6190346394641273e-07,-9.917612254132992e-07,-7.985022404746039e-07,-1.1094979777845474e-06,-2.8779442814495666e-06,-3.6191105535120952e-06,1.4022220476962525e-05,-3.9157287635950054e-08,9.008787261269463e-06,1.3371058462806103e-06,3.0742185017044996e-06,-1.0108148447104952e-06,-1.7032586039421579e-06,1.8811690689841678e-05,1.293995548625437e-05,-4.46461188667499e-06,-7.505632853781894e-07,-4.650948334378202e-06
2.672207919340841e-07,-9.851492593573056e-07,-7.766680336984073e-07,-1.118083011310022e-06,-2.704880510042723e-06,-3.5276751698248684e-06,1.3769844957459045e-05,-1.7543117389151207e-07,8.14792440820017e-06,1.3632707921148933e-06,2.8627541816053766e-06,-1.0062081618175796e-06,-9.061831741828139e-07,2.1072969994952237e-05,1.392740445816687e-05,-4.530843593359322e-06,-2.4454263178801604e-08,-6.308626091194041e-06
2.7858311138766136e-07,-9.774020435365183e-07,-7.497422621723508e-07,-1.133539491169355e-06,-2.529575022241777e-06,-3.11116068226002e-06,1.2956772840626493e-05,-4.517656393624524e-07,5.4227456465430925e-06,1.395591853642285e-06,2.9743577434009896e-06,-1.044130708542832e-06,4.057196456329303e-08,1.7617031076318308e-05,1.4111989638647136e-05,-4.615330368255942e-06,-7.231040467976018e-07,-6.79913736804709e-06
2.9428325804877377e-07,-9.672850829840167e-07,-7.157503669638759e-07,-1.1273270503438012e-06,-2.350684750772181e-06,-2.676069401507188e-06,1.1659183833443722e-05,-9.236945318349103e-07,1.4217666241047015e-06,1.432162731071823e-06,3.3061693729323974e-06,-1.1047436231023522e-06,1.1076848071220723e-06,1.2233990148348674e-05,1.368597003608272e-05,-4.720192078080875e-06,-2.3617527600380404e-06,-6.161296656643213e-06
3.117985339493738e-07,-9.541961393944596e-07,-6.850228910213278e-07,-1.106877692769131e-06,-2.1133890705324973e-06,-2.461744818040071e-06,1.0221964119241754e-05,-1.61795067654302e-06,-3.0396096867250232e-06,1.4669864994659009e-06,3.544104051494554e-06,-1.1732504641007003e-06,2.2951373535390214e-06,7.6116624332679825e-06,1.2732835400262145e-05,-5.056697030019291e-06,-3.90469880431458e-06,-4.5706971515866885e-06
3.287531742027546e-07,-9.374381999045135e-07,-6.500368197413602e-07,-1.0860198102948157e-06,-1.7853386281530538e-06,-2.4836629273553933e-06,9.156140375613621e-06,-2.178398217709499e-06,-7.098721581795539e-06,1.487360303264665e-06,3.6486700096768994e-06,-1.2372142046068204e-06,3.605038246938222e-06,4.01595598280953e-06,1.1442124081412149e-05,-5.753879364661678e-06,-4.159483029907455e-06,-2.2977383683599364e-06
3.454999724224975e-07,-9.159166169547939e-07,-6.107619052103356e-07,-1.055581107084662e-06,-1.3139152964152632e-06,-2.6174284297655376e-06,9.04400078695651e-06,-2.4852772955194227e-06,-1.0013089929422596e-05,1.502844990763849e-06,3.4106702115383583e-06,-1.2854251673769285e-06,4.953272496094376e-06,1.8982230881265973e-06,1.0069679782159457e-05,-6.633375007460923e-06,-2.347546649003433e-06,3.0693904486295097e-07
3.640178328846157e-07,-8.891162145086647e-07,-5.700090713109036e-07,-1.0173398158147092e-06,-7.007289368464039e-07,-2.4109498921555714e-06,1.0240349636797532e-05,-2.3237986136338123e-06,-1.1358055678039961e-05,1.5067843753260241e-06,2.8488942722449754e-06,-1.3143790528963793e-06,6.114149180518563e-06,7.656785241255919e-07,8.70131316704314e-06,-7.311461983167324e-06,1.1393945197370158e-06,2.8575619671864736e-06
3.87362044362095e-07,-8.583047938928852e-07,-5.351913447467265e-07,-9.892649645308762e-07,-1.3138707841742319e-07,-1.6337268880166131e-06,1.270027105956272e-05,-1.7536538038059883e-06,-1.1176907351334537e-05,1.4974031599678105e-06,2.2971956293889185e-06,-1.3230144652580885e-06,6.786249356252666e-06,2.0918776089018262e-07,7.159278164593964e-06,-7.489895477488696e-06,5.438894516992797e-06,4.97579290237341e-06
4.1039581098320426e-07,-8.26287571325765e-07,-5.032589400801736e-07,-9.720996082291436e-07,4.635527762582653e-07,-3.381659789858545e-07,1.5789867963256743e-05,-1.7945204973228649e-06,-9.947195213571526e-06,1.479808212784285e-06,1.46692091915645e-06,-1.3088363652836584e-06,6.768328141346166e-06,7.042066453269372e-08,5.351659151950219e-06,-7.10750567345374e-06,1.0086012561150033e-05,6.456208803274347e-06
4.345612877674412e-07,-7.95740427548603e-07,-4.7339155376381487e-07,-9.580724691541771e-07,1.012090796918887e-06,1.3359972579255928e-06,1.8281511995158245e-05,-2.2695604191851495e-06,-8.378601934773813e-06,1.451967516445704e-06,4.0127846106205075e-07,-1.2732144554726018e-06,6.085490873907552e-06,3.0805072069085746e-07,3.175936734894376e-06,-6.250501580538024e-06,1.4388299823370758e-05,7.37572849192427e-06
4.6052968985968433e-07,-7.678190398370333e-07,-4.461513482092475e-07,-9.536606546426747e-07,1.4218940835383118e-06,3.1226794749944824e-06,1.880495494920279e-05,-2.3855734469410406e-06,-7.171541035124423e-06,1.4175079182401784e-06,-5.438001119525193e-07,-1.2029684671562956e-06,4.909689135323072e-06,1.8547981905136196e-06,5.88579958795944e-07,-5.003830718077383e-06,1.7296511212521647e-05,7.990611989782898e-06
4.874428908904092e-07,-7.42129576826515e-07,-4.187714941090274e-07,-9.523385144762673e-07,1.7290456059650772e-06,4.780414933384221e-06,1.713049527964675e-05,-1.6546905710626641e-06,-6.808275533666002e-06,1.3808257390675878e-06,-1.3981348208729114e-06,-1.106365982647363e-06,3.3578107809228377e-06,4.504435250357622e-06,-2.076963351108843e-06,-3.4304120443160554e-06,1.859964084589575e-05,8.414824583305617e-06
5.161025735312073e-07,-7.174082381201098e-07,-3.9304060073082075e-07,-9.503775686740659e-07,1.9461602926695093e-06,6.052623190592827e-06,1.354062365085861e-05,-5.484760202409533e-07,-7.396274180984045e-06,1.3457845401461616e-06,-1.6646154860731474e-06,-1.0117182592487747e-06,1.414098501750947e-06,7.4368465069698566e-06,-4.2582162252291445e-06,-1.64983201362278e-06,1.7462652063295357e-05,8.368663832422539e-06
5.429204298949939e-07,-6.917869925921792e-07,-3.711135934852726e-07,-9.474399992797295e-07,2.09409134771716e-06,6.660632565930166e-06,8.760013821374872e-06,-8.246833714532827e-08,-8.65007673116624e-06,1.3101604606185427e-06,-1.3648732277177764e-06,-9.483136079688892e-07,-9.276588147953876e-07,1.012459088852461e-05,-5.289111183331625e-06,1.342380129100062e-07,1.2840308642822731e-05,7.347774367543598e-06
5.647073629607752e-07,-6.626778116032995e-07,-3.54717720836627e-07,-9.421831095971575e-07,2.09257642480182e-06,6.428663968319154e-06,3.9283017848749866e-06,1.8002558356029464e-07,-1.0077451563583104e-05,1.2763267497072542e-06,-8.526507781973306e-07,-9.447270324905842e-07,-3.463018974373121e-06,1.1472810998266831e-05,-4.691382907329101e-06,1.697776132554517e-06,6.491616762540756e-06,4.988976707992167e-06
5.790922537784659e-07,-6.273213462302794e-07,-3.4550388596776365e-07,-9.306000516670815e-07,1.9146930867168717e-06,5.476692389527656e-06,-1.0860061241983135e-07,3.5541800191286624e-07,-1.1255550943389954e-05,1.246218936999364e-06,-1.1226944227188453e-07,-1.0032787809601878e-06,-5.748092882279802e-06,1.0845054940685035e-05,-2.5146030605196667e-06,2.848768951614482e-06,-8.697808039687957e-07,1.5020088443645465e-06
5.844852012836454e-07,-5.8433902075582e-07,-3.440281183036691e-07,-9.124831228040578e-07,1.4049108189825018e-06,4.082055951047206e-06,-3.0369633678882573e-06,7.144025246478029e-07,-1.200797073574465e-05,1.2215757308361248e-06,5.724291232376493e-07,-1.0915889823733187e-06,-7.294109028589115e-06,8.38207107541348e-06,4.884676032119937e-07,3.39942300665716e-06,-8.609677740192242e-06,-2.362588884897631e-06
5.810567553780782e-07,-5.350177190254825e-07,-3.494432278435548e-07,-8.922175901814437e-07,6.422883074461219e-07,2.5215925565455284e-06,-4.351109678799974e-06,2.664549538084435e-07,-1.2410477250073228e-05,1.2068470835484081e-06,1.2006421348694293e-06,-1.1545304573614577e-06,-7.773758840544885e-06,4.73636396381785e-06,3.152292913971314e-06,3.130685015924876e-06,-1.4404660494159086e-05,-5.728347206637124e-06
5.703216867435615e-07,-4.82857337957561e-07,-3.592329915897969e-07,-8.685535123677211e-07,-1.3809465641894386e-07,9.61283010799771e-07,-2.963770620983753e-06,-7.738832323130018e-07,-1.2665760431376621e-05,1.2020794045775288e-06,1.7986961619688566e-06,-1.1422379918366455e-06,-7.031775588366471e-06,8.496703734628049e-07,4.237864038002916e-06,1.9058382436330383e-06,-1.7723822442127514e-05,-7.960312781514644e-06
5.565779446419006e-07,-4.316571519009101e-07,-3.691938185228633e-07,-8.447510755825397e-07,-7.902610597316808e-07,-5.373221731320814e-07,-4.1155961728733015e-07,-1.6505977552691747e-06,-1.2919948576000022e-05,1.2073331812327924e-06,1.8840279693163408e-06,-1.0316182743293772e-06,-5.0059944830618084e-06,-2.0111478402657193e-06,3.16156509725476e-06,-3.272962603604193e-07,-1.8436171835677148e-05,-8.875054364031703e-06
5.460401510985673e-07,-3.838840258269884e-07,-3.748436521075075e-07,-8.269748738616683e-07,-1.1521352914591577e-06,-1.8365686266004543e-06,1.7290609860783864e-06,-2.3135540833656545e-06,-1.3112723703633571e-05,1.2236044239391517e-06,1.2713824160151138e-06,-8.237961428651595e-07,-1.7892212688737643e-06,-2.968822608887162e-06,1.3752341871116546e-07,-3.4205843751249387e-06,-1.6773624823804567e-05,-8.70939219838396e-06
5.435167760544645e-07,-3.40441774898452e-07,-3.737422760118292e-07,-8.108397909837834e-07,-1.2179127067903092e-06,-2.685386128706038e-06,3.617626978055e-06,-2.5722994374744197e-06,-1.2941252995857459e-05,1.2446637807179098e-06,3.3891964415329417e-07,-5.533586556054801e-07,2.211396305535488e-06,-1.7908430520887985e-06,-3.934330050058528e-06,-7.088097637831002e-06,-1.3616707179770417e-05,-7.948489602034192e-06
5.509920478731526e-07,-3.012890238464817e-07,-3.667556292884972e-07,-7.960180688681625e-07,-1.0461387908530284e-06,-2.91901123394975e-06,3.958497764202124e-06,-2.060667645773342e-06,-1.1948474346239633e-05,1.2736529832082638e-06,-5.457718064393278e-07,-2.763741605071673e-07,6.259845897047258e-06,1.0200639252506786e-06,-7.72996326388277e-06,-1.0880442827684865e-05,-1.014151808865628e-05,-7.0720056053109485e-06
5.672197492274065e-07,-2.6573039060965797e-07,-3.5712498001964896e-07,-7.83140746928657e-07,-7.209905745718953e-07,-2.588981961171109e-06,4.126846924082944e-06,-9.418311287688669e-07,-9.712761260731676e-06,1.3071105311660247e-06,-1.621271517842229e-06,-5.218065823216817e-08,9.518111511734704e-06,4.627004617579931e-06,-9.927365877768095e-06,-1.4251169505262966e-05,-6.8843316657866694e-06,-6.282548836523968e-06
5.926474689194677e-07,-2.3225184633449856e-07,-3.4838985681692153e-07,-7.669071404747517e-07,-3.3053031530896015e-07,-1.949625341554583e-06,6.599524300769249e-06,5.785562441208569e-07,-6.120191126855138e-06,1.335788069708039e-06,-2.530047522580214e-06,7.452801833741767e-08,1.139121689898077e-05,8.206596434472685e-06,-9.83744135838032e-06,-1.6677476704436535e-05,-3.7066630401199396e-06,-5.459801783832798e-06
6.276322484938234e-07,-1.9895897911085272e-07,-3.4304380224115156e-07,-7.552498089772512e-07,-4.087766717673987e-08,-1.2804847121548203e-06,9.882257835783275e-06,2.181984333442628e-06,-1.591386855341428e-06,1.3603058297536867e-06,-2.887757796241315e-06,9.539932954731666e-08,1.1774847082523469e-05,1.1050382316590615e-05,-7.4716269056566685e-06,-1.7774218926897528e-05,-1.111169871407414e-06,-4.316907220638773e-06
6.704458445215316e-07,-1.6508683270076889e-07,-3.4063533485090455e-07,-7.612894185210143e-07,-8.74020812673537e-09,-7.573553619396246e-07,1.1662451977606728e-05,3.5327738650732762e-06,2.973798023662214e-06,1.3799342892551287e-06,-2.947399965937682e-06,3.457604718854942e-08,1.102139799437677e-05,1.278742318443926e-05,-3.4679182368976033e-06,-1.741650517281091e-05,8.21643038027526e-07,-2.6372377019192245e-06
7.178982390144546e-07,-1.3228490498443976e-07,-3.432875587871849e-07,-7.632048601451467e-07,-2.972854689972046e-07,-5.068365452078012e-07,9.204545006786392e-06,4.425119946836507e-06,6.578836806965438e-06,1.3922481751806123e-06,-3.031723732665757e-06,-6.13021691601377e-08,9.6291141776087e-06,1.3361949423253306e-05,1.0299745942705623e-06,-1.566654833542647e-05,2.354772331027247e-06,-4.872186648031919e-07
7.648804713509301e-07,-1.040365761258766e-07,-3.489053681609807e-07,-7.578688359384319e-07,-8.653296709278219e-07,-6.507873073189066e-07,8.482755475875513e-06,4.7381087449712325e-06,8.561332218042072e-06,1.3957576627147706e-06,-3.1022987868869277e-06,-1.492111652954066e-07,7.904254598052434e-06,1.3011532379117248e-05,4.901974513988346e-06,-1.2753858061536544e-05,3.847239665785419e-06,1.8254253967486036e-06
8.067800937536939e-07,-8.355248141825643e-08,-3.523344846340765e-07,-7.396791188211684e-07,-1.541911445404387e-06,-1.2515694127577629e-06,8.896299342650755e-06,4.477321268952182e-06,8.759766563315788e-06,1.3870411495131022e-06,-2.7953255040872265e-06,-1.9714855917655952e-07,5.8564827001201e-06,1.2025527802298111e-05,7.3561741832808075e-06,-9.095549513488913e-06,5.32391680382219e-06,3.849416660606503e-06
8.415318321691649e-07,-7.236066268258368e-08,-3.4826580624221263e-07,-6.344824080285435e-07,-2.10470679455284e-06,-2.2363238193047034e-06,9.917346027591978e-06,3.855844227074683e-06,7.4152254783978845e-06,1.3641043368907308e-06,-2.4041315782630575e-06,-1.7880293063604575e-07,3.344394757602698e-06,1.07311268981404e-05,8.054188253681028e-06,-5.299356338114188e-06,6.537183392681614e-06,5.265558586209396e-06
8.664682777166802e-07,-7.09289803379614e-08,-3.296410240236243e-07,-5.585404630650431e-07,-2.382486563772722e-06,-3.426558431998801e-06,8.814058438371247e-06,2.9988733083824218e-06,5.005088479462103e-06,1.3301863909665967e-06,-2.235842343154209e-06,-8.784997714614617e-08,3.214086597518762e-07,9.332079356149523e-06,7.122521157024222e-06,-2.0011455614000094e-06,7.053742175507939e-06,5.760476073580562e-06
8.774888029427878e-07,-8.00843150789251e-08,-2.969315864389059e-07,-5.276648246944448e-07,-2.3227818589839262e-06,-4.605771561254867e-06,4.018130338887267e-06,2.0249768038904518e-06,2.0823552130807924e-06,1.2916739728740093e-06,-2.3318789140324316e-06,5.962097813971438e-08,-2.9500192620851216e-06,7.818665604580755e-06,5.090769523133803e-06,4.0371083693261945e-07,6.057367523205271e-06,5.198342439424107e-06
8.693863910245554e-07,-1.0113101143745792e-07,-2.5925604970187153e-07,-4.946280100841177e-07,-2.0019040690440966e-06,-5.582473014229868e-06,7.067283007750951e-07,1.0581841794203354e-06,-9.102089937164223e-07,1.249694462897464e-06,-2.0145638590734577e-06,2.2891951247979926e-07,-5.8397489815261285e-06,6.111725809973462e-06,2.610292827819199e-06,1.9429667173610844e-06,3.444779392152774e-06,3.596632856307341e-06
8.389861880596728e-07,-1.3439973876600433e-07,-2.4404788732848814e-07,-4.6860839744507984e-07,-1.5782879314703461e-06,-6.232433385382575e-06,-1.2271337922641625e-06,4.996157253011757e-08,-3.776381933493989e-06,1.2025228597337494e-06,-1.7612300034641527e-06,3.770758125048079e-07,-7.55005141032945e-06,4.201789355986363e-06,2.110276300993716e-07,2.566165494314309e-06,-5.063390137176407e-08,1.3546030108736703e-06
7.861169232721276e-07,-1.780762880920133e-07,-2.7921403158308476e-07,-4.866456116499096e-07,-1.1931807215116203e-06,-6.5327944259611824e-06,-4.266882566789948e-06,-8.177067445771417e-07,-6.515993431151264e-06,1.1470462858016043e-06,-2.7726852454870985e-06,4.6910025672487583e-07,-7.498267157856711e-06,2.3063300462559875e-06,-1.9160187219956504e-06,2.979905015727797e-06,-4.2137778314896765e-06,-4.702294651825854e-08
7.122190928984927e-07,-2.2895901001961015e-07,-3.537515613480101e-07,-5.265811385659362e-07,-9.27645454629222e-07,-6.598535028469936e-06,-2.227047706449793e-06,-1.3976501420403844e-06,-9.112545698518552e-06,1.0847250071144887e-06,-2.9846035987428503e-06,4.866476630945346e-07,-5.630921533846323e-06,7.398144143515044e-07,-3.872896726473808e-06,3.827345799321713e-06,-8.145861184813986e-06,-9.287743588220339e-07
6.179914135988022e-07,-2.8450326949914787e-07,-4.343559225723192e-07,-5.62019230269215e-07,-8.009475538858421e-07,-6.64066617813355e-06,1.9873899616495118e-06,-1.6901183718903417e-06,-1.1345413316159093e-05,1.008794780295106e-06,-2.2004131398461517e-06,4.429927839055747e-07,-2.472682937301149e-06,-3.8342409341816455e-07,-5.844483475154211e-06,5.684461514220085e-06,-1.0714816054049487e-05,-1.1857611258384644e-06
5.036471146044761e-07,-3.439204525691925e-07,-4.850448130935078e-07,-6.071387618631688e-07,-7.704506039808232e-07,-6.813588917208419e-06,4.245759307479572e-06,-1.8494908583174624e-06,-1.2810290183180962e-05,9.226958536003589e-07,-1.8114122638940084e-06,3.5743909069474234e-07,1.0865979219587662e-06,-1.1720840608879357e-06,-7.857275865141519e-06,8.29746805736903e-06,-1.22981602413134e-05,7.975937168043805e-07
3.717255746531814e-07,-4.072362925016297e-07,-6.185728167237238e-07,-6.61200097947654e-07,-7.760029795402297e-07,-7.067422808143119e-06,4.151238487401581e-06,-1.9871998051001695e-06,-1.3153392784978202e-05,8.31125437694605e-07,-1.7063673249977717e-06,2.553297409850736e-07,4.15366983360109e-06,-1.855794411399632e-06,-9.605474430717724e-06,1.0892573427248307e-05,-1.1927438205385616e-05,4.340012386928914e-06
2.3084968553165643e-07,-4.736583328220469e-07,-7.681469741576647e-07,-7.382501197009519e-07,-7.400356787474728e-07,-7.161764481137391e-06,2.1084859064472585e-06,-2.1096583747059006e-06,-1.2319906232205341e-05,7.506350211331376e-07,-1.7873606252395573e-06,1.7633709569535169e-07,6.222707671382818e-06,-2.5057994268435017e-06,-1.0438981465203702e-05,1.258457953444912e-05,-9.783388448107987e-06,7.753137456306384e-06
8.707902715999545e-08,-5.412596782479606e-07,-8.74092078402046e-07,-8.02145162633592e-07,-5.869661531816081e-07,-6.855340065675279e-06,-5.74301235366256e-07,-2.1266513285552097e-06,-1.0624556323316494e-05,6.773940908883418e-07,-1.2871174985316022e-06,1.4910884837778982e-07,7.411618787039045e-06,-2.8873567984517217e-06,-9.722331902101319e-06,1.2374272512322003e-05,-7.078999406140601e-06,9.989941182422246e-06
-4.935328602831553e-08,-6.08217969082168e-07,-9.935735238603505e-07,-8.408651852243961e-07,-2.765383704255107e-07,-6.12588631484265e-06,-3.465044777535667e-06,-1.7954866777438837e-06,-8.614372337588407e-06,5.923359655835294e-07,-3.388939531196352e-07,1.8912478987022306e-07,8.331529758309816e-06,-2.6205664889414055e-06,-7.23067144517436e-06,1.0722783923599512e-05,-4.083458599582047e-06,1.0509599446012368e-05
-1.7759200928904102e-07,-6.740538610563816e-07,-1.028604131747072e-06,-8.611994483250315e-07,1.8214174403398692e-07,-5.243432055427605e-06,-6.333525673266463e-06,-1.1118709208263313e-06,-6.83852289986079e-06,4.891899529525409e-07,1.6849032469124348e-07,2.8942127368607257e-07,9.602173422287485e-06,-1.4346732978774957e-06,-3.317575530194157e-06,7.484381019528678e-06,-2.2457524698465154e-06,9.287222119103622e-06
-3.0376521699651656e-07,-7.39565878053348e-07,-1.0693914565117106e-06,-9.04438709273664e-07,7.102491091212398e-07,-4.633081639819538e-06,-8.460557379757089e-06,-1.6967773720929874e-07,-5.671068772611377e-06,3.7303547036110083e-07,5.16987370066667e-07,4.1157230820170886e-07,1.1359151758845237e-05,6.816816307563388e-07,1.167909337036162e-06,3.0125066751512082e-06,-1.9281767461960137e-06,7.06383196471671e-06
-4.3196797080704994e-07,-8.073749126364755e-07,-1.119189819487978e-06,-9.300847323849431e-07,1.1574861817342057e-06,-4.6288551366951216e-06,-9.28939854488458e-06,8.968620884026356e-07,-5.250864161532081e-06,2.774098722150305e-07,8.007770945473149e-07,4.6672612699243306e-07,1.314917563552956e-05,3.4887160846903573e-06,5.2391314749372335e-06,-2.4545657362484826e-06,-2.915820032344132e-06,4.778958435526613e-06
-5.67377438647267e-07,-8.748457820055984e-07,-1.1653125132801168e-06,-9.423072944623657e-07,1.3353452706647072e-06,-5.2799715825730516e-06,-8.650246402764913e-06,1.9137105338965395e-06,-5.509365915644408e-06,2.8267285569451096e-07,7.847948979819582e-07,3.6175169821422976e-07,1.4255220275608089e-05,6.716792116863536e-06,8.114111058443724e-06,-7.766412791205416e-06,-5.004252417368387e-06,3.2840166679979774e-06
-7.044936291392702e-07,-9.389701870157641e-07,-1.2042300061246477e-06,-9.433663902185849e-07,1.0987033025876516e-06,-6.307169634573138e-06,-6.79734058592331e-06,2.742624332643281e-06,-6.226497933474929e-06,3.6688556301923397e-07,6.472215637033414e-07,8.680579776368302e-08,1.4120616167046888e-05,1.0111891781291728e-05,9.381880216803432e-06,-1.1690608765161592e-05,-7.643248835082211e-06,2.6063953750475473e-06
-8.2725603475655e-07,-9.95674631167248e-07,-1.273065081558765e-06,-9.107571159435447e-07,4.2284753134151156e-07,-7.219580425437726e-06,-4.17326692151667e-06,3.3001611293209693e-06,-7.086308988402274e-06,4.2908415142847596e-07,9.634078752126447e-08,-3.7235184745757434e-08,1.259429168109818e-05,1.347951144203902e-05,9.051792152159777e-06,-1.3636388364450289e-05,-1.0609507956782181e-05,2.3672721044658594e-06
-9.008306999634297e-07,-1.019591912866714e-06,-1.3884719950439922e-06,-8.775609624764297e-07,-5.695677816999545e-07,-7.523292265243452e-06,-1.4554277447147136e-06,3.595419850670192e-06,-7.73610048844461e-06,4.294490382627324e-07,-7.519309727845222e-07,2.792852004755856e-08,1.0001595394294415e-05,1.6695884624354396e-05,7.573598751570206e-06,-1.3200911530471628e-05,-1.3307902665925904e-05,1.8590105160044498e-06
-9.07658357314296e-07,-1.0109837184400403e-06,-1.5533278336810387e-06,-8.799351094305778e-07,-1.6440573479875566e-06,-6.915349592920094e-06,1.7238161214501288e-06,3.6545566165190502e-06,-7.861941552405195e-06,4.3798209473456903e-07,-1.033497325850653e-06,-7.197340076762464e-08,7.077167268196625e-06,1.9624756768570844e-05,5.674737493395602e-06,-1.1557880038559325e-05,-1.515412126689188e-05,7.421988026593262e-07
-8.838089987869251e-07,-1.0337967721126074e-06,-1.731987970577552e-06,-8.671612796040745e-07,-2.5326323549985192e-06,-5.386254616081449e-06,5.850759269237439e-06,3.589105554043057e-06,-7.278255100400785e-06,4.330780283665666e-07,-2.813892203669254e-07,-2.900779486571721e-07,4.6917548775453836e-06,2.194984622417928e-05,4.014992716803878e-06,-9.25723675838916e-06,-1.569711611011497e-05,-9.652630684161407e-07
-8.835071073071127e-07,-1.005102034049532e-06,-1.8398078257184502e-06,-8.651071767574143e-07,-3.027072467896316e-06,-3.194435047518609e-06,1.0111024825478624e-05,3.4831054045479785e-06,-5.985992407136511e-06,5.141970046790955e-07,6.878982136162256e-07,-4.0681198825452047e-07,3.4238005500629547e-06,2.329053692296015e-05,2.902654906040877e-06,-6.715616605670071e-06,-1.4642276048472653e-05,-2.9536300698716885e-06
-9.119299137218623e-07,-9.411214492932512e-07,-1.8848377582284496e-06,-9.043984575838912e-07,-3.039569540892551e-06,-7.333279472476158e-07,1.3353601310154371e-05,3.332453742103825e-06,-4.162861265801526e-06,6.003043632975551e-07,1.2480094144709455e-06,-4.883141493686906e-07,3.2381928407428136e-06,2.3384151078313927e-05,2.2730615670855566e-06,-3.940483010518575e-06,-1.2143990796653683e-05,-4.531176892518621e-06
-8.627601398907415e-07,-8.738590074710563e-07,-1.8625336301390093e-06,-9.304378327423196e-07,-2.6417068051424032e-06,1.6051747698889617e-06,1.4522703395465508e-05,3.098814275588942e-06,-2.1209719883098617e-06,6.31594962170706e-07,1.4976947467746848e-06,-5.519819230577456e-07,3.5102867522307617e-06,2.2109468869537523e-05,1.887349432561865e-06,-1.4623474014034954e-06,-8.752362135326902e-06,-5.216246609610754e-06
-7.645208652938613e-07,-8.088416088962432e-07,-1.814659945787144e-06,-9.509755562850194e-07,-2.019151779319841e-06,3.4761712304841944e-06,1.3190924909907735e-05,2.7307307663914435e-06,-2.694603381819601e-07,5.730469137167056e-07,1.8406938969506838e-06,-5.004659507942817e-07,3.3890313931054818e-06,1.9529956433658057e-05,1.5271544327569311e-06,-7.602781118752227e-08,-5.074065800930174e-06,-4.407901174077226e-06
-6.952717035348377e-07,-7.428814083056456e-07,-1.7741127924929356e-06,-9.748305535446104e-07,-1.381335844809864e-06,4.560792711362967e-06,9.902215675737816e-06,2.263961695029401e-06,9.704154517245133e-07,5.584099405957217e-07,2.404977430724907e-06,-4.1059509376624244e-07,2.277530269830814e-06,1.5922637482863847e-05,1.0702779970427193e-06,-3.2297647057793387e-07,-1.6414547730560736e-06,-1.8471023681216045e-06
-6.165231281402896e-07,-6.830412273815024e-07,-1.7599251741543511e-06,-9.962522994820079e-07,-8.772800016715885e-07,4.573464505799397e-06,5.961951813573097e-06,1.823543273697824e-06,1.353925826831108e-06,5.047166031478904e-07,2.8667573035852303e-06,-3.1508144482102875e-07,1.5247624034718315e-07,1.1829838818903766e-05,4.93729760132613e-07,-2.5479079749409605e-06,1.0349449520270564e-06,2.3937406279315217e-06
-5.728797251573646e-07,-6.341349222212422e-07,-1.7668033553267008e-06,-9.348876216730375e-07,-5.485454222634126e-07,3.36193326629791e-06,2.4092935993194497e-06,1.5430608755242873e-06,1.0041561200053123e-06,4.7194658913617325e-07,2.8835754285933542e-06,-2.2633038736906185e-07,-2.4480960778412418e-06,8.024318141053838e-06,-1.5342279769747603e-07,-6.100812401816631e-06,2.6476120391088925e-06,7.652326794599801e-06
-5.653340631748711e-07,-5.983918325517314e-07,-1.792327008334154e-06,-8.718301952636854e-07,-3.4960242041965135e-07,1.0770748704341814e-06,-1.669835370189073e-07,1.431245965770278e-06,4.2133140333716674e-07,5.010558405088792e-07,2.778362230828296e-06,-1.7619857021287008e-07,-4.726825054383632e-06,5.257221321491103e-06,-8.087445204552623e-07,-1.0117291064546266e-05,3.12043115561558e-06,1.2910574747732858e-05
-5.701550850096287e-07,-5.742447960085409e-07,-1.7668560464202287e-06,-8.508700229095249e-07,-2.1963502164888088e-07,-1.735916582703268e-06,-1.166109543636025e-06,1.4674785266357374e-06,2.6845364228599583e-07,4.32990005773428e-07,3.055746498389276e-06,-1.4999905815671117e-07,-6.021747577057657e-06,3.910608741068244e-06,-1.4668199168668977e-06,-1.366342432492799e-05,2.610012315842009e-06,1.717229093577614e-05
-5.852755341263027e-07,-5.566176487224834e-07,-1.6775386226464633e-06,-8.558680855335699e-07,-1.541964839015393e-07,-4.278756532113353e-06,-5.75668791510292e-07,1.623304039994554e-06,1.073453416804674e-06,3.741996444833167e-07,3.3848116415329306e-06,-1.3717070385342144e-07,-6.078776884326842e-06,3.932251289829994e-06,-2.1893941389874806e-06,-1.5985193447050096e-05,1.5166520790999382e-06,1.9640892192311524e-05
-5.85747260582529e-07,-5.380201788578774e-07,-1.5844675605633382e-06,-8.715292634231209e-07,-2.2078698207907526e-07,-5.829361315373499e-06,1.1179213425562944e-06,1.8681887043143473e-06,2.986094177581918e-06,3.461947856627199e-07,3.4011911748785456e-06,-1.4325250861310093e-07,-5.072422311941951e-06,4.565456574172837e-06,-3.042325381426849e-06,-1.6405759920053343e-05,3.7802462356952577e-07,2.0136180272326392e-05
-5.633298932848793e-07,-5.102821773557063e-07,-1.5051899163234813e-06,-8.881163768780089e-07,-5.208024638122765e-07,-6.040487110979031e-06,3.0403477981135336e-06,2.102312256471186e-06,5.639709327003328e-06,3.849840300654135e-07,3.39153795288979e-06,-1.8093964578804087e-07,-3.405776237416946e-06,4.74118387056526e-06,-4.038403623191322e-06,-1.4504071383009362e-05,-2.700897198164801e-07,1.8850241082290172e-05
-5.20279634262329e-07,-4.671718703605884e-07,-1.4414247200811078e-06,-8.809427311327133e-07,-1.1173118115385228e-06,-5.025859730857257e-06,3.979788466654618e-06,2.2977599125611937e-06,8.19630925614095e-06,4.0545510937138924e-07,2.9535459336168986e-06,-2.65587800184117e-07,-1.458172228029364e-06,3.5804845289247974e-06,-5.140563795478054e-06,-1.0311273663362347e-05,-8.44718449176354e-08,1.6244798406926444e-05
-4.5897113300071084e-07,-4.068941735971431e-07,-1.3977928992848599e-06,-8.461286172348011e-07,-1.970836974223082e-06,-3.230881308322136e-06,2.9808905618825673e-06,2.4429644925884144e-06,9.68235097085669e-06,4.4958000008274906e-07,2.743738733239261e-06,-4.051782459444303e-07,5.518144677121951e-07,8.302897460631956e-07,-6.2842622887474936e-06,-4.734848065815946e-06,9.135190593972017e-07,1.2885637772862597e-05
-3.846071216283896e-07,-3.32529416337297e-07,-1.3585302705250335e-06,-7.900436000326231e-07,-2.932662814238222e-06,-1.2251206221443272e-06,7.8665672913379e-08,2.6032780540903843e-06,9.486881544481974e-06,4.6174025292711363e-07,2.8014823566216927e-06,-5.785642367367095e-07,2.538105839639931e-06,-2.920405261856272e-06,-7.362761288454665e-06,1.5173055077484373e-06,2.311836648886207e-06,9.303661976632878e-06
-3.0535922642414113e-07,-2.4997618055386784e-07,-1.3161187657506228e-06,-7.205668327197489e-07,-3.7915459522377514e-06,4.636285510707764e-07,-3.641640342651904e-06,2.809203252934134e-06,7.626356417819716e-06,4.4515610099670784e-07,2.9201022558458573e-06,-7.458693370030632e-07,4.429645421605232e-06,-6.468456331035116e-06,-8.196706610859037e-06,7.651567932002535e-06,3.450331039556116e-06,5.926956754713299e-06
-2.2593899649451894e-07,-1.65409726264061e-07,-1.263589600022133e-06,-6.505039905847033e-07,-4.33911303189504e-06,1.4546362502051408e-06,-6.667511330971256e-06,2.873561378012853e-06,4.587347152912028e-06,5.158838970298367e-07,3.3063628751149232e-06,-8.605368190613043e-07,6.078470646616538e-06,-8.635618421102152e-06,-8.537965637581091e-06,1.2814510024061558e-05,3.663194378577143e-06,3.0738060881364284e-06
-1.5022061837194222e-07,-8.441540548236829e-08,-1.2172652646279836e-06,-5.877935500481785e-07,-4.425796391392439e-06,1.565935589796559e-06,-7.6641478672695e-06,2.853558861390855e-06,1.0089368148502082e-06,6.16727230018581e-07,3.6569613396335132e-06,-8.87469035552859e-07,7.256172637017354e-06,-8.856804143173371e-06,-8.129667710935313e-06,1.6904808493119353e-05,2.521424350986986e-06,1.0465770962839276e-06
-8.332128522804047e-08,-1.2527185554410407e-08,-1.1761879030672467e-06,-5.387583641275754e-07,-3.995081470765772e-06,8.026371794126597e-07,-6.1765222302472375e-06,2.4705993128267344e-06,-2.496741855906998e-06,7.270081222480595e-07,3.7585705084023284e-06,-8.205682797216717e-07,7.746171086512365e-06,-7.210511490512328e-06,-6.812080053367317e-06,1.9254127654046373e-05,-2.8891228665402822e-08,9.352534747367837e-08
-3.1457960164026875e-08,4.3757474626850344e-08,-1.139343547941156e-06,-5.081635866565567e-07,-3.0925219587322408e-06,-6.522171841630652e-07,-2.9368449240478365e-06,1.7530891221784215e-06,-5.4124803448380325e-06,8.305889890181751e-07,3.556939874343983e-06,-6.667943609543404e-07,7.4903474480213675e-06,-4.347714819756827e-06,-4.6351166786445155e-06,1.9392964535357407e-05,-3.6789309347556133e-06,2.1343881495717277e-07
1.4241202505793833e-09,8.067229724787775e-08,-1.1137893397714475e-06,-4.968670266514431e-07,-1.8925175179538883e-06,-2.3612656392269114e-06,5.035733928607723e-07,2.0505304522695916e-06,-7.400665936869942e-06,9.0880112239723e-07,3.0072001597184356e-06,-4.719360388914025e-07,6.662925216338332e-06,-1.1974431510780813e-06,-1.9027347457475662e-06,1.7282364491797508e-05,-7.850748026444691e-06,1.1496183251634071e-06
1.153699242553935e-08,9.756830650911428e-08,-1.1037488875086457e-06,-5.020411677901092e-07,-6.346867856366866e-07,-3.595890825613387e-06,2.546022253332686e-06,2.9315985949159478e-06,-8.363874689594303e-06,9.54262490992814e-07,2.1461322331846583e-06,-2.960117998023539e-07,5.557842385526385e-06,1.4703804614223578e-06,9.058898125560216e-07,1.4039720297151342e-05,-1.1782654163698616e-05,2.4949735418418376e-06
-2.032432079507019e-09,9.337916186571577e-08,-1.1107391592971481e-06,-5.186258009688745e-07,3.841854503284112e-07,-3.55220320259468e-06,2.3296976506286578e-06,3.2050349442761695e-06,-8.416459479401215e-06,9.904347077472951e-07,1.0921504786154986e-06,-1.938135582648887e-07,4.384691742980995e-06,3.3595318520246627e-06,3.2654616028854965e-06,1.0072686807062265e-05,-1.4626105472344558e-05,3.883628645408991e-06
-3.7895058338056945e-08,7.122283243960478e-08,-1.133686890999227e-06,-5.423564953461995e-07,9.77125973166384e-07,-1.6835734561071614e-06,3.8953888816609095e-08,3.1592335443774822e-06,-7.820543758427184e-06,1.0301901885498356e-06,2.2751857013548055e-08,-2.0161805081608464e-07,3.2005621788077024e-06,4.64467393167834e-06,4.689965894864302e-06,5.935385701777978e-06,-1.5616922450363623e-05,5.080056418320215e-06
-9.537569989497164e-08,3.3828030281118304e-08,-1.1725889599389696e-06,-5.694339492613387e-07,1.1019318603819766e-06,1.704514911973954e-06,-3.3193697855286743e-06,2.801097253365719e-06,-6.935048026132681e-06,1.0792803144158694e-06,-8.698002552609618e-07,-3.160507639985992e-07,2.0259389819878172e-06,5.643313928952551e-06,4.756174413770271e-06,2.446085451840869e-06,-1.4299181356518626e-05,5.890936706282387e-06
-1.7172806714540934e-07,-1.7483506674609896e-08,-1.219533424557702e-06,-5.977030829814604e-07,8.248686733677214e-07,5.789061597154917e-06,-6.350079811133134e-06,2.0277717413269168e-06,-6.132170007835851e-06,1.1364425965485707e-06,-1.4125318054190925e-06,-5.118999494043778e-07,9.582221938360824e-07,6.318092830734201e-06,3.376364613200627e-06,-1.0379960019929761e-06,-1.0720664251301425e-05,6.073146935957297e-06
-2.639926154413911e-07,-7.878580040998337e-08,-1.272451792623242e-06,-6.260078323231942e-07,2.719717328012244e-07,9.29896496570922e-06,-7.657740672785094e-06,1.611447107134239e-06,-5.663656257961823e-06,1.1761014551959034e-06,-1.4896378690750943e-06,-7.32095412892475e-07,1.4466724964391716e-07,6.520008235700408e-06,7.085502238477462e-07,-4.042544442742112e-06,-5.51912909379762e-06,5.333193187358871e-06
-3.6627786831383435e-07,-1.4583672758999527e-07,-1.3313312019460493e-06,-6.554033606008947e-07,-4.774336376727714e-07,9.662139480282332e-06,-6.05215240220258e-06,7.344882693861666e-07,-5.5881548082635896e-06,1.2177954415718335e-06,-1.0006828683090884e-06,-9.316177779431234e-07,-3.1893736786393184e-07,6.034202047502043e-06,-2.729788855551258e-06,-6.447067520609381e-06,1.8897459601764367e-07,3.4803733403556607e-06
