0,1,2,3,4,5,6,7,8,9,10,11,12,13,14,15,16,17
-1.0050841201673727e-07,3.6056903631241953e-07,4.792049644457154e-06,-4.594839636593442e-06,1.9316323585867356e-07,-3.725715664856078e-07,-2.0223047671996658e-07,3.851109223202491e-08,1.1799557853267012e-06,2.804098232082893e-07,1.4024085800674781e-07,-1.4151075523766409e-08,-2.158981975876994e-07,-2.379466678768094e-08,-8.630784824349911e-09,-3.1758445120547184e-07,5.966467412004134e-08,-1.8419803735318486e-07
-1.0057654603433404e-07,3.4028676223693554e-07,4.392891036218192e-06,-9.226051895908531e-07,3.3085013755899764e-07,-3.140667301636076e-07,-1.1534685243261525e-07,2.2351755885066335e-07,-1.468232940307668e-07,2.3958565744850745e-07,1.3414593877192019e-07,-2.3911545786916213e-08,-1.812378472692628e-07,-4.882348193224892e-08,-2.737275658857133e-08,-2.6427071159891996e-07,8.484271820931911e-08,-1.1661288876183536e-07
-8.74926672229209e-08,2.8554342473793916e-07,3.233905373384145e-06,9.407919301736093e-07,4.116273426785423e-07,-2.3345065561365627e-07,-8.121365508790274e-08,3.291297744034877e-07,-4.21280730031457e-07,1.78737966466064e-07,1.1771128348418204e-07,-1.6431177474228525e-08,-1.6755423757946943e-07,-9.363584070007721e-08,-9.396298553640834e-09,-2.0125248398446064e-07,8.310613625149976e-08,-3.644651650382139e-08
-5.814849868261007e-08,2.4358575384790166e-07,1.637596515507319e-06,4.692247277580306e-07,2.7330303922570856e-07,-1.1756714411442799e-07,-5.178680078999714e-08,2.3463870429636163e-07,-1.1589547458839262e-07,1.05982187175549e-07,9.634650174651666e-08,4.844384327115689e-08,-1.4580465520298599e-07,-2.398738255384104e-08,9.65866403710992e-08,-1.0884933920779715e-07,3.969588655032462e-08,1.6457768922936688e-08
-2.6709842033958307e-08,2.3780230992358674e-07,9.785428244889222e-08,-2.1210305908429785e-06,1.3775439460787333e-07,-6.734536566773375e-08,-2.9047978182444262e-08,1.5718017311161642e-07,1.3716982635032833e-08,3.053828974552896e-08,7.370995910080386e-08,1.313347812749096e-07,-9.937780447382346e-08,8.037242410944304e-08,1.6621789031162542e-07,2.7181335971976323e-08,1.66797126420219e-08,3.9041019566321307e-08
7.727596090124297e-09,1.886324760214547e-07,-1.0595870856773736e-06,-5.870310738257647e-06,1.2972667280168194e-08,-2.1696897297508368e-08,-2.5282939969212096e-08,5.458646909608595e-08,-6.71849293684207e-07,-3.5747749582793846e-08,5.0897509501666145e-08,1.3690807938424812e-07,-3.8704339586889766e-08,1.4593577631226624e-07,1.2683918420328383e-07,1.350086518880265e-07,2.3742754037286943e-08,6.647904114519342e-08
4.8666763977754254e-08,9.897007839831275e-08,-1.8104941882675112e-06,-9.334166564750916e-06,-7.695427463932798e-08,1.5950249550983375e-08,-1.6649534204052127e-09,-7.053453174005312e-08,-2.3033553379525825e-06,-8.460574015827755e-08,2.802960045023999e-08,1.0785951897421956e-07,3.421095052581216e-08,1.6138092091580512e-07,7.989018393678735e-08,1.9609124886130813e-07,4.152607524340666e-08,1.006057128352944e-07
8.753109209164159e-08,-2.192247513636114e-09,-2.2886768165774973e-06,-1.1041977078978396e-05,-1.6046655839056055e-07,1.9125096416755177e-09,6.405150191404695e-08,-1.8224563969813725e-07,-4.371218235635251e-06,-1.0818119064406922e-07,5.937121032734698e-09,9.600497471548095e-08,6.05353908007834e-08,1.402633625222831e-07,2.3763980097107014e-08,2.3196599123178786e-07,4.1193047519154344e-08,9.655485664749325e-08
1.2526457128448884e-07,-9.433325085848204e-08,-2.5692716818772595e-06,-1.0001840969837613e-05,-2.7389129984139036e-07,4.558911949973309e-08,9.809124263986272e-08,-3.753465616377316e-07,-5.961273669196838e-06,-9.919854893926336e-08,-1.3897274060532147e-08,6.458616504135541e-08,6.01506508975772e-08,9.136442150672146e-08,4.271299963331252e-08,1.8921858655841198e-07,3.427792654556489e-08,8.206310986871157e-08
1.4105609398885907e-07,-1.461612549458895e-07,-2.6009257917362394e-06,-5.955845976604717e-06,-2.602779831011215e-07,1.0033163953425832e-07,6.835052888246874e-08,-3.8488313970355874e-07,-6.2076402098259775e-06,-6.15202142856929e-08,-3.1269481277931056e-08,3.596519620646038e-08,8.262869099251557e-08,1.6848218184986268e-08,3.7229253904654865e-08,7.438174650805157e-08,1.4711534720331268e-08,6.430514441199538e-08
7.787135791588613e-08,-1.773101194075119e-07,-2.3031317868234743e-06,1.1774480919215008e-07,-2.0350005558370155e-07,1.2980432178527643e-07,7.602771574535686e-08,-2.689744231955017e-07,-4.704977478206186e-06,-2.864951118732288e-09,-4.483396425351113e-08,1.8616794652545138e-08,8.436850933008249e-08,-4.979702587916243e-08,9.134639877090358e-09,5.89003908454128e-08,-9.863910423759088e-09,3.878634503677528e-08
2.1486611181202745e-08,-1.98780927689081e-07,-1.682301535052855e-06,6.716340557553431e-06,-1.8839134988837962e-07,1.5008609127149957e-07,7.94816492604546e-08,-1.7530662107885074e-07,-1.6931411608049898e-06,3.6234666399187873e-08,-5.804728495915291e-08,1.828976141574359e-09,9.32782723656064e-08,-5.059650193003445e-08,-3.957975551715104e-08,8.174624075106456e-08,-3.39014345137804e-08,1.7632411024038468e-08
-4.085151437439596e-09,-2.2115341602208866e-07,-8.690119668318982e-07,1.1838916642761975e-05,-1.326880191281568e-07,1.780085485892857e-07,5.6324004376082294e-08,-3.738881046468282e-08,2.0580977801580613e-06,-5.974292498046477e-09,-7.440945100408107e-08,-5.16256199812768e-08,1.1032225902578399e-07,-2.5789933830360523e-08,-9.964150111928368e-08,5.962628002056487e-08,-6.55415374173011e-08,-2.05529394278603e-09
-1.5785502832268792e-08,-2.603502443173764e-07,-8.745621048846419e-08,1.1969625992707049e-05,-8.50632485612215e-08,1.79382674702331e-07,4.657713514101936e-08,8.887945836001603e-08,5.596907119444378e-06,-6.096904901583315e-08,-9.178102332571244e-08,-1.1258103554245797e-07,1.208486476624932e-07,-7.08802154969241e-08,-1.2385722126767917e-07,1.1384721403091822e-08,-8.959661719690938e-08,-2.8878655914112315e-08
-1.8112521727526003e-08,-3.017938820945001e-07,4.426721314023464e-07,1.0689816048295782e-05,-3.063524262887147e-08,1.7279486341374803e-07,3.470123621031981e-08,1.4754146946686237e-07,8.186957785292045e-06,-1.4879370530750403e-07,-1.345405273588759e-07,-1.6084238108919332e-07,1.1559531559633857e-07,-1.247794510797947e-07,-1.211590061932447e-07,-4.787651807737185e-08,-1.071294123207821e-07,-5.8121030688837816e-08
-9.818494454216147e-08,-3.5331449862998403e-07,6.738880799145305e-07,7.100156037014537e-06,5.2197214552771964e-08,1.5283834135375177e-07,-1.703135756706774e-08,2.206950277013917e-07,9.561819431100413e-06,-2.636331488929141e-07,-1.9823976585501518e-07,-2.6200549426411166e-07,8.663839450313745e-08,-1.2408062336137974e-07,-1.5273744827103872e-07,-1.2567168996567614e-07,-1.334075539664188e-07,-9.561298629418158e-08
-2.1940554443835693e-07,-4.2457897381803217e-07,8.578731240971439e-07,1.8333784927632635e-06,4.697166985570082e-09,1.0573162209383753e-07,-1.1809438110977751e-07,1.9339043002694786e-07,9.897714795297855e-06,-3.864850128110623e-07,-2.5784719002980065e-07,-3.9325932759359456e-07,5.8431358168377104e-08,-1.4270323346140437e-07,-2.668391545735013e-07,-2.222074102269097e-07,-1.6403771968862886e-07,-1.498049306661775e-07
-2.843116106562607e-07,-5.137715865526406e-07,1.4782241096250601e-06,-4.758728096110035e-06,-9.844191414862165e-08,6.714285502785445e-08,-1.9192756618831224e-07,6.023088010301283e-08,9.526708232153897e-06,-4.756888943669239e-07,-3.3217450859522015e-07,-4.671580812754345e-07,4.376524323459237e-08,-1.6451526627690775e-07,-3.7152241541696166e-07,-2.8355618294467144e-07,-2.0127003648749237e-07,-1.9956615509953977e-07
-3.311944644018976e-07,-6.101561453769307e-07,2.9755612042564373e-06,-9.177447681713373e-06,-1.9988403073659432e-07,1.5862565036026295e-08,-3.0302740904548885e-07,-1.1189855592374945e-07,8.66383229595033e-06,-5.377447137047956e-07,-4.274694175759315e-07,-5.489578548526362e-07,4.964991899412026e-08,-1.6897829967378786e-07,-4.2036420079345745e-07,-3.278563367925706e-07,-2.4320325968695396e-07,-2.442926159410619e-07
-3.484420926864677e-07,-6.888963190206644e-07,5.431330892315564e-06,-1.0771676091193696e-05,-3.0345213877791734e-07,8.343885581093763e-09,-3.869580708488546e-07,-3.849674077126922e-07,7.4062360745310224e-06,-5.754973133976957e-07,-5.179968216495371e-07,-6.466844243681175e-07,5.4342799646041437e-08,-1.1421994079635393e-07,-4.992135887645507e-07,-3.3231800136275446e-07,-2.8602352120934025e-07,-2.932505324066515e-07
-3.910749739510173e-07,-6.832808476675568e-07,8.448392014697033e-06,-1.0288252536315133e-05,-4.472744708810899e-07,-1.2543417737705808e-08,-4.6521720116323325e-07,-6.351607644543081e-07,5.9035804972555e-06,-6.041258950852025e-07,-5.644301746203676e-07,-7.04370130992088e-07,4.043865624073979e-08,-1.3460364999494528e-07,-5.613987251895243e-07,-3.7979062361293975e-07,-3.18258020515757e-07,-3.367272897369591e-07
-4.372327871626834e-07,-6.782207512688674e-07,1.134778468443979e-05,-8.345035373725236e-06,-6.059479501934798e-07,-3.468852036276095e-08,-5.402200168614681e-07,-8.699710703129685e-07,4.4251822852147165e-06,-6.200282015795547e-07,-6.223302766893106e-07,-7.620132573219073e-07,5.025641214941919e-09,-1.8955155775112424e-07,-6.250142757855461e-07,-4.3201367510119387e-07,-3.3950189315858683e-07,-3.725921772963679e-07
-4.2754468272287874e-07,-7.026507746698019e-07,1.3546186783392642e-05,-5.7536151543282346e-06,-7.396117814111389e-07,-8.629384311927476e-08,-6.062645699478306e-07,-1.1855668450930818e-06,3.27093030747844e-06,-6.296233768869989e-07,-6.652706091853805e-07,-7.676202778522793e-07,-4.604391566881427e-09,-2.3689778877028407e-07,-6.901221168958289e-07,-4.091215284547556e-07,-3.554492717415366e-07,-4.0376879972606924e-07
-4.207493531060625e-07,-7.524968265604172e-07,1.4832593348628219e-05,-3.0162059167362913e-06,-9.282497111084324e-07,-1.472285523701848e-07,-6.446165284449616e-07,-1.3931610525502631e-06,2.6654904987306593e-06,-6.399389261138812e-07,-6.686628537514911e-07,-7.535360470612274e-07,-2.4089491039104552e-08,-3.060457748461197e-07,-6.937576598669388e-07,-4.3518173717108023e-07,-3.73976641554872e-07,-4.2838188682138774e-07
-4.148858535723666e-07,-7.519838332789314e-07,1.538236508739885e-05,-2.0967159758799822e-07,-1.0328813298041288e-06,-2.096120110858294e-07,-6.638650404930551e-07,-1.5646967112996469e-06,2.7077854270354935e-06,-6.475911497810233e-07,-6.6642193777797e-07,-6.963245187153536e-07,-2.1031362250062272e-08,-3.5706821221942773e-07,-7.101430044111202e-07,-4.451854924068964e-07,-3.9750026124010494e-07,-4.3949733864924606e-07
-4.0885327808722125e-07,-7.015950520089976e-07,1.5560094188367006e-05,2.821973424594691e-06,-1.1142275115856195e-06,-2.504612724779513e-07,-6.699690308690818e-07,-1.6158047046833565e-06,3.350623540417987e-06,-6.438074350887624e-07,-6.69370900498331e-07,-6.731357767968402e-07,-2.62775706677144e-08,-4.1496161079441724e-07,-7.406093991897307e-07,-5.063708071101331e-07,-4.214685943153962e-07,-4.452099739124155e-07
-4.257188548052184e-07,-6.378695750004668e-07,1.5662062657649736e-05,6.1389937923314875e-06,-1.1176195903922193e-06,-2.805222262942728e-07,-6.418412988645337e-07,-1.6910927349403558e-06,4.4193617405561475e-06,-6.172215554811364e-07,-6.836578047284067e-07,-6.629570918719409e-07,-2.7139370255271386e-08,-5.300968719709748e-07,-7.654334032846765e-07,-6.000399873395508e-07,-4.4695696361359e-07,-4.539485087449887e-07
-4.4271771637208623e-07,-6.082105204491839e-07,1.572852166744098e-05,9.472749401096383e-06,-1.2053837745448365e-06,-3.1343752991343383e-07,-6.028685202004928e-07,-1.863366689457904e-06,5.6944440783182295e-06,-5.689399744044753e-07,-7.083049483528892e-07,-6.399610258475508e-07,1.3659428266625505e-08,-5.675354297811229e-07,-7.651491116211292e-07,-6.209520906126593e-07,-4.788976012068846e-07,-4.607877315464052e-07
-4.5444070188763874e-07,-5.643196519302066e-07,1.5531610649542546e-05,1.2225031893447905e-05,-1.4463925166913502e-06,-3.5716915741570993e-07,-5.753858868503054e-07,-2.13146545553128e-06,6.986918250085973e-06,-4.972685771945147e-07,-7.347373164237098e-07,-6.418554216496542e-07,4.100303113065366e-08,-6.629487424326957e-07,-7.807378314771018e-07,-6.369138511213148e-07,-5.162391867289599e-07,-4.7017797148418673e-07
-4.598362582891257e-07,-5.164930642713858e-07,1.4828899480089747e-05,1.3660524620866868e-05,-1.5581864998308182e-06,-3.9012537488602904e-07,-5.634916661453805e-07,-2.3952232695872047e-06,8.125729081175904e-06,-4.4135262315956513e-07,-7.642201099486987e-07,-6.387705436725553e-07,1.1007873491723022e-07,-7.466671601923335e-07,-7.841667977681543e-07,-6.499033965531018e-07,-5.546942210066814e-07,-4.7638699277028587e-07
-4.5392271711448914e-07,-5.219180814494603e-07,1.3755625358292234e-05,1.3197268031260404e-05,-1.6992699477565558e-06,-4.1888221568968826e-07,-5.478200356569528e-07,-2.6189219857655522e-06,8.915641673622528e-06,-4.4093170044756913e-07,-7.914299779641157e-07,-6.390204872367971e-07,1.5898685098331994e-07,-7.508640409753634e-07,-7.956972605404925e-07,-6.355848531573524e-07,-5.939022349451605e-07,-4.791241762402986e-07
-4.452327517343924e-07,-5.481494617332693e-07,1.2942758354741768e-05,1.0731184267951884e-05,-1.9367927670609092e-06,-4.3998726385154105e-07,-5.174562867090429e-07,-2.7029394915347795e-06,9.160847730564347e-06,-4.764383525394879e-07,-8.030873232782872e-07,-6.823807877824049e-07,1.9692913648193262e-07,-7.45654450474748e-07,-8.483041408940557e-07,-6.525004699205468e-07,-6.128432203673829e-07,-4.828067125340497e-07
-4.4768044071472646e-07,-5.461807271030198e-07,1.3136253024921715e-05,6.824622908693751e-06,-1.9290318438637683e-06,-4.4798402997052296e-07,-4.844229005890507e-07,-2.7920645108388664e-06,8.730888099295948e-06,-5.500461858159631e-07,-7.914666752838672e-07,-7.029829472849219e-07,2.4119481963555335e-07,-6.810135973329021e-07,-8.871882860643926e-07,-6.260887354625016e-07,-6.135980879936005e-07,-4.984855240626605e-07
-4.920571992908716e-07,-4.739693335669807e-07,1.464533619995866e-05,2.516356912969472e-06,-1.860761753858513e-06,-4.4206065383720447e-07,-4.585631343880947e-07,-2.8347511226375455e-06,7.610079329077575e-06,-5.987349703233443e-07,-7.472494929052043e-07,-7.085189346085685e-07,2.6637295320961994e-07,-5.899824339738542e-07,-9.158344625949232e-07,-5.85923446802431e-07,-6.071070407352987e-07,-5.109099667475925e-07
-5.564013480096076e-07,-4.00465362241007e-07,1.7108288479525823e-05,-1.1841783638041775e-06,-1.8616840543612967e-06,-4.2655474447927853e-07,-4.357038902011409e-07,-2.8814297384335273e-06,5.931569927240544e-06,-6.594007411293028e-07,-7.071012352134994e-07,-6.993023095730885e-07,2.8186431827512684e-07,-5.444191316971784e-07,-9.292255557784976e-07,-5.593947850213077e-07,-5.897546941138773e-07,-5.06597201262053e-07
-6.297684004404418e-07,-3.4345680825931823e-07,1.97211759283001e-05,-3.6905667400125847e-06,-1.794592376847307e-06,-4.08224099790051e-07,-4.155920029497885e-07,-2.8195725155351664e-06,3.996303119156836e-06,-7.825758582900451e-07,-6.716460831729824e-07,-6.726076924143566e-07,3.1448058446544555e-07,-4.870336669740037e-07,-9.036126579410809e-07,-5.280697857411797e-07,-5.688889321771993e-07,-4.653881633493633e-07
-7.124666768290063e-07,-2.7768707625210186e-07,2.1707248679805044e-05,-4.832307644431515e-06,-1.7353280970512212e-06,-3.9058917861823615e-07,-3.931346595128753e-07,-2.666977354427227e-06,2.253525664626113e-06,-8.377668865464877e-07,-6.603933387152157e-07,-6.356853173925771e-07,3.563172117298803e-07,-4.6348387247000665e-07,-8.86676453487805e-07,-4.926984252101381e-07,-5.436983387508055e-07,-4.068770468614252e-07
-7.736978489687303e-07,-2.237164113575406e-07,2.2657301218992352e-05,-4.616819942352712e-06,-1.6248256943716881e-06,-3.7741319008863175e-07,-2.5885398741036584e-07,-2.4949014857829628e-06,1.2238123985779572e-06,-8.399974834327878e-07,-6.157237703350036e-07,-6.429403788524234e-07,3.938928945761808e-07,-3.9392640104886745e-07,-8.347914230638291e-07,-4.548224272319522e-07,-4.999541453820597e-07,-3.7039304050079376e-07
-7.719094447941287e-07,-1.6280723374608058e-07,2.253187177229971e-05,-3.0970544432424784e-06,-1.6009427491301472e-06,-3.579945969733179e-07,-1.6195748782847397e-07,-2.3574750583545136e-06,1.3526025120421198e-06,-8.351911506161353e-07,-5.984615578514579e-07,-6.578204839144379e-07,4.399658518872936e-07,-3.217190688634699e-07,-7.6641241286642e-07,-3.952407373230277e-07,-4.6955785758279365e-07,-3.604219882840222e-07
-7.355679243769133e-07,-7.131941478490215e-08,2.145569083652346e-05,-4.5484047984508245e-07,-1.5054939907797534e-06,-3.195361818318699e-07,-1.0740175696142018e-07,-2.325726682832982e-06,2.837169785130076e-06,-8.452944553930399e-07,-5.885898936162495e-07,-6.77936786159e-07,4.7552985227084897e-07,-3.428108372423418e-07,-7.598473009624477e-07,-3.0265812243664295e-07,-4.527179496165734e-07,-3.533988134323752e-07
-6.96216317511568e-07,2.575836500085284e-10,1.9549518912452963e-05,2.8646344498181707e-06,-1.407044787184392e-06,-2.725636915644617e-07,-4.265219426992472e-08,-2.2473010367096065e-06,5.524580862049805e-06,-8.596417918924674e-07,-5.69560068832272e-07,-6.482909991895965e-07,5.17052036497419e-07,-2.8269517695756326e-07,-7.209940007998194e-07,-1.614264833749315e-07,-4.2654351843318986e-07,-3.446415186275667e-07
-6.416355363390163e-07,4.913919126823697e-08,1.690527141900717e-05,6.180045365877471e-06,-1.3298331703815115e-06,-2.598323429242893e-07,-3.652785852868777e-08,-2.1718959379094266e-06,8.922587751664707e-06,-8.333190131965221e-07,-5.642807216987753e-07,-6.173439014604762e-07,5.666218339457312e-07,-2.3193449194667592e-07,-6.392745205020645e-07,-7.979131688984158e-08,-4.2172118025670804e-07,-2.935049504051058e-07
-5.719264447008962e-07,9.295983658619015e-08,1.3704208280299037e-05,8.80015483953991e-06,-1.2422924552874216e-06,-2.6444946106343146e-07,-6.049687863569526e-09,-2.1998268318780756e-06,1.2286509250327433e-05,-7.720658744982803e-07,-5.660244514491873e-07,-6.010431895230702e-07,6.25881146982234e-07,-1.585407275546469e-07,-5.87985017527555e-07,1.600154179484737e-08,-4.1263153171623624e-07,-2.2910244074726275e-07
-4.881060998141814e-07,1.1588229608915828e-07,1.0382239605604241e-05,1.0301094136421862e-05,-1.175778203889657e-06,-2.65101915304308e-07,1.268099115826826e-07,-2.1993606048760132e-06,1.47630540081472e-05,-6.777599050438492e-07,-6.086128552636957e-07,-5.15380226957538e-07,6.819391425816987e-07,-1.5249181576822212e-08,-5.300782899702222e-07,1.206740542984876e-07,-4.1037907256630994e-07,-1.7389513056846624e-07
-4.008113755989661e-07,1.3905562424913831e-07,7.616476445452406e-06,1.062240473072858e-05,-1.1833271157535306e-06,-1.599878329180527e-07,2.703499577625493e-07,-2.2851063768358222e-06,1.5606335205806362e-05,-6.159823314790347e-07,-6.30819859751424e-07,-4.389210467455201e-07,7.476251769312334e-07,2.8769373949109855e-08,-4.537111773916251e-07,2.554914068373719e-07,-4.074646162227804e-07,-1.2272753968198e-07
-3.2312135083297323e-07,1.342758429376972e-07,6.011188565067248e-06,9.931566670618927e-06,-1.1693468858720383e-06,-3.795051838616038e-08,3.717122585520362e-07,-2.4434071830178365e-06,1.4430531283335551e-05,-5.49770346024792e-07,-6.256062804398712e-07,-3.685427466705263e-07,7.91374162785297e-07,9.638632496735619e-08,-4.003156675900089e-07,4.162036462043322e-07,-3.906159688783835e-07,-8.699362158598e-08
-2.544214222805673e-07,1.1145149115498984e-07,5.712956420574213e-06,8.426361107885546e-06,-1.1793329902905674e-06,3.070888910643523e-08,5.363676437955435e-07,-2.5533439741528236e-06,1.1401196661663857e-05,-5.607943165238153e-07,-6.103355778923566e-07,-2.8679895390088636e-07,8.592349093631114e-07,2.176362590660717e-07,-3.9077323243705844e-07,5.700573376968814e-07,-3.61456229951592e-07,-6.317748846586352e-08
-1.7851030758134833e-07,9.346384220438572e-08,6.331611557850511e-06,6.261376834564813e-06,-1.3115755558384866e-06,1.4024174566413997e-07,6.849470091399147e-07,-2.671823008775822e-06,7.261258196528009e-06,-5.736453578478929e-07,-6.017684965403046e-07,-2.3381710144774297e-07,9.399618688410574e-07,3.908180466632007e-07,-3.4217948298879634e-07,6.960952188951899e-07,-3.218149189547043e-07,-4.112179923887425e-08
-1.5575529143515775e-07,4.8653206665674496e-08,7.2626968106318315e-06,3.6265705819337137e-06,-1.3786728210547944e-06,2.3383806031371875e-07,7.668865367153479e-07,-2.671560486022391e-06,3.120211592715614e-06,-5.774278445106164e-07,-5.926484297353043e-07,-1.783575739257679e-07,9.67214833749912e-07,4.5101901871496903e-07,-2.8826158965878417e-07,7.562282467695162e-07,-2.7439655589981117e-07,-2.5187998727655637e-08
-1.5870952029136936e-07,1.9692394634948327e-08,8.12319080445112e-06,8.402179395030687e-07,-1.42116995363855e-06,2.623876486868555e-07,8.006235537870157e-07,-2.572154508763827e-06,5.470811780866933e-08,-5.775028109059327e-07,-5.68035626015302e-07,-1.2061940111795678e-07,1.0245653558556357e-06,4.283102270170234e-07,-2.3066235045612944e-07,7.933045146617479e-07,-2.2466622178500474e-07,-5.51969215822232e-09
-1.6299575798418852e-07,4.5898453651478564e-08,8.93500185636435e-06,-1.6854137509745829e-06,-1.4790752649078908e-06,2.8956101388733983e-07,8.302705970718227e-07,-2.501502349260153e-06,-1.2774715218127565e-06,-5.376796879873127e-07,-5.101736089541586e-07,-7.068150490480567e-08,1.0538362368283829e-06,4.906014065774103e-07,-1.5692776684957273e-07,8.28705468777531e-07,-1.7435952537551173e-07,2.2849978907465356e-08
-1.284472407571177e-07,8.916757509086428e-08,9.96162441360763e-06,-3.610226089007272e-06,-1.582068452989588e-06,3.484228681078351e-07,8.737523556638832e-07,-2.573094658457912e-06,-8.120164629434099e-07,-4.886329649165221e-07,-4.546657450503442e-07,-3.4292130326142064e-08,1.0686579648014116e-06,5.666920258245108e-07,-1.0235739732899798e-07,9.065175657796844e-07,-1.2740572337252233e-07,5.973257640561787e-08
-6.762919661491535e-08,1.0196819641193385e-07,1.1393020583934646e-05,-4.829326516772019e-06,-1.7121345103643768e-06,4.0943268814525614e-07,9.059090774919023e-07,-2.650687623741173e-06,1.0125386657107174e-06,-3.8250578106756353e-07,-3.843571031227384e-07,-2.569737474266454e-09,1.1581933859735134e-06,6.525374794667433e-07,-2.3539174520779235e-08,9.701805668107173e-07,-8.41912828717392e-08,1.0327338609963839e-07
1.506194913684199e-08,9.334454140853598e-08,1.3106380118183599e-05,-5.511776785024807e-06,-1.8374440019123858e-06,5.058733428055606e-07,9.246161014850045e-07,-2.5848983062344126e-06,3.527318624545851e-06,-2.9456616136037723e-07,-3.103614017177339e-07,3.502629268682234e-08,1.1947928419349598e-06,6.742495101345513e-07,8.642193147812825e-08,1.033305421985218e-06,-4.815135272635672e-08,1.4412611486298336e-07
8.65881922404196e-08,7.126342095604888e-08,1.4622022128894339e-05,-6.02113868557274e-06,-1.930230299468754e-06,5.978334532850846e-07,9.274462659099549e-07,-2.4545973852038096e-06,6.118101051958517e-06,-2.1669548119419627e-07,-2.564051200040753e-07,8.342746770042967e-08,1.1685382798404925e-06,6.888933713936112e-07,1.7866328532323316e-07,1.1023439868963588e-06,-1.3213470296832888e-08,1.8220483066474598e-07
1.6702694324824763e-07,5.1150761501263284e-08,1.5298543755484878e-05,-6.749565658110714e-06,-1.9154937530300098e-06,6.405474111734174e-07,9.553032855321713e-07,-2.2959213074260523e-06,8.365301744778837e-06,-1.4272042378094648e-07,-2.176275880643992e-07,1.4849157737446287e-07,1.1553568566252426e-06,7.70150468887808e-07,2.2748115603123527e-07,1.1492071273048688e-06,8.53541023992982e-09,2.1488866569400465e-07
2.4201058392975337e-07,3.734972674747657e-08,1.468360614533909e-05,-7.932567607337693e-06,-1.826066383927265e-06,6.296908984485467e-07,9.90646380366723e-07,-2.0369481624691994e-06,1.002377579526997e-05,-7.37288798180186e-08,-1.9496151818791944e-07,2.1598601790068478e-07,1.1270635717933443e-06,8.816178024216942e-07,2.543066050872087e-07,1.2055970146671438e-06,4.737493425302998e-09,2.4401389501846677e-07
3.0755668894741634e-07,2.791044820217705e-08,1.2790916847109089e-05,-9.546352441844335e-06,-1.7129601947126666e-06,6.27163116504816e-07,1.0215331749896908e-06,-1.7871068839052829e-06,1.0959350321856442e-05,-8.116304503180487e-09,-1.8249897324608375e-07,2.7277044871617134e-07,1.1378052359765462e-06,9.379349423222201e-07,2.5026888995611806e-07,1.225158947339046e-06,-1.7481093566979135e-08,2.720642435230312e-07
3.446670798493362e-07,2.3211629645802735e-08,1.0099735845568861e-05,-1.1327449421661499e-05,-1.638248328885317e-06,6.092535747874155e-07,1.0495558201892012e-06,-1.6759680154129271e-06,1.1120138073586959e-05,5.6435521508499236e-08,-1.7234182741507714e-07,3.1260776073855277e-07,1.1820212220517556e-06,9.695017732618951e-07,2.2782350759355357e-07,1.247631005354318e-06,-4.0774324325300465e-08,2.90437552094965e-07
3.538746275500003e-07,2.456397496834116e-08,7.274605429977199e-06,-1.2875606705314493e-05,-1.6117074820788935e-06,6.346751434208018e-07,1.0424050403416669e-06,-1.7057923567684044e-06,1.0534689723379113e-05,1.1748624317764277e-07,-1.6365263300332003e-07,3.251918928096228e-07,1.2270578614950728e-06,9.714748489644139e-07,2.0788777170238752e-07,1.246653997448585e-06,-3.510179686006825e-08,3.0695329520827563e-07
3.3414455094266163e-07,2.8257031887877663e-08,4.825168992307942e-06,-1.378033796384808e-05,-1.5919629830779662e-06,6.578803309861621e-07,1.012857191754289e-06,-1.7835318688845994e-06,9.343544919861e-06,1.6983160378976131e-07,-1.5567537173862805e-07,3.4068557781367717e-07,1.273930333409929e-06,9.49524810169134e-07,1.840146378116636e-07,1.2479780362193202e-06,-2.280909347899084e-08,3.2448335850446213e-07
3.0543658650700154e-07,2.912205796668454e-08,2.9557038434893767e-06,-1.3735293825709731e-05,-1.5465252036091825e-06,6.473748145742334e-07,9.765001062731682e-07,-1.788521028159483e-06,7.847859096633465e-06,2.070706635693597e-07,-1.485081122810859e-07,3.6302461850021584e-07,1.3249000278878957e-06,9.443732925800114e-07,1.6358421575064073e-07,1.283917285749761e-06,-1.2583709578502954e-08,3.405789172538531e-07
2.7024987061615403e-07,2.161168187137869e-08,1.6522308866658158e-06,-1.2589686361883406e-05,-1.4494519105765883e-06,6.409905912506382e-07,9.274463914592853e-07,-1.7872447254983412e-06,6.488508634323607e-06,2.2387309754497948e-07,-1.4475593717907315e-07,3.8694018925537995e-07,1.327425384850954e-06,1.0088505572277107e-06,1.5854664191942784e-07,1.3231064253739244e-06,-1.17888921784575e-08,3.53239755231582e-07
2.3347315731487465e-07,-2.5145068683911223e-09,8.648686094353198e-07,-1.0343767488251502e-05,-1.3553978544903438e-06,6.328991252983577e-07,8.271312746805293e-07,-1.7809149278598306e-06,5.722267043606071e-06,2.1982549765500274e-07,-1.4786294340499523e-07,4.185245611725488e-07,1.2765445890949446e-06,1.0418998547545643e-06,1.5279359267919113e-07,1.348036172298713e-06,-3.443477000813533e-08,3.574477837333228e-07
2.0190417330685476e-07,-4.1851319463580114e-08,6.15477808202193e-07,-7.184814828628185e-06,-1.3717475052833605e-06,6.005519386074692e-07,7.300732754683053e-07,-1.8420233766589728e-06,5.862669316555217e-06,2.0278601683596988e-07,-1.593162256409494e-07,4.3090856248339377e-07,1.2221772204217331e-06,1.061149903946177e-06,1.3226293783247998e-07,1.3630176897238358e-06,-7.753891047495027e-08,3.5151647599305215e-07
1.8237066103164973e-07,-8.934810923282417e-08,9.34891995140549e-07,-3.59181188502328e-06,-1.6228786147291906e-06,5.691721999100729e-07,6.984881105760598e-07,-2.130343426686869e-06,6.975613557288948e-06,1.874685681433279e-07,-1.768900817754513e-07,4.1915949283407267e-07,1.1952752071234017e-06,1.0112893702113853e-06,9.148492163980796e-08,1.3795008276862358e-06,-1.2443737341541198e-07,3.3803014901387607e-07
1.7515533664280294e-07,-1.3552746190918563e-07,1.6860387297602246e-06,-3.5307761879307665e-07,-1.827967983428777e-06,5.35671101479329e-07,6.796676831100871e-07,-2.392269809529184e-06,8.889437979691847e-06,1.8863245796618934e-07,-1.957258415914837e-07,3.9261577957593457e-07,1.201999756271329e-06,8.80066708164353e-07,1.4384452551783047e-08,1.399200538254077e-06,-1.524615390780336e-07,3.2061441303658757e-07
1.7732456353602303e-07,-1.7060773260421798e-07,2.4641404991815263e-06,1.68305603645679e-06,-1.9592013925456093e-06,4.925074484434113e-07,6.684941709859548e-07,-2.5907137227128697e-06,1.1297928325329601e-05,2.1374916442842223e-07,-2.112270592142341e-07,3.304392495526779e-07,1.2485171768883375e-06,7.846341887999612e-07,-4.690049391762003e-08,1.4405585625554656e-06,-1.6851974908117166e-07,3.022770538300963e-07
1.9112014359161543e-07,-1.8965760305085105e-07,2.7027761634692438e-06,2.046856397435961e-06,-2.089512406475643e-06,4.568216987946271e-07,5.842466356136809e-07,-2.799349049091216e-06,1.385087053603422e-05,2.604113022806876e-07,-2.2118289116065132e-07,2.3134037602603487e-07,1.2704162531088216e-06,7.733213030084173e-07,-8.294115753298605e-08,1.4659620971546784e-06,-1.6951264912900064e-07,2.83860262696071e-07
2.200286682905605e-07,-1.92567538358217e-07,1.9201790866541953e-06,9.409694159211677e-07,-2.145668021561661e-06,4.252025276467639e-07,5.030847039135422e-07,-2.897040553196577e-06,1.6151031811724372e-05,3.192007828575211e-07,-2.2585248961336284e-07,1.237922689042877e-07,1.3008032652748973e-06,7.754670997555993e-07,-9.420311688390457e-08,1.464992704660164e-06,-1.5909807892243662e-07,2.7128519970644114e-07
2.534165545382478e-07,-1.8140842046201208e-07,-6.115936349115673e-08,-8.483146982264591e-07,-2.3168051171229848e-06,3.95524556141321e-07,4.776650504990597e-07,-3.0376477241330153e-06,1.770490295508572e-05,3.783878440733222e-07,-2.2690584353978754e-07,1.3000366709416115e-08,1.3961116535835977e-06,7.767366150621831e-07,-9.344400227970212e-08,1.4448996869834877e-06,-1.4866731377808993e-07,2.486383153473665e-07
2.895014535398232e-07,-1.5872349215026385e-07,-3.0360828931134924e-06,-2.330455278096013e-06,-2.4440319526621977e-06,3.808204100011681e-07,4.861249321193259e-07,-3.092267329586102e-06,1.7985907612770982e-05,4.2696269754154665e-07,-2.2652659993625485e-07,-1.0220615257044459e-07,1.4562704089030874e-06,7.094414975162071e-07,-1.8595685939463063e-07,1.4059079966646805e-06,-1.4220886382371525e-07,2.1199244063768647e-07
3.2388978284587577e-07,-1.290282724362918e-07,-6.47743235036207e-06,-2.7383074498944777e-06,-2.5234838137954335e-06,3.971993773308166e-07,5.09513355093718e-07,-3.142413018516028e-06,1.668855902613387e-05,4.560707512454456e-07,-2.2688145878320406e-07,-1.976897171140083e-07,1.479481152898378e-06,6.076707702433481e-07,-2.771986556114234e-07,1.3542537824948114e-06,-1.3393234461291051e-07,1.6173982642440149e-07
3.5077548943091373e-07,-9.624323174142381e-08,-9.664040293076748e-06,-1.8076666252073132e-06,-2.6203596901029874e-06,4.392467588000788e-07,5.406970802730509e-07,-3.1658235213087426e-06,1.3988256284904112e-05,4.605553008754867e-07,-2.2960358883805692e-07,-2.710287050408733e-07,1.4871131196439036e-06,5.382848023848028e-07,-3.476422511999217e-07,1.293096122097532e-06,-1.2804156561680848e-07,9.589891648670607e-08
3.7038244494960476e-07,-6.385216434058924e-08,-1.1823909004303281e-05,1.5363596588059564e-07,-2.666113929913982e-06,4.961707794834315e-07,5.458953741537944e-07,-3.155932323732769e-06,1.054373588328521e-05,4.4045997921588624e-07,-2.3547743560004396e-07,-3.322519064616034e-07,1.4565787947448625e-06,5.026750862365559e-07,-4.128671549475373e-07,1.2270068485636879e-06,-1.2592346340926125e-07,2.8753675970408252e-08
3.8536763717145193e-07,-3.335434748649561e-08,-1.2286580179981756e-05,2.3884019711586365e-06,-2.7005063620300754e-06,5.56555224104047e-07,5.359990914968043e-07,-3.1098946354737593e-06,7.201229402404688e-06,4.003906630567281e-07,-2.4480601780535833e-07,-3.0768501995091826e-07,1.4300400290852855e-06,4.1129476466059744e-07,-4.994524678856889e-07,1.16202316043985e-06,-1.2066567114297106e-07,-3.4163391125720655e-08
3.9524008667690593e-07,-3.135685843562896e-09,-1.0650911451091228e-05,3.97503056754783e-06,-2.81198597856232e-06,5.977281446482838e-07,5.201409357466913e-07,-3.05284931884737e-06,4.614907048760346e-06,3.4617858348654794e-07,-2.582810218437133e-07,-2.2713537457737922e-07,1.371980569600989e-06,3.325281653876715e-07,-5.485400333433009e-07,1.1115163721965281e-06,-1.1489413132748957e-07,-8.804824858568765e-08
3.9896879662059394e-07,2.7954437807669245e-08,-6.953669884952459e-06,4.1944180221654395e-06,-2.8444984141694693e-06,6.07632389130054e-07,5.025069958293741e-07,-3.0627769637013764e-06,3.0211619404816564e-06,2.8174110386164496e-07,-2.773921422348429e-07,-1.8704731383417903e-07,1.284721722227888e-06,2.564310575345827e-07,-6.149418761797407e-07,1.0584055863577639e-06,-1.0816914479515655e-07,-1.3096894303215469e-07
3.950121770876161e-07,5.8716474508852456e-08,-1.7862667046724532e-06,2.8450650828781206e-06,-2.777443482370223e-06,5.850464065607168e-07,4.956349813107798e-07,-3.025886557988087e-06,2.252514080257982e-06,2.0922276453222678e-07,-3.035478865983117e-07,-1.2174464930864934e-07,1.221219624588857e-06,8.128393764007668e-08,-7.585228124831947e-07,1.00529716882922e-06,-1.0016992542037155e-07,-1.6177325081412094e-07
3.8202513017516303e-07,8.583742640154556e-08,3.7483327010397255e-06,3.801833594437668e-07,-2.628600032901518e-06,5.340483940030843e-07,4.887566599934046e-07,-2.9174472473892025e-06,1.9475160849947715e-06,1.3163603200616803e-07,-3.3640918088485987e-07,-6.044610746331384e-08,1.1389037530521526e-06,-6.207725948983057e-08,-8.449917026827969e-07,9.585254482959379e-07,-9.202687431058773e-08,-1.8238711266743924e-07
3.616585033442522e-07,1.0619870826166834e-07,8.348159122101334e-06,-2.2063862818478277e-06,-2.4756180849064934e-06,4.626828390642511e-07,4.761424162563434e-07,-2.7148439916045967e-06,1.8011028593067164e-06,5.406333912291823e-08,-3.731801047625771e-07,-3.3154797020722224e-08,1.0431348199229398e-06,-1.4048618367124082e-07,-9.157811884023448e-07,9.108818558702233e-07,-8.671877092437383e-08,-1.9606804509595484e-07
3.3522504552264473e-07,1.1811686587393377e-07,1.1022672908297287e-05,-3.7334291140691006e-06,-2.299549527573562e-06,3.903560489311262e-07,4.581857927067707e-07,-2.5007955877353915e-06,1.6967650520932222e-06,-1.8322178112050793e-08,-4.098825688382728e-07,9.281827736287199e-09,9.705161942161265e-07,-1.8588778823639244e-07,-9.781925461270745e-07,8.63644031350406e-07,-8.539376900454904e-08,-2.0483230692136468e-07
3.042071089744762e-07,1.2280392614408148e-07,1.148527522797897e-05,-3.285951575069163e-06,-2.112372192475144e-06,3.275644642241339e-07,4.3234640160617526e-07,-2.2878823650912123e-06,1.6924357415148851e-06,-8.299385642399456e-08,-4.4347314214851415e-07,1.800688140171157e-08,9.068957834190537e-07,-1.8494903176030482e-07,-1.0046267296180513e-06,8.120691433536012e-07,-9.02194807305245e-08,-2.106623038368855e-07
2.685232571447013e-07,1.227894620172338e-07,1.0155029637047796e-05,-5.682566347233743e-07,-1.9458139560349463e-06,2.7478856220220446e-07,3.97623024644324e-07,-2.0360674646661397e-06,1.951785827522628e-06,-1.3990124974747424e-07,-4.727230487911847e-07,2.6721961006480474e-08,8.543864412419904e-07,-1.2197412631952932e-07,-1.0165111688018452e-06,7.498944344080078e-07,-1.0359845240344482e-07,-2.1545472442104967e-07
2.2730965057615212e-07,1.2073411335274993e-07,7.838445941484603e-06,3.982821289826393e-06,-1.780225727667022e-06,2.3538935098558013e-07,3.548994605349564e-07,-1.893110864944137e-06,2.684056746561637e-06,-1.8874329564383638e-07,-4.972736967329316e-07,3.4639243822969064e-08,8.095724274086422e-07,-5.062548939578961e-08,-1.0218814371060007e-06,6.93375250516139e-07,-1.2361906994688913e-07,-2.1971000555935702e-07
1.8193976589654218e-07,1.189213431557095e-07,5.377903800426177e-06,9.346801695297646e-06,-1.6207433698188611e-06,2.0692921404182264e-07,3.087986777246896e-07,-1.8200154019348023e-06,4.077532562258199e-06,-2.2748882749606793e-07,-5.163797464038746e-07,1.5357319381035405e-08,7.624892368008822e-07,1.2775175629689752e-08,-1.0012552062522182e-06,6.415725989607204e-07,-1.4615582405289792e-07,-2.2984414645693037e-07
1.357065032969164e-07,1.1921834021081792e-07,3.428030060645444e-06,1.4256329324453462e-05,-1.4894251406259703e-06,1.8596124025429602e-07,2.6390216790663585e-07,-1.697701840969356e-06,6.228269340199713e-06,-2.5433909747491046e-07,-5.290817357426227e-07,-7.904012270461332e-09,7.170687284810674e-07,3.116812975951403e-08,-9.895202938915e-07,5.879843025032909e-07,-1.6671234992633698e-07,-2.3642644146816836e-07
9.519069038706246e-08,1.2215232675761728e-07,2.348390920049745e-06,1.7590432861430902e-05,-1.3714864775383533e-06,1.7055040657046122e-07,2.2311450439255522e-07,-1.4767164968107917e-06,9.08694966347228e-06,-2.7076497729742273e-07,-5.356304325975245e-07,-3.870683780362428e-08,6.72173127702359e-07,2.0920310088591458e-08,-9.785994665870038e-07,5.311184958216946e-07,-1.834361945561466e-07,-2.408031039605916e-07
5.468509889168262e-08,1.260643786698624e-07,2.1825287295086155e-06,1.8687798213418576e-05,-1.276159048634665e-06,1.5844512808630286e-07,1.8389284273398542e-07,-1.2365974442033597e-06,1.241836495004779e-05,-2.817506344396395e-07,-5.382171160824973e-07,-6.699467609053873e-08,6.39742373352892e-07,-6.1545962096174485e-09,-9.757608074574472e-07,4.653570910631209e-07,-1.9854814718382483e-07,-2.481496150063667e-07
1.745885483447195e-08,1.2719627477598828e-07,2.6941607070731424e-06,1.745203278393128e-05,-1.2516566141777028e-06,1.484513968254981e-07,1.4186821917131102e-07,-9.238996151140468e-07,1.5759772487639993e-05,-2.926311589914737e-07,-5.39841350300962e-07,-9.298476482671728e-08,6.081354092989111e-07,-5.0008457067145913e-08,-9.884941536163565e-07,3.9009390335122834e-07,-2.158469687292649e-07,-2.581213086216714e-07
-1.7581813823809463e-08,1.211938546943832e-07,3.418701726593539e-06,1.4266871147438171e-05,-1.2745761177331444e-06,1.4296642969917872e-07,9.431731840072432e-08,-6.916988315635905e-07,1.8424346697310534e-05,-3.0595144422513475e-07,-5.425609115800561e-07,-1.2124213180337453e-07,5.742803630318088e-07,-9.434034808905114e-08,-1.003912522890673e-06,3.048766609141317e-07,-2.3762433491939537e-07,-2.7605967197422206e-07
-5.395629146862604e-08,1.0475857622814638e-07,3.764739313497677e-06,9.832071324106459e-06,-1.3375137552449093e-06,1.4514889137550273e-07,4.262618758387351e-08,-6.264530841863874e-07,1.9649216017688865e-05,-3.21599812333854e-07,-5.470597091174893e-07,-1.5412152717855623e-07,5.389788575534042e-07,-1.8137483643500516e-07,-1.0218681136222124e-06,2.1337461618376356e-07,-2.637901548553698e-07,-2.9936071334075537e-07
-9.229621084455735e-08,7.636765315458833e-08,3.257111455820272e-06,4.9797425651055616e-06,-1.4284240410800252e-06,1.5351811065406798e-07,-7.361501407480049e-09,-6.087502543711054e-07,1.8870223472016663e-05,-3.3909741388792685e-07,-5.535484234660409e-07,-1.844576441161968e-07,4.996006837013965e-07,-2.7701566602234444e-07,-1.0501369450057967e-06,1.1488842263001356e-07,-2.9254316259671664e-07,-3.2462463295337875e-07
-1.3144488677203623e-07,3.704154894274563e-08,1.8510860302697032e-06,4.594418632538123e-07,-1.5294815856497072e-06,1.6317680486148715e-07,-4.843945842824241e-08,-6.261671368358426e-07,1.5977751115714835e-05,-3.5850294845172515e-07,-5.623013884869506e-07,-2.0896598926832744e-07,4.612342818120637e-07,-3.6655173382978677e-07,-1.0846587092448772e-06,1.9446287454190987e-08,-3.2107283153556824e-07,-3.487554543181833e-07
-1.690675499580196e-07,-8.078606655690722e-09,3.5792869581994653e-08,-3.2635397812956488e-06,-1.6298303156831524e-06,1.6740284662747463e-07,-7.776160998743468e-08,-6.822708421113473e-07,1.143501401448177e-05,-3.789252455572887e-07,-5.729982279054296e-07,-2.2784472521998906e-07,4.258770085547452e-07,-4.524351561221895e-07,-1.1145970052719055e-06,-6.336186925263897e-08,-3.4579080020167126e-07,-3.7182145757081095e-07
-2.051194020518027e-07,-4.804581586673824e-08,-1.4367311861139941e-06,-6.051336079268173e-06,-1.718293356630382e-06,1.60812755672134e-07,-9.591579728846705e-08,-6.769517112212121e-07,6.20816007912348e-06,-3.9740344307318777e-07,-5.840560413875663e-07,-2.3672927318330882e-07,3.9112751428400635e-07,-5.256458932238129e-07,-1.1381072462024887e-06,-1.2864563306825123e-07,-3.6281096321574263e-07,-3.9195710372740325e-07
-2.3552688606208638e-07,-7.529832865171188e-08,-2.001955396728174e-06,-7.928263800657306e-06,-1.7634382866915873e-06,1.4286419051496348e-07,-1.0548779092641423e-07,-6.184500513736324e-07,1.48993862388745e-06,-4.1053911126615557e-07,-5.932970430368044e-07,-2.3729536419143167e-07,3.5496387753223287e-07,-5.907939339684194e-07,-1.1492840004600117e-06,-1.757955587626573e-07,-3.692567351763417e-07,-4.071279999850744e-07
-2.604188875811636e-07,-8.275417855036139e-08,-1.5697773353058384e-06,-8.87277042035849e-06,-1.7566696871435375e-06,1.1631240666106618e-07,-1.1133514390666624e-07,-6.128060164254497e-07,-1.7097599212571142e-06,-4.1744129513115537e-07,-5.995012349078977e-07,-2.2860428791793935e-07,3.225278944335278e-07,-6.464564361384712e-07,-1.149271373696759e-06,-2.0490149308791202e-07,-3.6462723916381505e-07,-4.180626578958232e-07
-2.807130923858137e-07,-6.947886960843815e-08,-4.85003332427286e-07,-8.77885259544682e-06,-1.7160406875965023e-06,8.766791987276466e-08,-1.1751558712250388e-07,-6.177298943145142e-07,-2.9207870827813858e-06,-4.202286688547843e-07,-6.031782756930861e-07,-2.1334634237615357e-07,2.967692893574025e-07,-6.914199482431503e-07,-1.1438198604531336e-06,-2.169324077398816e-07,-3.5099095545912756e-07,-4.257155742957028e-07
-2.968407069403816e-07,-4.2450243798503936e-08,7.454901293919043e-07,-7.583270079171471e-06,-1.6658430232610383e-06,6.521478999016679e-08,-1.258107669922402e-07,-6.946147393252394e-07,-2.331493635353146e-06,-4.213857572474826e-07,-6.056514365107585e-07,-1.9929520653828046e-07,2.825312886016341e-07,-7.161983226552476e-07,-1.1367730178483815e-06,-2.1558121533132301e-07,-3.320570427379726e-07,-4.3123930298993217e-07
-3.092337808225456e-07,-1.0389279938733589e-08,1.728619994941302e-06,-5.404197136811685e-06,-1.630710656563933e-06,5.450838172094551e-08,-1.3518909430278456e-07,-8.228919740797309e-07,-6.139359998105368e-07,-4.213995251608354e-07,-6.077931055536146e-07,-1.8706795298046735e-07,2.8582325677636653e-07,-7.326262094171091e-07,-1.1271178788915344e-06,-2.1008329695445566e-07,-3.1229036014080343e-07,-4.344999762193631e-07
-3.1698935658274763e-07,2.033106908248887e-08,2.302399825072356e-06,-2.611654737613608e-06,-1.5600436042551112e-06,5.798943236684987e-08,-1.4282804751659266e-07,-9.654913037840584e-07,1.4463236879932275e-06,-4.1976659317857554e-07,-6.08342332804267e-07,-1.7567840383776765e-07,3.012124464197295e-07,-7.479292486125428e-07,-1.1191142494269625e-06,-2.028606416300545e-07,-2.9624510233278933e-07,-4.325857694562253e-07
-3.192595133392557e-07,3.939354199286599e-08,2.525286119709953e-06,1.8692513349778657e-07,-1.4829559096285502e-06,7.294508657760229e-08,-1.464261768999395e-07,-1.0122830525681649e-06,3.3067562656204782e-06,-4.180524220034031e-07,-6.066818010313474e-07,-1.6774991385585184e-07,3.091553282942297e-07,-7.648830677359602e-07,-1.1167337781005754e-06,-2.2849686001457855e-07,-2.874778152499065e-07,-4.2823714153019443e-07
-3.1760684713511816e-07,2.5241554388696807e-08,2.5962439564521415e-06,2.315697260705445e-06,-1.3226387406802494e-06,9.191525861369845e-08,-1.4745338041514466e-07,-9.898917377811137e-07,4.821464610919638e-06,-4.208666854211339e-07,-6.039746030119018e-07,-1.665040275269479e-07,2.7925916356540583e-07,-7.971455970700548e-07,-1.1253517092153707e-06,-2.930004688011208e-07,-2.8693612722247387e-07,-4.229673831513221e-07
-3.1319178780782346e-07,-2.8932611348914447e-09,2.7804065763400607e-06,3.334767496656503e-06,-1.0515568961388922e-06,1.0656696011374167e-07,-1.510918214423817e-07,-8.847894576459297e-07,6.1457938356851525e-06,-4.329571066904817e-07,-6.023265902476245e-07,-1.7486999536399416e-07,2.043295701785826e-07,-8.447443768187429e-07,-1.1467218573274944e-06,-4.08494330896542e-07,-2.917544983075785e-07,-4.1877440814218e-07
-3.1074167523758885e-07,-6.249373710678553e-08,3.354103129849159e-06,3.2260743769625836e-06,-9.128575794107165e-07,1.1103133636348824e-07,-1.6264131153778564e-07,-5.784193347327833e-07,7.504772241484036e-06,-4.5516499829439147e-07,-6.04846091176741e-07,-1.9245476888534906e-07,1.4253857279387608e-07,-9.049206414518554e-07,-1.1745502626406567e-06,-5.561476889379473e-07,-2.9597803056680484e-07,-4.18388368077201e-07
-3.120351358645049e-07,-1.3849704554592793e-07,4.572476235516501e-06,2.2738564889462566e-06,-8.008736388198878e-07,1.0257951257642592e-07,-1.843725593428717e-07,-4.4548711747531463e-07,9.01808245465399e-06,-4.834124329723287e-07,-6.094844148966541e-07,-2.1477500509640517e-07,7.741094483022272e-08,-9.739326059994365e-07,-1.2045798320679913e-06,-6.557513385600661e-07,-2.937523704998237e-07,-4.2197208520520544e-07
-3.176347845408477e-07,-1.6543160734934505e-07,6.644257945865894e-06,7.999199687930386e-07,-6.968062583336129e-07,8.038554545408767e-08,-2.1543838421679288e-07,-3.395331780470592e-07,1.0683041514320013e-05,-5.115309652642958e-07,-6.150356075688796e-07,-2.3652446188715646e-07,2.8602710270247147e-08,-1.0435139621605444e-06,-1.2313962953411285e-06,-6.635846530641968e-07,-2.831471490884817e-07,-4.3075366167598413e-07
-3.270029443635066e-07,-2.278906247763273e-07,9.628085006876285e-06,-9.805291009925296e-07,-6.126673364100408e-07,4.4241057446935876e-08,-2.547394000236954e-07,6.449670778624605e-08,1.241719411264414e-05,-5.348071959247075e-07,-6.212434754528625e-07,-2.609735537210351e-07,-7.931255895401363e-08,-1.1081968231843938e-06,-1.2501998224104738e-06,-7.57781767978489e-07,-2.6737052805348923e-07,-4.460803707513436e-07
-3.403727761387741e-07,-3.389192769293089e-07,1.3278148181538902e-05,-2.9117997146215623e-06,-3.3061119701884746e-07,-6.0768928223342746e-09,-3.028664169678422e-07,4.452155886274081e-07,1.4039444685248945e-05,-5.509322826088236e-07,-6.279606879897419e-07,-2.9460254622077207e-07,-1.587580580734794e-07,-1.1590412318823553e-06,-1.2584481274050786e-06,-8.213735325697552e-07,-2.5196750523340814e-07,-4.6796610829523793e-07
-3.5785858262961224e-07,-4.235109803830049e-07,1.700486139007857e-05,-4.774227646139074e-06,-1.3078093686503871e-07,-6.702715838732572e-08,-3.605781265284144e-07,6.551625652861317e-07,1.5272819418366817e-05,-5.586130180713535e-07,-6.345803223316723e-07,-3.385203980807252e-07,-1.8582081264959067e-07,-1.1936918766945823e-06,-1.2537173927957836e-06,-8.155259581937626e-07,-2.4037779659520056e-07,-4.935244157681231e-07
-3.7618090578033405e-07,-4.683771330050688e-07,2.0074935258577975e-05,-6.229480386204056e-06,-9.570015677529299e-08,-1.3056967305924738e-07,-4.2540640315178187e-07,8.092836459099835e-07,1.5881886247938026e-05,-5.569499222431528e-07,-6.392691503905896e-07,-3.89955913438457e-07,-2.0962239432464237e-07,-1.208797362969751e-06,-1.2299910884802943e-06,-8.369589561585084e-07,-2.3126386628776755e-07,-5.222085923975698e-07
-3.9243787829866357e-07,-4.849560639882617e-07,2.1910780382561315e-05,-6.886402176347903e-06,-6.384225545391712e-08,-1.8671698066761932e-07,-4.899990364735855e-07,8.427909368407132e-07,1.5854213165778927e-05,-5.47128776992473e-07,-6.387884144688107e-07,-4.4560496573239803e-07,-2.4005979279105347e-07,-1.2168159251234597e-06,-1.1903888018239843e-06,-8.66600260246102e-07,-2.213030615607239e-07,-5.476464377146917e-07
-4.0483576448446865e-07,-4.787762205031519e-07,2.226346373707132e-05,-6.388493806076378e-06,6.011141162442555e-08,-2.2842280365145477e-07,-5.445310799169676e-07,7.698245422932607e-07,1.544461371976569e-05,-5.341552516440171e-07,-6.16736536754405e-07,-5.057679556344082e-07,-2.592297500701102e-07,-1.213488612474822e-06,-1.1439624024007924e-06,-8.603228299466328e-07,-2.080675392026405e-07,-5.721691637662488e-07
-4.1681086567532317e-07,-5.184529943449251e-07,2.1146694450825767e-05,-4.659968501562682e-06,1.2870792862939386e-07,-2.550693909633486e-07,-5.817641330134519e-07,4.780452949576598e-07,1.5035384735656993e-05,-5.251493365127199e-07,-5.864579760074641e-07,-5.651654848317548e-07,-2.6800181071365566e-07,-1.1952885127195956e-06,-1.087337573036501e-06,-8.996621094844854e-07,-1.9146496589764825e-07,-5.819089658769433e-07
-4.390537165115127e-07,-5.632915325952361e-07,1.8701309538560002e-05,-1.8152017305378794e-06,6.020056222071603e-08,-2.711505621282774e-07,-6.004302145862026e-07,2.2040351312277698e-07,1.491292907836077e-05,-5.240386087665894e-07,-5.463436914955439e-07,-6.372477215832593e-07,-2.625033448604868e-07,-1.162702446619434e-06,-1.027784356605223e-06,-8.950537039108314e-07,-1.8118352858331255e-07,-5.571386053746692e-07
-4.806956664163458e-07,-5.766757668497323e-07,1.522549012047303e-05,1.7808644819829235e-06,7.295191173132626e-09,-2.816349538314823e-07,-6.052685597909376e-07,7.349567649378315e-08,1.5093341419206156e-05,-5.268296361892092e-07,-4.847768408071049e-07,-7.256840273028047e-07,-2.389554376183252e-07,-1.090715577951037e-06,-9.63780866712881e-07,-8.311986777094847e-07,-1.7126070415210284e-07,-5.103813406915722e-07
-5.423701722898599e-07,-5.580397392405902e-07,1.1330522055442302e-05,5.4783617341983694e-06,-6.100675981127628e-08,-2.874996863976695e-07,-6.009916818890895e-07,4.360345922036393e-08,1.5286900116585202e-05,-5.221811807805074e-07,-4.3086824868779736e-07,-8.090643134242297e-07,-2.3464172192796767e-07,-9.790992018650824e-07,-8.90750314964508e-07,-7.906582238961093e-07,-1.5049773941720765e-07,-4.565386741393716e-07
-6.212012004957745e-07,-5.134500465804963e-07,7.943281250411962e-06,8.50608752866381e-06,-9.52237233092091e-08,-2.858266752368593e-07,-5.894715710461389e-07,-1.716961282088918e-08,1.502870213044383e-05,-4.977784777316788e-07,-3.621799599367907e-07,-8.702770268283716e-07,-2.4633774847424766e-07,-8.343693170288779e-07,-8.064496652509863e-07,-7.569534242005765e-07,-1.1855240772070851e-07,-4.0532559173920924e-07
-6.930378467182063e-07,-4.5361726387145606e-07,5.997617044498082e-06,1.0185637576092382e-05,-2.3732225837139758e-07,-2.735645511040048e-07,-5.713154556220159e-07,-2.7047531613844057e-07,1.391782001928517e-05,-4.482099974546794e-07,-2.9626360935537156e-07,-8.47124922800827e-07,-2.4909352551897994e-07,-6.700602659751764e-07,-7.143162997957034e-07,-6.723334791024724e-07,-9.743512521335134e-08,-3.5794666385715406e-07
-7.344255479211363e-07,-3.7655748448780904e-07,5.990537324468761e-06,1.023510876475134e-05,-4.113195472022457e-07,-2.5232420404439726e-07,-5.44789556611927e-07,-4.757006659079828e-07,1.1830323205916651e-05,-3.781833940856511e-07,-2.7355653116652603e-07,-7.812086498155772e-07,-2.563639723436136e-07,-4.959056102176814e-07,-6.11078865127271e-07,-5.971142264153605e-07,-7.864555373099979e-08,-3.186040955456545e-07
-7.227470058198382e-07,-3.1206541219431496e-07,7.726665265495595e-06,8.89827946181256e-06,-5.138788464362584e-07,-2.2976384392882724e-07,-5.089452819236266e-07,-6.951043661988764e-07,8.985918815548334e-06,-3.038819541977227e-07,-2.5743455620962674e-07,-7.056594514417312e-07,-2.562823492897015e-07,-3.263612686811194e-07,-5.251188543753161e-07,-5.229865292350288e-07,-5.654457783678138e-08,-2.901637621611593e-07
-7.015825686176387e-07,-2.613850033872533e-07,1.0473339157554935e-05,6.836429754865657e-06,-5.772395574144668e-07,-2.1615383137097689e-07,-4.6347921294441576e-07,-8.869845723864178e-07,5.862034820068712e-06,-2.387490088652213e-07,-2.621291667967228e-07,-6.70973469711002e-07,-2.4436932515454163e-07,-1.7691098045887012e-07,-4.610438382723884e-07,-4.1257517305824973e-07,-3.501237165361029e-08,-2.65251845299262e-07
-6.867842875828421e-07,-2.190308574095183e-07,1.3443772731960001e-05,4.743733914239422e-06,-6.048447401339165e-07,-2.190380207219103e-07,-4.1085499565317963e-07,-1.1164464482257622e-06,3.071498737251957e-06,-1.9513761928523133e-07,-2.749587954866319e-07,-6.587425306629568e-07,-2.1572679882501646e-07,-5.7499308292562966e-08,-4.135597187212789e-07,-3.0578395543027e-07,-1.719683452890639e-08,-2.4290422684173604e-07
-6.702622225306666e-07,-1.8216949970907656e-07,1.617548557592126e-05,3.0198498407085357e-06,-7.814592330196339e-07,-2.399871724898942e-07,-3.465895268482584e-07,-1.3847787208068852e-06,1.2926381588196677e-06,-2.1433860676589357e-07,-2.8841691294392023e-07,-5.90219703621839e-07,-1.7354593891429033e-07,-1.718930057185043e-08,-3.867002249083162e-07,-2.0415677845847946e-07,-4.641838580616684e-09,-2.2581033160993767e-07
-6.395109427340262e-07,-1.4752516286773128e-07,1.8452076721519656e-05,1.8137597976083324e-06,-8.947972044712865e-07,-2.7474499063407714e-07,-2.7567542006408074e-07,-1.545710098349538e-06,1.1584448174007068e-06,-2.4661874786392853e-07,-3.213913876846278e-07,-4.999543628296736e-07,-1.3367047117997049e-07,-6.550407688811183e-08,-3.751636889180637e-07,-9.992189566781052e-08,-3.9591193216140665e-11,-2.1677994980431788e-07
-5.787869776538234e-07,-1.2071153303304628e-07,1.9992050407656837e-05,9.486048220776494e-07,-9.88449988324749e-07,-3.1543981171378e-07,-2.2464713818976983e-07,-1.649987558948673e-06,2.999035926311313e-06,-2.6644856202993476e-07,-3.6567458008175356e-07,-4.397677222548333e-07,-9.048288090300972e-08,-1.8024059774826951e-07,-4.0730198127318167e-07,-1.7879139128285044e-08,-4.575411072476554e-09,-2.2042817465677623e-07
-4.851354761642298e-07,-1.0201489254068507e-07,2.03637499198241e-05,6.32423270032244e-07,-1.0988217543438317e-06,-3.526975603764107e-07,-1.8674193030021797e-07,-1.8291994278050078e-06,6.57419488033005e-06,-3.43227878400331e-07,-4.387775682934299e-07,-4.1656596970094366e-07,-7.08408545440772e-08,-3.379326851843644e-07,-4.823412579663819e-07,1.0243215093412256e-08,-1.558372175704035e-08,-2.3670977772822484e-07
-4.077733679621009e-07,-8.618846579136483e-08,1.9175947004583108e-05,1.401310054855355e-06,-1.1895137482587532e-06,-3.7841721296095853e-07,-2.3097437465784787e-07,-1.9151268512464927e-06,1.1058254625136598e-05,-4.4324935511115385e-07,-4.815471581576489e-07,-4.1149774036452275e-07,-8.719708728830239e-08,-4.134842388531226e-07,-6.033799998338499e-07,1.2116282047502287e-09,-2.679901800946047e-08,-2.6232096337658554e-07
-3.4864843268682955e-07,-6.238738413726206e-08,1.635326053587251e-05,3.328470849313069e-06,-1.2723437167318067e-06,-3.8812809698056986e-07,-2.8015353753713953e-07,-1.973914406294336e-06,1.5350972078133835e-05,-5.134999973138174e-07,-4.963889898940385e-07,-4.0322292373883306e-07,-1.1876264492392458e-07,-4.575517652666874e-07,-7.375996832503611e-07,-2.9575026783388096e-08,-3.1625977211619605e-08,-2.9246586452114327e-07
-2.952821355333699e-07,-2.0959223211706605e-08,1.2209312799937358e-05,7.00666397618419e-06,-1.265545717566943e-06,-3.8367362485082444e-07,-3.0974012414689795e-07,-2.0065100504381934e-06,1.8493059875836616e-05,-5.038210404222737e-07,-5.13035359951719e-07,-4.0800894282759946e-07,-1.6566706375397178e-07,-5.388823734198968e-07,-8.60790683682943e-07,-7.654425322516035e-08,-2.6728468385820414e-08,-3.2194203090126713e-07
-2.785689211529691e-07,3.9679295002851357e-08,7.3585526882098385e-06,1.1951148365565457e-05,-1.3500579496206185e-06,-3.714093279452241e-07,-3.3165516043575415e-07,-2.0850890854084417e-06,1.9899967636140336e-05,-4.4417137841116907e-07,-5.394868287108502e-07,-3.801906736326309e-07,-1.9703937381603347e-07,-5.660789220109161e-07,-9.465918381778967e-07,-1.1124130546053415e-07,-1.2849208261108505e-08,-3.4612480397778205e-07
-2.782398332283689e-07,1.2110670138789228e-07,2.5320236933752847e-06,1.703513965473891e-05,-1.4250144610479602e-06,-3.5821919560654884e-07,-3.6729286721174715e-07,-2.173187115954895e-06,1.9385320065300718e-05,-3.9734816522464045e-07,-5.550314321764244e-07,-4.012533718115014e-07,-1.7454381196362357e-07,-6.388127918522744e-07,-1.0123298502718132e-06,-1.2386532519414016e-07,7.419266857081154e-09,-3.607938896409885e-07
-2.810864163268163e-07,2.2012361721264083e-07,-1.5960262028700812e-06,2.0226131323875473e-05,-1.522551556811649e-06,-3.4815304250496e-07,-3.8655701218627827e-07,-2.2549599820382845e-06,1.714523043594224e-05,-3.593488173341592e-07,-5.561631165150858e-07,-4.860741227465291e-07,-1.598792615906035e-07,-7.617040741839749e-07,-1.0514002013666871e-06,-1.1455991942135698e-07,3.2269013980846845e-08,-3.623693598361784e-07
-2.8559430657059856e-07,3.2982289986337397e-07,-4.49304679781795e-06,2.13994803073258e-05,-1.5820693772578538e-06,-3.409618142529399e-07,-3.8682927218375584e-07,-2.3087750510901955e-06,1.3749389767641919e-05,-3.1749351562398515e-07,-5.189065068914188e-07,-6.424553182882471e-07,-1.2641546189631665e-07,-8.661569396127467e-07,-1.1230109333365891e-06,-7.872753913560938e-08,6.113783637424212e-08,-3.493592440364597e-07
-2.775393711344989e-07,4.442257298694033e-07,-5.689968145282725e-06,1.9890792712444393e-05,-1.6716057575171291e-06,-3.3399191785996964e-07,-3.9500164828480035e-07,-2.459512372371824e-06,1.0025765059074387e-05,-2.4871066699756954e-07,-4.827196796212949e-07,-7.609300811094347e-07,-1.601254971404277e-08,-1.018962954740466e-06,-1.2494979145148437e-06,-1.5107078238549488e-08,9.316142538032414e-08,-3.2397960479350005e-07
-2.6062302472237577e-07,5.515243881105216e-07,-4.865939008693044e-06,1.5495310257933517e-05,-1.9038907913860673e-06,-3.2441893771202754e-07,-4.012325095785982e-07,-2.6489145265898938e-06,6.825910015171904e-06,-1.19681514688429e-07,-4.345139566583064e-07,-8.481148863077071e-07,9.597477321052759e-08,-1.1824537552472565e-06,-1.3496638790165569e-06,6.143560882113592e-08,1.2596721023465857e-07,-2.918996166119378e-07
-2.3485476469502085e-07,6.448206043467443e-07,-2.05828473820172e-06,1.1706416487654939e-05,-2.099744508266442e-06,-3.103098344496783e-07,-3.872120444549819e-07,-2.729788368780008e-06,4.712427471898906e-06,2.5120765093525803e-08,-3.7649106689007673e-07,-8.674280034075171e-07,1.2952112186481868e-07,-1.311489127224053e-06,-1.3802032569833179e-06,1.373429044463433e-07,1.5629162116603003e-07,-2.597599088353895e-07
-2.0607317853451668e-07,7.284436719124929e-07,2.2364155358504097e-06,6.456625212135492e-06,-2.307474148649272e-06,-2.9039954410793264e-07,-3.476058896321281e-07,-2.77807765985694e-06,3.863715750788595e-06,8.989753085362103e-08,-3.40776366971032e-07,-8.872772977607032e-07,1.1468132603051443e-07,-1.3586911695040488e-06,-1.401851698233756e-06,2.0312626362389206e-07,1.814111761976786e-07,-2.3236602675787835e-07
-1.790886602852079e-07,8.11439718146123e-07,7.083063499651416e-06,1.081844211913002e-06,-2.4733844785818936e-06,-2.6476544295274164e-07,-2.8937231043808636e-07,-2.7153097860563847e-06,4.082169160722438e-06,1.689802912326987e-07,-3.20208842625536e-07,-9.59733186603949e-07,9.54099134624527e-08,-1.4250381874073373e-06,-1.4349632227012031e-06,2.516873500671655e-07,1.997319048599019e-07,-2.1167806234143235e-07
-1.557611549867979e-07,8.928550436335938e-07,1.1281563819704631e-05,-2.552143496163062e-06,-2.6543685677102333e-06,-2.361364203852151e-07,-2.2473067400882125e-07,-2.6828201577045672e-06,4.929878656499924e-06,2.2164594383296413e-07,-3.1244571443409516e-07,-9.340414852213894e-07,8.421476901480791e-08,-1.4903523440550469e-06,-1.4611238175338215e-06,2.836064344604456e-07,2.105147856794121e-07,-1.9776766644665964e-07
-1.3783045887434894e-07,9.348588536683478e-07,1.3835861273538137e-05,-5.907761751051666e-06,-2.6356659211615435e-06,-2.101309632572303e-07,-1.5880326525870012e-07,-2.645981063056326e-06,5.925203107947681e-06,1.9423739629593187e-07,-3.1113605907211735e-07,-8.307979276448535e-07,4.4759753268820295e-08,-1.5803837863033538e-06,-1.5502139446879553e-06,3.012912155531166e-07,2.138841871467944e-07,-1.9018303362078692e-07
-1.278530874385799e-07,9.363832157321753e-07,1.4291878870762973e-05,-7.18320650856149e-06,-2.5217880783094596e-06,-1.9384267035129034e-07,-9.97654360533895e-08,-2.6234308227360856e-06,6.7065368578748735e-06,1.5464454976438048e-07,-3.059478163462619e-07,-7.615588878758902e-07,-1.7099035740382507e-08,-1.724271891934157e-06,-1.620493591251413e-06,3.0704692481810047e-07,2.114604592054302e-07,-1.8820914345537148e-07
-1.233016674058333e-07,9.477583354111894e-07,1.271534020132197e-05,-6.936610640620531e-06,-2.4412651255040988e-06,-1.9217662362505097e-07,-4.712204583138885e-08,-2.5686717084867157e-06,7.17039615129751e-06,9.257840363733356e-08,-2.969488291463569e-07,-6.924844884276231e-07,-1.1130577735920199e-07,-1.8072965824900472e-06,-1.653827008688352e-06,3.032508380538766e-07,2.065924275846419e-07,-1.9010630812462332e-07
-1.2255531971778717e-07,9.714588595385335e-07,9.864752816209326e-06,-6.204947176491479e-06,-2.3807997229594344e-06,-2.0473308979870685e-07,-3.4143150137025954e-08,-2.384383550418891e-06,7.466910935901278e-06,4.3672806436519575e-08,-2.8318384376204154e-07,-5.985850742298394e-07,-1.6162040194713711e-07,-1.8271652495589826e-06,-1.667295025142076e-06,2.943709283215136e-07,2.0319726343104765e-07,-1.9287522756467686e-07
-1.246387876992124e-07,9.868767083805925e-07,6.405622370013806e-06,-5.279649938382233e-06,-2.323794925318359e-06,-2.261867664820777e-07,-6.326169504242318e-08,-2.2654272306120925e-06,7.832742145213472e-06,1.9092663325469412e-08,-2.6401606115349334e-07,-5.472236568477461e-07,-1.9377221408931984e-07,-1.777917400895483e-06,-1.6552674842251005e-06,2.7618795713627896e-07,2.0364493758637042e-07,-1.9359641148201145e-07
-1.250449646547134e-07,1.0099554803748876e-06,2.7317372408666977e-06,-3.89268367589245e-06,-2.252042265801232e-06,-2.4901381468970663e-07,-1.1862926728969404e-07,-2.118105483518793e-06,8.409316567067235e-06,-2.1558540418246804e-08,-2.417676085371159e-07,-5.107757382291712e-07,-2.2002373159518614e-07,-1.7261795977744472e-06,-1.6161313721201592e-06,2.447729171981714e-07,2.073305947497776e-07,-1.9157507795476692e-07
-1.235651855771044e-07,1.0438909573225156e-06,-7.345441983356613e-07,-2.015689163228447e-06,-2.1050081562532956e-06,-2.671240480339954e-07,-2.125813585086993e-07,-1.9376609175164518e-06,9.139899971733478e-06,-6.268079768931203e-08,-2.22314296029387e-07,-4.6739553789192053e-07,-2.2430979115726465e-07,-1.697165414219214e-06,-1.5692038637366352e-06,1.9342962310992372e-07,2.1117568661882156e-07,-1.8921536464037648e-07
-1.2293528372121923e-07,1.0637676442579163e-06,-3.500427775114303e-06,1.884753074425558e-07,-1.9245217384685784e-06,-2.774500152827609e-07,-2.616529758395278e-07,-1.8062917068583192e-06,9.832139659169905e-06,-8.43979780109269e-08,-2.1332968019946286e-07,-4.255530019161909e-07,-2.3840424417035241e-07,-1.5963723092981915e-06,-1.4753518076988802e-06,8.671721092253833e-08,2.1152456493820775e-07,-1.905341443474905e-07
-1.2675199778418378e-07,1.0639864635506652e-06,-5.359972305466917e-06,2.6678946386220057e-06,-1.807912721161649e-06,-2.79146492492907e-07,-2.444029569963252e-07,-1.6494275685935567e-06,1.0314528696389582e-05,-1.2246039123161665e-07,-2.203978844488882e-07,-3.7142225334800094e-07,-2.828105919312125e-07,-1.5019989363571817e-06,-1.3835703211568764e-06,-4.935706467670998e-08,2.0578747573223197e-07,-1.9871958290584916e-07
-1.3748213456650363e-07,1.0388000392326475e-06,-5.623753581615342e-06,4.943302988984507e-06,-1.7734498398223837e-06,-2.724389037578587e-07,-2.461500312785203e-07,-1.3939569814261967e-06,1.0584511946133576e-05,-1.7082045937302295e-07,-2.444395331398108e-07,-3.1441348102838253e-07,-3.089639513513711e-07,-1.435817601927845e-06,-1.2832167923781485e-06,-1.703888179618387e-07,1.9292226377327873e-07,-2.1503960028881677e-07
-1.563936569343338e-07,9.832245735612322e-07,-5.767009993230771e-06,6.740953363317098e-06,-1.5113413967700877e-06,-2.588309809726368e-07,-3.191610563324731e-07,-1.1626499149837941e-06,1.0817177039046753e-05,-2.629643548865115e-07,-2.819805921436623e-07,-2.8870160309291573e-07,-3.7196134496615353e-07,-1.3709485617566517e-06,-1.1730330365652882e-06,-3.327479837212711e-07,1.7308060897453964e-07,-2.3952460598037075e-07
-1.8561503332027128e-07,9.126533541200883e-07,-6.369533605918581e-06,7.875229848914034e-06,-1.3240250739992117e-06,-2.4252179275016014e-07,-4.320878165979748e-07,-1.0714211296674e-06,1.1137805612243396e-05,-3.9386890555110273e-07,-3.2757461693183066e-07,-2.882391280789941e-07,-4.646617512742462e-07,-1.325500293961164e-06,-1.0905444436042362e-06,-5.468841217182788e-07,1.472812492158249e-07,-2.7187037733259273e-07
-2.2581166623072986e-07,8.335322449135422e-07,-6.969575025263541e-06,8.313778893908108e-06,-1.2978066860221465e-06,-2.3078441947748793e-07,-5.542797887061416e-07,-1.1604347726092364e-06,1.1937814266775874e-05,-5.361015515905758e-07,-3.7608511122910253e-07,-3.384173447808243e-07,-5.683126903453587e-07,-1.270785679674976e-06,-1.0484916407970169e-06,-7.40371615498946e-07,1.1775586271710207e-07,-3.1115952386865273e-07
-2.788322609787211e-07,7.510429345948568e-07,-6.292190702837024e-06,7.800881346719128e-06,-1.2902423282650175e-06,-2.3205496605989198e-07,-6.674792923836725e-07,-1.2693782270030446e-06,1.3265817765404918e-05,-6.770254246348996e-07,-4.230956491420273e-07,-3.642813284815995e-07,-6.599162716632531e-07,-1.2387173885395554e-06,-9.944679674306785e-07,-8.609903011580988e-07,8.841747392446548e-08,-3.548451628517663e-07
-3.4398255780090237e-07,6.737756919573137e-07,-6.018252012031555e-06,6.492201267676454e-06,-1.3306465010213186e-06,-2.5228236404032293e-07,-7.449642964384168e-07,-1.3775481429208841e-06,1.495950060462964e-05,-7.62292442070208e-07,-4.640131094396502e-07,-3.600464017094293e-07,-7.164135638049022e-07,-1.2727860872186477e-06,-1.000542816741086e-06,-9.617228155705829e-07,6.404087531894456e-08,-3.986747525113248e-07
-4.1672958813844546e-07,6.089281359858476e-07,-5.5940015208322155e-06,4.808950576534431e-06,-1.3916427598914727e-06,-2.920124425249591e-07,-8.030149878745901e-07,-1.4833542892969926e-06,1.6785649300091096e-05,-8.282275061309668e-07,-4.940971990932856e-07,-4.930068568867402e-07,-7.942429188441278e-07,-1.4049610724985887e-06,-1.0434808444769412e-06,-1.0653983277837498e-06,4.810034341409897e-08,-4.3834873991476375e-07
-4.898355151637154e-07,5.617210421163367e-07,-4.9065320346140975e-06,3.1086746814591435e-06,-1.4914514332153672e-06,-3.4607573895478743e-07,-8.484399356156635e-07,-1.594255463846787e-06,1.8279531632663306e-05,-9.00068634573871e-07,-5.104155376592375e-07,-6.123710857056772e-07,-8.679459741783678e-07,-1.5386404643937263e-06,-1.101891362143865e-06,-1.1138811922006238e-06,4.1122751143392064e-08,-4.716359850441507e-07
-5.560577923611266e-07,5.323886783728076e-07,-4.57701945522298e-06,1.7237200912329498e-06,-1.675799381939941e-06,-4.053663750444124e-07,-8.849816621285137e-07,-1.756946316952464e-06,1.895720052174352e-05,-9.830364165535222e-07,-5.138934607491072e-07,-6.766869336459807e-07,-8.693246086357127e-07,-1.6399345208198896e-06,-1.158827873309353e-06,-1.1305874562935715e-06,4.096300227684777e-08,-4.989544714790458e-07
-6.132750252817243e-07,5.167374225400276e-07,-3.929816146653472e-06,7.615466159454042e-07,-1.7984355740384372e-06,-4.5935593968101856e-07,-9.07209684450054e-07,-2.064109491322873e-06,1.844862612802704e-05,-9.892250748099652e-07,-5.090677235325526e-07,-7.390785919912289e-07,-8.706687763077596e-07,-1.7486395814086913e-06,-1.2146578379464304e-06,-1.161223183786121e-06,4.4245527053106024e-08,-5.216403252853142e-07
-6.603483955858581e-07,5.043964042395451e-07,-2.6039964401642733e-06,1.9947502081563748e-07,-1.9418646465301485e-06,-4.985880850066671e-07,-9.165589807789887e-07,-2.3064610770179135e-06,1.68797072591487e-05,-9.67248220286105e-07,-5.018182742998673e-07,-7.615283617953079e-07,-8.847056333142847e-07,-1.8150626695841931e-06,-1.257262072018458e-06,-1.2173487308729097e-06,4.725201381281573e-08,-5.400128784783342e-07
-6.979854293461371e-07,4.882070458833561e-07,-7.305563248157696e-07,-2.6381790707627666e-08,-2.120468755925948e-06,-5.177296190522288e-07,-9.175390376288605e-07,-2.4329299671587653e-06,1.4159419086171939e-05,-9.629738645862004e-07,-4.9734610159042e-07,-7.699555501567216e-07,-9.132123983987594e-07,-1.8614713135257981e-06,-1.29025449348982e-06,-1.2916807654837247e-06,4.5820152689140836e-08,-5.529738335956656e-07
-7.279218518340579e-07,4.6581564948869594e-07,1.4959580362619225e-06,-1.483171864299337e-08,-2.1861618988398814e-06,-5.180156356202283e-07,-9.084779011088709e-07,-2.535832124865749e-06,1.072128757839471e-05,-9.668457747248919e-07,-4.992851716790504e-07,-7.814000174919056e-07,-9.44895891282039e-07,-1.9055702230023275e-06,-1.320609098239011e-06,-1.3777872156471155e-06,3.55587798438568e-08,-5.592864565197073e-07
-7.520297453536866e-07,4.3742082033401216e-07,3.5211365275654895e-06,1.0772075084216641e-07,-2.2333842706108835e-06,-5.071416869604968e-07,-8.898903393574495e-07,-2.7755148010086225e-06,7.2673261899064115e-06,-9.729359393678785e-07,-5.088813478862882e-07,-7.927622997050066e-07,-9.859841891324737e-07,-1.93321379989012e-06,-1.3469153330432345e-06,-1.4621659678782737e-06,1.3636479869545119e-08,-5.582116961257229e-07
-7.723039477478506e-07,4.085617420422193e-07,4.653152335847945e-06,1.9518412219871478e-07,-2.4333593047812787e-06,-4.946675807441322e-07,-8.542495403733151e-07,-2.8992406591257873e-06,4.349710634447697e-06,-9.679279475425175e-07,-5.237712715301386e-07,-8.230060628141065e-07,-1.0087331532507769e-06,-1.9461211589084587e-06,-1.3608532164849612e-06,-1.52386617402678e-06,-1.8621743023747006e-08,-5.494054733264583e-07
-7.885899127978036e-07,3.875135292715013e-07,4.928027958689528e-06,1.1051069054267761e-07,-2.5911150590760552e-06,-4.859991961107127e-07,-8.005894334425242e-07,-2.9485451969783187e-06,2.495442669327676e-06,-9.434978796940071e-07,-5.376771441938902e-07,-8.609960594430769e-07,-9.850852061316188e-07,-1.940790067873437e-06,-1.3667625423580828e-06,-1.529137901614844e-06,-5.4838701402969035e-08,-5.321754021888006e-07
-7.974932070892296e-07,3.8295674747334074e-07,4.520682606757783e-06,-2.134174981238009e-07,-2.645716243413905e-06,-4.799127805515527e-07,-7.317186310919762e-07,-3.020816213887409e-06,1.7263725471738024e-06,-8.918469834940967e-07,-5.423772767601943e-07,-8.945455489256244e-07,-1.0240945438864095e-06,-1.9113748682931e-06,-1.3602248942703937e-06,-1.5378194177463465e-06,-8.591970639749591e-08,-5.057377695889963e-07
-7.937853448217046e-07,4.0437892287506617e-07,3.692118104381187e-06,-6.816156310782563e-07,-2.7435934043295514e-06,-4.707728763751623e-07,-6.544264401234243e-07,-3.000624874138925e-06,1.97731023438167e-06,-8.163668508535066e-07,-5.313900300042652e-07,-9.147487235933911e-07,-1.0454863303974782e-06,-1.8645108403594582e-06,-1.336625877461238e-06,-1.4800016849939046e-06,-1.0408498941868065e-07,-4.706544598147864e-07
-7.738014939657672e-07,4.461735533648397e-07,2.9068299496418125e-06,-9.981217759596633e-07,-2.846965094446344e-06,-4.530535073620701e-07,-5.724086831187833e-07,-3.1018163497347223e-06,2.658618020973517e-06,-7.232411356097618e-07,-5.030710034723456e-07,-9.151552850928717e-07,-1.025901831864864e-06,-1.8076495548102925e-06,-1.2994825871981331e-06,-1.410146700441199e-06,-1.0545471474928955e-07,-4.2883962049988684e-07
-7.382945144255684e-07,5.001267746866374e-07,2.6268384543709178e-06,-7.650213742325054e-07,-3.0784624979837454e-06,-4.2423606134667073e-07,-4.883965608514103e-07,-3.228687346669791e-06,3.3400797024713068e-06,-6.209614527379474e-07,-4.610375646250105e-07,-8.962102924538917e-07,-9.720275404105043e-07,-1.743361602933437e-06,-1.251601695341647e-06,-1.3344639411678816e-06,-8.984389073413018e-08,-3.832786974180199e-07
-6.906712192081093e-07,5.562119307424269e-07,3.15183743919371e-06,3.0698226642525064e-07,-3.2466940207386285e-06,-3.846618419937536e-07,-4.064971492399935e-07,-3.341327805465631e-06,4.162493040705718e-06,-5.214294567472075e-07,-4.119544455242119e-07,-8.623020262723267e-07,-9.233958114370012e-07,-1.673987400476415e-06,-1.197452518791459e-06,-1.2647379072637139e-06,-5.926819630005177e-08,-3.371222630941387e-07
-6.352316974911799e-07,6.0441731648592e-07,4.456033589268266e-06,2.177378357700299e-06,-3.3050953134126213e-06,-3.363449043347692e-07,-3.304401450231463e-07,-3.3991395249965847e-06,5.442879640265004e-06,-4.3167357042199015e-07,-3.6276917310302486e-07,-8.199331199308178e-07,-8.716258034337203e-07,-1.6049714275487949e-06,-1.1436489569231019e-06,-1.207246310671943e-06,-1.7142085952291018e-08,-2.933800876980857e-07
-5.761837616841597e-07,6.422551132856855e-07,6.234525976671791e-06,4.380325252574779e-06,-3.4235280206225137e-06,-2.83335316320978e-07,-2.6696916665412665e-07,-3.507222897275187e-06,7.651829355585135e-06,-3.575593142018724e-07,-3.192426963516369e-07,-7.768568200240822e-07,-8.144054227075067e-07,-1.5413711673208284e-06,-1.0952358817506092e-06,-1.1631255405235985e-06,3.161362720463209e-08,-2.554940914652084e-07
-5.180411479280661e-07,6.713175087979682e-07,7.875247560124025e-06,6.151174578620869e-06,-3.465382275218657e-06,-2.322937430696349e-07,-2.2444734211645334e-07,-3.557612184880604e-06,1.1062773290322197e-05,-3.0313701747306317e-07,-2.8562901971665974e-07,-7.409701993263564e-07,-7.625375142858402e-07,-1.4903416538762856e-06,-1.0562574997397459e-06,-1.1303230660870524e-06,8.074318966966108e-08,-2.2681352812689858e-07
-4.652780172953929e-07,6.956552943178241e-07,8.791934234974259e-06,6.746612217599636e-06,-3.5575090348916442e-06,-1.910455295209406e-07,-2.10111290201242e-07,-3.6620557000102964e-06,1.5689336605396386e-05,-2.6937710595937003e-07,-2.643539511986755e-07,-7.17671629508631e-07,-7.185247239359191e-07,-1.459430841461162e-06,-1.0295283001666146e-06,-1.1052409868460125e-06,1.2393595474371576e-07,-2.0884479482888798e-07
-4.206724256527095e-07,7.182152124564769e-07,8.508064587592768e-06,5.772625102627668e-06,-3.6908663129789823e-06,-1.6465941033797808e-07,-2.2657913188059645e-07,-3.826161153460502e-06,2.0041519269481045e-05,-2.53568397939218e-07,-2.5548887198219384e-07,-7.072848668633803e-07,-6.782588011538694e-07,-1.4465393616307837e-06,-1.0145162141599763e-06,-1.0836708404937262e-06,1.5666341071635142e-07,-1.9996280141365208e-07
-3.8465533889028296e-07,7.417385806950327e-07,6.83065713310353e-06,3.3197864830799533e-06,-3.766898000995844e-06,-1.5284542393009397e-07,-2.689871046221224e-07,-3.861122559281007e-06,2.315026879497637e-05,-2.4988076306534867e-07,-2.5690942046403234e-07,-7.058624836184338e-07,-6.376095875919525e-07,-1.445568061406167e-06,-1.0077891870646862e-06,-1.0616486664695157e-06,1.772654148451531e-07,-1.9627292769788995e-07
-3.558902775007898e-07,7.643118652998007e-07,3.953023979252678e-06,-1.1810795902214684e-07,-3.6893342070793866e-06,-1.512052814480444e-07,-3.258354579077602e-07,-3.849207171209168e-06,2.261840315898352e-05,-2.525875201730041e-07,-2.6563274120690486e-07,-7.089827508028102e-07,-6.074619737128738e-07,-1.448642963194964e-06,-1.0046045805412945e-06,-1.036417156736786e-06,1.86632803500645e-07,-1.939729541262785e-07
-3.3368138926832396e-07,7.801869531091749e-07,4.880079166761379e-07,-3.8146853170850943e-06,-3.581812579502896e-06,-1.5452581769185886e-07,-3.830739961897438e-07,-3.7907559873844076e-06,2.027718816790117e-05,-2.5903620451532517e-07,-2.7947731094656334e-07,-7.14978200288447e-07,-5.842504420972413e-07,-1.445840306042707e-06,-1.001080667915201e-06,-1.0074189414502343e-06,1.871135369889676e-07,-1.9140388275961423e-07
-3.1888383595858046e-07,7.835130289565497e-07,-2.60065415639655e-06,-6.963677548791949e-06,-3.45397516889988e-06,-1.5954070010810312e-07,-4.283322297157977e-07,-3.847048282550427e-06,1.926306421312232e-05,-2.693260844221239e-07,-2.9753487669673987e-07,-7.24554240448551e-07,-5.684183790642117e-07,-1.4343238451719582e-06,-9.954663266872288e-07,-9.764746124934514e-07,1.8178231839305798e-07,-1.893413047675056e-07
-3.125717723422788e-07,7.715907567181601e-07,-4.368444446458966e-06,-8.815359788821587e-06,-3.3344879132705848e-06,-1.654064126389503e-07,-4.531568542560951e-07,-3.816721781797818e-06,1.6030977085320856e-05,-2.8332629266547216e-07,-3.190029377791742e-07,-7.380954919092789e-07,-5.607348045634269e-07,-1.414418151744979e-06,-9.87985607864872e-07,-9.468812454014908e-07,1.7437680343510928e-07,-1.894418717118178e-07
-3.142179204847348e-07,7.487103634061305e-07,-4.275154218723156e-06,-8.853982341720622e-06,-3.3398052881898335e-06,-1.726234169052345e-07,-4.5373692506325393e-07,-3.6834406918701875e-06,1.0676127082839387e-05,-2.9875435713419556e-07,-3.4184359335369815e-07,-7.540086023257699e-07,-5.569913362216662e-07,-1.388032873918787e-06,-9.804167933545068e-07,-9.219658404556237e-07,1.6904205899363914e-07,-1.9298819006090827e-07
-3.214989076140832e-07,7.244036903756107e-07,-2.3372420967445077e-06,-7.001851015691956e-06,-3.37743898207958e-06,-1.821656615589728e-07,-4.3157325717201334e-07,-3.6109248691620754e-06,6.329386187918914e-06,-3.1237357214467585e-07,-3.631102184335461e-07,-7.698662988630795e-07,-5.577616823193048e-07,-1.3621298944752277e-06,-9.757331936510779e-07,-9.040417144668849e-07,1.691752560296763e-07,-2.0082715814258767e-07
-3.3174191376589427e-07,7.072359159537218e-07,8.945943183493103e-07,-3.7107956503865153e-06,-3.3710901222795274e-06,-1.9539039705395548e-07,-3.9390256042060884e-07,-3.7406970085915337e-06,2.675759502809061e-06,-3.2234733674702265e-07,-3.807822231254449e-07,-7.845318940906614e-07,-5.652248581973392e-07,-1.3420194218519242e-06,-9.773098430613855e-07,-8.942009467120221e-07,1.7613117110603618e-07,-2.1368273125369502e-07
-3.429860031734409e-07,7.037849923193897e-07,4.506339762507451e-06,1.866956718078028e-07,-3.3429360886289968e-06,-2.1356246821485437e-07,-3.5242402500695733e-07,-3.7311173733582136e-06,-7.979969841436533e-07,-3.283422912737954e-07,-3.950407866863537e-07,-7.980756107912239e-07,-5.815937961797741e-07,-1.3335183617314816e-06,-9.8761368298825e-07,-8.927149069234871e-07,1.8933122793427312e-07,-2.3189618946983655e-07
-3.530974080917208e-07,7.144329293380155e-07,7.592470946209422e-06,3.815878722662234e-06,-3.2335677315779193e-06,-2.364461956131195e-07,-3.200802260950604e-07,-3.537242698626885e-06,-2.6798531207193298e-06,-3.291480584287184e-07,-4.0761491960849093e-07,-8.092918471677923e-07,-6.03681576867371e-07,-1.3411497354995555e-06,-1.0069746380754592e-06,-8.993534758156571e-07,2.079585821335095e-07,-2.542403410245604e-07
-3.586509593554197e-07,7.361168035429222e-07,9.614075006815232e-06,6.600069824538223e-06,-2.9940511580922274e-06,-2.613190539022554e-07,-3.0746720229512507e-07,-3.2767691840445363e-06,-3.329775818570836e-06,-3.2112703356661893e-07,-4.200189693010715e-07,-8.138735829592861e-07,-6.33335697330386e-07,-1.3655654348975295e-06,-1.0332726496588749e-06,-9.135102232336904e-07,2.3234410573203805e-07,-2.777441306386528e-07
-3.5473716514830467e-07,7.650297446639194e-07,1.059550256093517e-05,8.38675790016475e-06,-2.843409408609006e-06,-2.8389673255263923e-07,-3.209422050369478e-07,-3.069663862374876e-06,-2.7340411557435856e-06,-2.999654711509309e-07,-4.3234033200259664e-07,-8.056921702135014e-07,-6.689118092171058e-07,-1.4033036631996262e-06,-1.0627440475304042e-06,-9.343076441497042e-07,2.6322211489098474e-07,-2.991578875607022e-07
-3.375104158154683e-07,7.953137449059089e-07,1.1027922773864571e-05,9.296956959491942e-06,-2.7496959903819384e-06,-3.009328136780624e-07,-3.6293628298085976e-07,-2.906038856283706e-06,-8.771505161795544e-07,-2.641722292490518e-07,-4.431874074005624e-07,-7.810384468390802e-07,-7.084078758210598e-07,-1.4479528886094044e-06,-1.0911470564478691e-06,-9.60590473971016e-07,2.9959984344692976e-07,-3.164805542267246e-07
-3.075669021753141e-07,8.201740784636487e-07,1.148513063752655e-05,9.46153414185364e-06,-2.663115315237624e-06,-3.122808271980556e-07,-4.330329028867989e-07,-2.756754778800274e-06,1.4080469013893782e-06,-2.1662049277487117e-07,-4.502106057405613e-07,-7.380274564061708e-07,-7.527016616065207e-07,-1.491681457632542e-06,-1.114242623739719e-06,-9.900656346943107e-07,3.3779975901100173e-07,-3.290392034785289e-07
-2.706367218920494e-07,8.342674554280417e-07,1.2218031617091392e-05,8.885807598330579e-06,-2.639669747696627e-06,-3.2044248001244024e-07,-5.280495308442056e-07,-2.554342253725052e-06,3.9239473308212384e-06,-1.6276415213163039e-07,-4.506470479532284e-07,-6.776678258038447e-07,-7.990711866603445e-07,-1.5244200883812427e-06,-1.1276546572044407e-06,-1.0180052262529197e-06,3.7273307594615524e-07,-3.3628799698526167e-07
-2.351881045576196e-07,8.376504612208949e-07,1.3066110994767342e-05,7.5545243815075494e-06,-2.5582559316370315e-06,-3.286257519399231e-07,-6.41137675029595e-07,-2.2455196096224703e-06,6.2869974030300325e-06,-1.0779298960106313e-07,-4.421340821306671e-07,-6.024701231784096e-07,-8.426769328148578e-07,-1.537622227515187e-06,-1.1272495413138969e-06,-1.0371050771318063e-06,3.9980088763243186e-07,-3.3723967761959096e-07
-2.089783191866821e-07,8.358495015944124e-07,1.3648499200355304e-05,5.653951372961733e-06,-2.3843079686876174e-06,-3.3937489358969223e-07,-7.619313800256854e-07,-2.034787971700821e-06,8.13456662470682e-06,-5.573673041503057e-08,-4.240993284660717e-07,-5.184976860946619e-07,-8.776145175231944e-07,-1.526957059833503e-06,-1.1109084945974364e-06,-1.0398133871217463e-06,4.1575470596861587e-07,-3.314577408619233e-07
-1.9730720073192796e-07,8.372956420471686e-07,1.370542099376603e-05,3.6708088204827947e-06,-2.2885404647823586e-06,-3.548412185266412e-07,-8.805135246299708e-07,-1.8917306281857117e-06,9.03690030293125e-06,-1.0763983991475379e-08,-3.991067701358939e-07,-4.352523873549401e-07,-8.987863161639953e-07,-1.4953145811268506e-06,-1.0807736105310076e-06,-1.022382185542825e-06,4.1881777327958324e-07,-3.2061882151559386e-07
-2.0309503104419255e-07,8.470548569228149e-07,1.3275373693484747e-05,2.2492284275553973e-06,-2.231497814850746e-06,-3.767782012416085e-07,-9.872388843200964e-07,-1.83869429520223e-06,8.673739131247807e-06,2.1916042732987177e-08,-3.7281298713449326e-07,-3.635307207620255e-07,-9.061443949492515e-07,-1.4534873682215216e-06,-1.0435914924318808e-06,-9.87695444457337e-07,4.0902829091597216e-07,-3.0845191821956847e-07
-2.2760103595404846e-07,8.631232563773669e-07,1.2619966491260842e-05,1.900766084931495e-06,-2.116836323446909e-06,-4.063944195548351e-07,-1.0795362453357758e-06,-1.8011470616518583e-06,7.184202227368993e-06,3.7934911213089663e-08,-3.5175179079075575e-07,-3.1227282126757204e-07,-9.019648096597626e-07,-1.41508422833729e-06,-1.0077565416085747e-06,-9.443433270643534e-07,3.8867062268403853e-07,-2.9878870388069186e-07
-2.6967208643172936e-07,8.78680131280666e-07,1.2023208348093654e-05,2.7389712706572964e-06,-2.090044287182388e-06,-4.4304932959948353e-07,-1.1597854152885067e-06,-1.7058222909668106e-06,5.10932446783219e-06,3.743181854591037e-08,-3.400130946900553e-07,-2.8393233352397286e-07,-8.946873871083634e-07,-1.3896340513335764e-06,-9.786550512903503e-07,-9.032537244923815e-07,3.6198532697554173e-07,-2.9337621655616483e-07
-3.255723036356823e-07,8.865841664935566e-07,1.1578484177576487e-05,4.407736325638418e-06,-2.0268453372352916e-06,-4.832944646183759e-07,-1.2306666898022733e-06,-1.6760729762042393e-06,3.4192030334874367e-06,2.6626363229635353e-08,-3.373116851475074e-07,-2.749819178416351e-07,-8.908833993313934e-07,-1.3781278711745078e-06,-9.561488398848372e-07,-8.712976430990942e-07,3.33901169175988e-07,-2.915958398803685e-07
-3.898504690688524e-07,8.8326867628046e-07,1.112241431704145e-05,6.27490983726883e-06,-1.930219586220643e-06,-5.220550838018711e-07,-1.2937504710803303e-06,-1.5134362393192982e-06,2.941862035054549e-06,1.504085786662947e-08,-3.399589907334009e-07,-2.7890766242638526e-07,-8.928935904655509e-07,-1.3745087863157659e-06,-9.360888880903999e-07,-8.507692325983314e-07,3.084290861295386e-07,-2.919975459746372e-07
-4.573559658712262e-07,8.69523429605718e-07,1.036117371677594e-05,7.75230716377864e-06,-1.907355832255645e-06,-5.549591882906767e-07,-1.3476649005967321e-06,-1.4626292287343101e-06,4.014086998327886e-06,1.0671144004882612e-08,-3.436115767289146e-07,-2.882689395063322e-07,-9.005330614253665e-07,-1.3709580457034776e-06,-9.140774365002968e-07,-8.408054359041778e-07,2.878505009607602e-07,-2.9377524257305826e-07
-5.227668600724716e-07,8.486563568248814e-07,9.085470728847795e-06,8.50084619636923e-06,-1.918600981491396e-06,-5.805336690310181e-07,-1.3890605956458595e-06,-1.4585864183739093e-06,6.319558872342983e-06,1.7364681327955412e-08,-3.4533796311287896e-07,-3.0187209918607623e-07,-9.152071361757009e-07,-1.3620620570023818e-06,-8.88238432466753e-07,-8.38501527885555e-07,2.7324950268084787e-07,-2.970132362233136e-07
-5.832313793039769e-07,8.241575837713379e-07,7.297553011452753e-06,8.489356231319036e-06,-1.9358890786981143e-06,-6.007475252653482e-07,-1.4167029064821994e-06,-1.426756253677139e-06,9.129239750800676e-06,3.529273120231377e-08,-3.4387896191389013e-07,-3.1974324081695727e-07,-9.325311713012372e-07,-1.3458440724524127e-06,-8.596984519027472e-07,-8.395348090277499e-07,2.654101115821497e-07,-3.015657411694941e-07
-6.363630378517753e-07,7.983840763361496e-07,5.246576240932876e-06,7.975174590820795e-06,-1.9542800290562205e-06,-6.19917899406963e-07,-1.431498600077017e-06,-1.4778735343193308e-06,1.1592508888238323e-05,6.424740562915407e-08,-3.3908710468770216e-07,-3.415914558171574e-07,-9.480412305215011e-07,-1.3229312440702272e-06,-8.305657068445184e-07,-8.406746117164074e-07,2.6470014469031965e-07,-3.066086844475116e-07
-6.795158926799675e-07,7.700179407572514e-07,3.382323250257364e-06,7.413823021619408e-06,-1.9913410510884445e-06,-6.426715556595479e-07,-1.434546143307336e-06,-1.4888242284082007e-06,1.2967742629706192e-05,1.0217999565616462e-07,-3.3171708620312186e-07,-3.720303021215653e-07,-9.592323439846305e-07,-1.2981135049748212e-06,-8.064277612492721e-07,-8.398696564405801e-07,2.701598655722596e-07,-3.102302375249222e-07
-7.125546252474244e-07,7.394934954590026e-07,2.1661070245221225e-06,7.271725019623632e-06,-2.0355748592833075e-06,-6.722365630843086e-07,-1.4465291417141714e-06,-1.5008642416339695e-06,1.2873344242559563e-05,1.449919000266684e-07,-3.232127576199283e-07,-4.119808865433987e-07,-9.632408470370772e-07,-1.2784902957705122e-06,-7.926619735038892e-07,-8.370407190002325e-07,2.792305998516641e-07,-3.116140341153448e-07
-7.347218335334976e-07,7.025951563232615e-07,1.797946779810146e-06,7.766517690930908e-06,-2.1394639831199025e-06,-7.092454204456316e-07,-1.4527921619198868e-06,-1.5409306864095087e-06,1.1415692153437379e-05,1.8791872639271522e-07,-3.1464855773965996e-07,-4.600369625119283e-07,-9.621380444592121e-07,-1.2712059873545108e-06,-7.929632641385842e-07,-8.341737705750341e-07,2.887087283542697e-07,-3.108008090523381e-07
-7.467805094401905e-07,6.542914092712378e-07,2.068480884813217e-06,8.683866148358488e-06,-2.3172246438218445e-06,-7.509365095800839e-07,-1.4301561705385117e-06,-1.7395359402611072e-06,9.177892825464163e-06,2.273314988029092e-07,-3.0575957935723664e-07,-5.118750713759996e-07,-9.616090500782525e-07,-1.2814052266647907e-06,-8.084868467679234e-07,-8.351423810051026e-07,2.9595595446118694e-07,-3.08277971826224e-07
-7.501028608276081e-07,5.914546886646911e-07,2.497092572458094e-06,9.451154158628684e-06,-2.4998877288825236e-06,-7.921219616895731e-07,-1.4045403706284281e-06,-2.023108903667733e-06,6.988368899328779e-06,2.626592043710551e-07,-2.9277981124071587e-07,-5.577075173218956e-07,-9.66116781490182e-07,-1.3096784547666998e-06,-8.355676664714596e-07,-8.431509255836279e-07,2.9921003960661887e-07,-3.0529095050382913e-07
-7.462077761943747e-07,5.161789653473846e-07,2.6758794482828934e-06,9.497859720670011e-06,-2.528334544458502e-06,-8.275298061209562e-07,-1.397418383563358e-06,-2.245056360012067e-06,5.602848596998299e-06,2.9552413925353e-07,-2.7283847828571404e-07,-5.865968971557347e-07,-9.776513062046844e-07,-1.3518911507555678e-06,-8.670507744746039e-07,-8.59307909002814e-07,2.972795897723155e-07,-3.030091899048354e-07
-7.381832594335912e-07,4.36472974026186e-07,2.5465115115737624e-06,8.644457964696341e-06,-2.5493843029232122e-06,-8.542727130960912e-07,-1.4011784891685367e-06,-2.3400963764595156e-06,5.478920062732982e-06,3.28272694547364e-07,-2.4459804222552914e-07,-5.894423555224697e-07,-9.977029313446835e-07,-1.400351782399498e-06,-8.944092808123947e-07,-8.822938408711926e-07,2.899302262826457e-07,-3.0183727136834e-07
-7.288342886074963e-07,3.5907197116300525e-07,2.3961255396529195e-06,7.179731297025192e-06,-2.5630661227450407e-06,-8.73779216867183e-07,-1.3969737162735017e-06,-2.3880018418569056e-06,6.696018131429265e-06,3.63182395984928e-07,-2.0802207205957233e-07,-5.6275103679378e-07,-1.0252742149845797e-06,-1.4455867506771819e-06,-9.103272574464895e-07,-9.074171650635176e-07,2.7916162264620363e-07,-3.007446607686472e-07
-7.201451301371511e-07,3.2505070360079494e-07,2.618285069597248e-06,5.555468037876385e-06,-2.5593646595406622e-06,-8.873907267339653e-07,-1.38944287398155e-06,-2.4769294516676214e-06,8.961078439264801e-06,4.0296766972282825e-07,-1.6710192551536952e-07,-5.084981888646344e-07,-1.0565671910524877e-06,-1.4778129400089178e-06,-9.097949130119444e-07,-9.28576625253919e-07,2.6976553287904243e-07,-2.978019433046241e-07
-7.129514658868294e-07,3.33909611924357e-07,3.4490808205146598e-06,3.97527504860593e-06,-2.656170515370575e-06,-8.974017530929009e-07,-1.3820006282892243e-06,-2.6048187954326447e-06,1.1703799036781954e-05,4.497994621905637e-07,-1.2547507519098434e-07,-4.3493446567237437e-07,-1.085711274237723e-06,-1.4891096710152846e-06,-8.91597010441625e-07,-9.398247964304971e-07,2.6773961347405905e-07,-2.9120006911499256e-07
-7.049489704701363e-07,3.072382148523288e-07,4.820494236901288e-06,2.2419589635846486e-06,-2.7911779921606985e-06,-9.069621745968156e-07,-1.3735433984248312e-06,-2.7382202098695575e-06,1.4272202130872293e-05,5.036289224885663e-07,-8.730606235712028e-08,-3.520121975936794e-07,-1.1067860157421026e-06,-1.4748401587735863e-06,-8.580513403938334e-07,-9.368743678538518e-07,2.7737085873072695e-07,-2.80480955107839e-07
-6.957454820768033e-07,2.7575075352288577e-07,6.387676893703157e-06,-1.2516628206510238e-08,-2.7298806768673157e-06,-9.192324704594573e-07,-1.3640478848939137e-06,-2.6862052972298316e-06,1.6159576728502587e-05,5.61986046957257e-07,-5.635519654520906e-08,-2.72550109913231e-07,-1.1138616772260897e-06,-1.4340599670852692e-06,-8.132492278710223e-07,-9.166974424447164e-07,2.992411624403285e-07,-2.664586663879904e-07
-6.819598668570316e-07,2.837058893728254e-07,7.740679817304293e-06,-2.9383455260978167e-06,-2.5540382481152412e-06,-9.372603507720947e-07,-1.3538033421468125e-06,-2.4973082466544078e-06,1.712661088191043e-05,6.21225371246352e-07,-3.356579402671054e-08,-2.2741714166601106e-07,-1.1050926849768722e-06,-1.3693572772463526e-06,-7.645027062775057e-07,-8.78084154596726e-07,3.301998791654694e-07,-2.501362163474195e-07
-6.728182739191881e-07,3.311387460030935e-07,8.665438471215702e-06,-6.2572188520620225e-06,-2.534098878925914e-06,-9.616452213926905e-07,-1.3427274655272004e-06,-2.323868103655272e-06,1.715494943504714e-05,6.778858905743916e-07,-1.6922117520906494e-08,-2.060878992385005e-07,-1.0829842813766227e-06,-1.2882423569814174e-06,-7.17721150736681e-07,-8.206584940924624e-07,3.6448063567308946e-07,-2.3261515963793883e-07
-6.689174279272121e-07,3.809321887238717e-07,9.208478866944611e-06,-9.375995081030876e-06,-2.436410245080373e-06,-9.901144811536045e-07,-1.3301983792143537e-06,-2.2600759163805593e-06,1.6347449664988063e-05,7.323766558931313e-07,-3.4172605314207687e-09,-2.0336557727623904e-07,-1.0415730263278904e-06,-1.203216457005199e-06,-6.784712084061426e-07,-7.544109174425554e-07,3.951892201978919e-07,-2.1468583542257992e-07
-6.656361271750026e-07,4.220987013343906e-07,9.489764276267866e-06,-1.1646054127009749e-05,-2.2733816345387877e-06,-1.016215939237221e-06,-1.315949379246252e-06,-2.23030941063703e-06,1.489004226524376e-05,7.744162257306701e-07,9.581459360227451e-09,-2.265830726907318e-07,-9.892919576915803e-07,-1.1267940624600026e-06,-6.524303814993015e-07,-6.885481833881744e-07,4.1642048280710934e-07,-1.9774222634417722e-07
-6.617928530061789e-07,4.829880891524192e-07,9.50343252897129e-06,-1.2572093784330876e-05,-2.337398126228957e-06,-1.0352403800690652e-06,-1.301928392941629e-06,-2.3163082768902893e-06,1.2992365452630104e-05,7.976499509700705e-07,2.076219644537242e-08,-2.443870298094966e-07,-9.372823816013091e-07,-1.0706064311514466e-06,-6.423094122042801e-07,-6.310613329537687e-07,4.2587863418494236e-07,-1.837721077941215e-07
-6.440273187097874e-07,5.243186343313532e-07,9.107803265320351e-06,-1.1915789794406538e-05,-2.417383760691709e-06,-1.044773934179704e-06,-1.292380020632618e-06,-2.439021360010429e-06,1.080885242198878e-05,7.981694991020235e-07,2.8407546718169927e-08,-2.567581666447858e-07,-8.943028271728528e-07,-1.0400780132528552e-06,-6.486273249700946e-07,-6.129921208883495e-07,4.2639274387604424e-07,-1.7385136072892082e-07
-6.393842209369329e-07,5.452654164541388e-07,8.150364258230065e-06,-9.754513236809533e-06,-2.3694781556554053e-06,-1.045696328799688e-06,-1.292145920382742e-06,-2.5001078740444523e-06,8.391092508465347e-06,7.724475296322374e-07,3.27833044593092e-08,-2.967171893222165e-07,-8.696213932970258e-07,-1.0428058964482812e-06,-6.68792388924431e-07,-6.455034488153075e-07,4.2467257818826063e-07,-1.6806203972797704e-07
-6.473310913531091e-07,5.572465530946314e-07,6.605995423780162e-06,-6.543110847276211e-06,-2.18961149360504e-06,-1.0445370427721938e-06,-1.3046060263655314e-06,-2.3998467110980017e-06,5.797413508074247e-06,7.229073958221144e-07,4.252822269987808e-08,-3.5903251103553405e-07,-8.675929776265759e-07,-1.071395381372631e-06,-6.972260208454933e-07,-6.416877230192651e-07,4.2784419778021097e-07,-1.6477266532423812e-07
-6.884244238530768e-07,5.56725683756802e-07,4.667748502031584e-06,-3.0942655736411863e-06,-1.976613091645993e-06,-1.0463237602412907e-06,-1.3301422599692054e-06,-2.260473692118203e-06,3.256091741082306e-06,6.528509223892965e-07,5.122966761404306e-08,-4.34925673520068e-07,-8.852350327521126e-07,-1.1111661229816085e-06,-7.259323656622915e-07,-7.157112764572169e-07,4.403499488885316e-07,-1.617814795871109e-07
-7.923636374806724e-07,5.622169952651093e-07,2.7306074552911707e-06,-3.571213467002464e-07,-1.8165639160989378e-06,-1.0561337319042208e-06,-1.3655939144891546e-06,-2.1071153527867355e-06,1.1430683105365612e-06,5.673777522398457e-07,6.665606010610506e-08,-5.42885228633707e-07,-9.192195016262214e-07,-1.145377804159976e-06,-7.459642261503122e-07,-8.272336003168634e-07,4.630787817583289e-07,-1.556434198304555e-07
-8.408137521645671e-07,5.841472501020993e-07,1.2393883403798155e-06,1.0121773853225159e-06,-1.7474081440916323e-06,-1.07804749889713e-06,-1.4014843066973365e-06,-1.8668605877610527e-06,-2.0975641034428686e-07,4.661197004387763e-07,9.465766489517594e-08,-5.688068635281856e-07,-9.61801764677652e-07,-1.153370914397775e-06,-7.48660893230138e-07,-9.150612776765548e-07,4.939441127628812e-07,-1.449039231302614e-07
-8.667468575615868e-07,6.132939038503075e-07,5.01892856003387e-07,1.0517436521619228e-06,-1.5957317222465642e-06,-1.1039962049649826e-06,-1.4312302881766984e-06,-1.6340527468773767e-06,-6.37609311492094e-07,3.686690125825311e-07,1.1563300649981697e-07,-5.416621219481836e-07,-9.788851089475762e-07,-1.1229437118449494e-06,-7.283497916592768e-07,-9.23643356379143e-07,5.28225830625906e-07,-1.263578085697404e-07
-8.819366254878491e-07,6.633663664837545e-07,5.512607161460195e-07,5.020015764652045e-07,-1.6737727878264124e-06,-1.1406534322614274e-06,-1.4445200435056497e-06,-1.5991101427794493e-06,-1.7566984096836675e-07,2.820935969505082e-07,1.4051638478112712e-07,-6.150731085056633e-07,-9.398238330908799e-07,-1.0545324043601466e-06,-6.857795957487319e-07,-8.922840242852534e-07,5.589823515107149e-07,-1.0046770023069937e-07
-9.189344370580225e-07,7.093591382646592e-07,1.158951952727894e-06,3.1211190238765265e-07,-1.7809887355340071e-06,-1.1916417588137245e-06,-1.433570607855975e-06,-1.6869236493423822e-06,9.768486066900617e-07,2.067755808488357e-07,1.30477538990509e-07,-6.980578401250685e-07,-9.349369847994873e-07,-9.631737266001213e-07,-6.282025902381491e-07,-8.390388424251415e-07,5.790823127811406e-07,-7.293846529765597e-08
-9.74184849013906e-07,7.041332117177094e-07,2.001818222182043e-06,1.0126221743359797e-06,-1.8913911838807594e-06,-1.250298809204941e-06,-1.3984409245275552e-06,-1.7970962267328578e-06,2.472486444110747e-06,1.4581983980541194e-07,9.363011920146237e-08,-6.905773727280245e-07,-8.90892346291997e-07,-8.737906254739849e-07,-5.667862990464181e-07,-8.220198693918993e-07,5.844211043155969e-07,-4.9983268146821195e-08
-1.0031426792815954e-06,6.629472306582549e-07,2.863034312942646e-06,2.4266615440037886e-06,-2.0190388938359474e-06,-1.3002462252792737e-06,-1.343311209645233e-06,-2.006134294328918e-06,3.816968307640423e-06,9.570899236729291e-08,4.5489535313230534e-08,-6.527236270568647e-07,-8.388106778753331e-07,-8.104596224624245e-07,-5.120640368181214e-07,-7.762250370099062e-07,5.757413161954293e-07,-3.7737940963795894e-08
-1.0020680560208079e-06,6.062988167552807e-07,3.772448622755207e-06,3.8208875430264346e-06,-2.129682909990778e-06,-1.3395325393774193e-06,-1.2765585009550004e-06,-2.1926412409943257e-06,4.515656738451417e-06,5.511977245082312e-08,1.2284127114570831e-08,-5.810260657335738e-07,-7.815756556542654e-07,-7.892683782867115e-07,-4.6856630607097116e-07,-6.803137603683561e-07,5.575704041043664e-07,-3.429972043013982e-08
-1.0028210652193532e-06,5.778358282521463e-07,4.8203698074870125e-06,4.298687663437779e-06,-2.288163340987904e-06,-1.3387681646260737e-06,-1.2066386694366294e-06,-2.383934351672278e-06,4.330725673733732e-06,2.1331844602626526e-08,-9.235600643497517e-09,-5.392179858183285e-07,-7.312617688441931e-07,-8.076311265446885e-07,-4.316639908877833e-07,-5.76503583562444e-07,5.360342553618998e-07,-4.063776480891825e-08
-9.886349993229654e-07,5.622805730158464e-07,6.047681328068942e-06,3.2345519511913115e-06,-2.505980394672862e-06,-1.2811492265942973e-06,-1.1392639394823514e-06,-2.6645658202038427e-06,3.4410072826539295e-06,-5.6748777402248786e-09,-2.8604614214818818e-08,-4.916471373469405e-07,-6.868828248457729e-07,-8.38634421643233e-07,-3.932542233204982e-07,-4.758334545823825e-07,5.160181594674869e-07,-3.561949578647556e-08
-9.720119942151776e-07,5.570517419978851e-07,7.37882903808773e-06,5.974227693390521e-07,-2.7070730282459054e-06,-1.2729150173515812e-06,-1.0737831306880658e-06,-2.9384830311240843e-06,2.3396822443296138e-06,-4.0813766693321146e-08,-5.09030826319451e-08,-4.5729751534564237e-07,-6.343628839144119e-07,-8.62559996517527e-07,-3.473551293504377e-07,-3.6717399767499173e-07,5.013243348318659e-07,3.4644142024128463e-09
-9.917844134370157e-07,5.069261949058775e-07,8.636813873892773e-06,-2.988085284932934e-06,-2.807399251166878e-06,-1.259186188151804e-06,-1.005975742172522e-06,-3.112179395993823e-06,1.5538988467622237e-06,-8.881168222105154e-08,-1.1776057960863923e-07,-4.25847996015124e-07,-5.611193156752383e-07,-7.761881101396056e-07,-2.534170729215247e-07,-2.6219196574092267e-07,4.960404462199463e-07,5.677258216039709e-08
-9.696193689224193e-07,4.4012290382925425e-07,9.649878161282534e-06,-6.480972928458529e-06,-2.995858993933994e-06,-1.2158745382633818e-06,-9.301205860669695e-07,-3.3262857876416025e-06,1.3379311188224367e-06,-1.4888476040416506e-07,-1.9021388951703718e-07,-3.9839367163200864e-07,-5.09726225653193e-07,-6.35892091372046e-07,-1.6469882600390087e-07,-1.4236351997756021e-07,5.027210397217172e-07,1.2762073291903878e-07
-9.253773792086264e-07,3.6176635482543334e-07,1.0346303134528325e-05,-8.81064505390853e-06,-3.207728634337336e-06,-1.1793777296263094e-06,-8.421802501265132e-07,-3.3937588565948664e-06,1.5703539410868166e-06,-2.2138270572823555e-07,-2.523327409409621e-07,-3.553431609572164e-07,-4.889477710942321e-07,-4.967201883897364e-07,-1.4106223825542579e-08,-1.0533599741352096e-08,5.216853146118826e-07,1.7798489142674236e-07
-8.741708581187561e-07,2.654519719109619e-07,1.061385187894153e-05,-9.242251927925231e-06,-3.359405142901059e-06,-1.1319945962384351e-06,-7.433796183914512e-07,-3.4872655637364597e-06,1.9300476753267476e-06,-2.986794990368531e-07,-3.191247496645027e-07,-3.019340105550697e-07,-4.516793042147189e-07,-4.006377901467802e-07,1.472255751318148e-07,1.3011300958002656e-07,5.502533761645164e-07,2.381950498221362e-07
-8.213260454444501e-07,1.8946613232785828e-07,1.0234598541791462e-05,-7.630689561120892e-06,-3.5309223880736756e-06,-1.0949402822360381e-06,-6.390013396540954e-07,-3.6380020190208103e-06,2.1458304715383555e-06,-3.703457900418765e-07,-3.6689985604583204e-07,-2.4082791720511187e-07,-3.5100939112561073e-07,-1.5798852283377528e-07,3.006831112624579e-07,2.782433549025246e-07,5.852732590393459e-07,3.2823893243528533e-07
-7.537906877880166e-07,1.3460642559920536e-07,9.016081339816982e-06,-4.478217119820299e-06,-3.6739654555778785e-06,-1.0389004618855105e-06,-5.354805787531527e-07,-3.800571447671663e-06,2.1243639926930036e-06,-4.224943272789334e-07,-3.975728174972419e-07,-2.1471497507766354e-07,-2.5556877464632945e-07,1.0070666935088e-07,3.975222964770243e-07,4.161209969769557e-07,6.214389618319857e-07,3.950391873702227e-07
-6.650746931580009e-07,1.0224495846385338e-07,6.934592967514512e-06,-7.167515041384335e-07,-3.855474191167613e-06,-9.838059235432727e-07,-4.382109259895507e-07,-3.943752842725686e-06,1.9384746403143107e-06,-4.435080639721856e-07,-4.141009234872146e-07,-1.5805902359333846e-07,-2.0484480812201472e-07,2.7330514396367204e-07,4.70750081594446e-07,5.332039872970001e-07,6.510124866698135e-07,4.355613412052956e-07
-5.705813467410396e-07,8.05525593294986e-08,4.269309889124626e-06,2.7167618131890237e-06,-3.9811405458468245e-06,-9.20119468174288e-07,-3.4841211927987074e-07,-4.071739498331431e-06,1.7363469213993668e-06,-4.2626170668567227e-07,-4.247066927384142e-07,-7.448988349671719e-08,-1.046710337550208e-07,3.7383269624249086e-07,5.150537425793409e-07,6.282813012289497e-07,6.865043791598755e-07,4.736271452207794e-07
-5.105093093450608e-07,8.633867118006678e-08,1.6956148428148827e-06,5.238329674213646e-06,-4.07167065238614e-06,-8.78972284711691e-07,-2.667691194229852e-07,-4.147478197449272e-06,1.6496587651769476e-06,-3.766304877186047e-07,-4.368577813539329e-07,5.066742307549106e-09,-1.0807983396879211e-08,4.2668990222505526e-07,4.987300709660876e-07,7.038909509782327e-07,7.36506505509677e-07,5.053250362229781e-07
-4.6153208536535424e-07,1.1683578666789071e-07,-1.2087376867343154e-07,6.686491148292442e-06,-4.330079666932157e-06,-8.088346420692911e-07,-1.93565642715295e-07,-4.304453189652829e-06,1.75237282138376e-06,-3.076296707115219e-07,-4.4689920330839165e-07,7.891322997664288e-08,1.4290478289355446e-08,4.3906477859757294e-07,4.707122103117756e-07,7.65197257987415e-07,7.939385269426412e-07,5.061591513887319e-07
-4.1747514058840065e-07,1.6009802692841365e-07,-6.236196440893729e-07,7.177100248515941e-06,-4.493153076687281e-06,-7.047135851407072e-07,-1.2731208582795447e-07,-4.46106144010187e-06,2.104065837701159e-06,-2.304634731231729e-07,-4.693877606055489e-07,1.169056726685048e-07,2.8058924417583923e-08,4.331341544660834e-07,4.3523154985478687e-07,8.196996234598867e-07,8.448076818654715e-07,4.896164315534629e-07
-3.8214164807000113e-07,2.1564689564536328e-07,8.327380335692594e-07,6.942933033913761e-06,-4.593070653144945e-06,-6.128091847430924e-07,-6.529591885299383e-08,-4.466585241754283e-06,2.8042068208730885e-06,-1.5279995375632306e-07,-4.673681827524239e-07,1.0825468264680095e-07,5.129065310383694e-08,4.2947738004032044e-07,3.9849469714852057e-07,8.699068448538067e-07,8.823973743928983e-07,4.7010808127619256e-07
-3.4016365678802733e-07,2.741340601452485e-07,4.1636411811094125e-06,6.213899721296589e-06,-4.621772396972184e-06,-5.380753880273966e-07,-4.565829421600278e-09,-4.516769119385026e-06,3.9314211569338465e-06,-7.815480473054115e-08,-4.310775971596964e-07,1.1652521524813656e-07,8.116888070078132e-08,4.052343581487816e-07,3.773927968820997e-07,9.157701670266641e-07,9.181212763764831e-07,4.612373616318691e-07
-2.921613364895864e-07,3.336475746895859e-07,9.517125754021156e-06,5.1144286099735615e-06,-4.631463574183841e-06,-5.053857703762633e-07,5.5123191988282906e-08,-4.593992627184796e-06,5.405282509523782e-06,-9.394636154170732e-09,-3.806181839618009e-07,1.1178263125052177e-07,1.0457424176083503e-07,3.7240686789423095e-07,3.5176133337942024e-07,9.346549600659573e-07,9.439691231326197e-07,4.6130787108784997e-07
-2.541878320888967e-07,3.9366910110507515e-07,1.6416021474784916e-05,3.658730522242056e-06,-4.660501621856669e-06,-4.809599874663471e-07,1.1028818854966044e-07,-4.597381748795222e-06,6.9547222536157555e-06,4.9964097860436705e-08,-3.2006247935136125e-07,7.142330375258878e-08,1.3481343424324075e-07,3.370361007893879e-07,3.131030762270559e-07,9.329391874797962e-07,9.586157619146312e-07,4.603468826706194e-07
-2.2163825118219115e-07,4.5656986460866046e-07,2.3659384111722486e-05,1.8892303147085292e-06,-4.697477885418287e-06,-4.79197772573349e-07,1.551198346899229e-07,-4.620608512402178e-06,8.279900418701191e-06,9.761026462886758e-08,-2.722249837601461e-07,4.560974240649938e-08,1.6421627901550443e-07,2.958142656356908e-07,2.853959369901248e-07,9.102178838130132e-07,9.712106126912357e-07,4.5317767493218815e-07
-1.9781390180243165e-07,5.155736634582432e-07,2.882482980315145e-05,1.1146112968531163e-08,-4.7125156463721655e-06,-4.963406962781585e-07,1.8562789274820075e-07,-4.628258452558802e-06,9.256600730135772e-06,1.3355855554626503e-07,-2.4195732789555075e-07,1.955305130896357e-08,1.820696807283336e-07,2.45709173190284e-07,2.5244536564461614e-07,8.708181573388612e-07,9.822719173518903e-07,4.496498882298885e-07
-1.793392682765378e-07,5.712812388667915e-07,2.869933304141769e-05,-1.6426533587753038e-06,-4.651183608021692e-06,-5.001560392321247e-07,2.0186305877848708e-07,-4.496741523805568e-06,9.95439050291004e-06,1.5867410333389137e-07,-2.180382452685706e-07,4.0973818945289624e-09,1.7900305215820877e-07,1.8661862639812778e-07,2.2014550163746335e-07,8.147913287955787e-07,9.929499033090348e-07,4.4599193262389075e-07
-1.6053890328895118e-07,6.250971376019747e-07,2.6120828646247865e-05,-2.740752245944977e-06,-4.563063378056819e-06,-4.997479023258877e-07,2.0729308176352704e-07,-4.370547301156385e-06,1.047014698950536e-05,1.7231214565258763e-07,-1.8741290521206916e-07,1.473705052313875e-08,1.6128343221606983e-07,1.3675820282453163e-07,2.0190291521923787e-07,7.557643776301216e-07,1.0004005138275034e-06,4.3553548370818934e-07
-1.4648818665759236e-07,6.726502456828696e-07,2.3925192049324867e-05,-3.012762090861085e-06,-4.406498334370005e-06,-5.005977467889086e-07,2.0638763383660383e-07,-4.263105055839245e-06,1.0762087669455852e-05,1.7413935100802894e-07,-1.6002866660975362e-07,2.8870421044847865e-08,1.3125572148759337e-07,7.188163808443668e-08,1.730163368303259e-07,6.964178414879193e-07,9.97749888160678e-07,4.1121618972500567e-07
-1.422262956157079e-07,7.108743941841106e-07,2.2708251982278352e-05,-2.3026800332232367e-06,-4.3492245452453094e-06,-5.080664344361981e-07,2.019083170545843e-07,-4.203110588031188e-06,1.0654571541947436e-05,1.6409782792976493e-07,-1.3864072990378942e-07,1.6508158037910358e-08,7.956030603077869e-08,4.642519365310656e-08,1.2866423715113525e-07,6.232678931533024e-07,9.827056991531484e-07,3.857425709517196e-07
-1.524327159935218e-07,7.359256367400637e-07,2.009038568207924e-05,-7.402494321111363e-07,-4.418488602674183e-06,-5.312583906988017e-07,1.9433534783108637e-07,-4.15167920238839e-06,1.0016234112867493e-05,1.4603854861187784e-07,-1.228746566375097e-07,-1.4899327945993132e-08,1.2690014572088687e-08,-8.884504461324786e-09,8.452779140215156e-08,5.557071461472755e-07,9.577523245870531e-07,3.677688360807234e-07
-1.7506867601039617e-07,7.464897328283188e-07,1.5028742645682444e-05,1.1301675497446096e-06,-4.462137737457161e-06,-5.677586362111028e-07,1.8084553881691303e-07,-4.148780821502988e-06,8.949395747671723e-06,1.3084981044080292e-07,-1.1555177461429633e-07,-4.274714223027728e-08,-6.401186902678679e-08,-1.2106898912673608e-07,-1.2487348680983404e-08,5.048603994889542e-07,9.289734340034751e-07,3.482748845928373e-07
-2.077711241792927e-07,7.443520316024494e-07,1.1360458401836966e-05,2.502653697839808e-06,-4.475268464960088e-06,-6.067959564089996e-07,1.6302532329171404e-07,-4.120030114926801e-06,7.796623837039987e-06,1.281846406780805e-07,-1.1161691408275111e-07,-1.141811754724609e-07,-1.3956071515787917e-07,-1.7495148572531696e-07,-9.662408798658563e-08,4.272136705460017e-07,9.031503003602182e-07,3.5141554355404196e-07
-2.452294843415294e-07,7.316574145475674e-07,7.430877333431348e-06,2.6791444077487514e-06,-4.521436370365192e-06,-6.443577489087817e-07,1.4094198317593005e-07,-4.169310049009005e-06,6.956064291083378e-06,1.4320848745960684e-07,-1.1008959286403481e-07,-1.5448539313924832e-07,-1.8291233259117953e-07,-2.4969103595368933e-07,-1.6226163760264126e-07,3.186680492386358e-07,8.84384595180409e-07,3.6844427051602186e-07
-2.86496680163288e-07,7.096992485355591e-07,2.5937271727581006e-06,1.4078073379563823e-06,-4.513628899775829e-06,-6.776750373505663e-07,1.1549985236544738e-07,-4.1827893052712806e-06,6.653677803491674e-06,1.7253510475274998e-07,-1.1160347189924719e-07,-1.8040206263386468e-07,-1.755700693396165e-07,-3.3110936796296104e-07,-2.1428733560664904e-07,3.186879486405507e-07,8.73124580282232e-07,3.717602706005886e-07
-3.3292437097273456e-07,6.799917652930781e-07,-4.452049541894359e-07,-9.54886316124133e-07,-4.605328900415284e-06,-7.035438554646099e-07,8.997074624281799e-08,-4.225147782706885e-06,6.8418315075211035e-06,2.0694434702979498e-07,-1.1774753956615372e-07,-2.0641997517727127e-07,-1.5856190049970176e-07,-3.766290937133231e-07,-2.6180373241533505e-07,3.4750183915891477e-07,8.670855854280939e-07,3.7903571209466503e-07
-3.8354549185255043e-07,6.461978432580818e-07,-1.9338274600921403e-06,-3.544629736079927e-06,-4.686395768243024e-06,-7.213726061887619e-07,6.570499472099251e-08,-4.2631496877813636e-06,7.271282441636545e-06,2.2261724076842227e-07,-1.2254193744577673e-07,-2.0031457134153876e-07,-1.365158672103925e-07,-3.9786405730704996e-07,-3.033128340090553e-07,3.6622685556897913e-07,8.626090114446898e-07,3.630356829453749e-07
-4.3720408525971387e-07,6.144542991015668e-07,-2.649141798103582e-06,-5.37925648670692e-06,-4.65191564695026e-06,-7.290105537816617e-07,4.234290510563861e-08,-4.2333209980213934e-06,7.655853671360691e-06,1.981342110544762e-07,-1.2268162992700362e-07,-2.6935587428017996e-07,-1.2286983369250117e-07,-4.3649973813022165e-07,-3.4303416168868324e-07,3.6322961695553526e-07,8.555673295397388e-07,3.1704331403938734e-07
-4.919263768805887e-07,5.909949582649443e-07,-2.5607620764905695e-06,-5.829240293469991e-06,-4.580049451392305e-06,-7.24755357765992e-07,1.675611210778259e-08,-4.231191151479631e-06,7.82093607567356e-06,1.2969621550311998e-07,-1.173549118449537e-07,-3.4125365975644733e-07,-1.2924388309199838e-07,-4.6472621632463167e-07,-4.502430694296476e-07,2.696743680764767e-07,8.418982163311511e-07,2.679398738873033e-07
-5.459194381076931e-07,5.786446562893768e-07,-2.4585567602212767e-06,-4.862169619189118e-06,-4.50888017305057e-06,-7.089687360649606e-07,-1.552349265578364e-08,-4.194217601660194e-06,7.76903978674623e-06,5.750384239223914e-08,-1.074839256043408e-07,-3.943783164566903e-07,-8.042246865069313e-08,-5.440874542372014e-07,-5.509391307187326e-07,1.0760803281619698e-07,8.185018114074901e-07,2.186716618453532e-07
-5.992239060169133e-07,5.749935076658508e-07,-2.465186866240975e-06,-2.934959569669551e-06,-4.329421720081023e-06,-6.841140891115214e-07,-5.946495438854921e-08,-4.10367217953196e-06,7.681732634408864e-06,2.843431744908934e-09,-9.936457213890639e-08,-4.55114763385844e-07,-1.988900518093221e-09,-6.256042308536082e-07,-6.407534860255285e-07,-8.397827046375108e-09,7.846868679130538e-07,1.7776882703880614e-07
-6.518052307072487e-07,5.738810443783739e-07,-2.182189057431082e-06,-6.811303673732481e-07,-4.145417261387619e-06,-6.539659442116367e-07,-1.170886251875289e-07,-4.075958215551606e-06,7.877383043071626e-06,-5.1844977552373235e-08,-9.962528232494829e-08,-5.305985544638654e-07,-4.8042793756345595e-08,-6.565935761051306e-07,-7.496629492499663e-07,-1.2122273642525416e-07,7.429811448714138e-07,1.4126968310032116e-07
-7.010851786831862e-07,5.68798326039873e-07,-9.439602457817922e-07,1.341419026121611e-06,-3.957855642843009e-06,-6.22492138576347e-07,-1.8800278174950697e-07,-3.871232043823645e-06,8.681140507620875e-06,-1.7138725425270407e-07,-1.1291725491962936e-07,-5.678509247206789e-07,-1.3180238120828165e-07,-7.362818535915447e-07,-8.5141955340728e-07,-2.148716201724682e-07,6.981531478074271e-07,1.0652880417511892e-07
-7.446103861602769e-07,5.554010664178394e-07,1.0399004453480262e-06,2.698968347175211e-06,-3.673590456497277e-06,-5.937970212433077e-07,-2.7092991839405045e-07,-3.723960727541945e-06,1.0187542940778561e-05,-2.95533334785057e-07,-1.4067317906171772e-07,-6.328539160133332e-07,-2.2500791180095723e-07,-8.818759180062967e-07,-9.923615678192334e-07,-3.2181588779017937e-07,6.549923799642869e-07,7.162536536503037e-08
-7.816928586206471e-07,5.322459581094154e-07,3.436981879312978e-06,3.0298738963521363e-06,-3.3986639597036934e-06,-5.723932212594955e-07,-3.6340017622139333e-07,-3.5897626208038735e-06,1.2088943266178514e-05,-4.1868803014415924e-07,-1.8075085726351752e-07,-7.000187994748208e-07,-3.202668705689978e-07,-9.798520377236451e-07,-1.1049299413809432e-06,-4.613977552896576e-07,6.164478820724837e-07,4.802531931268084e-08
-8.137277303513651e-07,5.008394920092407e-07,6.17804789748907e-06,2.075140059220988e-06,-3.147511406755124e-06,-5.62715918284672e-07,-4.6142941454329484e-07,-3.4409310815958635e-06,1.375702640210454e-05,-5.346163095138556e-07,-2.2837032968667426e-07,-7.359899868580433e-07,-3.745879141552326e-07,-1.0330649130418752e-06,-1.1820696923971499e-06,-5.733589632103889e-07,5.831683259855215e-07,3.515560801653573e-08
-8.432410463671838e-07,4.662517504661937e-07,8.730819775292838e-06,-1.675587936877723e-07,-2.977551666660138e-06,-5.669420759931215e-07,-5.582400841659178e-07,-3.28104561232341e-06,1.4522424013505731e-05,-5.990395391001084e-07,-2.7699824476285464e-07,-7.545147895215958e-07,-4.1363145574025954e-07,-1.1150881286727354e-06,-1.1956674976373294e-06,-6.602137866777281e-07,5.543445902231004e-07,2.531046571981119e-08
-8.715680417486872e-07,4.36710288894167e-07,1.0780679566476901e-05,-3.2853291426248894e-06,-2.854835611689235e-06,-5.829872310721271e-07,-6.441070750301657e-07,-3.1204990161492e-06,1.3944958005565458e-05,-6.200470455803521e-07,-3.1951652881071964e-07,-7.472804337028939e-07,-4.536944901186237e-07,-1.147197169775112e-06,-1.237479496909604e-06,-7.578501409310139e-07,5.288613452486563e-07,1.4301015458036367e-08
-8.975987385621084e-07,4.2053408333614863e-07,1.2046648214886996e-05,-6.451896048125203e-06,-2.6661270493658818e-06,-6.056315940190291e-07,-7.110602262461491e-07,-3.0067041610400898e-06,1.19601077598662e-05,-6.070170124818176e-07,-3.502840339158101e-07,-7.287493780154949e-07,-5.243785943989189e-07,-1.2546048848363004e-06,-1.2845873074557632e-06,-8.177002178401477e-07,5.057089918461398e-07,-2.20634931351684e-09
-9.198949635011718e-07,4.217362619779145e-07,1.2437470100309347e-05,-8.671184781587427e-06,-2.4833793622658643e-06,-6.292982713093689e-07,-7.547619620638347e-07,-2.81288976345426e-06,8.904593536576528e-06,-5.833542052611585e-07,-3.6733179726220837e-07,-7.121394994805529e-07,-6.039448012290398e-07,-1.3590430971163095e-06,-1.308580175370287e-06,-8.566349284308169e-07,4.837237635325655e-07,-2.24134961710609e-08
-9.366113775487672e-07,4.3764532469870227e-07,1.2164501535833532e-05,-9.161908007611787e-06,-2.2917815397872806e-06,-6.506692312244841e-07,-7.768796127490514e-07,-2.6080164706545304e-06,5.45010067652811e-06,-5.622471450818048e-07,-3.7291711875257915e-07,-7.211438433587036e-07,-6.92614941060772e-07,-1.393874544538804e-06,-1.3470882861289695e-06,-8.875455030607312e-07,4.6169340749471613e-07,-4.544987264865909e-08
-9.466870705314215e-07,4.6069991850820543e-07,1.1628552785405908e-05,-7.662487298510648e-06,-2.148694295685592e-06,-6.692062909116775e-07,-7.84280785036587e-07,-2.426156197715379e-06,2.453468350475016e-06,-5.385828537139071e-07,-3.7191571503464977e-07,-7.250387637443175e-07,-7.592299743269216e-07,-1.4304249169367872e-06,-1.3817250857505318e-06,-9.045601913599554e-07,4.3911798209709143e-07,-6.86167747162918e-08
-9.497642120137602e-07,4.826395384601167e-07,1.1287513336545115e-05,-4.507523137677454e-06,-2.0445440887298713e-06,-6.860422854259958e-07,-7.849132718937738e-07,-2.244835764113608e-06,7.291338943196963e-07,-5.255610558059373e-07,-3.6950202517247556e-07,-7.14792239311551e-07,-7.624087543571812e-07,-1.4652207480990258e-06,-1.400509993884247e-06,-9.222630372987335e-07,4.166477155943055e-07,-9.312696983430742e-08
-9.457457553218799e-07,4.973766075459846e-07,1.1113054816704778e-05,-4.6176296143348205e-07,-2.015167599620661e-06,-7.032156972756457e-07,-7.851638328818445e-07,-2.1191041609991e-06,7.901460895062911e-07,-5.147562126256585e-07,-3.6966442300474364e-07,-6.910360006037775e-07,-7.494080438192197e-07,-1.4711239700661076e-06,-1.3970938124359405e-06,-9.337399289474863e-07,3.956309341075984e-07,-1.1576002580055098e-07
-9.360280333944003e-07,5.009738930502296e-07,1.1229617663646158e-05,3.6085811165527065e-06,-1.9858813105461585e-06,-7.231593383738515e-07,-7.881705736532483e-07,-2.0372306109692806e-06,2.657426232606686e-06,-5.039688829053863e-07,-3.7464449448036326e-07,-6.522497561467549e-07,-7.293732657681622e-07,-1.478429008202748e-06,-1.3737604424167632e-06,-9.498098790662824e-07,3.7752925707176357e-07,-1.3050055128549836e-07
-9.232967444115578e-07,4.907291009599555e-07,1.160734078496544e-05,7.057552270535225e-06,-2.009171905624037e-06,-7.473842715136282e-07,-7.939523877053182e-07,-1.9219631760246358e-06,5.829989190136179e-06,-4.946107758624165e-07,-3.8453099460894434e-07,-6.330211597151171e-07,-7.290410152999413e-07,-1.4658755375731388e-06,-1.3401099963172574e-06,-9.827202658850966e-07,3.6391664519298486e-07,-1.4078392134022468e-07
-9.100407357141132e-07,4.657375745664267e-07,1.1632729468136916e-05,9.55617410389319e-06,-2.110580118240425e-06,-7.74599775818016e-07,-8.000823121304961e-07,-1.8535653688599649e-06,9.42702431671587e-06,-4.82106998307502e-07,-3.969239160302143e-07,-6.329170518165988e-07,-7.569592454506014e-07,-1.4365461860882288e-06,-1.2934631346399405e-06,-1.027494204700481e-06,3.5656958914299024e-07,-1.4870346828837595e-07
-8.968283089449788e-07,4.283981965371619e-07,1.106501074168002e-05,1.0957062180523956e-05,-2.1807510792916996e-06,-8.003161532108499e-07,-8.035213808714215e-07,-1.747311257499899e-06,1.2450435278793718e-05,-4.669431582684166e-07,-4.07624392181359e-07,-6.467495903727459e-07,-7.993155849837548e-07,-1.378125953462816e-06,-1.2657133139360205e-06,-1.065724371395175e-06,3.567922831326636e-07,-1.5194940559728371e-07
-8.826521874257964e-07,3.8454894452406407e-07,8.991360065522975e-06,1.1154808297820554e-05,-2.2422636756042625e-06,-8.185624527345057e-07,-8.0175368836811e-07,-1.6051059238404152e-06,1.4101336210940462e-05,-4.477894213478864e-07,-4.127851088743612e-07,-6.699511862505949e-07,-8.249614855081162e-07,-1.3408085721538696e-06,-1.2486878162430416e-06,-1.0982707671828072e-06,3.641980742573171e-07,-1.5144276896627522e-07
-8.66088804708368e-07,3.417454372587651e-07,5.015395430423753e-06,1.0078636148551651e-05,-2.323135334672769e-06,-8.246729128318371e-07,-7.937048779421154e-07,-1.51515617756327e-06,1.4081082884284576e-05,-4.249423849286064e-07,-4.110289585336685e-07,-6.984039932288095e-07,-8.264161003803724e-07,-1.32834932329581e-06,-1.2343886498278887e-06,-1.1215519183354927e-06,3.762504372011055e-07,-1.4657032587361722e-07
-8.463743746993617e-07,3.081441894263743e-07,7.076793584791597e-07,7.741494233196136e-06,-2.3850610850578875e-06,-8.177793331433995e-07,-7.80252278932929e-07,-1.433105573320609e-06,1.2760608176465384e-05,-4.0096894991529414e-07,-4.034352905747012e-07,-7.296573015315754e-07,-8.321983278994916e-07,-1.3220296564068429e-06,-1.2244635019333405e-06,-1.1341955310159323e-06,3.893709448903796e-07,-1.3540598412236144e-07
-8.233226895236897e-07,2.9263663890616335e-07,-2.6686529425902576e-06,4.279239755107536e-06,-2.4289418975697745e-06,-8.009590608070002e-07,-7.630202323102105e-07,-1.3641248773122046e-06,1.1057530261449646e-05,-3.7713357941779763e-07,-3.9152918664926497e-07,-7.607502237907706e-07,-8.261445387383685e-07,-1.3226418825277275e-06,-1.215750087499866e-06,-1.1404971822379448e-06,4.007964507529951e-07,-1.1936190241528852e-07
-7.966041995291237e-07,3.0353915821372896e-07,-3.959692096328701e-06,4.54242057801751e-09,-2.4742777813029497e-06,-7.787346954965147e-07,-7.426869745575372e-07,-1.3404559531508552e-06,9.989351581960387e-06,-3.5271198531633736e-07,-3.758100586568523e-07,-7.842049523287487e-07,-8.138840780791146e-07,-1.3163229081477629e-06,-1.2066731740427706e-06,-1.1363274190899757e-06,4.096729829583152e-07,-1.0192548709360069e-07
