0,1,2,3,4,5,6,7,8,9,10,11,12,13,14,15,16,17
1.608590357451753e-07,2.130878765320038e-09,5.073898511748275e-07,-3.5602859328861835e-08,-9.573377524063741e-08,3.5543704863962555e-07,2.342157416282067e-07,4.5027740795208266e-07,8.738653174395201e-08,-4.760867556997186e-09,3.066264581890993e-07,-1.3880847039587108e-08,-2.973960890954797e-07,-4.938460694888195e-08,3.1799565097959303e-07,2.4487250743422666e-08,2.345784621815863e-07,7.002235119245991e-08
-3.2034307774219993e-07,-2.7817964156438746e-07,3.2673089126533616e-07,-5.26447778956026e-08,-7.494618291505609e-08,2.5808930764784095e-07,1.534916371774121e-07,3.74750769034253e-07,3.1323187743187885e-08,-1.1063050014354873e-08,2.6264843130175407e-07,-3.81735535769584e-08,-2.6183182601187743e-07,-2.9043328305262207e-08,2.467776439480353e-07,-3.011905420484837e-08,1.5940670431070702e-07,4.141007161710177e-08
-7.065093732947852e-07,-6.173320916733104e-07,1.7519493837705152e-07,-6.023010731685048e-08,-5.796476498639988e-08,1.6860453473794198e-07,6.832300635398454e-08,2.952868935529241e-07,-9.932265965831457e-09,-1.9980949007168492e-08,2.166502470824737e-07,-6.800457471442337e-08,-2.4255837746941614e-07,-1.144610501764212e-08,1.77820737999311e-07,-7.899239961397508e-08,1.40248201868179e-07,1.1410164349715585e-08
-9.972782901814103e-07,-9.25108055050568e-07,4.3478517083362425e-08,-5.9533480723421117e-08,-4.271435670737888e-08,8.712206822611027e-08,-2.250675217184613e-08,2.1151361137367032e-07,-2.720837414407257e-08,-3.0703792518168774e-08,1.7075763772813875e-07,-8.559280218049617e-08,-2.211935703248139e-07,5.302607777475139e-10,1.14678570976429e-07,-1.1893399743577665e-07,1.4094639265025215e-07,-2.4434472952849528e-08
-1.1314090006345805e-06,-1.1177697555121496e-06,-4.046453561174855e-08,-4.541360996116444e-08,-2.791489075735767e-08,1.4199402119937942e-09,-9.221046733813704e-08,1.245792040950417e-07,-2.9679377872357672e-08,-4.348545286771288e-08,1.2875194945022145e-07,-9.594227284017678e-08,-2.06580844702989e-07,1.5188998841755466e-09,5.661189243927569e-08,-1.4770694741464717e-07,1.6525530290437966e-07,-6.19566424291349e-08
-1.0156762120880308e-06,-1.1657006788291337e-06,-9.751662592064411e-08,-2.2505792150595407e-08,-1.7011739484703513e-08,-6.076091861250005e-08,-1.5839818209460247e-07,3.5469501639197455e-08,-2.112922792713191e-08,-5.660230844383904e-08,9.502538361074614e-08,-9.786434097067347e-08,-1.917101867559175e-07,-3.6541199965151602e-09,1.0367145772445846e-08,-1.6533002131066255e-07,1.864694126729792e-07,-8.623089048130291e-08
-6.255548261279348e-07,-1.1320178623513752e-06,-9.710784578847678e-08,2.863627387637417e-09,-9.814829052501803e-09,-9.868374375822385e-08,-2.178504607061075e-07,-4.6100979483404006e-08,-7.008327965709755e-09,-6.67813964735272e-08,6.507538373845597e-08,-8.926831731898656e-08,-1.7589368235443256e-07,-1.5720824216533447e-08,-3.9654132217207274e-08,-1.7319931156220311e-07,1.9240305220911418e-07,-9.561095405827112e-08
-1.1307642488641643e-08,-1.0486550130091346e-06,-1.1764572766051895e-08,2.6623839896727853e-08,-7.564653024420106e-09,-1.192883306303741e-07,-2.567750032009614e-07,-1.1589700404467486e-07,5.687729949773717e-09,-6.971074938533146e-08,3.316943411106752e-08,-7.330716333411981e-08,-1.4357857684425467e-07,-3.108491215857144e-08,-6.65977880747686e-08,-1.685268865783241e-07,1.8991753274754595e-07,-7.294893868399905e-08
6.464672900980341e-07,-8.67539942220475e-07,2.0831030153632175e-08,4.383656183634574e-08,-1.0997770830023933e-08,-1.1954888196687138e-07,-2.492543973001754e-07,-1.6713358583686736e-07,1.8652353469704635e-08,-5.9242023523150815e-08,-5.0316529958090665e-09,-4.6964508370922014e-08,-8.977751888429048e-08,-3.4872128064820504e-08,-7.143024648506749e-08,-1.4787156706950433e-07,1.3741815256683e-07,-2.328314837597518e-08
1.116853218216266e-06,-5.607301894194515e-07,-3.842976110172732e-08,5.2258827986602695e-08,-8.078019591235367e-09,-1.1116581743428181e-07,-2.0836210927904094e-07,-1.946877948229452e-07,3.471340973640981e-08,-4.551101611450125e-08,-4.360137813333638e-08,-1.1851542807314433e-08,2.9132153594390466e-09,-3.3280828374428535e-08,-4.543799387995361e-08,-1.087300440531484e-07,4.527594134670391e-08,1.4864743958542468e-09
1.3590287376862593e-06,-4.4581751116725314e-09,-1.428069208170854e-07,5.237082610391746e-08,2.442461617643873e-09,-9.706966861128387e-08,-1.342252231108353e-07,-1.992670193361488e-07,4.796219025801668e-08,-2.7218114735634657e-08,-8.57317401472875e-08,2.759254285068303e-08,8.912245794341464e-08,-2.723874600515949e-08,-1.181732688152402e-08,-4.9416308281581257e-08,-8.610018321180976e-08,-6.2151394392525535e-09
1.353648302401252e-06,7.473629488267547e-07,-2.0051979839336131e-07,4.5023683395190085e-08,1.970736417341732e-08,-7.80069724077727e-08,-2.2105935587892483e-08,-1.8949713775750902e-07,4.3929979088508246e-08,-2.884998601064011e-09,-1.3258257098180578e-07,6.176235580866808e-08,1.7489241705646822e-07,-1.6096101846433575e-08,2.1021179623565063e-08,3.0446128875386734e-08,-1.8151394713479723e-07,-3.1532261966701194e-09
1.1515587229393512e-06,1.524589236712357e-06,-2.3146532816049531e-07,3.1327712362352875e-08,4.6228042264268035e-08,-5.744371534103338e-08,4.455046947357188e-08,-1.7029069740449747e-07,2.4300698680506922e-08,2.7282886409393473e-08,-1.8221791926521483e-07,9.094361913643604e-08,2.8591676401036474e-07,9.980864947200362e-10,9.9811744665447e-09,1.2629841778734363e-07,-2.496360196183821e-07,8.23168632793573e-09
7.005168413810872e-07,2.036986730219145e-06,-1.786092497061475e-07,1.6601163176001654e-08,6.905790294990068e-08,-4.4994766630132385e-08,1.5025663281166242e-07,-1.4770076836433795e-07,-1.5325540574703424e-08,6.795725830017417e-08,-2.303949248237781e-07,1.1836273392694947e-07,3.7751976255619295e-07,1.9533888884890303e-08,-1.2291780909889378e-07,2.3077718024001843e-07,-3.3522473965234025e-07,3.515887910068354e-08
-1.4375545600296884e-07,2.0349514443204546e-06,-7.952443313196006e-08,3.6944436725118923e-09,9.419538798106213e-08,-4.087414636600139e-08,2.8818556434556e-07,-1.327421686130837e-07,-6.57917373934579e-08,1.30833741586268e-07,-2.766242541952814e-07,1.440506179457324e-07,4.27850278397016e-07,6.14626132109387e-08,-2.482157898520302e-07,3.39016314776283e-07,-3.5113801597019673e-07,7.53365501248181e-08
-1.5370982699068708e-06,1.3714701658976296e-06,4.458384334348775e-08,1.329941559207999e-09,1.2110982360342209e-07,-4.283593770503757e-08,4.226654789992021e-07,-1.285602319837011e-07,-1.1788122882679479e-07,2.1187083294561504e-07,-3.2252048466944377e-07,1.7813805348518922e-07,4.7230577712057626e-07,1.6777795168177625e-07,-3.491829097157556e-07,4.3780124510221616e-07,-3.883062498707517e-07,1.3077723550888446e-07
-3.491594967685837e-06,7.218027939904914e-08,1.767397856635836e-07,1.1935581860111821e-08,1.37345679186967e-07,-4.9551870334046154e-08,5.911337300498923e-07,-1.362076187474654e-07,-1.7481418987895695e-07,2.944490934454432e-07,-3.695397282322035e-07,2.198414976423562e-07,4.802646607182914e-07,2.5247615549239245e-07,-4.628466142629373e-07,5.221025077661671e-07,-4.769118414567455e-07,1.9397618784110655e-07
-5.723246623710131e-06,-1.6742679701662887e-06,2.890675853857795e-07,3.9012761364998236e-08,1.3766053926568668e-07,-5.7579961608874e-08,7.038947214738897e-07,-1.5784647812875376e-07,-2.360897897976138e-07,3.7609883739146687e-07,-4.1975807020074525e-07,2.6007828197483163e-07,5.394686700262142e-07,3.950397647791954e-07,-5.455697703571703e-07,5.89343795419944e-07,-6.094224557448095e-07,2.692874541671724e-07
-7.761220331863315e-06,-3.5892826548485987e-06,3.8302150598649004e-07,8.227675254321858e-08,1.359240092456441e-07,-7.039350538507073e-08,7.817461827366009e-07,-1.7866131063578862e-07,-3.023383685117595e-07,4.452833855452118e-07,-4.643755619526025e-07,3.0040682333956735e-07,6.921406422750157e-07,5.916933912420207e-07,-6.746032617010943e-07,6.39044145816237e-07,-7.64395073628579e-07,3.2970375220546584e-07
-9.045756109617773e-06,-5.311807677801253e-06,4.1749141129102035e-07,1.3501566845853526e-07,1.2686988496352759e-07,-9.014740063346845e-08,8.36749938284182e-07,-1.9361848252002705e-07,-3.7037097136064146e-07,4.965313063294784e-07,-5.015874266029989e-07,3.2218715224314414e-07,8.324218657730283e-07,7.839171679009483e-07,-8.277025941769901e-07,6.673952220776528e-07,-9.496458074334482e-07,3.728655676117156e-07
-9.248238021519448e-06,-6.487324934819796e-06,4.7165292413884165e-07,1.761297542002524e-07,1.0656728266617735e-07,-1.1898233827340599e-07,8.607666426330409e-07,-2.05241989046815e-07,-4.3698826926490295e-07,5.16492411169041e-07,-5.402700984065823e-07,3.308593060179358e-07,9.188820572236192e-07,9.121046414519972e-07,-1.023514951308892e-06,6.782057568087855e-07,-1.1167850712389084e-06,4.047829654263374e-07
-8.421531984982307e-06,-6.866211105331258e-06,4.975451054256971e-07,2.0538175941965795e-07,9.065415679943411e-08,-1.6092460228160717e-07,8.904574235428011e-07,-2.2061892063742954e-07,-5.045757178125054e-07,5.041411789455987e-07,-5.803690972794622e-07,3.297264281027108e-07,9.879096840043896e-07,9.975237387161385e-07,-1.14652859360668e-06,6.758791766791176e-07,-1.2201049250169842e-06,4.176549572424466e-07
-7.044760882545957e-06,-6.383642205168164e-06,4.7653081256877985e-07,2.2606680902425455e-07,8.51824117746691e-08,-2.1592351565003295e-07,8.73481603403321e-07,-2.4429091214475756e-07,-5.756630132494769e-07,4.471939638278368e-07,-6.288951160316065e-07,3.1852863650983285e-07,1.0284110371188411e-06,1.047744205571467e-06,-1.2449455613429274e-06,6.674726364676564e-07,-1.2469275716272733e-06,4.216878286384599e-07
-5.70380305577607e-06,-5.205585596585534e-06,3.987513444689748e-07,2.456714763358504e-07,9.271268609117594e-08,-2.8063635597908514e-07,8.229761137712528e-07,-2.65486531093305e-07,-6.485085506912893e-07,3.398158102774829e-07,-6.805792298917465e-07,3.0319883979820434e-07,1.1211073614523377e-06,1.0613673263285225e-06,-1.3123522026044113e-06,6.877607654896222e-07,-1.2974815857877092e-06,4.144232915400736e-07
-4.8722783075994665e-06,-3.69128245014661e-06,3.167527075157882e-07,2.829769970628916e-07,1.5740228691259917e-07,-3.4871282700251197e-07,7.553209611467009e-07,-2.7658694054981087e-07,-7.130978059806698e-07,2.600440448356246e-07,-7.172439925962971e-07,2.658810725386899e-07,1.1401182337214415e-06,1.0675875715696793e-06,-1.394583625262312e-06,7.376120235749767e-07,-1.3622391183296191e-06,4.108578672620223e-07
-4.639764837866681e-06,-2.195023729948608e-06,2.5714621998704166e-07,3.68832289467768e-07,2.8779947322377463e-07,-4.120314810727384e-07,6.650921143180458e-07,-2.4639725726309673e-07,-7.74023092755477e-07,2.171951933120093e-07,-7.540466422926893e-07,2.0362063317860652e-07,1.1338275821334127e-06,1.0685778920763116e-06,-1.5003531437409332e-06,8.276240467246982e-07,-1.4447402750053151e-06,4.278424451505376e-07
-4.77378412361339e-06,-1.000168992918915e-06,2.2226498236366462e-07,4.2807117975786874e-07,3.7681195970993506e-07,-4.6407380026218186e-07,6.00474824443726e-07,-2.413774287703863e-07,-8.323976185430132e-07,1.776303817370817e-07,-7.88463838591263e-07,1.0130640550261663e-07,1.125531377621913e-06,1.0927202590938481e-06,-1.5544000081849737e-06,9.550864309776167e-07,-1.617339584607272e-06,4.67827215234562e-07
-4.9308832043017675e-06,-3.069736698991444e-07,2.6882145108775835e-07,4.725347352468626e-07,4.4862120757403035e-07,-5.008816199901036e-07,6.253699924901563e-07,-2.491325037760571e-07,-8.790296748901078e-07,1.4356109990867038e-07,-8.306046969966206e-07,-2.3106733281247133e-08,1.1174069681361967e-06,1.1692703831201792e-06,-1.63419769422111e-06,1.1108667419245845e-06,-1.709323940040212e-06,5.06180408757327e-07
-4.923674009009048e-06,1.0029284522446786e-08,3.0861298455316215e-07,5.244452891946923e-07,5.183956085076288e-07,-5.194012579629395e-07,6.389039949943265e-07,-2.476381753509386e-07,-9.190309385680148e-07,1.1846734641792789e-07,-9.174973781425112e-07,-7.8136876627637e-08,1.1746926722993993e-06,1.2368591306316815e-06,-1.6901580505679737e-06,1.3007980711761928e-06,-1.7760052100175207e-06,5.236708725507016e-07
-4.7557039582780295e-06,7.669082013959038e-08,3.1356488618117865e-07,5.536214057046803e-07,5.95844356829328e-07,-5.235302298983059e-07,6.291636126428086e-07,-2.735074396694997e-07,-9.563552225571942e-07,7.844927850631203e-08,-9.895306509293673e-07,-1.3314403027225248e-07,1.2426438509016977e-06,1.2949740273476535e-06,-1.7255400105683501e-06,1.5240282712160467e-06,-1.820132764543212e-06,5.398919938805701e-07
-4.593983512069173e-06,-4.0958895489928707e-08,3.374956494730198e-07,5.735535278115426e-07,6.713849621353485e-07,-5.182327130350377e-07,6.93778973334046e-07,-2.69142850088456e-07,-1.0329200287033684e-06,2.6263277806861404e-08,-1.0529598056467252e-06,-1.877483379665437e-07,1.3028193863279185e-06,1.4023213729961083e-06,-1.712005952493146e-06,1.7251906369920206e-06,-1.8433125393359676e-06,6.068560762190541e-07
-4.7423554870122275e-06,-2.1103444084638006e-07,4.3617456532038207e-07,5.834193331720444e-07,7.489390618847329e-07,-5.087504225153103e-07,7.723608796566561e-07,-2.1258325262529513e-07,-1.1667242355147994e-06,-5.578724314755584e-08,-1.1054202619103685e-06,-2.452816175613257e-07,1.3674234343812266e-06,1.526378341906367e-06,-1.6637723963901676e-06,1.917372016180495e-06,-1.8613759236574417e-06,6.750416806923998e-07
-5.3146363420766275e-06,-4.7482037761499526e-07,5.297093163249287e-07,6.22812244718558e-07,8.489389643364614e-07,-5.361719419294427e-07,8.192691825530674e-07,-1.7027552627749878e-07,-1.3342879583069965e-06,-1.772304680029217e-07,-1.1411315960122668e-06,-3.222139458341471e-07,1.370944797246986e-06,1.6274096153528855e-06,-1.61602354851191e-06,2.106623624443294e-06,-1.8408584297166656e-06,7.331586950908106e-07
-6.139224548038331e-06,-8.718926150539285e-07,6.45438694563117e-07,6.665342573492582e-07,8.795647076275074e-07,-6.092663342567938e-07,8.818266841134409e-07,-1.708585494354775e-07,-1.4772182063352512e-06,-3.0745494257751855e-07,-1.185495215985928e-06,-4.2980085811622355e-07,1.365186259444809e-06,1.6591392315769358e-06,-1.5982333218386982e-06,2.263617428213757e-06,-1.8111694099440733e-06,7.880261488019838e-07
-6.860535700027705e-06,-1.2225168226534529e-06,7.626731621206689e-07,6.896540237024261e-07,9.395333853674062e-07,-7.066218293507259e-07,9.073347020283876e-07,-1.9349169682676777e-07,-1.589043777065162e-06,-3.899700300973641e-07,-1.254898910077358e-06,-5.251228957616285e-07,1.3727938544122037e-06,1.7084890977946477e-06,-1.6111611801287851e-06,2.3559699788975315e-06,-1.8059953742816898e-06,8.025699700298081e-07
-7.209863168213043e-06,-1.4567139743335074e-06,8.555017767221452e-07,7.139966285888864e-07,9.618314336918307e-07,-7.893301259249006e-07,8.867755522452838e-07,-2.303666293602766e-07,-1.673034424910035e-06,-4.514226911795753e-07,-1.315103579849684e-06,-5.938850962749618e-07,1.3532797059936855e-06,1.6660855250957854e-06,-1.639435808237291e-06,2.334590070396461e-06,-1.8290756583526617e-06,7.857145413940222e-07
-7.116620292952998e-06,-1.6348342967728095e-06,9.082929983083955e-07,7.20537548445089e-07,9.90045720896089e-07,-8.514169654681583e-07,8.160660032202706e-07,-3.158043003254671e-07,-1.7101180869558192e-06,-5.070306682930629e-07,-1.343795687855984e-06,-6.420556834221257e-07,1.282547234133281e-06,1.5766124537384124e-06,-1.6809238501778972e-06,2.2511207943556697e-06,-1.8548283642274247e-06,7.681773777810797e-07
-6.684372745812098e-06,-1.8171076117498737e-06,8.964862585609422e-07,6.967809633701692e-07,9.738523857360471e-07,-8.905505973220874e-07,7.189812390652118e-07,-4.006031441391047e-07,-1.699510246797119e-06,-5.38257273148183e-07,-1.3548327486890161e-06,-7.212038931938731e-07,1.2428806742360011e-06,1.489581932958214e-06,-1.7115294431355598e-06,2.100802410029788e-06,-1.8667469678344427e-06,7.448051189762317e-07
-6.073038407610218e-06,-2.0982404283602382e-06,8.127649432559978e-07,6.918548637718045e-07,9.471417023963503e-07,-9.14589642044851e-07,6.291476885094974e-07,-4.607736443256291e-07,-1.6688007489047612e-06,-5.858880449755852e-07,-1.3680825512744838e-06,-7.478508572200033e-07,1.2051716395579241e-06,1.3808396495479673e-06,-1.7592441323729571e-06,2.0118163179725613e-06,-1.8920735759411527e-06,7.138876109528885e-07
-5.401109846224057e-06,-2.5467670177814023e-06,6.632485012301209e-07,7.145102224186621e-07,9.357006444258891e-07,-9.236457069077865e-07,5.365787877917192e-07,-4.804666860969463e-07,-1.6106724953825376e-06,-6.618947351078222e-07,-1.370817383181001e-06,-7.834214191780976e-07,1.1441887392186399e-06,1.2821914187387268e-06,-1.8397422871490495e-06,1.9819274563223148e-06,-1.9505288380853873e-06,6.848263773404095e-07
-4.706618427773247e-06,-3.043284108371803e-06,4.8009009337674e-07,6.93214725200552e-07,9.174033604305794e-07,-9.342432011263756e-07,4.428498799141764e-07,-5.317124730773677e-07,-1.525212875068668e-06,-7.116234899698117e-07,-1.3869188800152482e-06,-8.825262896738043e-07,1.0717520411421343e-06,1.2375653523081484e-06,-1.8821337750350601e-06,1.994911013272356e-06,-2.044924107716994e-06,6.69441952054424e-07
-3.953081230240872e-06,-3.429223454039297e-06,3.0801997427899453e-07,6.988518342197907e-07,9.368683021192201e-07,-9.454378434038346e-07,3.8261886823206547e-07,-5.758186391916272e-07,-1.512650676074307e-06,-7.434622686264093e-07,-1.4222957666046475e-06,-9.38983389336321e-07,1.0237378900816244e-06,1.2209792075801497e-06,-1.897093553747483e-06,2.0458256351063e-06,-2.1678138199402198e-06,6.500226185791605e-07
-3.1370934310765654e-06,-3.5275072084065512e-06,2.1230759400879157e-07,6.820896465921967e-07,9.54832846672615e-07,-9.282958835901561e-07,3.3560029768517007e-07,-6.239370556843348e-07,-1.5263352641328543e-06,-7.655313999103675e-07,-1.4616125081103531e-06,-9.492984260276128e-07,9.756276001908585e-07,1.211419919420055e-06,-1.8683054605551103e-06,2.088246264861672e-06,-2.210725387321343e-06,6.098898748760195e-07
-2.2993056208565085e-06,-3.1482398958633495e-06,1.6642704263300874e-07,6.60623705871244e-07,9.500901190833514e-07,-8.765440689866764e-07,3.2834395163265836e-07,-6.916203376400684e-07,-1.5355888083480766e-06,-7.719267712517581e-07,-1.493596955644425e-06,-9.429841713721077e-07,9.394970735318637e-07,1.188855274958825e-06,-1.7298349262613834e-06,2.122365777708358e-06,-2.124480602703176e-06,6.055195810030513e-07
-1.6366853613972962e-06,-2.3314515237547335e-06,1.484637960177138e-07,6.513354128914374e-07,9.514666642450308e-07,-8.061149331810399e-07,2.925465818849141e-07,-7.420505307633138e-07,-1.5308085678855449e-06,-7.648662214783678e-07,-1.5348781773611474e-06,-9.275358650593891e-07,9.316674806230339e-07,1.1508499205885683e-06,-1.6358370112193296e-06,2.1106778240143737e-06,-2.0734709985627413e-06,6.099497585623374e-07
-1.2331753598956386e-06,-1.3040689940169783e-06,9.964246622484252e-08,6.359944682420698e-07,9.644220848185723e-07,-7.320055427047206e-07,2.572715282611585e-07,-7.976204729221261e-07,-1.5243531201767897e-06,-7.468451625623398e-07,-1.56255067231491e-06,-8.799769912762713e-07,9.12668276651459e-07,1.1184599062508562e-06,-1.5939237267256357e-06,2.0591013629899867e-06,-2.062286625319569e-06,5.73799915709263e-07
-1.0660744791165663e-06,-4.168567129382951e-07,-2.661194135437116e-08,6.110251722284679e-07,9.545077430458016e-07,-6.802812188155194e-07,1.785610895507176e-07,-8.993229600955299e-07,-1.5104758048921596e-06,-7.333512068349312e-07,-1.554269001216757e-06,-8.387235116042411e-07,8.900418628065992e-07,1.056529961209128e-06,-1.5079134609190944e-06,1.9632023854317367e-06,-2.056401492408763e-06,5.379437112893253e-07
-1.1855877287251615e-06,4.431715421007763e-08,-1.8897308825370925e-07,5.469629433187175e-07,8.693784234154336e-07,-6.430693936916361e-07,5.8577600980317646e-08,-9.920300966597983e-07,-1.443460156399556e-06,-6.980963094535357e-07,-1.5286744667142821e-06,-8.295964893370407e-07,8.451005429807809e-07,9.598944969550007e-07,-1.3626013976759085e-06,1.824159098308781e-06,-2.0384085640441118e-06,4.848136363693357e-07
-1.4811327630466364e-06,-1.9229785666621947e-07,-3.2457888676262494e-07,4.67418146932619e-07,7.649516411268055e-07,-6.220421189689041e-07,-8.2328029844486e-09,-1.0794328075924852e-06,-1.3959870446512333e-06,-6.568020630855245e-07,-1.5255889365797874e-06,-8.179801523676128e-07,8.037498819656525e-07,8.828681888001586e-07,-1.2235246999425869e-06,1.7057675374629674e-06,-1.9545707564537413e-06,4.1161905840385303e-07
-1.7617907510461377e-06,-1.25417664651986e-06,-4.134896009978477e-07,4.150320318081705e-07,6.869085003520908e-07,-6.26088318963901e-07,-8.643222846963016e-08,-1.1666533220669678e-06,-1.3530651895471122e-06,-6.151191456857665e-07,-1.5361237609294137e-06,-8.131873753282248e-07,7.696783214788187e-07,8.032014329315205e-07,-1.1486244964580954e-06,1.6065717530106994e-06,-1.8255446124840539e-06,3.6045003906020976e-07
-1.930185951030809e-06,-2.847080394276535e-06,-5.039934565631301e-07,3.7272663731303935e-07,6.278493159479872e-07,-6.377167911490265e-07,-1.6950092644841077e-07,-1.246528648972972e-06,-1.3197160460473142e-06,-5.61923019330687e-07,-1.5289813896204906e-06,-8.097920266553652e-07,7.282527878296654e-07,7.030167270039337e-07,-1.1454008399383103e-06,1.5126798594947336e-06,-1.6903895821838503e-06,3.10217765561479e-07
-1.969048353839845e-06,-4.539035983761615e-06,-6.123972892505741e-07,3.070646509766856e-07,5.94710951445954e-07,-6.587573477051679e-07,-2.479761635630207e-07,-1.2869083426648547e-06,-1.2764230158400647e-06,-5.018231525881889e-07,-1.5124877734845574e-06,-7.761869668155619e-07,6.725451821121272e-07,6.225616340850392e-07,-1.1623886668350174e-06,1.4153263219743372e-06,-1.5886416970818436e-06,2.670726833429637e-07
-1.9649570937300657e-06,-5.887096545229315e-06,-7.256106940051921e-07,2.627456145277873e-07,4.7322654890246314e-07,-6.892964807778659e-07,-3.452728215673596e-07,-1.3554464338574362e-06,-1.198567160902659e-06,-4.466728085580714e-07,-1.5120538628431821e-06,-7.15875310560476e-07,6.184276224585456e-07,5.772436005633307e-07,-1.1916428829866632e-06,1.2948700579489287e-06,-1.5755325900202562e-06,2.330736615686524e-07
-2.0106626371660997e-06,-6.59301757708873e-06,-8.223250963496535e-07,2.3230319172009925e-07,3.4725325837998354e-07,-7.243695745624038e-07,-4.498810784006146e-07,-1.4288991768457662e-06,-1.1616579136468307e-06,-3.9351856426259474e-07,-1.5127525553076533e-06,-6.520556423658131e-07,5.528273204223537e-07,4.5682786278872084e-07,-1.2417890845966571e-06,1.1541934684574233e-06,-1.6271563207226117e-06,2.0287752468195786e-07
-2.151202544904519e-06,-6.545940483958248e-06,-8.560310884196628e-07,1.369788836250357e-07,2.6106074515532534e-07,-7.6302133497293e-07,-5.401294649092789e-07,-1.4944454308535287e-06,-1.144481878440179e-06,-3.462408136724896e-07,-1.5187203556160123e-06,-5.79895879947653e-07,4.6388920674471257e-07,3.2347807048171084e-07,-1.2800880614346541e-06,1.0243736740896191e-06,-1.6938794966666216e-06,1.760022362781619e-07
-2.4166935559512634e-06,-5.813206981076151e-06,-8.584893320097888e-07,4.2018133316998645e-08,2.0481256504435782e-07,-8.011780462635035e-07,-5.621150310411055e-07,-1.5683137042367047e-06,-1.1662166733251734e-06,-3.1340209379616175e-07,-1.5291037189487568e-06,-5.08731761607192e-07,3.8528409222447817e-07,2.420208955350352e-07,-1.2951732034888843e-06,9.097877877858679e-07,-1.7702594578275745e-06,1.6812861645269387e-07
-2.8287234195474027e-06,-4.5819863842844405e-06,-8.338840382551947e-07,-3.27505339888566e-08,1.7302478844367448e-07,-8.364382202985185e-07,-5.941901481470379e-07,-1.6284319488706133e-06,-1.1812194574573294e-06,-2.8870174413095983e-07,-1.5449678314641386e-06,-4.5552056146726823e-07,3.233115826879447e-07,1.7029853697979686e-07,-1.3342633389406609e-06,8.064729979658004e-07,-1.800822109429105e-06,1.687190497342893e-07
-3.4201982024590503e-06,-3.171530895036051e-06,-7.907144886434296e-07,-7.945227926228486e-08,1.495354840639858e-07,-8.693784680818301e-07,-6.242328275890437e-07,-1.6783396564793918e-06,-1.2219777303830404e-06,-2.6808593618979387e-07,-1.5502059486495413e-06,-4.1931669530218933e-07,2.843549977518117e-07,1.2617908686197122e-07,-1.4060603575407357e-06,7.216089605251553e-07,-1.7842549141390855e-06,1.6024906262482482e-07
-4.135121558040735e-06,-1.9225364452167796e-06,-7.535190330218237e-07,-1.1458073796135702e-07,1.2114414401130237e-07,-8.974903303007411e-07,-6.515123446152016e-07,-1.7306593865166745e-06,-1.2749990005428988e-06,-2.493858098937001e-07,-1.5656489517908225e-06,-4.05683867176365e-07,2.3442018880291058e-07,9.225911167400726e-08,-1.4906487200934407e-06,6.38653964544895e-07,-1.745400515820676e-06,1.5925374999593196e-07
-4.845687662704502e-06,-1.0555036443876137e-06,-7.335734859158779e-07,-1.636914000533822e-07,6.484839681432594e-08,-9.208653585478237e-07,-7.109219634918057e-07,-1.7899910319957308e-06,-1.301056225649086e-06,-2.2948437156135747e-07,-1.591009123737246e-06,-4.1249948806234895e-07,1.9660852781582875e-07,5.856503076934234e-08,-1.5803968139222958e-06,5.718480849093318e-07,-1.7323800062833323e-06,1.635629274027575e-07
-5.411420122192652e-06,-6.971933245253957e-07,-7.44853501120171e-07,-2.1811600691529736e-07,-1.4034695307040879e-08,-9.4685702262006e-07,-7.818546613153612e-07,-1.848990570019532e-06,-1.3191815827271476e-06,-2.0466933903712575e-07,-1.6047757125120433e-06,-4.347802502114729e-07,1.8000740660010532e-07,1.0744576207308487e-08,-1.6572005902203097e-06,5.276145066542713e-07,-1.7980956811217062e-06,1.7218289776420914e-07
-5.7589015251328575e-06,-9.013106592847475e-07,-7.858167538671605e-07,-3.1652968455273723e-07,-1.0050419440051064e-07,-9.623269782502026e-07,-8.322587991308782e-07,-1.8875722078728658e-06,-1.3268653936561794e-06,-1.78606172919208e-07,-1.6514706447498455e-06,-4.6350948265877117e-07,1.7372913819202963e-07,-3.7231821434461e-08,-1.6986963190850802e-06,5.202834046963468e-07,-1.924458502337169e-06,1.897859867280443e-07
-5.906621410139509e-06,-1.5787577042258418e-06,-8.413440918345428e-07,-4.168737633935406e-07,-1.9148921526558902e-07,-9.683552913064949e-07,-8.683836573584799e-07,-1.90819272513811e-06,-1.3296133088313382e-06,-1.58550157743916e-07,-1.704455167456438e-06,-4.915002010062175e-07,1.58150284282437e-07,-6.97698791753641e-08,-1.7295560484491366e-06,5.125680060070356e-07,-2.06545846322726e-06,2.0623945768227425e-07
-5.892281893613584e-06,-2.488433858742008e-06,-8.930358905742229e-07,-5.041511277500638e-07,-2.69911131589356e-07,-9.814501774457702e-07,-8.914466289205639e-07,-1.9266491404969947e-06,-1.3379466928242015e-06,-1.4472994572503824e-07,-1.7298847571273965e-06,-5.181926460455214e-07,1.4956971931230017e-07,-9.180411541173939e-08,-1.7603925664414209e-06,5.161529869637785e-07,-2.138183716369969e-06,2.162964088169187e-07
-5.668525698754028e-06,-3.2920951350299105e-06,-9.34226738014249e-07,-5.784964053968377e-07,-3.322281084177474e-07,-9.983057316369827e-07,-8.880506809814243e-07,-1.947120753040516e-06,-1.3568829116402036e-06,-1.3892113298081297e-07,-1.7593146633991482e-06,-5.372246158838183e-07,1.5010452200008528e-07,-1.0929603608882721e-07,-1.7863864655186456e-06,5.250193842245648e-07,-2.1496582436747797e-06,2.2159997014611114e-07
-5.152549630793611e-06,-3.673825136268973e-06,-9.742650245204695e-07,-6.239442685482119e-07,-3.8254745750598056e-07,-1.0219903229576404e-06,-8.762268765804038e-07,-1.9680407446175938e-06,-1.38147059899374e-06,-1.4413878907138182e-07,-1.7772832907199283e-06,-5.44922779290985e-07,1.340621581622703e-07,-1.2232127097242352e-07,-1.8125086647544987e-06,5.207643482374099e-07,-2.2085968032663727e-06,2.3772754209910844e-07
-4.345995392228798e-06,-3.480610327845709e-06,-1.0084606657238338e-06,-6.540307269120763e-07,-4.183670024801106e-07,-1.055769905768814e-06,-8.595523824384965e-07,-1.9923777935074557e-06,-1.4166354727841412e-06,-1.573206282259323e-07,-1.7784470268805436e-06,-5.452517854581428e-07,1.005171794253631e-07,-1.1796705267022651e-07,-1.8157757909091426e-06,5.209965735982914e-07,-2.280365999971069e-06,2.591937851541385e-07
-3.3912037252881645e-06,-2.767741916751152e-06,-1.0391552864411427e-06,-6.688539942742335e-07,-4.434516473486139e-07,-1.0944104354092886e-06,-8.47983458659799e-07,-2.018724764851534e-06,-1.4751035409829269e-06,-1.7611006610495795e-07,-1.7677746537750842e-06,-5.42085177701811e-07,9.129745018067376e-08,-1.0447148887290497e-07,-1.799432863819905e-06,5.287749810874817e-07,-2.284857564928918e-06,2.8112327545268753e-07
-2.523958986911678e-06,-1.7247034425657741e-06,-1.0665460763776553e-06,-6.824304466715355e-07,-4.4801777188860127e-07,-1.137979328849954e-06,-8.355059121603517e-07,-2.0354066667457603e-06,-1.5408047225262746e-06,-1.9686588203498043e-07,-1.7485402125990952e-06,-5.393279670818822e-07,9.758351797764316e-08,-8.029235131353262e-08,-1.7685795002313627e-06,5.513033461187322e-07,-2.2237194924574634e-06,3.0817611804059384e-07
-1.9750470880607757e-06,-5.819311181322001e-07,-1.0848236292300586e-06,-6.877930194944038e-07,-4.458423652030646e-07,-1.1889472468976815e-06,-8.239665428757669e-07,-2.0507898093171517e-06,-1.600535336837652e-06,-2.1435338691340085e-07,-1.717251405518923e-06,-5.451594638704715e-07,1.0965825181863527e-07,-6.172065243465732e-08,-1.7210303239711103e-06,5.926094443270781e-07,-2.1526728613250123e-06,3.347917392068109e-07
-1.8905394083091312e-06,5.066014808247414e-07,-1.0943766619506784e-06,-6.940756915918603e-07,-4.5229888264039213e-07,-1.2451565169127851e-06,-8.121500092544979e-07,-2.061727284078941e-06,-1.6521337549457098e-06,-2.229705813857057e-07,-1.6837557994810232e-06,-5.580684255002398e-07,1.4137969679245583e-07,-4.8344364701470676e-08,-1.6610279878122572e-06,6.715666744472532e-07,-2.0944619075858487e-06,3.605189759567662e-07
-2.2501152836836474e-06,1.4420792374436323e-06,-1.097632594024185e-06,-7.089295034140668e-07,-4.6236359493980495e-07,-1.3008819148519628e-06,-7.905550485691173e-07,-2.057428071441254e-06,-1.6768567762067615e-06,-2.1824442723320119e-07,-1.6532100033643862e-06,-5.501858599563907e-07,1.6227726608130577e-07,-2.7731791765443646e-08,-1.5969537684506911e-06,7.652607879249287e-07,-2.030784018378843e-06,3.926922985513872e-07
-2.8437014676895766e-06,2.1303859456257927e-06,-1.092956834287986e-06,-7.287487977791651e-07,-4.7466332812558634e-07,-1.3544894282063733e-06,-7.602827354500884e-07,-2.03881142226313e-06,-1.6829644508186258e-06,-1.9744212592226856e-07,-1.6182970301548817e-06,-5.192793446718963e-07,1.819068178353033e-07,5.588705512901002e-09,-1.5287795405284187e-06,8.759431070336596e-07,-1.9764435816126046e-06,4.3435704703916825e-07
-3.3213439461332483e-06,2.4559470945632185e-06,-1.0757257928714962e-06,-7.52505541126698e-07,-4.8038012770259e-07,-1.3994874184791252e-06,-7.13779616868201e-07,-2.0079736106146747e-06,-1.6805242925119834e-06,-1.614749928916741e-07,-1.5856019215130906e-06,-4.621809043703914e-07,2.1763647816617295e-07,5.5038920442145105e-08,-1.4614218163635843e-06,1.0082015340442587e-06,-1.948054822212599e-06,4.818499409160046e-07
-3.3219483439056604e-06,2.306623216828627e-06,-1.0406746888103455e-06,-7.699082936685793e-07,-4.679551681964858e-07,-1.4232698612126045e-06,-6.474606778610832e-07,-1.963206635308185e-06,-1.66916686121923e-06,-1.1350245447762776e-07,-1.5372379549867607e-06,-3.514183564910566e-07,2.5067121947570194e-07,1.218945903759935e-07,-1.4017638211102966e-06,1.1560988548011645e-06,-1.9081423029343255e-06,5.370431504892307e-07
-2.6269563220274385e-06,1.6313711820359316e-06,-9.89266880014658e-07,-7.688990822648039e-07,-4.309790237305433e-07,-1.436959359573945e-06,-5.59655212449009e-07,-1.9051066944711016e-06,-1.6503553656278755e-06,-5.696336134452114e-08,-1.498770491466983e-06,-3.0661551036713795e-07,3.083313687863561e-07,2.1013140190150965e-07,-1.3447315750428958e-06,1.293744210586403e-06,-1.8535212935643012e-06,6.070510883991247e-07
-1.2823345221990102e-06,5.024329518780765e-07,-9.25662388301237e-07,-7.369096237847588e-07,-3.7016865303270614e-07,-1.4343789203336405e-06,-4.57741554402285e-07,-1.8419129993047217e-06,-1.6257517853923606e-06,2.44671494552532e-10,-1.4580149294869846e-06,-2.960392698181608e-07,3.610476856853966e-07,3.2522456114091285e-07,-1.2919457635800219e-06,1.3833185526259484e-06,-1.7914282189521912e-06,6.810472634445383e-07
3.8468163109148577e-07,-8.725881517213547e-07,-8.569933978353814e-07,-6.7154763763671e-07,-2.851997397411005e-07,-1.4305029999718154e-06,-3.55504637542027e-07,-1.7779144975772126e-06,-1.5984132398794236e-06,5.722557343388286e-08,-1.4445462736698224e-06,-1.850618672046964e-07,3.89563920349231e-07,4.268330399481443e-07,-1.2488839066361868e-06,1.3855959390218938e-06,-1.7432995285262962e-06,7.456848262671033e-07
1.8935764282889886e-06,-2.1861523740921688e-06,-7.938650264829769e-07,-5.773762509026928e-07,-1.7798641353131982e-07,-1.417761175043426e-06,-2.665978044924319e-07,-1.7222672637049346e-06,-1.5659255040337275e-06,1.1235514805427195e-07,-1.4737392333747861e-06,-3.393808536066513e-08,3.3679407785279193e-07,4.966810559804796e-07,-1.21648018703975e-06,1.3526473815691824e-06,-1.7022434459545292e-06,7.866037918422915e-07
2.828800355388705e-06,-3.1013492106901072e-06,-7.491175408531724e-07,-4.646515063245962e-07,-6.125256774974692e-08,-1.3744349998377217e-06,-2.023277824658021e-07,-1.6739645898682568e-06,-1.5229331916222862e-06,1.2526945604279607e-07,-1.498307874188779e-06,1.366812659559162e-07,2.8157021134085566e-07,5.147087994201374e-07,-1.1951433462390788e-06,1.332694126273724e-06,-1.7109062237341097e-06,7.695158783727574e-07
2.995819178661785e-06,-3.3822178426133905e-06,-7.280160914672998e-07,-3.4753490244346435e-07,5.509320160820943e-08,-1.3142986292227536e-06,-1.7193855092457508e-07,-1.6389229413872501e-06,-1.4648153075612314e-06,1.0916123190499226e-07,-1.501863029187809e-06,2.790378092322729e-07,2.5177043864175466e-07,4.951445532755516e-07,-1.185971505991289e-06,1.3104151912138376e-06,-1.7542648600113912e-06,7.268463587795979e-07
2.447888734649097e-06,-3.0224565204750767e-06,-7.318139184120751e-07,-2.7152507736810853e-07,1.5667999202885536e-07,-1.2450105300275913e-06,-1.7481661408944596e-07,-1.6234827668164743e-06,-1.388411947698071e-06,1.0701473677291998e-07,-1.4990204505999975e-06,3.6690075597722643e-07,2.3991154593735443e-07,4.78450078526521e-07,-1.185531125610528e-06,1.2999402131326967e-06,-1.7385154394742486e-06,6.917671322583878e-07
1.3849198904876064e-06,-2.284847596967327e-06,-7.61402464091539e-07,-2.3460965432359382e-07,2.0280642124394802e-07,-1.1740054741075502e-06,-2.0734509931796497e-07,-1.6257596165682687e-06,-1.3046898623184715e-06,1.1015228172718068e-07,-1.4805896779042375e-06,4.420720885980971e-07,2.3216827247904242e-07,4.559348668248284e-07,-1.186725649143167e-06,1.3018118416129307e-06,-1.6989849339994703e-06,6.73629973379321e-07
3.628016082645513e-08,-1.607269956032531e-06,-8.076625217145154e-07,-1.9598578420149538e-07,2.3167252179093435e-07,-1.1159033275153597e-06,-2.603254002281104e-07,-1.6370686531060998e-06,-1.2063413399075885e-06,1.124678845647526e-07,-1.4593556845841153e-06,4.943882592833932e-07,2.4169861200493163e-07,4.180675161479802e-07,-1.1808934679218936e-06,1.2177813444197712e-06,-1.617589017548673e-06,6.427908923538477e-07
-1.3815020408383502e-06,-1.4164298457838363e-06,-8.600570017252092e-07,-1.6232944948272557e-07,2.592925202027785e-07,-1.072548104347247e-06,-3.1808747640304725e-07,-1.6561367986875603e-06,-1.0897352894829866e-06,1.2141109842353875e-07,-1.4182226537514867e-06,5.141680045594803e-07,1.7805807542852794e-07,3.5305288311293843e-07,-1.1609056168243179e-06,1.142228667606936e-06,-1.5135149936247421e-06,5.966216687463335e-07
-2.6392382818799007e-06,-1.9445468114312053e-06,-9.053998576230179e-07,-2.1985925028679126e-07,2.4543528458764255e-07,-1.0390639894875067e-06,-3.6700632582034655e-07,-1.6692431122319394e-06,-9.709927329569314e-07,1.3972262870853188e-07,-1.3635065242662789e-06,5.23705508094692e-07,1.1483174727646387e-07,2.404029763362825e-07,-1.124422447582807e-06,1.0807059929274543e-06,-1.4026663383749965e-06,5.377025476840676e-07
-3.4814229829155697e-06,-3.1688560715423373e-06,-9.309969703786466e-07,-2.832543643296209e-07,2.126889179632645e-07,-1.0179668146551852e-06,-3.913204173918162e-07,-1.6659723764325373e-06,-8.570888286775952e-07,1.6468303730711485e-07,-1.3077493037981892e-06,5.590154018104811e-07,9.617475032296156e-08,1.6232426076983477e-07,-1.0715192066515446e-06,1.053467117751464e-06,-1.3617501729580143e-06,5.32812862218084e-07
-3.694984029357966e-06,-4.828367569103123e-06,-9.432071049682596e-07,-2.630204926439665e-07,2.0013930995738278e-07,-1.0044856053889974e-06,-3.720095319388574e-07,-1.654996571095293e-06,-7.69914658018606e-07,1.9585952920672881e-07,-1.2412548577364252e-06,6.132363483973932e-07,7.105621738425413e-08,1.2079357364994927e-07,-1.0036759702902057e-06,1.0084370808322213e-06,-1.3433432211542372e-06,5.454806562382921e-07
-3.2122981157187233e-06,-6.532273980196138e-06,-9.141723430084042e-07,-2.0765547158386222e-07,2.179193939936076e-07,-9.9303327361736e-07,-3.4977265277314703e-07,-1.6186038761095994e-06,-7.043303550789586e-07,2.341407297326284e-07,-1.1749405029421538e-06,6.702047244780822e-07,5.305941871522311e-08,3.780196980455864e-08,-9.269140875189728e-07,9.522530523850876e-07,-1.3561594161861387e-06,5.492707434119151e-07
-2.1719291986337735e-06,-7.752823747998607e-06,-8.373829338374453e-07,-1.6368139624911554e-07,2.553965687523685e-07,-9.663616113616805e-07,-2.938362966645106e-07,-1.5776678193498856e-06,-6.459480972517849e-07,2.801285971022668e-07,-1.1228100532668681e-06,7.30716073345049e-07,3.699923639136131e-08,-9.166800860429152e-10,-8.518087717387349e-07,9.968259946682768e-07,-1.3847407491270937e-06,5.754088679508772e-07
-8.890542128135703e-07,-7.769812245731728e-06,-7.550687544270294e-07,-9.950926747753188e-08,2.9999442586373065e-07,-8.946092138204708e-07,-2.409868127162752e-07,-1.5374162264974308e-06,-5.842401178609893e-07,3.3345065187764556e-07,-1.073411786590535e-06,7.910841263926895e-07,4.084400616251414e-08,-9.960855396732864e-10,-7.888602497514819e-07,1.0502927186206903e-06,-1.3757678128913592e-06,6.136726292917017e-07
2.684565453477179e-07,-7.472239876850194e-06,-6.76195047842769e-07,-4.325646830761307e-09,3.3506059836376167e-07,-8.442120070437186e-07,-1.945127123713908e-07,-1.5074370079397643e-06,-5.126998784602539e-07,3.925407538582903e-07,-1.031424186060652e-06,8.471210046369768e-07,4.3078150040090174e-08,1.6043599289177243e-08,-7.445446948057137e-07,1.0583231488666615e-06,-1.3796620834118434e-06,6.658120772985214e-07
1.045233570448103e-06,-5.790122772060741e-06,-5.934134892060979e-07,9.409728386968475e-08,3.500423083952105e-07,-7.716475520726474e-07,-1.6234896990200474e-07,-1.4905734785752835e-06,-4.550003273697888e-07,4.5359374760751904e-07,-9.928874325445312e-07,8.982893386186251e-07,7.031794032799678e-08,3.523191979013256e-09,-7.209372446057772e-07,1.083620606001464e-06,-1.3821693162527967e-06,7.492170515334517e-07
1.3995130242429004e-06,-3.795383492280582e-06,-5.077654817566349e-07,1.633267890016431e-07,3.3740662104716324e-07,-6.640416440900864e-07,-1.4565584551763873e-07,-1.4908021320449612e-06,-4.2258780971062297e-07,5.100759753195238e-07,-9.710968184445784e-07,9.393309127566897e-07,1.1940193666231516e-07,-3.30245735789002e-08,-7.163077126197231e-07,1.0799588324198395e-06,-1.3849105450911137e-06,8.453114231988912e-07
1.4598467619811463e-06,-1.8130727432476322e-06,-4.231252223801767e-07,2.0839312938118817e-07,3.0395611651650197e-07,-5.811441240221079e-07,-1.4492699960311137e-07,-1.5018374164105026e-06,-4.514608435147044e-07,5.54453304030108e-07,-9.66091326731736e-07,9.668879905441253e-07,1.5775015619005416e-07,-7.847334649934234e-08,-7.257270968021127e-07,1.0501838695384956e-06,-1.4177690588263145e-06,8.924657932636331e-07
1.3774949813851368e-06,-2.1880121992509635e-07,-3.361354010864114e-07,2.3563012957208263e-07,2.6229274595367096e-07,-5.807598395262697e-07,-1.5429577635678296e-07,-1.5022542668831554e-06,-5.129651384845221e-07,5.805982915622582e-07,-9.991341404957746e-07,9.794581485361544e-07,2.246850597350663e-07,-1.0959814473215613e-07,-7.431883152551454e-07,1.0318720050423015e-06,-1.423802221065624e-06,9.289590790182682e-07
1.209355251984922e-06,7.594141599918583e-07,-2.466651525974152e-07,2.5475731298988757e-07,2.157749601839974e-07,-6.128127596467693e-07,-1.4396668552510386e-07,-1.4609338596959921e-06,-5.513920378921425e-07,5.848429438473152e-07,-1.0332420590864225e-06,9.770927220918387e-07,3.4629983664203134e-07,-1.0786579285625413e-07,-7.660599844069647e-07,1.01595812436037e-06,-1.4204465442120232e-06,9.496871582921555e-07
9.117945364593769e-07,1.0517371797294482e-06,-1.579951836560121e-07,2.7202241150730337e-07,1.9374403780630595e-07,-6.279273064079154e-07,-8.050833252426983e-08,-1.3790504560853656e-06,-5.676280524204167e-07,5.667044358407913e-07,-1.0202168666004667e-06,9.583586775996158e-07,3.87326001986611e-07,-8.732147052252383e-08,-7.960026520459958e-07,1.0216880132070216e-06,-1.3888241965482804e-06,9.43222789601159e-07
4.2331951812589885e-07,8.138130270766371e-07,-7.674584492743173e-08,2.948092969218398e-07,2.2761249142843334e-07,-6.413871623010472e-07,5.2090213782836046e-08,-1.2876399403859576e-06,-5.618277708970579e-07,5.305389351872142e-07,-9.914008159398028e-07,9.243294745205491e-07,3.8549786641415e-07,-1.2866477946249828e-08,-8.352964364192364e-07,1.0527935846054972e-06,-1.3293610413291822e-06,9.155407770253846e-07
-2.3922354872554815e-07,2.1764091657701284e-07,-2.767975348542918e-09,3.254725886470882e-07,2.256682508006222e-07,-6.344258285891414e-07,2.035597864477729e-07,-1.2030539798688695e-06,-5.287767413390513e-07,4.860620275447608e-07,-9.378140459792269e-07,8.782961789124832e-07,3.706282103106186e-07,1.3416957848196963e-07,-8.845790825927485e-07,1.1028278902394054e-06,-1.2935437870223101e-06,8.85450923135649e-07
-9.427985817308672e-07,-5.199487222114792e-07,6.22522387252478e-08,3.7037579913950815e-07,2.8880855937609546e-07,-5.894987031418937e-07,3.4545845106275505e-07,-1.0812961022638385e-06,-5.525338070657806e-07,4.454775516183858e-07,-8.973149839472619e-07,8.245550076860582e-07,3.799200501165716e-07,2.6443602390975e-07,-9.441965074576726e-07,1.167607010929944e-06,-1.2553648606541897e-06,8.697386956319277e-07
-1.4880085507219508e-06,-1.3129830553482364e-06,1.0791179035822887e-07,4.017580104344368e-07,3.633376391891156e-07,-5.732031855027798e-07,4.912834302331521e-07,-9.556225370938264e-07,-5.983822318909668e-07,4.1897853812841496e-07,-8.982361812644412e-07,7.68101235273431e-07,4.490613832113824e-07,4.182865948270139e-07,-1.0154008300596767e-06,1.2460319236194662e-06,-1.2733750711033743e-06,8.648061039497775e-07
-1.7177649257468218e-06,-2.170831102226474e-06,1.0542277595797908e-07,3.7854798053142454e-07,4.291807859344639e-07,-5.758952304416838e-07,6.159801713899607e-07,-9.07190454265461e-07,-6.410610062051945e-07,4.120068223238284e-07,-9.169133285712437e-07,7.128243604062453e-07,5.646549552566941e-07,5.540904554826924e-07,-1.0987001304852501e-06,1.333822264546768e-06,-1.32308872024315e-06,8.750191606722614e-07
-1.6119595968256428e-06,-2.8966451717465155e-06,4.5236282560982946e-08,3.231012648354041e-07,4.493407357458792e-07,-5.934348164043298e-07,6.600761411149225e-07,-8.875841649990011e-07,-6.787079037315696e-07,4.248500754898284e-07,-9.482827550594098e-07,6.619702972405151e-07,6.997633017296442e-07,6.554022493666088e-07,-1.192598127298997e-06,1.4243565605489358e-06,-1.380883560246738e-06,8.963694433732762e-07
-1.3034535376850377e-06,-3.370004981371366e-06,-5.18702211422675e-08,2.3308861381522265e-07,4.511326102889594e-07,-6.201896693140823e-07,6.937087563665643e-07,-9.025300617074753e-07,-7.048826078424195e-07,4.533717198519811e-07,-9.891766381725973e-07,6.166965610296647e-07,8.598619208393019e-07,7.622905931529207e-07,-1.2943896849811628e-06,1.512049659668612e-06,-1.4733279758071122e-06,9.221948213989093e-07
-9.960488940844566e-07,-3.5347774388642566e-06,-1.2356606616174868e-07,1.8197836141968193e-07,4.640879768508616e-07,-6.503849203635228e-07,7.214115445129909e-07,-8.821104875202649e-07,-7.680644482567572e-07,4.908866095810214e-07,-1.0548165099693942e-06,5.772960123243883e-07,9.7665216544414e-07,8.166586495753257e-07,-1.4003686383226689e-06,1.5905960970887555e-06,-1.5466071886414102e-06,9.49793489670755e-07
-8.285135851368268e-07,-3.385680517259723e-06,-1.8588316248490625e-07,1.325975669570058e-07,4.130396675630548e-07,-6.833265979955913e-07,6.839921763693069e-07,-8.685351147604124e-07,-8.380667640050883e-07,5.310809410501847e-07,-1.1284732197229236e-06,5.448457862662968e-07,1.0741558672274456e-06,8.373799677151762e-07,-1.504253984197132e-06,1.6579893451322244e-06,-1.5939281869866215e-06,9.746831252824082e-07
-7.802261162792342e-07,-3.047136922706652e-06,-2.3302461825491814e-07,-8.545583286663874e-09,3.5083862608870984e-07,-6.97817655582685e-07,6.212514638106083e-07,-9.102664521845374e-07,-8.81763779006308e-07,5.697520520414192e-07,-1.1875683129308194e-06,5.2314385706074e-07,1.166157544179206e-06,8.467155397988806e-07,-1.5974004056927415e-06,1.7180232353044872e-06,-1.6041955144330397e-06,9.964385101691508e-07
-6.879225127433973e-07,-2.6742429795151115e-06,-2.5583648578022476e-07,-1.2528142519216557e-07,3.056667546435197e-07,-6.997599092696008e-07,5.704984230090717e-07,-9.401536906986323e-07,-9.158454686551808e-07,6.038160316092454e-07,-1.2261420919126076e-06,5.172800447226463e-07,1.2611170008544927e-06,8.312734656713945e-07,-1.6723941064695227e-06,1.7761983077676921e-06,-1.5756196367743989e-06,1.0164669204865065e-06
-3.558510153370483e-07,-2.4018125568995196e-06,-2.656574978951057e-07,-1.8592524949342718e-07,2.6990771106361437e-07,-6.99182937404701e-07,5.538610658787486e-07,-9.63467752070625e-07,-9.085923811086606e-07,6.296386068911535e-07,-1.2559934822480985e-06,5.306770864677254e-07,1.3514812501998372e-06,8.164684409254163e-07,-1.7256837156925254e-06,1.836025045824708e-06,-1.5688727825056504e-06,1.035178061748998e-06
3.225793264764385e-07,-2.3006387072003576e-06,-2.5982147683109127e-07,-1.9836018565659863e-07,2.8121821748317884e-07,-7.036460063684934e-07,5.625297161983007e-07,-9.87221737914337e-07,-8.912185051125598e-07,6.434171178648691e-07,-1.2771953207946827e-06,5.644385436538655e-07,1.4035497463243942e-06,8.124535208961698e-07,-1.7554704632532591e-06,1.8988284584840753e-06,-1.6213432252760468e-06,1.0520548985329685e-06
1.3050656601393966e-06,-2.3264117029250504e-06,-2.411939173783931e-07,-1.5428253423466064e-07,3.1857486742820814e-07,-7.141458747768217e-07,5.892146844113854e-07,-1.0051025684404215e-06,-8.764586068410486e-07,6.429886707135615e-07,-1.2829876537081412e-06,6.165509839101171e-07,1.4549930057044362e-06,8.217267179428481e-07,-1.7622130222338381e-06,1.9652848034778304e-06,-1.725699693440885e-06,1.068252423096274e-06
2.4286604533031024e-06,-2.367487088827942e-06,-2.139272240962373e-07,-1.4765028367787162e-07,3.5004555071011414e-07,-7.053571138818238e-07,6.210247436612383e-07,-1.0094714635189946e-06,-8.657379060839652e-07,6.288678690757182e-07,-1.2929298254809375e-06,6.840363851216262e-07,1.5075675575555508e-06,8.44807877650858e-07,-1.7484356424973227e-06,2.035574373955464e-06,-1.7938560083947046e-06,1.0842716091185092e-06
3.5065409249376913e-06,-2.308973458571564e-06,-1.770520302104568e-07,-1.56613212893875e-07,4.299199841213807e-07,-6.844989328969617e-07,6.600113197748608e-07,-9.991875792513342e-07,-8.835902549759244e-07,6.043994909951829e-07,-1.2701684492937651e-06,7.599794659108356e-07,1.5523776332632195e-06,8.78968205044601e-07,-1.7163234337119149e-06,2.1093367740658666e-06,-1.820800318076712e-06,1.0998206707987216e-06
4.420029398136112e-06,-2.0798052106851586e-06,-1.3489124808919467e-07,-1.1401748771599049e-07,5.409556849706331e-07,-6.557761366938486e-07,7.070514773066745e-07,-9.74048503725279e-07,-9.333990154219291e-07,5.757420078984997e-07,-1.2350318503942137e-06,8.383196731131009e-07,1.6011479716042147e-06,9.210871324601999e-07,-1.6685576236479765e-06,2.1868728297261798e-06,-1.8853753030402947e-06,1.1154763538954462e-06
5.130369814381873e-06,-1.6763803198108875e-06,-8.993692511644732e-08,-7.46923610768166e-08,6.421920823345933e-07,-6.285908999911627e-07,7.575107602327617e-07,-9.374124018878106e-07,-9.874061222442466e-07,5.507199023870875e-07,-1.2029883572746978e-06,9.138227574258135e-07,1.6413222372953413e-06,9.639022577845217e-07,-1.6082043611753707e-06,2.2692141229382906e-06,-1.9164435971864083e-06,1.13187106459554e-06
5.617458568576553e-06,-1.16431638608818e-06,-4.1967726815596915e-08,2.4252609750574963e-08,7.365247775687063e-07,-6.055896565833766e-07,8.128596489266524e-07,-8.997729016376311e-07,-1.0218583509929947e-06,5.360375543086202e-07,-1.1468463440055398e-06,9.821281999295695e-07,1.675051373027119e-06,1.0137122152620153e-06,-1.5401093953580243e-06,2.356246630279523e-06,-1.920436652851007e-06,1.1494352240681068e-06
5.826997261764752e-06,-6.605468911817923e-07,9.265809285369232e-09,1.34084293101777e-07,8.247609400105243e-07,-5.800106892755945e-07,8.699667723691255e-07,-8.576483380483388e-07,-1.0330126503377388e-06,5.35000013220408e-07,-1.0961368638792003e-06,1.040398941858091e-06,1.7116668825625006e-06,1.0673907358681631e-06,-1.4711677725520425e-06,2.446058706579235e-06,-1.9114811561299426e-06,1.1681480273026852e-06
5.677100970239595e-06,-2.8934512978285013e-07,6.369987481143765e-08,2.3698641287838123e-07,8.971683662574873e-07,-5.498651978736147e-07,9.255216953757852e-07,-8.105870663113296e-07,-1.0259399694117345e-06,5.474652800754804e-07,-1.0509239102242489e-06,1.0886950716762208e-06,1.7432001731806524e-06,1.120353346705209e-06,-1.407277976433258e-06,2.5368232476054076e-06,-1.8612697424255521e-06,1.1878113599672942e-06
5.094049478194761e-06,-1.4375364507690645e-07,1.2081628852745523e-07,3.366552283299489e-07,9.549347801839238e-07,-5.156716881747004e-07,9.793290438805717e-07,-7.602842460715794e-07,-1.003543927069763e-06,5.707262965874947e-07,-1.0049346913395233e-06,1.1290725552072012e-06,1.7684718094523205e-06,1.1747181625370119e-06,-1.3514145882862438e-06,2.6272309036755244e-06,-1.8198830344259345e-06,1.2082309400889738e-06
4.036960766470247e-06,-2.790493399226854e-07,1.7915956200658486e-07,4.014555874698865e-07,1.0005598586163608e-06,-4.860797188265688e-07,1.0306882341586362e-06,-7.067312310449648e-07,-9.746093448343899e-07,5.999918740361906e-07,-9.683460685059761e-07,1.1626780513611897e-06,1.7924133462785984e-06,1.2273876585528917e-06,-1.3049560613551986e-06,2.714946621758572e-06,-1.789638321271096e-06,1.228865731122973e-06
2.515279938386012e-06,-7.263797717911374e-07,2.3624426790204654e-07,4.4198789399088586e-07,1.036913301265264e-06,-4.53174226282117e-07,1.0787523767082972e-06,-6.533977352684774e-07,-9.457435336460707e-07,6.294078965213878e-07,-9.377172963025418e-07,1.190098150451478e-06,1.8146223961933271e-06,1.2750342488028147e-06,-1.268677337878073e-06,2.796528462150597e-06,-1.754823349626895e-06,1.2489575560095761e-06
6.148315023808592e-07,-1.491935907338208e-06,2.89759877034052e-07,4.7035509099719073e-07,1.0669785039921938e-06,-4.193408632509194e-07,1.1237549435868793e-06,-6.042274990836452e-07,-9.157620308691633e-07,6.53937662682274e-07,-9.109365189184699e-07,1.2107563171355534e-06,1.8400702389284966e-06,1.3161467575367441e-06,-1.2415664888232932e-06,2.8692301577377263e-06,-1.7270773429884437e-06,1.2680753028927373e-06
-1.478333276460342e-06,-2.5170602655971372e-06,3.386324435896941e-07,4.900814068603331e-07,1.0939297920433303e-06,-3.8910711404371006e-07,1.167048448811731e-06,-5.591696527807753e-07,-8.907314047859547e-07,6.70370008994964e-07,-8.884849705279756e-07,1.2243501826835808e-06,1.8655865531218408e-06,1.3509796847738392e-06,-1.2215715455226537e-06,2.9317553153058317e-06,-1.69722557310471e-06,1.2861095853015029e-06
-3.4837881333914292e-06,-3.635852789480246e-06,3.82884240219515e-07,5.116813861252628e-07,1.12015970061243e-06,-3.6256513954835335e-07,1.2095769781432197e-06,-5.162356552851364e-07,-8.747523776572207e-07,6.770161332031116e-07,-8.712590124911858e-07,1.2310034314339591e-06,1.8859491676004822e-06,1.3776677934027484e-06,-1.206694269170131e-06,2.9838661900360767e-06,-1.6579128832220241e-06,1.3029987086103133e-06
-5.081849843573812e-06,-4.619308130143464e-06,4.23295831245264e-07,5.359625211567036e-07,1.1467672072691053e-06,-3.414872850416938e-07,1.2513280262155157e-06,-4.756826755467914e-07,-8.645505585469302e-07,6.738229194127659e-07,-8.576483954862777e-07,1.2315231951728506e-06,1.902121930920821e-06,1.396887805355045e-06,-1.194003735777448e-06,3.027363089437792e-06,-1.6330593451107173e-06,1.3190747265875938e-06
-6.001384931322335e-06,-5.305512013638567e-06,4.6167989151970905e-07,5.633973176156356e-07,1.174508500372235e-06,-3.2238365923033557e-07,1.2928609798117398e-06,-4.3637308593883957e-07,-8.573078361791281e-07,6.631592177396085e-07,-8.457122571580532e-07,1.2279507351472997e-06,1.9190688980842684e-06,1.4131503354779852e-06,-1.179266636977205e-06,3.0663989824585556e-06,-1.6173065942764317e-06,1.3354913466143715e-06
-6.102086016891997e-06,-5.681423780130454e-06,5.00800471833212e-07,5.962913261917379e-07,1.2043752026802597e-06,-2.9968723995699217e-07,1.3359562480150527e-06,-3.960867990459137e-07,-8.48177140272495e-07,6.495210733287591e-07,-8.341073136613492e-07,1.223525013833011e-06,1.9349474834304785e-06,1.4310057552567123e-06,-1.1578557781835993e-06,3.109958892082914e-06,-1.5995432088846606e-06,1.3538255938643067e-06
-5.429770751782705e-06,-5.821058422637111e-06,5.431549349936845e-07,6.350919414973697e-07,1.2368418781680145e-06,-2.7141959117933443e-07,1.3822928336693011e-06,-3.531834730872034e-07,-8.296546190623485e-07,6.378884348734486e-07,-8.206196481737249e-07,1.2211109869316368e-06,1.9534621984619704e-06,1.4552292765408745e-06,-1.1264448754259923e-06,3.163936072245667e-06,-1.5796193941030671e-06,1.3754664168536783e-06
-4.2145208665411864e-06,-5.7658164830940136e-06,5.898255709901464e-07,6.784039050269873e-07,1.2714729718105245e-06,-2.3855469246256724e-07,1.4325138084905172e-06,-3.0623408465663953e-07,-8.003195955197712e-07,6.322034501445403e-07,-8.027243580000096e-07,1.223502028555814e-06,1.9789446339859428e-06,1.4898910756986423e-06,-1.0814974145773926e-06,3.2327152812107543e-06,-1.5537156368224855e-06,1.4015779773504191e-06
-2.788987002524867e-06,-5.492317330144773e-06,6.403765990330626e-07,7.237578345777319e-07,1.3075205865433872e-06,-1.9986617135780462e-07,1.4869282169753178e-06,-2.547979769361876e-07,-7.560043012359394e-07,6.343670904646363e-07,-7.806002781021668e-07,1.2322231777726744e-06,2.0097964691729557e-06,1.536682751761609e-06,-1.0228977168069011e-06,3.318168320786066e-06,-1.521545874412013e-06,1.4330058946379446e-06
-1.4683065513642686e-06,-4.956152822734934e-06,6.929070414503692e-07,7.681591309672906e-07,1.344036265974148e-06,-1.522268274312231e-07,1.543756035493837e-06,-1.9991813145747683e-07,-6.98674282790721e-07,6.434375494953655e-07,-7.54911520952258e-07,1.2467163344426874e-06,2.0471502988582036e-06,1.5955278554462957e-06,-9.528675857426293e-07,3.4186968292056043e-06,-1.4843621284196828e-06,1.4696458856628763e-06
-4.593396035305937e-07,-4.143872977680959e-06,7.439931187725426e-07,8.091228177801567e-07,1.379407099744165e-06,-9.710280820211353e-08,1.5993636545811916e-06,-1.4440731703332864e-07,-6.339790232995932e-07,6.559024949201567e-07,-7.271836361218337e-07,1.2640090900863339e-06,2.087423327955577e-06,1.6584545989288112e-06,-8.753310166084373e-07,3.5287188010487502e-06,-1.446167315352088e-06,1.5101184396245397e-06
1.7617094898417538e-07,-3.0945840444234683e-06,7.894887460918187e-07,8.434480070931142e-07,1.4116922189489726e-06,-3.426338446282874e-08,1.6496367782600966e-06,-9.182222052446924e-08,-5.619708544162932e-07,6.675598357888949e-07,-6.988706064225017e-07,1.2821077077526448e-06,2.1238556101296344e-06,1.7174868401232655e-06,-7.968692685113792e-07,3.640034011645991e-06,-1.4036297281538348e-06,1.552183081099364e-06
5.068015539906622e-07,-1.8938858687009991e-06,8.257563273398288e-07,8.669444084564932e-07,1.4393962499518844e-06,3.4541404164005114e-08,1.6909637950788224e-06,-4.51170865226636e-08,-4.840908618211621e-07,6.755621116903243e-07,-6.699572960638376e-07,1.297394418224857e-06,2.1563836840828588e-06,1.7653670506555529e-06,-7.202331107715971e-07,3.7453616363009575e-06,-1.3601717135231941e-06,1.5932065032112007e-06
6.656169723333284e-07,-6.640189285810065e-07,8.505827822212841e-07,8.796170621252166e-07,1.4615400448803164e-06,1.0485241534880006e-07,1.7201571832822139e-06,-6.463081230406593e-09,-3.998086070509503e-07,6.793675312707021e-07,-6.398243577017929e-07,1.308695019770516e-06,2.1804133813404273e-06,1.7969816555668206e-06,-6.471060980698034e-07,3.838282541115829e-06,-1.3166735629488766e-06,1.630549924921497e-06
7.602680664570159e-07,4.401730394771995e-07,8.637343608017539e-07,8.829173438845144e-07,1.4778214270164686e-06,1.762613113021308e-07,1.7362277194678964e-06,2.314403814039557e-08,-3.104844661709382e-07,6.809634517771124e-07,-6.074700442474886e-07,1.3189315879370705e-06,2.1933067346667906e-06,1.8129072609986488e-06,-5.778549251526322e-07,3.917108134637178e-06,-1.2719863361410135e-06,1.662306403130992e-06
8.267937351287673e-07,1.2554578034176626e-06,8.676147202262592e-07,8.822650561760716e-07,1.4894885357354759e-06,2.449573560784237e-07,1.7410083174644285e-06,4.472508933675312e-08,-2.204962096889586e-07,6.844184228969233e-07,-5.718705013353371e-07,1.332707382104616e-06,2.1969798526750112e-06,1.8175939952296585e-06,-5.102767609560008e-07,3.984990588624846e-06,-1.2282288779438761e-06,1.6878406280316987e-06
8.735252004537722e-07,1.6817740366995353e-06,8.668127269449244e-07,8.834465464798458e-07,1.4991756082390596e-06,3.122501517828506e-07,1.7387566811418372e-06,6.095981062115323e-08,-1.319866903654997e-07,6.942928886688637e-07,-5.316473286451752e-07,1.3554379279308052e-06,2.1927210555463308e-06,1.8174898929072686e-06,-4.4191568371603045e-07,4.04975192787229e-06,-1.1815678843810463e-06,1.7074844977139191e-06
9.63321741992298e-07,1.744471215756751e-06,8.659870971890255e-07,8.903842799937431e-07,1.5087728015349271e-06,3.7469815967522765e-07,1.7344015606491286e-06,7.437752413775517e-08,-4.6044842415514126e-08,7.139249853017264e-07,-4.865924566015753e-07,1.3898447136581811e-06,2.185642416530728e-06,1.8172439950584224e-06,-3.701845918256016e-07,4.116144497258885e-06,-1.131575945301424e-06,1.7220808946326471e-06
1.2265329314574356e-06,1.5748471103368143e-06,8.678060500886485e-07,9.054007127255344e-07,1.5173891902436376e-06,4.301867537079502e-07,1.7306339226426174e-06,8.619461733826824e-08,3.701701867374804e-08,7.449758337455614e-07,-4.3831167840468535e-07,1.4350574133803093e-06,2.1809052793783217e-06,1.8195633133880573e-06,-2.953870981441667e-07,4.18735083514968e-06,-1.0812061623102875e-06,1.7331085523176036e-06
1.7722830540028758e-06,1.3196493987055762e-06,8.722341241353509e-07,9.265655832021765e-07,1.521177234485264e-06,4.779562055058773e-07,1.727138271528408e-06,9.623750272804013e-08,1.1708688390016263e-07,7.876025367401842e-07,-3.8881644007060974e-07,1.4871623395936325e-06,2.1813967696826586e-06,1.8237691576985958e-06,-2.1730502529065833e-07,4.266234405364157e-06,-1.0321427967468498e-06,1.7426398374424604e-06
2.5731560765123305e-06,1.060130208173041e-06,8.766741256562773e-07,9.495518372860977e-07,1.5146558251625092e-06,5.19564449998251e-07,1.7212062756824855e-06,1.0308992118982414e-07,1.965657274193583e-07,8.40313500305002e-07,-3.3733425800253057e-07,1.5417538848609597e-06,2.186564193120257e-06,1.826451170051143e-06,-1.433010897091172e-07,4.3590108262340955e-06,-9.864086725666556e-07,1.7526562872501933e-06
3.418031504321745e-06,8.00431658415068e-07,8.768306859408785e-07,9.697063309062622e-07,1.493252553334232e-06,5.561549919594937e-07,1.70685431537165e-06,1.0510701583197899e-07,2.802364381979738e-07,9.004252314220506e-07,-2.861392479403399e-07,1.5934846974334506e-06,2.1943926429855613e-06,1.8236590336443311e-06,-7.111352529407902e-08,4.448485654650194e-06,-9.416153512599134e-07,1.7646801069768599e-06
3.981338309601844e-06,5.125111021283043e-07,8.687677011250133e-07,9.795734180166974e-07,1.4566417128921578e-06,5.938596851318247e-07,1.6791025220603276e-06,1.0242975613160935e-07,3.741501342745765e-07,9.656928793102792e-07,-2.347540494482082e-07,1.6451525138937141e-06,2.1988889187457016e-06,1.814364762882295e-06,1.5685024851347103e-08,4.5391159582464366e-06,-8.877008894999253e-07,1.7800783590600407e-06
3.941625404541412e-06,1.8553995490565742e-07,8.508929547493214e-07,9.787780965464172e-07,1.410094846286401e-06,6.372716623373355e-07,1.6378024676911827e-06,9.759295553705583e-08,4.864301158602759e-07,1.0354552126316486e-06,-1.7760478333355537e-07,1.698709721369167e-06,2.199804424139521e-06,1.7996549961392722e-06,1.0645767753417948e-07,4.634545048223955e-06,-8.112733436742371e-07,1.7999750833942314e-06
3.089606688076272e-06,-1.4935825621603997e-07,8.240931637650569e-07,9.696425704807154e-07,1.361414182528713e-06,6.858619101612746e-07,1.5803038283433135e-06,9.331710099867472e-08,6.23378202656554e-07,1.1101271505433333e-06,-1.118693215702893e-07,1.7600851227569554e-06,2.1931047566728733e-06,1.7795206619204556e-06,2.0378953457564074e-07,4.718009594005269e-06,-7.038848625547306e-07,1.824401795434894e-06
1.432787398503527e-06,-4.201956836778503e-07,7.905605178207575e-07,9.508304412760438e-07,1.3157356481308277e-06,7.793759838640504e-07,1.5132124496886612e-06,9.02554161971482e-08,7.672080236604846e-07,1.1902556194771715e-06,-3.6250586804012056e-08,1.8308966027182772e-06,2.172372517585704e-06,1.7524893217532468e-06,2.89581319459531e-07,4.760375723064452e-06,-5.672308424070761e-07,1.8517856207744523e-06
-7.874405917732092e-07,-5.486302627778246e-07,7.530935123734837e-07,9.128368499786552e-07,1.2727566881916051e-06,9.080179800283428e-07,1.4452403566330083e-06,8.72985444506002e-08,9.103504851108796e-07,1.2760029552649608e-06,4.778282252670047e-08,1.9068487823774417e-06,2.136961921587531e-06,1.714519114753675e-06,3.516925743000988e-07,4.7310489620469625e-06,-4.138509670832783e-07,1.87928738582072e-06
-3.211823813482094e-06,-5.182676053735139e-07,7.149169526461282e-07,8.439235760978387e-07,1.2277308001322583e-06,1.0172414673369685e-06,1.3824826457952366e-06,8.307427452693852e-08,1.0493223574084263e-06,1.3661434123222862e-06,1.3499375569258298e-07,1.980546234866423e-06,2.086622620931637e-06,1.6613946416049e-06,3.547872881144422e-07,4.681049583166511e-06,-2.614312755398725e-07,1.9033645574512546e-06
-5.27452533818878e-06,-4.1295123385566265e-07,6.792849324741118e-07,7.595980552937072e-07,1.174704395656149e-06,1.0968491816152606e-06,1.3243310072880925e-06,7.69378882482056e-08,1.1539196381100353e-06,1.4568164668867096e-06,2.191754555426009e-07,2.0460450663694594e-06,2.0254865076045945e-06,1.5922826117339042e-06,2.894807308035858e-07,4.6297620382570295e-06,-1.3218841739701837e-07,1.9204757215483776e-06
-6.4110787477900204e-06,-3.694527799868691e-07,6.492830908672846e-07,6.476390823522168e-07,1.1107022971908628e-06,1.1409603145274237e-06,1.2820997544189477e-06,7.00822977101894e-08,1.1852182320297755e-06,1.5420881104867757e-06,2.956828286702204e-07,2.1004011140263405e-06,1.9620948386529493e-06,1.5097116625619986e-06,2.421986735798172e-07,4.62919713839685e-06,-5.7975114163657464e-08,1.9282900011664956e-06
-6.446702392987061e-06,-4.815754410466282e-07,6.282511328329965e-07,5.395823855605992e-07,1.0388920286935927e-06,1.153231092119592e-06,1.2521247393730764e-06,6.653314906413012e-08,1.1559051604515472e-06,1.6163118459887845e-06,3.6260580292619305e-07,2.1422136863233784e-06,1.888308065364146e-06,1.4144684512806366e-06,2.493706901502978e-07,4.601359527987586e-06,2.3423789621616742e-08,1.926583360659998e-06
-5.545900466239764e-06,-7.389465673691514e-07,6.194065858450808e-07,4.819224572205503e-07,9.676684387233678e-07,1.1430344503229605e-06,1.230900766283523e-06,7.159310690076931e-08,1.1376447156613341e-06,1.6756231378938767e-06,4.2060571227909245e-07,2.1740352627869657e-06,1.8080080690311207e-06,1.3192139166758356e-06,2.6859168086002236e-07,4.5809174330148e-06,4.5202069884023983e-08,1.916744576718708e-06
-4.048222194746785e-06,-1.043414958882678e-06,6.238492313454668e-07,4.821454222026872e-07,9.059760034407969e-07,1.1660890681749122e-06,1.2877086599854897e-06,8.81733422033593e-08,1.1392541522020268e-06,1.7177393109519712e-06,4.716940186378595e-07,2.196123322910435e-06,1.7609560231828748e-06,1.2288262827013416e-06,2.955764288630695e-07,4.501807054933935e-06,5.7369452221402145e-08,1.9006407194964124e-06
-2.4783359811640445e-06,-1.2720775930810738e-06,6.398814690452231e-07,5.369964401573109e-07,8.596096523645056e-07,1.190581536383198e-06,1.408468188624173e-06,1.1535699027227306e-07,1.1388791210523074e-06,1.7420119194415648e-06,5.172341400857577e-07,2.2081140465678793e-06,1.7467442255450788e-06,1.1579596494943918e-06,2.6844481140603125e-07,4.396812375104017e-06,6.046046383826217e-08,1.880280421166972e-06
-1.326913928848508e-06,-1.332945584340976e-06,6.64192194961631e-07,5.622360456396256e-07,8.31055053648552e-07,1.1630823991085927e-06,1.5477156203917247e-06,1.5008223767575748e-07,1.1378058187364815e-06,1.7501420257051423e-06,5.586480676714355e-07,2.2106180516464606e-06,1.7821185451102355e-06,1.1352386618493158e-06,2.4560774947422386e-07,4.312433392135888e-06,6.134959456913638e-08,1.8578058600446275e-06
-9.742199816587022e-07,-1.1939911979930354e-06,6.932032949640549e-07,5.786933785594418e-07,8.201423930341517e-07,1.1627698463141321e-06,1.6945607895581411e-06,1.8848479516826466e-07,1.182364789732128e-06,1.745628931509532e-06,5.975133235418481e-07,2.204726418838893e-06,1.8362702086326515e-06,1.154641834883256e-06,1.9911592796160685e-07,4.253100974626694e-06,6.409230347489186e-08,1.834722885649182e-06
-1.5811846423888485e-06,-8.853855610494225e-07,7.231585280470878e-07,6.251893777601488e-07,8.233320512508553e-07,1.1641998347243932e-06,1.8133654427072205e-06,2.2547779924851061e-07,1.1749493559151015e-06,1.7317218252712434e-06,6.332489029682734e-07,2.1906332616082083e-06,1.8922566322184726e-06,1.1489426287482327e-06,1.3269411319446727e-07,4.2206329070729955e-06,6.914775555700306e-08,1.8109868859776303e-06
-2.9870709188177505e-06,-4.704720587653691e-07,7.499616337629439e-07,6.515928583261803e-07,8.336016033322826e-07,1.1239854459539692e-06,1.9032220509592646e-06,2.548940217046073e-07,1.1348847027449156e-06,1.7099619113043433e-06,6.64822307032557e-07,2.1685257021161586e-06,1.9292831137189602e-06,1.1307838130297705e-06,9.63267584615004e-08,4.162476043143393e-06,7.486810169679744e-08,1.7850592642514986e-06
-4.8857871480097945e-06,-7.817261786672946e-09,7.701143298151373e-07,7.338567871148645e-07,8.425431152030884e-07,1.0595474058025075e-06,1.965823766689051e-06,2.7119858717421573e-07,1.0989151993704337e-06,1.6801990366336765e-06,6.903187443598456e-07,2.1375497518757897e-06,1.9438288260604287e-06,1.0981115388026152e-06,5.3345814010232416e-08,4.07872188463257e-06,7.945891418017553e-08,1.7546418011071349e-06
-6.815533136790056e-06,4.5984675538059786e-07,7.815975722418047e-07,8.227330786655871e-07,8.429298919876729e-07,9.755140251340476e-07,1.996507396469488e-06,2.710181724963199e-07,1.0228093155987329e-06,1.6413047585050222e-06,7.073348233018758e-07,2.0980512958245454e-06,1.9336136920670733e-06,1.0425145737884966e-06,-2.1230186409998806e-08,3.975884698781657e-06,8.202818975627686e-08,1.7175036618347278e-06
-8.463472193279284e-06,8.968799123783156e-07,7.839262544308046e-07,9.197006443269548e-07,8.302308597420801e-07,8.971793409659866e-07,2.0031714913251266e-06,2.539449314138093e-07,9.709179359058287e-07,1.5924469258525078e-06,7.155315945762051e-07,2.0500224800367884e-06,1.897303030699901e-06,9.754929430642684e-07,-1.1667850883369133e-07,3.85855769395298e-06,8.357240533044115e-08,1.672702895118735e-06
-9.713079104286511e-06,1.2737561234389318e-06,7.780290473265104e-07,1.0165164946697731e-06,8.036407111470301e-07,8.30386511844448e-07,1.9888225976816862e-06,2.2323230346744817e-07,9.065170390244543e-07,1.5347693421970972e-06,7.167281583427893e-07,1.9951600852095898e-06,1.848902870795575e-06,8.973876752211094e-07,-2.3231188245198598e-07,3.7405138548642367e-06,8.676443075114188e-08,1.6217839028154728e-06
-1.0501629541169732e-05,1.570372111474889e-06,7.661756385015734e-07,1.0527553413729319e-06,7.662206624534824e-07,7.69481895690797e-07,1.9558324748078677e-06,1.8513494764019345e-07,8.246982451991527e-07,1.4717843052686384e-06,7.149251755705025e-07,1.9367486672501264e-06,1.7916556344554428e-06,8.140160281992296e-07,-3.5273064523537523e-07,3.6268731577241457e-06,9.495033759620218e-08,1.5684510820851898e-06
-1.0811735086604534e-05,1.770123006294649e-06,7.508231189870361e-07,1.0612477557430391e-06,7.226160929249328e-07,6.952171859138537e-07,1.9091402721333633e-06,1.4570691530051202e-07,7.541460519625445e-07,1.4076698539433058e-06,7.147197970248178e-07,1.8766104847218538e-06,1.7254749203725483e-06,7.305726700355466e-07,-4.4040052895817956e-07,3.5222911379183816e-06,1.0914273455470483e-07,1.5167519757728032e-06
-1.0621400407968558e-05,1.8459064738265297e-06,7.330630799891113e-07,1.0878194673625686e-06,6.755820939450968e-07,6.101103470539756e-07,1.8498215093284072e-06,1.0768868227608347e-07,6.819101167411943e-07,1.3456027794628829e-06,7.163880938120188e-07,1.814979205864789e-06,1.6527288611765054e-06,6.441880450898706e-07,-5.119836684932643e-07,3.419189169548774e-06,1.2692437943672868e-07,1.4698159497527667e-06
-9.986702320197005e-06,1.7438944222295398e-06,7.127296695662309e-07,1.1238840921675883e-06,6.246595442827777e-07,5.423010070587979e-07,1.7861510366587602e-06,7.078299484613235e-08,6.201583896503406e-07,1.287916447094348e-06,7.216416733867621e-07,1.7513074748568732e-06,1.5727925589271973e-06,5.553327769776817e-07,-5.776971172938617e-07,3.3230841615030127e-06,1.444459380710078e-07,1.4299196899864235e-06
-9.110022958253978e-06,1.3809941491424123e-06,6.901166720382178e-07,1.1706890432999947e-06,5.674930719675916e-07,4.83828533980849e-07,1.7146571278432066e-06,3.400146241629861e-08,5.61966750829925e-07,1.2366720630828906e-06,7.317113908681411e-07,1.6863005070135844e-06,1.4887886448303154e-06,4.643088159892835e-07,-6.325290653460721e-07,3.2295599929414167e-06,1.5840477336994227e-07,1.398403764469353e-06
-8.241391967609501e-06,6.759012702195636e-07,6.672097981502912e-07,1.1916102566551792e-06,5.015108738571719e-07,4.32396169357877e-07,1.6335892064512877e-06,-3.0515167937811085e-09,5.299115434482914e-07,1.1931228012601154e-06,7.464770444496006e-07,1.6210392359823536e-06,1.4035426948215324e-06,3.704038119292783e-07,-6.805044985815557e-07,3.1331529093786166e-06,1.6684839563380753e-07,1.374853879891979e-06
-7.543557413824679e-06,-3.922620569439528e-07,6.478645427677288e-07,1.1829471232609464e-06,4.251976422069777e-07,3.852225248895557e-07,1.5490126996328184e-06,-3.987348146200054e-08,5.12367935100322e-07,1.1572480855739992e-06,7.660716510122572e-07,1.5567619715471546e-06,1.3175702889025662e-06,2.735062421873834e-07,-7.237891384217352e-07,3.030088123282277e-06,1.6905963002096093e-07,1.3569066035677073e-06
-6.992221950015899e-06,-1.7283956519583414e-06,6.374209614693883e-07,1.1653510435837176e-06,3.394886829076265e-07,3.327548144805887e-07,1.46390431271241e-06,-7.461965554347061e-08,5.038627671565809e-07,1.1284430135776415e-06,7.894959739530882e-07,1.4946239291895985e-06,1.2312048212369835e-06,1.750168237060172e-07,-7.639176124883742e-07,2.9224722702414425e-06,1.66162796586203e-07,1.3412349666931279e-06
-6.4021228966991335e-06,-3.1124144435960368e-06,6.416748944071931e-07,1.138116172562626e-06,2.4826928382680334e-07,2.759303444170743e-07,1.3854554989117652e-06,-1.0457581130187839e-07,5.030642496703691e-07,1.106245645061914e-06,8.162819010041385e-07,1.4357913714593098e-06,1.1452304655940377e-06,7.804352123694248e-08,-8.029310910402107e-07,2.817026530337844e-06,1.6029528024018085e-07,1.3248470091046248e-06
-5.55417347550382e-06,-4.26728547717443e-06,6.647444383569291e-07,1.1057839505708228e-06,1.570680789641994e-07,2.2186525738898727e-07,1.3200874180126267e-06,-1.278109255593815e-07,4.967663061773139e-07,1.0904089045200453e-06,8.459908780188192e-07,1.3817272116711613e-06,1.0605195874418707e-06,-1.3510911767037782e-08,-8.48341803651813e-07,2.71894933914824e-06,1.5345901102194568e-07,1.3062002605977706e-06
-4.321083922401892e-06,-4.977750508472655e-06,7.07796564946153e-07,1.0619876034174348e-06,7.149357894070873e-08,1.6932148409464187e-07,1.269782847706449e-06,-1.438022030882514e-07,4.869900924603423e-07,1.081119935556115e-06,8.777492676928758e-07,1.334460113152215e-06,9.785667593127553e-07,-9.531415473242169e-08,-9.092089395865469e-07,2.633301000857011e-06,1.478791051487636e-07,1.2860484438928033e-06
-2.751493315667698e-06,-5.19337804663222e-06,7.694097192579144e-07,1.0101400259380313e-06,-3.3443415142005087e-09,1.1323203589816539e-07,1.2329532043603826e-06,-1.5253751519763748e-07,4.7478868849344824e-07,1.0791303588203262e-06,9.112078320195775e-07,1.2973861203632642e-06,9.014627696388134e-07,-1.6306802640081274e-07,-9.759666161599817e-07,2.562435578441971e-06,1.458362435466198e-07,1.267262534936061e-06
-1.1132776923113113e-06,-5.065472612215906e-06,8.461249320180925e-07,9.609162747587812e-07,-6.363933476585985e-08,5.8641391452756545e-08,1.2092982854969854e-06,-1.543567966827276e-07,4.6511997028727236e-07,1.0847933760099714e-06,9.459046268251092e-07,1.2720107415430868e-06,8.336551147963413e-07,-2.143965095093092e-07,-1.0296867318581061e-06,2.5062605708321217e-06,1.4843095200492309e-07,1.2533311123658027e-06
3.734192837390149e-07,-4.8889471482457025e-06,9.325932329710252e-07,9.280224412151337e-07,-1.0832168203906047e-07,8.101580384046578e-09,1.1960160660460427e-06,-1.5076718461500825e-07,4.5396510892372746e-07,1.0969950001637132e-06,9.807457743259645e-07,1.258878230031047e-06,7.727451746180882e-07,-2.501689168423614e-07,-1.0726561238673004e-06,2.4621894160638125e-06,1.5500535304741578e-07,1.246828868067904e-06
1.4337819040374568e-06,-4.943152389733824e-06,1.0223634850359948e-06,9.137692594539392e-07,-1.3922250534601262e-07,-3.612731321962036e-08,1.188393238754504e-06,-1.440998066849364e-07,4.4405164056004334e-07,1.113532735526607e-06,1.014179691386317e-06,1.2554516299028241e-06,7.186103423263159e-07,-2.732957408139565e-07,-1.1050576474556358e-06,2.426711000900218e-06,1.6420224188426214e-07,1.2487465466869336e-06
1.804787940205713e-06,-5.299213567232331e-06,1.1095001707648831e-06,9.118441540126144e-07,-1.5956087576278428e-07,-7.212780618040971e-08,1.183526150902941e-06,-1.3633529681270598e-07,4.377386172975859e-07,1.1319866280074148e-06,1.044795193140641e-06,1.2582197014509124e-06,6.714739261633968e-07,-2.871069751997329e-07,-1.1272907813081757e-06,2.3971368893264945e-06,1.7482130772485427e-07,1.2579681958160311e-06
1.2796981442269352e-06,-5.747647659573447e-06,1.1892128515150711e-06,9.196302711395486e-07,-1.7280698994970933e-07,-1.0182857973543735e-07,1.179065378894966e-06,-1.2920000615357527e-07,4.3243114332041767e-07,1.1496564569588695e-06,1.0709766654958458e-06,1.2629271318921153e-06,6.290538853667115e-07,-2.953922518537594e-07,-1.1454226264307698e-06,2.3705342343519577e-06,1.8532641725689758e-07,1.2707037645500641e-06
-3.933247788626334e-07,-5.9340631243709e-06,1.2573233504117626e-06,9.304650421104555e-07,-1.8248509236566865e-07,-1.2844321909072814e-07,1.1729935487055572e-06,-1.248144091938654e-07,4.2717224164895817e-07,1.1636112122160686e-06,1.0907241199882574e-06,1.264642315649698e-06,5.902357714728832e-07,-3.022221033142209e-07,-1.162038710068902e-06,2.342896214551914e-06,1.941353660371301e-07,1.2811691692836112e-06
-3.144163994889947e-06,-5.5933973579731385e-06,1.3101130196176419e-06,9.385786972575206e-07,-1.9151138661533936e-07,-1.5571960408251582e-07,1.1637625250559648e-06,-1.249337563908731e-07,4.181947203736971e-07,1.171840611321271e-06,1.1035078838082367e-06,1.258925351001988e-06,5.534905936157917e-07,-3.103352312573978e-07,-1.1762482708292336e-06,2.3105426030643082e-06,2.0090876371137806e-07,1.283749291154588e-06
-6.54070166959701e-06,-4.688434754366531e-06,1.344921368631633e-06,9.408552468093456e-07,-2.0131681205496575e-07,-1.8649471609932965e-07,1.1504315018069152e-06,-1.301041619953188e-07,4.032865686531821e-07,1.1739302261606615e-06,1.1087903729875617e-06,1.2432799772770468e-06,5.181603439313051e-07,-3.206050996923857e-07,-1.1917437976205032e-06,2.270976232299521e-06,2.0650482284337548e-07,1.2749666710878242e-06
-9.352509579541413e-06,-3.38671540958597e-06,1.3603888040832339e-06,9.347263666142829e-07,-2.1219339686800943e-07,-2.2237999092766905e-07,1.132017073460061e-06,-1.4038054349861659e-07,3.8223694080476254e-07,1.1702743368661442e-06,1.106765243020908e-06,1.217447073243737e-06,4.834169010874598e-07,-3.33363096677055e-07,-1.2145078979612083e-06,2.222008552254646e-06,2.1151150810422898e-07,1.2543134162772953e-06
-1.001098120703249e-05,-1.953886848100968e-06,1.3565209585659278e-06,9.197870944111287e-07,-2.240339539284719e-07,-2.64086715467744e-07,1.1073093360277898e-06,-1.5588227321302098e-07,3.553399261577541e-07,1.1616196975026338e-06,1.098225595088793e-06,1.1821410345156746e-06,4.497299895923431e-07,-3.4860454733013524e-07,-1.2430603017598878e-06,2.1623091014173174e-06,2.157330228374316e-07,1.2245073002857736e-06
-9.25598705830246e-06,-6.500703993296583e-07,1.335535272119207e-06,8.980921236094752e-07,-2.358357498733688e-07,-3.1088946442236373e-07,1.0766421436597168e-06,-1.7551744322357764e-07,3.239714962200798e-07,1.149803022554513e-06,1.0846375219015503e-06,1.1406813918698117e-06,4.1739936165179697e-07,-3.6440808572037453e-07,-1.2740257654841456e-06,2.0938192840951127e-06,2.19062038470164e-07,1.1910344548602278e-06
-8.735265545441925e-06,3.3145230160718816e-07,1.3021869517306983e-06,8.735043915962697e-07,-2.451006156582907e-07,-3.600826704686474e-07,1.0428287614936436e-06,-1.9635534716212343e-07,2.904202348962822e-07,1.1376382027781349e-06,1.0689111819266564e-06,1.0977235231337668e-06,3.8742199594195204e-07,-3.769832934344348e-07,-1.3021513966939653e-06,2.0217316007391874e-06,2.2125936989855208e-07,1.1601803766451912e-06
-8.253314744214932e-06,8.79294600259157e-07,1.2622743890173948e-06,8.498646440108596e-07,-2.489221356665247e-07,-4.0884155321590623e-07,1.0090337218350644e-06,-2.154587253237344e-07,2.564018654667118e-07,1.1271392612653335e-06,1.0532138742685555e-06,1.0567444668749462e-06,3.6117339119311696e-07,-3.832006589843126e-07,-1.3227609924142315e-06,1.9511463265427816e-06,2.2115729695762108e-07,1.1365062769906304e-06
-6.057818516958344e-06,9.556965640767584e-07,1.2204340920903613e-06,8.293161294281783e-07,-2.4553603970440614e-07,-4.556629013339506e-07,9.764958833487754e-07,-2.3165784074148126e-07,2.2212020514364888e-07,1.118455394695731e-06,1.037900392188463e-06,1.018946374160351e-06,3.3881209658713167e-07,-3.8204710119126097e-07,-1.3355309122777634e-06,1.8848980994551605e-06,2.1728242483935423e-07,1.1218588958272044e-06
-3.308319451996054e-06,5.924256528077233e-07,1.1791610780215198e-06,8.126030567597437e-07,-2.343894799495724e-07,-4.999151322478496e-07,9.4497308235319e-07,-2.451700659419245e-07,1.865577647865803e-07,1.1107486419712647e-06,1.0224307675770906e-06,9.842803809635762e-07,3.2040231405806116e-07,-3.737901614531062e-07,-1.3373942211858803e-06,1.824047463521144e-06,2.092068372644453e-07,1.116026119851878e-06
-1.9532203857295486e-06,-1.128428150787766e-07,1.1390010682859186e-06,7.998225969841083e-07,-2.1564574507663395e-07,-5.419691432715893e-07,9.138029280853589e-07,-2.569398872905673e-07,1.4897473728191085e-07,1.1029947621089258e-06,1.0061321450335813e-06,9.518441816715918e-07,3.0572869333749064e-07,-3.5981304571980746e-07,-1.3304706011274914e-06,1.7678353482372947e-06,1.9717985805864108e-07,1.1173997154382845e-06
-9.209489291050544e-07,-1.0289793356368488e-06,1.0984147067830982e-06,7.899242614907048e-07,-1.906282431016539e-07,-5.819952892406447e-07,8.812870081171118e-07,-2.693185755978574e-07,1.0774526192610904e-07,1.0935783736336372e-06,9.877260768421153e-07,9.197290911100208e-07,2.9268657035629415e-07,-3.438936373755284e-07,-1.3224990374077124e-06,1.7124310892622451e-06,1.8043209930976956e-07,1.123239934158036e-06
-6.968218025375376e-07,-2.0490608779746785e-06,1.0544070691778123e-06,7.803370862497352e-07,-1.6206861595123057e-07,-6.2118221203973e-07,8.443790189296265e-07,-2.8599258225155246e-07,6.172726425913018e-08,1.0804152698385898e-06,9.653237703480881e-07,8.846547284230456e-07,2.79567039382875e-07,-3.3157007604634203e-07,-1.3168192214757096e-06,1.6518201081854798e-06,1.5712328342185578e-07,1.130402430449962e-06
-9.870885560496232e-07,-3.1095448610763114e-06,1.0037988485277476e-06,7.682083139178296e-07,-1.3288023010412989e-07,-6.613155663454091e-07,8.003122179643885e-07,-3.1007500575360793e-07,1.0484537793354053e-08,1.0622296551581231e-06,9.376812288282923e-07,8.440705853568741e-07,2.6376510078640963e-07,-3.2761401370258387e-07,-1.317060150525866e-06,1.5811284492165244e-06,1.258249469426305e-07,1.1362053648702308e-06
-1.2217959006621822e-06,-4.136676967976526e-06,9.446455670153528e-07,7.516775023529971e-07,-1.0503929640576804e-07,-7.029607519631955e-07,7.476910779009972e-07,-3.429173861099066e-07,-4.561909753994604e-08,1.0389185210144932e-06,9.04748943543819e-07,7.967025639035745e-07,2.430633484007621e-07,-3.34697564549809e-07,-1.3252927398724787e-06,1.4981057509914044e-06,8.5990019357237e-08,1.1382946404986892e-06
-1.476630942196603e-06,-4.9886517742846835e-06,8.764706358188529e-07,7.295999457061296e-07,-8.011380217584136e-08,-7.468064152645197e-07,6.854457031232701e-07,-3.8534885713576607e-07,-1.0579186698210756e-07,1.0104294248758114e-06,8.668145519860276e-07,7.420492739865841e-07,2.159762134517341e-07,-3.541767665735214e-07,-1.3420887045304547e-06,1.4020674173399835e-06,3.745324578073232e-08,1.1340367679405913e-06
-1.4215740993664881e-06,-5.471611119699722e-06,7.992727256489291e-07,7.012289256484156e-07,-5.980673277179578e-08,-7.938693708622855e-07,6.124057229236128e-07,-4.383789508733779e-07,-1.6978702919305825e-07,9.76512515194556e-07,8.240370484566349e-07,6.801827349237482e-07,1.8109414442227632e-07,-3.8587915724955007e-07,-1.3685018997917637e-06,1.2939885810694277e-06,-1.8983238585122494e-08,1.121023375436683e-06
-1.020068064302851e-06,-5.419741885365116e-06,7.142547199142335e-07,6.672280056666879e-07,-4.4878742180798605e-08,-8.440867452545806e-07,5.291244854499466e-07,-5.017239991236062e-07,-2.3639817194140878e-07,9.381008384062948e-07,7.78273951024823e-07,6.140813793040833e-07,1.3895276012650693e-07,-4.267121642953323e-07,-1.4034080854567267e-06,1.1781347806697815e-06,-8.068836382315923e-08,1.098435527445072e-06
-3.293925684444184e-07,-4.792397356565392e-06,6.243193416205364e-07,6.301375006999579e-07,-3.421525517725392e-08,-8.954781310011733e-07,4.388610725405298e-07,-5.729935520649759e-07,-3.029684375132884e-07,8.978189941895802e-07,7.320244105980077e-07,5.482529614345394e-07,9.201921137023934e-08,-4.7150965227145646e-07,-1.4418280304272143e-06,1.061264162151399e-06,-1.4441326008170266e-07,1.0674988058271505e-06
6.326557588557393e-07,-3.7410057718160478e-06,5.330682458412997e-07,5.926610769677274e-07,-2.593138431460335e-08,-9.454925839543516e-07,3.4572474728415596e-07,-6.491688760579388e-07,-3.6672902957912455e-07,8.584933456786433e-07,6.877068155088524e-07,4.858284227318647e-07,4.308367170220457e-08,-5.160826913610532e-07,-1.4787245293856294e-06,9.489960392592894e-07,-2.0845220481644669e-07,1.0306846707113546e-06
1.7814217604320835e-06,-2.580300911876431e-06,4.4360856177815933e-07,5.558013386718164e-07,-1.8785225704145598e-08,-9.920778312319565e-07,2.5305901069525266e-07,-7.277138563189156e-07,-4.2672083907368697e-07,8.218844705678146e-07,6.466247979530155e-07,4.2780916383763766e-07,-5.9622084008840684e-09,-5.585072997154692e-07,-1.5120330280245191e-06,8.441103502329713e-07,-2.7227352227255414e-07,9.908823018826183e-07
2.989442241957028e-06,-1.6472185385227813e-06,3.586588776666794e-07,5.191837439830216e-07,-1.1694793105026993e-08,-1.03347336297087e-06,1.6443350674936238e-07,-8.056095918075788e-07,-4.834045857125535e-07,7.889198168185111e-07,6.084830772093696e-07,3.733561134518189e-07,-5.298201466744898e-08,-5.974499850580968e-07,-1.538913196112783e-06,7.479900171083305e-07,-3.342837112166037e-07,9.508382697685955e-07
4.0677222423099734e-06,-1.1358400924392564e-06,2.8114860285516696e-07,4.823444960892888e-07,-2.8209106612797208e-09,-1.0681592718520583e-06,8.444541327899953e-08,-8.789928578894534e-07,-5.380946376319182e-07,7.597106501148403e-07,5.727542484047111e-07,3.209302431412707e-07,-9.572169472209476e-08,-6.313895759378305e-07,-1.5564360223907834e-06,6.612812284997742e-07,-3.917877119989942e-07,9.12131631055543e-07
4.795013112693288e-06,-1.0198138944329403e-06,2.1334896828315343e-07,4.447747335393961e-07,9.433912864263135e-09,-1.0956410379303156e-06,1.6732891800566384e-08,-9.45171721863718e-07,-5.936856879027948e-07,7.325298806198074e-07,5.373037941809037e-07,2.6799160623177385e-07,-1.3303392731749397e-07,-6.601267607082241e-07,-1.5646346948664693e-06,5.823722537339775e-07,-4.4306948679763557e-07,8.741633683431554e-07
5.010783104629619e-06,-1.1012006286973693e-06,1.5553576119588807e-07,4.0542124404952194e-07,2.4774937814367007e-08,-1.1174041721821692e-06,-3.8233710817950816e-08,-1.0043061783189e-06,-6.541209089413285e-07,7.037584337400017e-07,4.98513364706344e-07,2.1144957081720239e-07,-1.6527613221406953e-07,-6.853383694735422e-07,-1.5660289163901537e-06,5.074295070958486e-07,-4.881711465419697e-07,8.347436186374159e-07
4.669325156869929e-06,-1.1834688945484922e-06,1.057370296228811e-07,3.6338622989351124e-07,4.1353382669691905e-08,-1.1360242470813272e-06,-8.254054253228917e-08,-1.058289377510564e-06,-7.216310136785267e-07,6.697881530282939e-07,4.5172205165274656e-07,1.4925242566226944e-07,-1.9361607766542942e-07,-7.088077292421493e-07,-1.5629438346311163e-06,4.3313971095772e-07,-5.276384772726907e-07,7.921209353979191e-07
3.852824436249551e-06,-1.0817010872982333e-06,6.075131154654912e-08,3.189144797136258e-07,5.733285659375573e-08,-1.1533841768545824e-06,-1.1921847795066283e-07,-1.1090720974973921e-06,-7.965387249305826e-07,6.286375945235704e-07,3.9506302450270903e-07,8.209451871866388e-08,-2.192338282252186e-07,-7.315155284645103e-07,-1.5560795542365928e-06,3.581506380658282e-07,-5.621440653144408e-07,7.462442776110806e-07
2.7399308475758155e-06,-8.244992840978573e-07,1.688230228664094e-08,2.7279062670746266e-07,7.114706688367575e-08,-1.1711384380967913e-06,-1.5230647529197585e-07,-1.1589819248961531e-06,-8.765249359335935e-07,5.796305590306061e-07,3.2826968633757766e-07,1.0381644054279617e-08,-2.4438321944926823e-07,-7.550304355476073e-07,-1.5462436785925275e-06,2.8147632187217897e-07,-5.936509734795937e-07,6.982810579865552e-07
1.5590194204871993e-06,-6.008521663616481e-07,-2.968728220047177e-08,2.2522742665141412e-07,8.101438101060058e-08,-1.1911208065870218e-06,-1.8670304229129862e-07,-1.2110337735444664e-06,-9.585582293589954e-07,5.22849528653049e-07,2.512950617327817e-07,-6.45818514726104e-08,-2.7042328044105254e-07,-7.819107208738761e-07,-1.535079144002954e-06,2.0183396246487505e-07,-6.248308283029195e-07,6.498343296931472e-07
5.408723362870461e-07,-6.510386234886741e-07,-8.11116331257682e-08,1.7661293753749498e-07,8.611821820077262e-08,-1.2135030060751422e-06,-2.2525416354262047e-07,-1.2667957673638357e-06,-1.0394542250578964e-06,4.5995096524133667e-07,1.65880480455886e-07,-1.420962491069823e-07,-2.9903528401284314e-07,-8.132449697540911e-07,-1.52288759718693e-06,1.206137787643646e-07,-6.563348615747608e-07,6.028268158057101e-07
-1.495080612635987e-07,-1.2623769956687097e-06,-1.3609052695617685e-07,1.291349268079657e-07,8.85032466051386e-08,-1.2373709130605235e-06,-2.6586066093044175e-07,-1.3243375607638692e-06,-1.1149975853372654e-06,3.9470098391411126e-07,7.531615040644001e-08,-2.2004098452539847e-07,-3.3064683531507034e-07,-8.469742989979245e-07,-1.508028514746717e-06,4.2746524347516257e-08,-6.859732940388299e-07,5.590597149167768e-07
-4.819346623052746e-07,-2.4930567254299225e-06,-1.908314477659723e-07,8.623327144732689e-08,9.228980229722107e-08,-1.2600937106422086e-06,-3.0296222992202013e-07,-1.37978424052254e-06,-1.1816021067794595e-06,3.3150546160185347e-07,-1.6443544223218763e-08,-2.955962836056124e-07,-3.644967453457778e-07,-8.796530082885367e-07,-1.4899490088016936e-06,-2.6428842921089978e-08,-7.115035784975134e-07,5.190765544003445e-07
-5.55758076253791e-07,-4.057828822270295e-06,-2.422846718432454e-07,5.02857292043634e-08,1.0038192761287853e-07,-1.2790139571328297e-06,-3.3177545813280816e-07,-1.4306756817528368e-06,-1.2379050318441363e-06,2.7359372524086125e-07,-1.0641927589656767e-07,-3.665941733817812e-07,-4.004286135721129e-07,-9.087375995752565e-07,-1.471184473489551e-06,-8.42319164625716e-08,-7.332555278624449e-07,4.819793544447004e-07
-5.268143664168196e-07,-5.300374939362984e-06,-2.9059279521309775e-07,2.209573713045394e-08,1.1267284810944393e-07,-1.292042310372387e-06,-3.499038958496422e-07,-1.476472395167771e-06,-1.2839563735558103e-06,2.2323412212985417e-07,-1.9286495871218756e-07,-4.312798188941161e-07,-4.375602994128675e-07,-9.322576501734446e-07,-1.4551550585457741e-06,-1.300627601029533e-07,-7.537730260956678e-07,4.4704755731062895e-07
-5.44387135083303e-07,-5.644462048228799e-06,-3.3873287596667896e-07,2.7351933371198704e-09,1.2719040919635533e-07,-1.2952237659507371e-06,-3.558839771737625e-07,-1.516306854341166e-06,-1.3181264967029701e-06,1.826993255825565e-07,-2.7412218684837895e-07,-4.870358106165119e-07,-4.7316364675264555e-07,-9.478105665132645e-07,-1.44357494890336e-06,-1.6354190910995322e-07,-7.765850693472857e-07,4.1524655770569403e-07
-7.40735103836208e-07,-4.359570963359117e-06,-3.9114667743715357e-07,-5.892769440927601e-09,1.4119875034188382e-07,-1.2828396023047304e-06,-3.492960099178552e-07,-1.5485219224045842e-06,-1.33705116242728e-06,1.5353173755471915e-07,-3.489316989010217e-07,-5.30986864303164e-07,-5.035829073397959e-07,-9.542977525042356e-07,-1.4372161635840083e-06,-1.8566164762253732e-07,-8.062466708697337e-07,3.886788813874689e-07
-1.2195190074382116e-06,-3.721092434719859e-06,-4.5290967733143244e-07,-3.4779985934405133e-09,1.5065796119874698e-07,-1.2504799837351268e-06,-3.3345151220227384e-07,-1.5730111176167975e-06,-1.3382422991577516e-06,1.344157134911158e-07,-4.1806938506104405e-07,-5.635548296261646e-07,-5.272034299821967e-07,-9.544036568654782e-07,-1.4372273036408188e-06,-2.008469080170194e-07,-8.477995548300858e-07,3.6888859986153104e-07
-1.9900070394075705e-06,-2.870479447220289e-06,-5.28275395291125e-07,6.204843127215489e-09,1.5045666406999484e-07,-1.1980088473053905e-06,-3.1613406459229894e-07,-1.5924150977569288e-06,-1.322232507257773e-06,1.2081907502195057e-07,-4.846897709183606e-07,-5.879333424324065e-07,-5.450890991917528e-07,-9.535713386374934e-07,-1.4434816357203454e-06,-2.1544703731147978e-07,-9.0666707305441e-07,3.559301108189931e-07
-2.9489496544964907e-06,-6.561222271707104e-07,-6.182245381608499e-07,1.5363160697409846e-08,1.3681295677833042e-07,-1.1294957454285634e-06,-3.065188800830891e-07,-1.6105028643640042e-06,-1.2924188446229896e-06,1.07224824860909e-07,-5.524481738567045e-07,-6.088346320995343e-07,-5.607825629338473e-07,-9.563921221455023e-07,-1.4517833149532065e-06,-2.3363853015946007e-07,-9.784913112682032e-07,3.481564341647365e-07
-3.859391779060672e-06,2.100700850773591e-06,-7.189721342529292e-07,1.3786673522634967e-08,1.0911387015562437e-07,-1.0529917342293475e-06,-3.122390217847834e-07,-1.6307252081007612e-06,-1.2538266863409238e-06,8.924494065549412e-08,-6.239687966468207e-07,-6.30948061658272e-07,-5.796808592986857e-07,-9.650958266857301e-07,-1.4556115387790103e-06,-2.563483123126838e-07,-1.050313020783821e-06,3.417472004015126e-07
-4.430389637412931e-06,3.482017636193827e-06,-8.234014751394511e-07,-9.299654287981434e-09,6.911105040189539e-08,-9.804470005666578e-07,-3.3899086911949504e-07,-1.6564480063518852e-06,-1.2124705325824547e-06,6.43166969766028e-08,-7.007052573003817e-07,-6.579167201611573e-07,-6.078124181787373e-07,-9.806807885684861e-07,-1.4498510204751612e-06,-2.8331238253867624e-07,-1.112908963908496e-06,3.308476083690877e-07
-4.42494660319683e-06,4.06420588821555e-06,-9.237438658887701e-07,-6.190033187683255e-08,1.9830123784433304e-08,-9.229198053286302e-07,-3.895203427754789e-07,-1.690158083212313e-06,-1.1736697535821367e-06,3.2666720978687597e-08,-7.818839302444283e-07,-6.905336346066527e-07,-6.496437035988555e-07,-1.0026671301856846e-06,-1.4310056348189164e-06,-3.133187894728484e-07,-1.127489809943622e-06,3.098358847261813e-07
-3.86144404866523e-06,3.796888145005621e-06,-1.0130666458839404e-06,-1.4418865727096538e-07,-3.340308370031417e-08,-8.823321753423954e-07,-4.6014475631505855e-07,-1.7305122190198796e-06,-1.1384417487032944e-06,-1.560426686770534e-09,-8.640729733595085e-07,-7.25066179550069e-07,-7.049647332026675e-07,-1.0269175760177507e-06,-1.3955510462671084e-06,-3.4195940555957166e-07,-1.0719254048773177e-06,2.765757115095203e-07
-2.947326827577888e-06,3.335224131333177e-06,-1.085964511440843e-06,-2.455773355883657e-07,-8.197834746037811e-08,-8.724378508697775e-07,-5.390768140097056e-07,-1.7708670222217497e-06,-1.102719358730853e-06,-3.146140855955157e-08,-9.41302808158235e-07,-7.538744770898619e-07,-7.677072341241326e-07,-1.0458064443689564e-06,-1.3406369704799212e-06,-3.619510569949522e-07,-1.0471068019880945e-06,2.3361061237411998e-07
-1.9457193434444393e-06,2.753690719617824e-06,-1.1400952107950252e-06,-3.499101562056607e-07,-1.1621521307195192e-07,-8.659151969272243e-07,-6.103270771623929e-07,-1.801962833475712e-06,-1.0612848009932059e-06,-5.1316705666700345e-08,-1.0081082184766198e-06,-7.70474907263175e-07,-8.288932424237765e-07,-1.0521525601263046e-06,-1.2678249891066777e-06,-3.676834890249644e-07,-1.0433416520651897e-06,1.8649441285881114e-07
-1.0063980900727217e-06,8.306188439983503e-07,-1.1773772770324854e-06,-4.372830731745316e-07,-1.2933385668955985e-07,-8.615677583900857e-07,-6.598890582993133e-07,-1.8159549555427603e-06,-1.011962395878262e-06,-5.968842438006228e-08,-1.0625708891137332e-06,-7.727870331757177e-07,-8.792828474092525e-07,-1.04235122112604e-06,-1.185450030142249e-06,-3.5883849377442215e-07,-9.333554808439755e-07,1.4154412193922243e-07
-3.014873968642197e-07,-1.040746327871944e-06,-1.2028039262657458e-06,-4.7162457282391387e-07,-1.1929333810942696e-07,-8.478157158088522e-07,-6.789586586579351e-07,-1.8081256537284037e-06,-9.569428842172544e-07,-5.864719613415949e-08,-1.105805860783448e-06,-7.632891592240617e-07,-9.117098637680694e-07,-1.0160697483894838e-06,-1.1047053633690784e-06,-3.390950307241162e-07,-7.984668229057219e-07,1.0458482592795766e-07
-5.123671015370578e-08,-2.1867198637691355e-06,-1.2215893566435632e-06,-4.904509129081828e-07,-8.824885895950489e-08,-8.189783841685797e-07,-6.647146290014812e-07,-1.7770832420928275e-06,-9.006371466744351e-07,-5.113086815084808e-08,-1.1399851159683005e-06,-7.468328127437921e-07,-9.230973394577931e-07,-9.755688568342389e-07,-1.035006271416246e-06,-3.1368964935665285e-07,-6.861592049146515e-07,7.978641436798903e-08
-4.1522841923088183e-07,-3.148456505173538e-06,-1.237176621530708e-06,-4.848302534556048e-07,-4.233588686376508e-08,-7.744733150752821e-07,-6.217696328371313e-07,-1.725844577013211e-06,-8.469945172733947e-07,-3.977701452149486e-08,-1.167305265032222e-06,-7.289500190599003e-07,-9.161485947808166e-07,-9.269178860553484e-07,-9.82692542778777e-07,-2.892414598466038e-07,-6.48160872118359e-07,6.812245218711207e-08
-1.367439423914146e-06,-3.047264641162697e-06,-1.2512914209309282e-06,-4.381776549162411e-07,8.416707238579096e-09,-7.190317392371622e-07,-5.626367534574754e-07,-1.6623347825626636e-06,-7.981703615202697e-07,-2.7109798105467028e-08,-1.189377401978871e-06,-7.15175981352923e-07,-8.993938176437771e-07,-8.798236474506844e-07,-9.501631250102784e-07,-2.7294858341250474e-07,-6.248465745082385e-07,6.701625849394563e-08
-2.743715559616855e-06,-2.0391728429558714e-06,-1.2641091933604872e-06,-3.9653721643719864e-07,5.283512309224187e-08,-6.60717966752488e-07,-5.036252341540175e-07,-1.5967063175061753e-06,-7.539117758730501e-07,-1.5306755317957458e-08,-1.2082347508482666e-06,-7.092645657575988e-07,-8.836895248999949e-07,-8.437358265906797e-07,-9.344874943534219e-07,-2.6987334094480767e-07,-6.452713700232257e-07,7.197636216274872e-08
-4.248808114116511e-06,-6.56988574346182e-07,-1.2740036590192427e-06,-3.6411968221299646e-07,8.331724483673164e-08,-6.070205254806011e-07,-4.582524246097711e-07,-1.5373082871992029e-06,-7.118573432733135e-07,-5.660748323747877e-09,-1.2249516885204018e-06,-7.122413311040521e-07,-8.775709792260734e-07,-8.23858303684092e-07,-9.286907581246543e-07,-2.802333787006513e-07,-6.560349157177675e-07,7.856790974301416e-08
-5.3801136230009185e-06,9.04543984930928e-07,-1.2782166390810545e-06,-3.455759905755006e-07,9.828928900495962e-08,-5.62802595648709e-07,-4.3363754702412467e-07,-1.4890774974504837e-06,-6.695589903915908e-07,9.418199026755355e-10,-1.2397902199865227e-06,-7.229790675321733e-07,-8.848826247729542e-07,-8.206981424155881e-07,-9.261945866417962e-07,-3.0069929125368383e-07,-6.690947352940661e-07,8.326081820336432e-08
-5.793601621786699e-06,2.138461461752739e-06,-1.274441290425375e-06,-3.3922688806993484e-07,1.0091153044686516e-07,-5.304084032578719e-07,-4.3078464464897235e-07,-1.454198410685325e-06,-6.267218878686826e-07,3.4973362637534827e-09,-1.2532367855205382e-06,-7.394680968719641e-07,-9.051577602990526e-07,-8.314971100266976e-07,-9.232932104750873e-07,-3.2695595425729187e-07,-6.758589164591753e-07,8.382177505842987e-08
-5.430163269373543e-06,2.8281482359482392e-06,-1.2616063449550289e-06,-3.399869045196242e-07,9.65841060709226e-08,-5.100875153733864e-07,-4.4581471060072554e-07,-1.4324392488421605e-06,-5.850078163572538e-07,1.6450011774068052e-09,-1.2653379057816972e-06,-7.588951406223422e-07,-9.346441025524693e-07,-8.510832307877277e-07,-9.183403561326248e-07,-3.5427849530928663e-07,-6.682227066284989e-07,7.986161214791922e-08
-4.453451061213462e-06,2.9069695675522766e-06,-1.2395589983612635e-06,-3.4190274793449743e-07,9.0830487341561e-08,-5.00097649004913e-07,-4.7162819464111803e-07,-1.4213327330123733e-06,-5.464655922370639e-07,-3.507414408802928e-09,-1.2755079551866592e-06,-7.78034224311709e-07,-9.680067228849363e-07,-8.733784117336747e-07,-9.107425648979461e-07,-3.7826715274676553e-07,-6.497034819763809e-07,7.273881832454274e-08
-3.1143256947460613e-06,2.33792613856597e-06,-1.2089432841669446e-06,-3.405984892612815e-07,8.699863905838705e-08,-4.978054576706395e-07,-5.010672767506698e-07,-1.4176022129606622e-06,-5.125263547766853e-07,-9.852653596563387e-09,-1.283163523822548e-06,-7.947444988488672e-07,-1.0005134850949377e-06,-8.941710324980879e-07,-9.018354817997806e-07,-3.968329892871559e-07,-6.264211703708719e-07,6.45194080637249e-08
-1.6433487432857107e-06,1.1708854010058136e-06,-1.1714952767422028e-06,-3.349170870679668e-07,8.466139083947829e-08,-5.010948146843292e-07,-5.296351118794416e-07,-1.4185210636134678e-06,-4.841554009857229e-07,-1.5096784133398428e-08,-1.288055209156424e-06,-8.085321025650891e-07,-1.029041331631942e-06,-9.123267354900041e-07,-8.946989370133728e-07,-4.1072854991222616e-07,-6.062868725786104e-07,5.7280599769923405e-08
-2.1516103211970859e-07,-4.767088325835393e-07,-1.1297221760778744e-06,-3.263584437317523e-07,8.063348592783824e-08,-5.082640820646202e-07,-5.553496363660815e-07,-1.4214152662795647e-06,-4.605092056811245e-07,-1.666303804033894e-08,-1.2898786509511782e-06,-8.195867596101203e-07,-1.0514950859134914e-06,-9.282507010979073e-07,-8.913915091892114e-07,-4.2133410210124387e-07,-5.957834478040766e-07,5.3341762781723596e-08
1.0473959824586674e-06,-2.4003533934234476e-06,-1.0861438808064834e-06,-3.1728249684400326e-07,7.161071299476442e-08,-5.171494511150577e-07,-5.774812283149055e-07,-1.4230729602034054e-06,-4.3894412453975254e-07,-1.1946965736771227e-08,-1.287853113260125e-06,-8.273322032890196e-07,-1.0663281935729174e-06,-9.425676650075171e-07,-8.917881290402342e-07,-4.2940724267944905e-07,-5.9821877673252e-07,5.518980530313233e-08
2.0530618282300003e-06,-4.279875856313585e-06,-1.0432091075043701e-06,-3.100583497817233e-07,5.558098644904584e-08,-5.256205202347257e-07,-5.967070884509888e-07,-1.4210617654128599e-06,-4.1649667136409123e-07,3.409379602752959e-10,-1.2815091957041695e-06,-8.315581782036027e-07,-1.0730276701162908e-06,-9.564683487131194e-07,-8.951172805770252e-07,-4.35934876752722e-07,-6.140256932629935e-07,6.456186785154894e-08
2.7043148768918802e-06,-5.707430056076482e-06,-1.0035498340483761e-06,-3.068872124258928e-07,3.187592303640714e-08,-5.326980502470536e-07,-6.151994729947337e-07,-1.4149967855595594e-06,-3.9136439433661744e-07,1.9542886773947466e-08,-1.2713374635440726e-06,-8.32075615256601e-07,-1.0722720185653854e-06,-9.71264184409925e-07,-9.001888693337451e-07,-4.4223007424760956e-07,-6.409199435743581e-07,8.192134634034636e-08
2.8732205208744677e-06,-6.3228410152781504e-06,-9.693700630061854e-07,-3.088439071820736e-07,1.5601456682941379e-09,-5.375950543323102e-07,-6.348255811053579e-07,-1.4056010571708775e-06,-3.6247369920298786e-07,4.4173303489678504e-08,-1.2580158041885766e-06,-8.282200453349684e-07,-1.0650758492510645e-06,-9.86446401622834e-07,-9.041852434687954e-07,-4.480159694167775e-07,-6.737063434307553e-07,1.0690287728083392e-07
2.427316301041114e-06,-6.0073606499132745e-06,-9.415718664278553e-07,-3.150673472673258e-07,-3.237218608621928e-08,-5.392713156390901e-07,-6.557185357848362e-07,-1.3934383769067978e-06,-3.298078039023935e-07,7.296468834955154e-08,-1.2418412779511242e-06,-8.187250583022317e-07,-1.0523457246109017e-06,-9.993891093093327e-07,-9.032886689035717e-07,-4.5096071941054493e-07,-7.059424248487604e-07,1.385843967741323e-07
1.2896461599401233e-06,-4.9662842340996775e-06,-9.20022389629975e-07,-3.2368515038067513e-07,-6.635295452332981e-08,-5.370370448900596e-07,-6.77287489011705e-07,-1.3793448766437415e-06,-2.9463885759176817e-07,1.0450709722039313e-07,-1.2234478028561773e-06,-8.028356459478875e-07,-1.0354805159393178e-06,-1.0074997012376744e-06,-8.95162119899955e-07,-4.480640416464694e-07,-7.327534536473746e-07,1.7512146835052444e-07
-5.224316837718449e-07,-3.6049963162269777e-06,-9.041547012915947e-07,-3.331854549197054e-07,-9.770863188649092e-08,-5.311492544001594e-07,-6.992697171402733e-07,-1.3649118646914708e-06,-2.5826469288915273e-07,1.3704631442668278e-07,-1.2043086188078748e-06,-7.806933013053445e-07,-1.0163845647694693e-06,-1.009428614085183e-06,-8.794241306839801e-07,-4.3772240253908735e-07,-7.514752915664901e-07,2.1378707579630387e-07
-2.887585262964669e-06,-2.3198702568496995e-06,-8.926551446422591e-07,-3.422644253688296e-07,-1.2429162389421948e-07,-5.222464129054338e-07,-7.206796473638118e-07,-1.3510837055174932e-06,-2.219372700154647e-07,1.6947824505191485e-07,-1.1853445817264406e-06,-7.52412677715358e-07,-9.964096591427211e-07,-1.0041991123816076e-06,-8.557947689793475e-07,-4.177168273778184e-07,-7.603481789413621e-07,2.516458211157639e-07
-5.569586002418701e-06,-1.3660037887541277e-06,-8.829900226227005e-07,-3.4919382652094287e-07,-1.4366779836354037e-07,-5.103435604101902e-07,-7.390565541394602e-07,-1.3372373993759737e-06,-1.8589676572735583e-07,2.0162692371614015e-07,-1.1663887815589166e-06,-7.178277473170598e-07,-9.7580437710057e-07,-9.91113491495591e-07,-8.240122760660058e-07,-3.854714590603287e-07,-7.5813853765167e-07,2.857532836351488e-07
-8.193519296940092e-06,-8.256496596803803e-07,-8.721441432785689e-07,-3.524627161719899e-07,-1.539931038910562e-07,-4.953319938297984e-07,-7.520760914980361e-07,-1.3223823427116863e-06,-1.5022754923321696e-07,2.3313507510882611e-07,-1.1468707295714906e-06,-6.771878262253139e-07,-9.544760512288081e-07,-9.711623653281337e-07,-7.85709273244172e-07,-3.410266236438017e-07,-7.450043593726921e-07,3.12834244885364e-07
-1.0280359235693962e-05,-6.378661657598574e-07,-8.577863022109115e-07,-3.5156784916805133e-07,-1.5524332451558127e-07,-4.776904117963456e-07,-7.588980549123599e-07,-1.3062901924739205e-06,-1.160552011909226e-07,2.6307748287987657e-07,-1.1262870794951343e-06,-6.317641633075572e-07,-9.324229763396684e-07,-9.468185712629146e-07,-7.440480821456913e-07,-2.8731549236467e-07,-7.22197239983677e-07,3.2978457493873533e-07
-1.138554949291115e-05,-6.6396308687292e-07,-8.382258485106549e-07,-3.4634894672871554e-07,-1.485723333256299e-07,-4.5784315652852785e-07,-7.58933241694581e-07,-1.2883743749563631e-06,-8.430600872604288e-08,2.9122544807255637e-07,-1.103891306674415e-06,-5.826122210222127e-07,-9.090152283026343e-07,-9.197370181047412e-07,-7.010677629763657e-07,-2.2816253397376065e-07,-6.906340994072488e-07,3.3508326582464935e-07
-1.1299359426203039e-05,-7.588354434960436e-07,-8.119537869023628e-07,-3.3631576014473597e-07,-1.3505268044583957e-07,-4.351814473895064e-07,-7.507036651425285e-07,-1.2669633475627696e-06,-5.431879406525869e-08,3.18785767730312e-07,-1.0784791048855314e-06,-5.302104735990234e-07,-8.828785140088243e-07,-8.901147725568949e-07,-6.57154612585491e-07,-1.6695491537586736e-07,-6.512165029202297e-07,3.2950761951255127e-07
-1.0149128663796618e-05,-8.208507169013218e-07,-7.783679876217713e-07,-3.217168892987469e-07,-1.1615341184669586e-07,-4.0903577570987956e-07,-7.33483958582986e-07,-1.2408438880294653e-06,-2.4923686423656834e-08,3.4727249350182727e-07,-1.0496000661820817e-06,-4.757104270669912e-07,-8.531537943382606e-07,-8.587103297635583e-07,-6.133003632474524e-07,-1.0756571099291018e-07,-6.06510419667271e-07,3.155640034709664e-07
-8.309262191097182e-06,-8.213047118145254e-07,-7.388434625490883e-07,-3.0472596806992415e-07,-9.480532972392919e-08,-3.8015718816778717e-07,-7.091847612695382e-07,-1.2107888929776554e-06,4.064889739474425e-09,3.774691893916543e-07,-1.0184306699602593e-06,-4.213235079903031e-07,-8.202818755057571e-07,-8.277489468826922e-07,-5.714130395373824e-07,-5.362682301700334e-08,-5.604539756934752e-07,2.9677951644371136e-07
-6.241806586623914e-06,-8.107587909837281e-07,-6.961815091798245e-07,-2.8837837594103886e-07,-7.449020159943009e-08,-3.501809322324391e-07,-6.812977028810219e-07,-1.1786188383438077e-06,3.243759392780193e-08,4.099975244887451e-07,-9.86491371545396e-07,-3.687165877203637e-07,-7.851729098701823e-07,-7.991803667244007e-07,-5.317131715302327e-07,-6.2377216060512e-09,-5.160084198702377e-07,2.773214513723781e-07
-4.37582065466282e-06,-8.730787156025775e-07,-6.528703455971262e-07,-2.745673708005463e-07,-5.731458232894199e-08,-3.2023681209341655e-07,-6.528035313116973e-07,-1.1455802157151192e-06,6.04655623699382e-08,4.4575150284988806e-07,-9.545926338144387e-07,-3.1816444303210526e-07,-7.484326607973616e-07,-7.736680457978454e-07,-4.92462309315362e-07,3.6583810485985925e-08,-4.743900747889617e-07,2.610619847842152e-07
-3.0657655425666075e-06,-1.0360066629759443e-06,-6.105228318641421e-07,-2.63858451110893e-07,-4.390712343516267e-08,-2.910252538213911e-07,-6.261692434774154e-07,-1.1128853469407467e-06,8.818055536964559e-08,4.848418587757524e-07,-9.23092791734353e-07,-2.6948029416819587e-07,-7.108574865468204e-07,-7.520541837494626e-07,-4.530626591200035e-07,7.671382938308348e-08,-4.36647864684499e-07,2.5016112740906294e-07
-2.5723895366708224e-06,-1.2109967989292396e-06,-5.70314934651298e-07,-2.5646646347817085e-07,-3.466135026189268e-08,-2.6356649369188246e-07,-6.039142813728695e-07,-1.0826071604960116e-06,1.144379387623748e-07,5.259235110980813e-07,-8.925257260200035e-07,-2.2311275641922152e-07,-6.737807811558223e-07,-7.360201053290991e-07,-4.150237795315246e-07,1.1528622763073493e-07,-4.042682556952693e-07,2.4473021168380374e-07
-2.9866561235534864e-06,-1.2216493895980182e-06,-5.328138895953534e-07,-2.5186314490881257e-07,-2.9551627082541e-08,-2.3861963212528675e-07,-5.868998897609953e-07,-1.0563467519355185e-06,1.3772579573119833e-07,5.674662190811575e-07,-8.63031817249295e-07,-1.7924457697734413e-07,-6.381155348075628e-07,-7.262442039262004e-07,-3.7964664936530547e-07,1.5295192909494293e-07,-3.7780750327932406e-07,2.439704873939814e-07
-4.134019467137799e-06,-9.047407118131084e-07,-4.971867966010064e-07,-2.4759465905172255e-07,-2.681606311757382e-08,-2.1515785830548774e-07,-5.723507535345752e-07,-1.0332125414886183e-06,1.5810425398818965e-07,6.091379907244553e-07,-8.337579148506059e-07,-1.370747474188147e-07,-6.035409602185244e-07,-7.211750201164859e-07,-3.4694641652604027e-07,1.9161521160760067e-07,-3.565339776164705e-07,2.4710930094925833e-07
-5.565083879627508e-06,-2.1915328574468723e-07,-4.6141878946413733e-07,-2.4014785399761157e-07,-2.3454799702600495e-08,-1.9084454638256956e-07,-5.555197070936713e-07,-1.0105979488103012e-06,1.7686807896656977e-07,6.512297712371563e-07,-8.03668187326796e-07,-9.598386261878036e-08,-5.693011713725913e-07,-7.188016173128102e-07,-3.1785231439797714e-07,2.3208160433132736e-07,-3.401698232900467e-07,2.531451560115933e-07
-6.676355633726498e-06,7.112923708565251e-07,-4.240952245614715e-07,-2.275409773899614e-07,-1.7624597318467363e-08,-1.6407361710136764e-07,-5.335768089525284e-07,-9.865558997916567e-07,1.9458641224418118e-07,6.934602895147128e-07,-7.728791219545183e-07,-5.672225550928827e-08,-5.353858083502628e-07,-7.186600070630954e-07,-2.9545773571061614e-07,2.720320797866265e-07,-3.2972986483905e-07,2.6052165124596515e-07
-6.918666785439041e-06,1.65726462180795e-06,-3.852776810087202e-07,-2.1030372029848876e-07,-9.766444202274253e-09,-1.345247652282847e-07,-5.067730740654436e-07,-9.602789097341124e-07,2.1132224836060608e-07,7.353879148731815e-07,-7.417911900386092e-07,-2.0582673878736012e-08,-5.019956879380193e-07,-7.212062938140567e-07,-2.8294140619719264e-07,3.0799580068008875e-07,-3.259567579116985e-07,2.675748600452011e-07
-6.0269073776315256e-06,2.401209780409181e-06,-3.457102432252191e-07,-1.9015469621597877e-07,-1.5670375599498492e-09,-1.0221461798229162e-07,-4.765673860197855e-07,-9.310816818374607e-07,2.2775289438089454e-07,7.773791565727004e-07,-7.101298851607593e-07,1.1963587251016518e-08,-4.696535290322613e-07,-7.265931025422557e-07,-2.8074987587395773e-07,3.386210173973954e-07,-3.2826914647207347e-07,2.728057765663157e-07
-4.155334099247136e-06,2.825332556059179e-06,-3.063486335133902e-07,-1.6929813184256613e-07,4.6033167770127434e-09,-6.763576110914908e-08,-4.4501422379909703e-07,-8.987847946087129e-07,2.4477634559620137e-07,8.198353472487529e-07,-6.775032430408899e-07,4.071647534375004e-08,-4.391445984600736e-07,-7.355526260130182e-07,-2.88513804783711e-07,3.60900849221367e-07,-3.3600596722319597e-07,2.743779224430186e-07
-1.8210951897438246e-06,2.917440813506882e-06,-2.6905254103979784e-07,-1.5121638371960844e-07,4.8258314158120096e-09,-3.324858195238776e-08,-4.1609906218774974e-07,-8.656273514756044e-07,2.6181570030572936e-07,8.615253791119435e-07,-6.446099835194662e-07,6.468361323925478e-08,-4.120567458442435e-07,-7.50509554561536e-07,-3.0692131619995855e-07,3.7063095661172873e-07,-3.495117023005225e-07,2.7015391927360117e-07
3.072558432704699e-07,2.709369964088897e-06,-2.365280596526281e-07,-1.4016615102841507e-07,-5.947874001530841e-09,-3.2846452697418527e-09,-3.949027785663805e-07,-8.356404310638243e-07,2.7664976433472537e-07,8.999071792328746e-07,-6.133052184338151e-07,8.29035490148443e-08,-3.9009016681651963e-07,-7.736236552140163e-07,-3.354225225459404e-07,3.6566718948271236e-07,-3.6860997329943025e-07,2.5930348117628336e-07
1.6663681318744946e-06,2.2088892434987573e-06,-2.1043187588069905e-07,-1.3833990347725068e-07,-3.09360276024484e-08,1.8831676934676262e-08,-3.8391255951972107e-07,-8.11130268967607e-07,2.8750299961890297e-07,9.33462831505505e-07,-5.846006143257505e-07,9.647051051660721e-08,-3.7298249935292126e-07,-8.035652274624119e-07,-3.6946408760858044e-07,3.482514926054741e-07,-3.909026202003176e-07,2.439077161712918e-07
1.984083184188557e-06,1.3790910662421498e-06,-1.9003036568019775e-07,-1.4402714872258181e-07,-6.927254713504486e-08,3.216682784667577e-08,-3.8156491960183447e-07,-7.911528102611671e-07,2.9405738280000854e-07,9.62164887992469e-07,-5.582603709156488e-07,1.0833343545484424e-07,-3.5852998833555864e-07,-8.35809322026603e-07,-4.0359367047814465e-07,3.249489418537974e-07,-4.13299374749575e-07,2.2832115468003e-07
1.3258662203770505e-06,1.791154147277253e-07,-1.7345022968586946e-07,-1.5332775137093188e-07,-1.1731451237066378e-07,3.6914385202056496e-08,-3.854474766625566e-07,-7.73997478314304e-07,2.957452670026974e-07,9.853111849834714e-07,-5.346543233803573e-07,1.205343466410769e-07,-3.445812160385567e-07,-8.664453497492698e-07,-4.347440270586406e-07,3.010083737898533e-07,-4.351191126049972e-07,2.1682163273504926e-07
2.2603354570582246e-08,-1.354219451330958e-06,-1.599358282272819e-07,-1.6294837832580498e-07,-1.712716614350976e-07,3.256909487807079e-08,-3.95490367992341e-07,-7.597639064669813e-07,2.8994779929966817e-07,1.0000790059884118e-06,-5.16070221568503e-07,1.3256595158278827e-07,-3.30460709391571e-07,-8.944408388248187e-07,-4.6436627814818536e-07,2.77528181682916e-07,-4.583653665124049e-07,2.1216847690543534e-07
-1.4680169350873402e-06,-3.0349003569843814e-06,-1.5015598519451885e-07,-1.70590223514266e-07,-2.2749701151934714e-07,1.8729032163385144e-08,-4.128116473612932e-07,-7.493595195244355e-07,2.73339848806962e-07,1.0030392581563965e-06,-5.054542933983337e-07,1.4272166136535584e-07,-3.1605824367038493e-07,-9.202190512359525e-07,-4.947493915013866e-07,2.53812268941298e-07,-4.848772976886127e-07,2.1590688615617457e-07
-2.708250822971946e-06,-4.530729536953496e-06,-1.4476150144670779e-07,-1.738207678131081e-07,-2.8128316479172e-07,-2.9447727351882794e-09,-4.368673567169492e-07,-7.422436631987934e-07,2.445320549569303e-07,9.925414434711954e-07,-5.041838501524274e-07,1.4984991315422076e-07,-3.0090914345356293e-07,-9.440190234817269e-07,-5.256532145590333e-07,2.3172580746020566e-07,-5.145719156948296e-07,2.286823408906072e-07
-3.390857063729434e-06,-5.472152478124535e-06,-1.439108548189592e-07,-1.7057195087638868e-07,-3.27621886496555e-07,-2.8816303852826347e-08,-4.654866228328368e-07,-7.366709823057299e-07,2.0471002451351973e-07,9.692118573491846e-07,-5.11720321438008e-07,1.5324907986519304e-07,-2.8447614403328845e-07,-9.664534253160882e-07,-5.562052035299121e-07,2.1285738755666922e-07,-5.464375180155955e-07,2.496348029987486e-07
-3.3971049154273334e-06,-5.624747933493494e-06,-1.480302368279476e-07,-1.6088170143194448e-07,-3.637459533590156e-07,-5.494844559597161e-08,-4.96722891856758e-07,-7.313870227710683e-07,1.5668234458103382e-07,9.354919657880246e-07,-5.263028250425864e-07,1.522851189793294e-07,-2.6656457529257476e-07,-9.888273632504073e-07,-5.858063160546817e-07,1.9840026106468354e-07,-5.795095643179784e-07,2.7624168188449727e-07
-2.8009987479487486e-06,-5.007234565397994e-06,-1.5768355662460374e-07,-1.4682241540426353e-07,-3.900513073667234e-07,-7.756388614367752e-08,-5.286241258220832e-07,-7.254653055270013e-07,1.0516638881831515e-07,8.959595202581763e-07,-5.449139410878039e-07,1.4740410509360008e-07,-2.468139478362537e-07,-1.0114498719739148e-06,-6.128826734294245e-07,1.895881774301073e-07,-6.122868229128208e-07,3.0554815937405306e-07
-1.8285086677304729e-06,-3.8596419460442445e-06,-1.7224857310616418e-07,-1.3065555592211819e-07,-4.087754817429941e-07,-9.241921630513347e-08,-5.577158345843308e-07,-7.169119628168963e-07,5.707513902079315e-08,8.574407013213039e-07,-5.630441090645507e-07,1.4092692894570525e-07,-2.2412934540064641e-07,-1.032614545331059e-06,-6.342284284327435e-07,1.8833853375175432e-07,-6.427571779230601e-07,3.355131518768489e-07
-7.891973260195593e-07,-2.505875288406709e-06,-1.894645443768374e-07,-1.1433848594287987e-07,-4.2320782917449456e-07,-9.56540882284879e-08,-5.801109487445884e-07,-7.033978496461584e-07,1.9556555706600332e-08,8.270418808700414e-07,-5.760812069729437e-07,1.358641120275499e-07,-1.9784599846101e-07,-1.050480669193484e-06,-6.476613904695487e-07,1.9674649044147679e-07,-6.700984170373877e-07,3.651620619191573e-07
8.158668639409264e-09,-1.230937345105604e-06,-2.0668308590953182e-07,-1.008209985798706e-07,-4.382076104418365e-07,-8.595312737037496e-08,-5.946201425727205e-07,-6.845948744879638e-07,-2.5346367770369956e-09,8.094823716667962e-07,-5.811719169657287e-07,1.3430876829291338e-07,-1.6832065534149653e-07,-1.0653150747745824e-06,-6.530474113619505e-07,2.147187609397387e-07,-6.953571372065052e-07,3.941288680145735e-07
3.472889672273292e-07,-2.2438756740461517e-07,-2.2186581718730125e-07,-9.415074561162527e-08,-4.5967340562358704e-07,-6.505799265913147e-08,-6.032954925415054e-07,-6.624721066207971e-07,-7.58440658931371e-09,8.06428187413238e-07,-5.774077329010719e-07,1.3753053465211846e-07,-1.3684778227976737e-07,-1.0788940827710777e-06,-6.50714907971648e-07,2.4099299345077166e-07,-7.196800203732221e-07,4.225524920903018e-07
1.6934217674463758e-07,4.355668232700618e-07,-2.3327195027647839e-07,-9.760696167456505e-08,-4.923812836107657e-07,-3.613013035891985e-08,-6.089636496428533e-07,-6.394079025381006e-07,3.919584511097799e-09,8.17507668914997e-07,-5.650281583632961e-07,1.4670186051167628e-07,-1.0493130314409792e-07,-1.0926317579635366e-06,-6.399510889083934e-07,2.757589460635405e-07,-7.427869320128973e-07,4.5094073892200597e-07
-4.247233438664982e-07,7.790217713436806e-07,-2.3943169403990136e-07,-1.1265131178216281e-07,-5.386976841567471e-07,-2.7380230565245585e-09,-6.140571146695136e-07,-6.174778276782794e-07,2.992250423753612e-08,8.406127269873225e-07,-5.453303431043493e-07,1.6225363362216805e-07,-7.419461438260877e-08,-1.1075240515567072e-06,-6.188169210851723e-07,3.1983195097699613e-07,-7.637954968451929e-07,4.795022881899637e-07
-1.2365162975668354e-06,9.093396922854373e-07,-2.4026485230365573e-07,-1.3969078870905335e-07,-5.990467921505036e-07,3.067107656486051e-08,-6.217848241702304e-07,-5.993535557178844e-07,6.593867457678362e-08,8.715400929357853e-07,-5.212028664533644e-07,1.8289535959656793e-07,-4.7053953650967406e-08,-1.1248420169431764e-06,-5.893631028895028e-07,3.7295920752410683e-07,-7.824284572219454e-07,5.078435541629963e-07
-2.065319234868614e-06,9.340806887294257e-07,-2.3753317764712504e-07,-1.7810035760558786e-07,-6.718176920669047e-07,5.9289074755605984e-08,-6.358412018997107e-07,-5.876530839593195e-07,1.0555741177787486e-07,9.05089064442943e-07,-4.964510036275209e-07,2.065190602355434e-07,-2.5894860398025682e-08,-1.1448593810864107e-06,-5.538471021620397e-07,4.35558982273006e-07,-7.983847137308353e-07,5.358398453280093e-07
-2.7812724864850753e-06,9.029426887360027e-07,-2.3343256352895993e-07,-2.2461729151033277e-07,-7.519800085179118e-07,8.022139545843208e-08,-6.576986177318257e-07,-5.825253575633406e-07,1.4310764485255432e-07,9.373466315152334e-07,-4.738206847384542e-07,2.320511354602353e-07,-1.1492986378620165e-08,-1.1651096563134223e-06,-5.1143795138334e-07,5.103990388678923e-07,-8.105649016079972e-07,5.644806177306687e-07
-3.333180393999299e-06,7.983039264862e-07,-2.291843772912628e-07,-2.730383532700294e-07,-8.312579567848126e-07,9.368899915004554e-08,-6.854938293106794e-07,-5.812212200273941e-07,1.7535975543550883e-07,9.66272033831035e-07,-4.5395851429568986e-07,2.5949767825106883e-07,-2.8516032995943297e-09,-1.1816235185071163e-06,-4.622714250460142e-07,6.003417170979766e-07,-8.182594483693897e-07,5.951492391863893e-07
-3.7014790150272692e-06,5.799254118335504e-07,-2.2526131188672093e-07,-3.1680315403160405e-07,-9.012686182207819e-07,1.0167922061158845e-07,-7.16060761573758e-07,-5.807179994205373e-07,2.0072458269428401e-07,9.904168455272374e-07,-4.369922163688003e-07,2.8840855037943763e-07,1.4099386602914555e-09,-1.1919815984155482e-06,-4.0537292744353855e-07,7.089832697023991e-07,-8.224810722217879e-07,6.280507939717148e-07
-3.855970697650713e-06,2.4464747024584855e-07,-2.2198386208207735e-07,-3.515841687175789e-07,-9.565981780780677e-07,1.0642890555515067e-07,-7.465097055612003e-07,-5.795245528126998e-07,2.185991146260814e-07,1.0085146042123376e-06,-4.23237104950913e-07,3.175104508752047e-07,2.6773247509026508e-09,-1.1960188808170784e-06,-3.3990497607853003e-07,8.337117687258031e-07,-8.248728909150004e-07,6.616049408623408e-07
-3.760963799066791e-06,-1.4445835439163158e-07,-2.190040416891356e-07,-3.752870516160823e-07,-9.950393246069626e-07,1.1052494476261983e-07,-7.735218005577407e-07,-5.766777771815663e-07,2.3009864393259606e-07,1.0205791716222306e-06,-4.1223888427813266e-07,3.459378818994679e-07,3.0906764024679434e-09,-1.1940427333813283e-06,-2.694141899167988e-07,9.694930424833078e-07,-8.256549400257437e-07,6.929556942708326e-07
