0,1,2,3,4,5,6,7,8,9,10,11,12,13,14,15,16,17
-3.9452242539283506e-07,7.299700251639672e-08,3.8649726197536806e-07,7.610389931063605e-08,-1.2737940589568957e-07,4.2901263865891576e-07,3.9512208268413474e-07,-1.3315586356619868e-07,9.171968818974254e-08,-2.72505533511622e-07,9.532624244442439e-08,-2.9583255231536605e-07,-4.2300242694394916e-08,3.5239620225505053e-08,2.3847704641114384e-07,-6.76757053900252e-07,2.17894636715792e-08,8.219499828851121e-08
-3.957808039685449e-07,3.477028227290105e-08,3.414057300871306e-07,1.999639856645453e-08,-2.967974968200958e-07,4.4986421175116704e-07,3.700540784935602e-07,-1.2385490457951351e-07,7.928197252660701e-08,-2.6877457565268914e-07,7.412480508041576e-08,-2.863492091478912e-07,-5.044007991889717e-08,2.7452997334784508e-08,2.0496443448314235e-07,-8.22440030146922e-07,-3.051010583929256e-09,7.219757802201877e-08
-3.439812095000096e-07,8.245088154889775e-09,2.9336925955831536e-07,-2.918257918322216e-08,-4.470628061601935e-07,4.497210095128742e-07,3.341791071154143e-07,-7.238670104666847e-08,7.334064330641824e-08,-2.452250106711664e-07,6.065423178700436e-08,-2.523223301373918e-07,-5.272773846315912e-08,1.9076259492267125e-08,1.7130091757676712e-07,-8.077920075102078e-07,-1.40827270765183e-08,7.65295283250219e-08
-2.54035222384577e-07,-2.8616713825146663e-09,2.4772059741296053e-07,-6.634467275417178e-08,-5.068732700557288e-07,4.1018048354645996e-07,2.935666792770906e-07,1.149903068649182e-08,7.884280952087418e-08,-1.9402777060470477e-07,5.955205960619451e-08,-1.893856282931247e-07,-4.436826131753834e-08,1.7053227997408113e-08,1.3735250369513482e-07,-6.126637789723766e-07,-8.115837423427174e-09,9.390927851209602e-08
-2.0891027476530837e-07,4.01054559299465e-09,2.067458740166105e-07,-9.141399323467617e-08,-4.3056446031545105e-07,3.1764027085188814e-07,2.5226508025229847e-07,1.1005024529181508e-07,9.614097458528971e-08,-1.1230988367659481e-07,7.117964424566011e-08,-9.886493076074877e-08,-2.317705878898212e-08,2.6209745589489174e-08,1.0145930569114705e-07,-3.0621816110324966e-07,1.4060080302048965e-08,1.1859319967608807e-07
-1.470851936953826e-07,2.802704477340497e-08,1.6936090197254027e-07,-1.0432217714653885e-07,-2.2005617120161164e-07,1.7697616492017122e-07,2.1132035258704785e-07,2.026232916430784e-07,1.1983835858498956e-07,-9.856817916935775e-09,9.117523946136703e-08,8.04717536870446e-09,9.309487520227083e-09,4.620974346765464e-08,6.36423164317482e-08,1.01022836548455e-08,4.753812887078751e-08,1.4220438704368432e-07
-2.8267662594155725e-08,6.729971940722688e-08,1.3290331466152832e-07,-1.0041887308714702e-07,7.422371878697135e-08,2.4176082519515188e-08,1.6990672115994955e-07,2.714593222267014e-07,1.407112280878971e-07,9.901958320862212e-08,1.1224934261355203e-07,1.1526755687145108e-07,4.813759800738798e-08,7.156337309509703e-08,2.6721719632085584e-08,2.402674374453867e-07,8.488096580680061e-08,1.5679778655900023e-07
1.1401844752680917e-07,1.181691482613681e-07,9.447334201939517e-08,-7.275826874982849e-08,3.7253175389368585e-07,-1.1651960283000221e-07,1.2599548642729633e-07,3.0393624065968464e-07,1.4881221027844386e-07,1.8294940143989865e-07,1.265775947350368e-07,1.9254455269002443e-07,8.592538612940323e-08,9.40684413165946e-08,-5.738985881453105e-09,3.613139438622868e-07,1.1707586128813282e-07,1.5667100531471957e-07
1.9174901021173062e-07,1.449027714130793e-07,5.03991485158922e-08,-2.0159804047507345e-08,5.950192991246641e-07,-2.2874132806611978e-07,7.65912470610995e-08,2.915070765116882e-07,1.3626567430418633e-07,2.1002581192146822e-07,1.2710938680091134e-07,2.11287148462109e-07,1.1413005988290956e-07,1.056318006178004e-07,-3.253724865809441e-08,3.933722978463322e-07,1.3521080209544598e-07,1.3885595348031734e-07
2.1634104521969734e-07,1.423020923319075e-07,-4.56416103684121e-09,4.678121103407809e-08,6.875045768486414e-07,-2.970362490862018e-07,1.726676692263812e-08,2.28658075272712e-07,9.903819808554037e-08,1.7184420246285939e-07,1.0791497866607396e-07,1.7003199267850057e-07,1.247695109893316e-07,1.0003169655242615e-07,-5.597280842044816e-08,3.8363274718206863e-07,1.3160054790617801e-07,1.024925267091434e-07
2.4433298547628646e-07,7.47416225112892e-08,-7.590623890893391e-08,1.0768975631651916e-07,6.336409535941062e-07,-3.321238652395522e-07,-6.322024610115945e-08,1.1631762699402603e-07,3.7526041577054726e-08,1.4860596542890972e-07,6.472581625624e-08,1.4411886538018794e-07,1.1249942229297697e-07,7.368448226759775e-08,-7.965177330075067e-08,3.8138092706107856e-07,1.0086295762757923e-07,4.6595288776546704e-08
2.6631557289261375e-07,-4.270279225148164e-08,-1.6837259187884284e-07,1.4079683776451246e-07,4.531121285870239e-07,-3.456336348771133e-07,-1.678420243334914e-07,-3.1264881696339646e-08,-4.348848346407763e-08,1.5811023008941785e-07,-3.4816038031390847e-09,1.6028146665753913e-07,7.610462699704574e-08,2.608126455930999e-08,-1.0581262781061627e-07,3.9422073214089117e-07,4.2400716337558484e-08,-2.897476095530575e-08
2.762258126824822e-07,-9.563468484799657e-08,-2.768853948974112e-07,1.3171273671110484e-07,1.91752058803155e-07,-3.21582266710325e-07,-2.950849828720597e-07,-1.8390863060891263e-07,-1.3565406420055114e-07,1.3302466267318826e-07,-9.312747658699504e-08,1.4925989256749908e-07,1.8762582305784095e-08,-3.9923602837445024e-08,-1.3345450434547308e-07,4.013611158100643e-07,-3.818109070269424e-08,-1.241034111645345e-07
2.241467569448124e-07,-8.835826075491977e-08,-3.8905265674632174e-07,7.834850072705779e-08,-9.258015202541731e-08,-2.757192796648393e-07,-4.387173560447567e-07,-3.0272574177889843e-07,-2.2885642442687056e-07,7.929934426389934e-08,-1.960899443051871e-07,7.805392224038806e-08,-5.2479964237369025e-08,-1.1840086671410273e-07,-1.5881542500578975e-07,3.616607324903712e-07,-1.2936916837916477e-07,-2.3447288468796645e-07
1.4213687019597738e-07,-1.6152337953251453e-07,-4.889398021712273e-07,-8.58930682608357e-09,-3.4701239000219696e-07,-2.232373018038819e-07,-5.79521077025649e-07,-3.5547131257714584e-07,-3.130133165958224e-07,5.180529837417175e-10,-3.0115459204727445e-07,-1.1210441274341601e-08,-1.2775957080439728e-07,-2.0168761522606998e-07,-1.7879901960787227e-07,2.45298548582425e-07,-2.1648217016408908e-07,-3.492116965878276e-07
9.731629115040279e-08,-3.043845284660304e-07,-5.191545845801633e-07,-1.0823966540118617e-07,-5.394583371618626e-07,-1.1697733348295499e-07,-7.018819156034137e-07,-3.332828734325205e-07,-3.805055103597228e-07,-8.069766243829287e-08,-3.9673572495428446e-07,-9.492748098753951e-08,-1.9638575790032835e-07,-2.822905677383167e-07,-1.9313585089067095e-07,5.3260265557258314e-08,-2.86137519576288e-07,-4.502787773115131e-07
5.010380008589208e-08,-4.6989856250302303e-07,-5.115138281339075e-07,-1.9466357207830286e-07,-6.653615487330619e-07,-6.81936006083963e-08,-7.906556548546759e-07,-2.5653773564313537e-07,-4.279525251267099e-07,-1.4760172925324061e-07,-4.7422889933089375e-07,-1.7139394421369748e-07,-2.497729337262954e-07,-3.544869151225185e-07,-2.0497833137538034e-07,-1.8193189187207645e-07,-3.30515726806138e-07,-5.182036370103277e-07
3.638277949753242e-08,-6.290796727823499e-07,-5.25113639499483e-07,-2.448720687094221e-07,-7.40669934369391e-07,-7.446176060969355e-08,-8.352717057098412e-07,-1.6520305228388752e-07,-4.5697972203183404e-07,-1.9902610496741592e-07,-5.307200580381997e-07,-2.186445708552335e-07,-2.8432810473080685e-07,-4.1514850868029165e-07,-2.193248552024835e-07,-4.150046974437433e-07,-3.4987070133090734e-07,-5.427561974823164e-07
4.766083061033021e-08,-7.753835330887018e-07,-5.16505111480101e-07,-2.4803679073439566e-07,-7.859346634553668e-07,-1.1312886729684182e-07,-8.252720380437397e-07,-9.848486280463077e-08,-4.73323857453542e-07,-2.2222257379182006e-07,-5.693759138080168e-07,-2.499351242924614e-07,-3.026156834163204e-07,-4.6360970008585153e-07,-2.3838408786305314e-07,-6.020459923065032e-07,-3.5136278174470927e-07,-5.247984456565021e-07
5.444794611347481e-08,-8.686686395365244e-07,-4.5985616342039616e-07,-2.094629289692219e-07,-8.127681956787129e-07,-1.612129661544064e-07,-7.724048608934971e-07,-7.660501642650896e-08,-4.847550178122489e-07,-2.3146486827411126e-07,-5.96921274152132e-07,-2.7380754236829836e-07,-3.117012884132405e-07,-5.008009576510535e-07,-2.588688067686476e-07,-7.040192584879718e-07,-3.4575840849763793e-07,-4.798538605946077e-07
5.475904754416137e-08,-9.173187238193843e-07,-3.904099675446186e-07,-1.453840993700692e-07,-8.214589524806345e-07,-1.7396287453138834e-07,-6.939305586054042e-07,-9.648945549086488e-08,-4.97583579220954e-07,-2.455690885833003e-07,-6.196306614737513e-07,-2.949488416600637e-07,-3.1948596831389474e-07,-5.277309738899593e-07,-2.734870658144587e-07,-6.93240387087719e-07,-3.419107150365447e-07,-4.3136002956611714e-07
3.095901283744366e-08,-9.415388508727472e-07,-3.6129010704987335e-07,-7.360975958842946e-08,-8.093553270623207e-07,-1.225162475312119e-07,-6.034864599515149e-07,-1.4118326880656202e-07,-5.142509130539968e-07,-2.698852270820459e-07,-6.402746089628798e-07,-3.199472156986858e-07,-3.312547347010157e-07,-5.440903119572926e-07,-2.762550082229853e-07,-5.747442062487677e-07,-3.441697766916799e-07,-3.9764565808631196e-07
-1.1944283102881957e-08,-9.469945603826355e-07,-3.6575164938674476e-07,-7.64687353168256e-09,-7.80930596676064e-07,-1.0987023616642347e-07,-5.23646050421496e-07,-1.9218896358048123e-07,-5.334521248116655e-07,-3.06840265936969e-07,-6.580411089063617e-07,-3.4024991687282717e-07,-3.483645006925013e-07,-5.484763931644378e-07,-2.647209875070013e-07,-3.824020520751084e-07,-3.5281911444056346e-07,-3.848639429745329e-07
-6.002348134523433e-08,-9.448312440239556e-07,-3.9467092651371897e-07,4.366509897475088e-08,-7.514228918134603e-07,-1.406554180621524e-07,-4.5671449004194237e-07,-2.34864184481924e-07,-5.517912842283811e-07,-3.48817761252113e-07,-6.708728036683159e-07,-3.475488763417088e-07,-3.6941474409283547e-07,-5.403543746229041e-07,-2.397835049470796e-07,-1.6371043741640608e-07,-3.660692482149201e-07,-3.8709693654632685e-07
-1.0420760355576398e-07,-9.319077761105384e-07,-4.474922925317945e-07,7.41538476098904e-08,-7.426298283580117e-07,-1.5818242901610736e-07,-4.03738996622961e-07,-2.5831779414202105e-07,-5.665626922305437e-07,-3.9004525132376146e-07,-6.785318005951324e-07,-3.3966435609615596e-07,-3.9239612917405593e-07,-5.218200539164822e-07,-2.0544182896637225e-07,4.587436767910304e-08,-3.8274582989810953e-07,-3.905052159455355e-07
-1.3974528508785284e-07,-9.073825004923888e-07,-5.214736988403399e-07,7.983633668629966e-08,-7.717041213738882e-07,-1.9027217220156897e-07,-3.701327009435555e-07,-2.560153141961845e-07,-5.773604822582732e-07,-4.300482205165415e-07,-6.842466769760174e-07,-3.186440759246558e-07,-4.1583385542608414e-07,-4.973759699945202e-07,-1.6903187915531944e-07,2.2679251959380568e-07,-4.0235423233028827e-07,-3.816735609010794e-07
-1.6649181942225703e-07,-8.770126762393176e-07,-6.126141544856554e-07,6.048017072099053e-08,-8.38240039157755e-07,-1.868377898211226e-07,-3.666585001441823e-07,-2.2858930954913037e-07,-5.855087708164455e-07,-4.695880151831807e-07,-6.935472327976353e-07,-2.906169486337852e-07,-4.3844616913421574e-07,-4.720026965582697e-07,-1.4083026115712722e-07,3.688351860061145e-07,-4.2350152666337257e-07,-3.55372448509914e-07
-1.8527380548903278e-07,-8.469545371908775e-07,-7.131477426688974e-07,2.0324148205221973e-08,-9.227921264310804e-07,-1.2709223938458846e-07,-3.9469996949720686e-07,-1.837877019642926e-07,-5.91907822227669e-07,-5.078147086020734e-07,-7.113412253475431e-07,-2.6204520582732457e-07,-4.584249792706569e-07,-4.4936804460718123e-07,-1.3056740851852864e-07,4.635859036855435e-07,-4.4287810115096043e-07,-3.163450001719616e-07
-1.9464068126166974e-07,-8.209603432099604e-07,-8.111451780956937e-07,-3.330495497738336e-08,-1.0015029127610685e-06,-6.710604595857239e-08,-4.518670434468475e-07,-1.3066206552992457e-07,-5.954029389279577e-07,-5.400190927848384e-07,-7.396044563854129e-07,-2.3702803244689104e-07,-4.7352856923574005e-07,-4.3179174957301845e-07,-1.4367391374991392e-07,4.900670996568763e-07,-4.560783230552438e-07,-2.772389227324258e-07
-1.9079159970631278e-07,-7.98473208506668e-07,-8.9357803744265e-07,-9.174726852540898e-08,-1.061705551633673e-06,-5.3029884716642596e-08,-5.343917868238587e-07,-7.398634729204211e-08,-5.930055091664011e-07,-5.594790529659803e-07,-7.774639699687203e-07,-2.1714895169565086e-07,-4.822411189670001e-07,-4.215995362615117e-07,-1.8005198795406115e-07,4.1897075356515497e-07,-4.5967868838829293e-07,-2.5398491278449585e-07
-1.705009043106649e-07,-7.761832342705364e-07,-9.510521118254282e-07,-1.4622291472814079e-07,-1.1034272702980706e-06,-1.2079105600424795e-07,-6.268801814400095e-07,-1.4770028191394627e-08,-5.820132223878968e-07,-5.611064897262202e-07,-8.215074161549115e-07,-2.022372965989803e-07,-4.850974865525159e-07,-4.218975634732809e-07,-2.3316486456615377e-07,2.30506867512688e-07,-4.534102265628051e-07,-2.581520341118229e-07
-1.3468001697615485e-07,-7.510918323696711e-07,-9.80808052736942e-07,-1.8881994487945263e-07,-1.129732679716046e-06,-1.9709227224576477e-07,-7.236940094186659e-07,4.4859694506489274e-08,-5.61858217510952e-07,-5.441161950772286e-07,-8.681779748923102e-07,-1.916983264018764e-07,-4.84737893177089e-07,-4.3546581933394226e-07,-2.9350398609605087e-07,-5.962045391539407e-08,-4.4056932932177774e-07,-2.9151698912828795e-07
-8.949274369586508e-08,-7.222401004182503e-07,-9.857942994751568e-07,-2.1314945828005802e-07,-1.1376519311307547e-06,-2.6027651449779275e-07,-8.190462665055598e-07,9.754638582275226e-08,-5.346260355075413e-07,-5.1254629142025e-07,-9.135250714644738e-07,-1.8431701430702768e-07,-4.841574927907584e-07,-4.6210430543904935e-07,-3.4986422084848936e-07,-3.891427521459649e-07,-4.258301902125939e-07,-3.45017834320058e-07
-4.4080542668659524e-08,-6.901265950400527e-07,-9.7091003779928e-07,-2.1521636975953137e-07,-1.1166452517232606e-06,-2.76518938365645e-07,-9.013065122837356e-07,1.304998004485379e-07,-5.02653496752661e-07,-4.727237380875695e-07,-9.525548085836877e-07,-1.772955105626836e-07,-4.842591061591336e-07,-4.962030696930165e-07,-3.907972792108645e-07,-6.634792960436027e-07,-4.124314355107517e-07,-4.010416921685291e-07
-6.905037946647036e-09,-6.553922593533723e-07,-9.399516665466498e-07,-1.9553306174348104e-07,-1.0540277446924446e-06,-2.1054609176539612e-07,-9.529445229797831e-07,1.2972159595622734e-07,-4.672732183705587e-07,-4.302581519199615e-07,-9.795823128801228e-07,-1.6575217380650404e-07,-4.826057433372227e-07,-5.269176631898728e-07,-4.050016394735713e-07,-7.9513051898615e-07,-4.0091869158042137e-07,-4.405126284787297e-07
1.657136760953357e-08,-6.186698338789586e-07,-8.956919089371329e-07,-1.6179141299998455e-07,-9.426719039975996e-07,-2.2798157833580665e-07,-9.599897072655708e-07,8.62742806154371e-08,-4.286893186979565e-07,-3.88882247908297e-07,-9.89966738325146e-07,-1.443990367586381e-07,-4.745145502071797e-07,-5.417813255254242e-07,-3.842495528067425e-07,-7.451567081802621e-07,-3.903393213509696e-07,-4.490859348820073e-07
2.410398249911009e-08,-5.818947403523696e-07,-8.420952390262201e-07,-1.2918854035783866e-07,-7.867520749294116e-07,-3.286290805761125e-07,-9.596707704358962e-07,6.172421196905358e-10,-3.8757065987317157e-07,-3.512630508234792e-07,-9.829023719754855e-07,-1.1043660819364195e-07,-4.5588651309540454e-07,-5.319292562976355e-07,-3.2838450951302946e-07,-5.362816200698384e-07,-3.80632478008371e-07,-4.228127127964086e-07
1.5754343346207985e-08,-5.495246470333354e-07,-7.855324294413073e-07,-1.1532883037264156e-07,-6.02889206379947e-07,-4.075500655377879e-07,-8.629644811867962e-07,-1.1655456518991983e-07,-3.468063071659267e-07,-3.2009214274989594e-07,-9.626618694052944e-07,-6.54388342140695e-08,-4.257718448287429e-07,-4.958568650560511e-07,-2.456764444787348e-07,-2.3721332212409596e-07,-3.729806838901468e-07,-3.715480591067483e-07
-6.194257176908828e-09,-5.274829761910389e-07,-7.32965707500785e-07,-1.304532937082108e-07,-4.1659371325371275e-07,-4.6073821473828616e-07,-7.71491209187114e-07,-2.457469839431284e-07,-3.106644543097366e-07,-2.9825539665369265e-07,-9.372160560068349e-07,-1.4768676087176215e-08,-3.867788658355614e-07,-4.3962581772944174e-07,-1.4959177334947227e-07,6.44214570623569e-08,-3.6820939980455417e-07,-3.1118345066079225e-07
-3.6631790912876854e-08,-5.196923929823874e-07,-6.883584278623657e-07,-1.6908030335552606e-07,-2.567945232646122e-07,-4.0756091168765835e-07,-6.887873464286605e-07,-3.624099848629251e-07,-2.8302604327520705e-07,-2.873757743454514e-07,-9.141375612231064e-07,3.5353579628670416e-08,-3.43079997644367e-07,-3.735615850873141e-07,-5.24849501932581e-08,2.874310423010229e-07,-3.644602799299239e-07,-2.5814383130547754e-07
-6.79572635260458e-08,-5.249271905016682e-07,-6.506867953140939e-07,-2.0966754222264285e-07,-1.4859334147297894e-07,-3.112070001188438e-07,-6.118557878011221e-07,-4.434801418203832e-07,-2.632312701509273e-07,-2.8659431342413677e-07,-8.972049781773475e-07,8.060061995367645e-08,-2.977821790045649e-07,-3.0747733260265384e-07,3.7507553384161484e-08,3.778434977028333e-07,-3.57915311511409e-07,-2.2437546830361083e-07
-9.256323392547868e-08,-5.368054407452627e-07,-6.155778901228917e-07,-2.2391806599018525e-07,-1.0326481088041882e-07,-1.968070285340496e-07,-5.474901600967822e-07,-4.744883231565521e-07,-2.477372640970072e-07,-2.930363962619852e-07,-8.859772376646601e-07,1.1890799659385645e-07,-2.5197384830243204e-07,-2.4722224443607315e-07,1.1578727219063037e-07,3.236325350189124e-07,-3.442863948722378e-07,-2.171697015906229e-07
-1.0676984453556333e-07,-5.470189157858235e-07,-5.794448188870274e-07,-1.9187516051937357e-07,-1.1299559690119518e-07,-5.2442481551406125e-08,-5.006968394195812e-07,-4.544101878274822e-07,-2.3304101365488754e-07,-3.0381580803046234e-07,-8.777249114686156e-07,1.4935713918752897e-07,-2.0620437372335953e-07,-1.941826731639081e-07,1.7905238059707597e-07,1.6089743796429093e-07,-3.213149533997624e-07,-2.3568871524022152e-07
-1.134017998522997e-07,-5.494838798927766e-07,-5.428581499810386e-07,-1.1491960783714572e-07,-1.581289953561511e-07,6.229472630343484e-08,-4.6740199901374577e-07,-3.9662674998629923e-07,-2.1773181199404286e-07,-3.178290221053299e-07,-8.70050597299986e-07,1.7070993449220915e-07,-1.6273627291435744e-07,-1.4713099304781683e-07,2.2429604436368748e-07,-3.3896938282522244e-08,-2.9014817108462767e-07,-2.748489457299415e-07
-1.2045192034583108e-07,-5.431061098539828e-07,-5.103944726279697e-07,-1.6918977702347825e-08,-2.1924198868152436e-07,1.5193461692882637e-07,-4.4371257941598363e-07,-3.2345949392888415e-07,-2.0318371141528444e-07,-3.3560352585679044e-07,-8.62208348407725e-07,1.8186925861933719e-07,-1.258099405256074e-07,-1.043200932704071e-07,2.492356237278693e-07,-1.7249554563698172e-07,-2.542981003257252e-07,-3.2423136473213484e-07
-1.3602812992052271e-07,-5.317531335343104e-07,-4.871017289541761e-07,7.028038136835665e-08,-2.8205854419106976e-07,2.2525303734513738e-07,-4.259708611372344e-07,-2.538273147056117e-07,-1.8945922133211244e-07,-3.5702113623852707e-07,-8.543696999416578e-07,1.838519132891122e-07,-9.910630745065463e-08,-6.412305761747089e-08,2.596698897591832e-07,-1.9566645774082493e-07,-2.1758509137671447e-07,-3.7048162285238426e-07
-1.6316193951175188e-07,-5.215770046781759e-07,-4.747017121552062e-07,1.2711781699575998e-07,-3.364081421799001e-07,2.786013219132874e-07,-4.112216721477942e-07,-1.9154859751923362e-07,-1.7697435438683232e-07,-3.796496176218161e-07,-8.465890257900886e-07,1.8069985040532147e-07,-8.29181480693803e-08,-2.4386790269827412e-08,2.550658010170195e-07,-9.69415291263778e-08,-1.8233107777603857e-07,-3.983722202078736e-07
-1.9835981267663341e-07,-5.178194411915035e-07,-4.7072227888973863e-07,1.5603393481469024e-07,-3.752083553458776e-07,3.204074590228663e-07,-3.9727338689105866e-07,-1.246956274188568e-07,-1.6382529876402085e-07,-3.997035881331618e-07,-8.381081970716457e-07,1.7776452186240825e-07,-7.415456007666729e-08,1.7648159405642975e-08,2.3709696220509343e-07,9.020692683627677e-08,-1.4970109579462636e-07,-3.999578010400266e-07
-2.3478047436454854e-07,-5.23544869880088e-07,-4.7095593590217527e-07,1.7467261324710526e-07,-3.93653414497576e-07,3.5639244571317475e-07,-3.83056306992833e-07,-3.679480184735736e-08,-1.4925752120768375e-07,-4.149200018628129e-07,-8.285629042550756e-07,1.7823595908221073e-07,-6.937488313338656e-08,6.356416591548666e-08,2.0497008880951089e-07,3.2437751312252197e-07,-1.2122420316767205e-07,-3.780720623574347e-07
-2.673400955096462e-07,-5.405558937317558e-07,-4.7285340150426963e-07,2.007078592222674e-07,-3.8627256018007645e-07,3.85992677009408e-07,-3.6895201565323703e-07,8.040714980327014e-08,-1.3529066079812876e-07,-4.272145429209782e-07,-8.194899578328636e-07,1.8057244758586073e-07,-6.794783339321974e-08,1.1118744103120244e-07,1.649543211964774e-07,5.703856805199133e-07,-1.0001505479285298e-07,-3.401240117555819e-07
-2.9568962964125365e-07,-5.704373331731927e-07,-4.7679781968994837e-07,2.3990140866588584e-07,-3.5161608446824e-07,4.0571486226769746e-07,-3.5668182386431833e-07,2.218475525594414e-07,-1.2733100549436925e-07,-4.4255992932884833e-07,-8.14553892206469e-07,1.7903453557648413e-07,-7.23651613711578e-08,1.537576366637426e-07,1.245168945319269e-07,8.017031461538958e-07,-8.990911909959032e-08,-3.0235463621605967e-07
-3.22861223691066e-07,-6.139095757097099e-07,-4.841194829011118e-07,2.83880053034705e-07,-2.906558119798411e-07,4.117399832373713e-07,-3.485038127396408e-07,3.717263339554341e-07,-1.2963014212704532e-07,-4.676548505592067e-07,-8.177906958351148e-07,1.6746957585229114e-07,-8.57097943045433e-08,1.823105246562789e-07,8.910687494230284e-08,9.837130820191504e-07,-9.252205402070302e-08,-2.7122130934533697e-07
-3.5107999384985883e-07,-6.689566881700412e-07,-4.938888965193256e-07,3.171432410006358e-07,-2.095940524336942e-07,4.026024049393138e-07,-3.458814262301887e-07,5.10147880215684e-07,-1.4386861965770975e-07,-5.058168958708012e-07,-8.310264828490828e-07,1.4329835537477516e-07,-1.0903296550146025e-07,1.8986886239078108e-07,6.741031061108017e-08,1.0789917599736017e-06,-1.0530681716863439e-07,-2.412273805737691e-07
-3.7874577055446637e-07,-7.299622466696457e-07,-5.017898656925863e-07,3.271232728728249e-07,-1.1886497044447506e-07,3.8096377441977335e-07,-3.4862432885229094e-07,6.226655972215943e-07,-1.6830192411098422e-07,-5.551731579676796e-07,-8.526335674260292e-07,1.0874596623832833e-07,-1.4090149520639365e-07,1.7440574116500958e-07,5.1662529606708805e-08,1.06221648358437e-06,-1.2190472450220545e-07,-1.9471571106454231e-07
-4.0102593258236024e-07,-7.894856284904942e-07,-5.024916128931655e-07,3.1019459646679864e-07,-3.2907267317451253e-08,3.5152789236843673e-07,-3.5530680074729424e-07,7.074612867531223e-07,-1.961680933602804e-07,-6.103214020679825e-07,-8.786471630628409e-07,6.882535834898508e-08,-1.7887344131452054e-07,1.3961765058182288e-07,4.837772362581305e-08,9.346449820641808e-07,-1.3524963166034687e-07,-1.356410571634191e-07
-4.136893837014624e-07,-8.406994409738709e-07,-4.938462937217064e-07,2.7109042991891766e-07,3.324886377826834e-08,3.1937673704917345e-07,-3.6474945270954685e-07,7.735644370144786e-07,-2.1965834411266186e-07,-6.657925423436977e-07,-9.053256618820266e-07,2.7902510232546124e-08,-2.2138457410241153e-07,9.047250394121179e-08,5.8841146872353506e-08,7.165515735366325e-07,-1.4181900098902336e-07,-7.176434080375407e-08
-4.1700829146276226e-07,-8.832303581365301e-07,-4.794890917994313e-07,2.1830385996872242e-07,6.899115675307581e-08,2.8765849095486903e-07,-3.776180080480867e-07,8.31694007029383e-07,-2.345799199522021e-07,-7.191390432473909e-07,-9.311151651514652e-07,-1.248155936414235e-08,-2.687410516433388e-07,3.083127603898197e-08,8.628441329454181e-08,4.306188693154053e-07,-1.4338520888090796e-07,-2.1781670320509125e-08
-4.163405791451779e-07,-9.235159677454489e-07,-4.673128128082344e-07,1.5939619063185048e-07,6.92581508928509e-08,2.5925198298905013e-07,-3.9658521269981966e-07,8.86469295194993e-07,-2.3975726615553156e-07,-7.711362050384186e-07,-9.56675645653021e-07,-5.3145889259905217e-08,-3.222896614623999e-07,-3.5094407166580494e-08,1.1723886489678372e-07,1.0784153969771293e-07,-1.4564025454933278e-07,7.3164787467124405e-09
-4.1873051723085996e-07,-9.6746612466632e-07,-4.643778027796085e-07,9.862718047342013e-08,3.954890103245157e-08,2.3818675173743394e-07,-4.243191151743069e-07,9.35637989753358e-07,-2.3723707361270048e-07,-8.23266725941603e-07,-9.831410133133763e-07,-9.421551265694923e-08,-3.8189389322349025e-07,-1.0321068035632176e-07,1.3594329394139315e-07,-2.056459406064329e-07,-1.541061126410819e-07,2.517516302889021e-08
-4.2815919919240914e-07,-1.031172913497321e-06,-4.7186381909976833e-07,3.7460639253858905e-08,-3.2116643589319994e-09,2.3168192089389078e-07,-4.60965456644676e-07,9.739919886347123e-07,-2.3296173086707144e-07,-8.747485586677526e-07,-1.0101498396102448e-06,-1.3284879767696377e-07,-4.436576013409453e-07,-1.6722028416059131e-07,1.3612091134232945e-07,-4.5562187623653525e-07,-1.707429383590047e-07,4.387705828215044e-08
-4.4297282460431494e-07,-1.122332337634705e-06,-4.837365039618538e-07,-2.3337652392732334e-08,-3.558796659555802e-08,2.491873758519308e-07,-5.037153435299946e-07,9.965265529112438e-07,-2.2990945990732615e-07,-9.232389701057851e-07,-1.0354432082492186e-06,-1.633840437709122e-07,-5.001558258479279e-07,-2.1683085172992972e-07,1.1337363156287352e-07,-6.037634349826251e-07,-1.9407146567237217e-07,8.299294712278042e-08
-4.5764606189753123e-07,-1.178779909341934e-06,-4.88094196019209e-07,-8.212107063378723e-08,-3.42721690923181e-08,3.0129692541522666e-07,-5.487903862584373e-07,9.992308761729509e-07,-2.3609143424986906e-07,-9.663045087409639e-07,-1.056308817997967e-06,-1.7775712731251363e-07,-5.409482538320387e-07,-2.422274102197098e-07,8.49538150267629e-08,-6.436829472405349e-07,-2.2070773141196726e-07,1.3296833878330908e-07
-4.6660286531727993e-07,-1.20252914160905e-06,-4.76266212488039e-07,-1.3637374294469915e-07,7.518713173039878e-09,3.86119279454801e-07,-5.936366136972771e-07,9.785831425556361e-07,-2.5536060295642364e-07,-1.0015176894312e-06,-1.0718672162388954e-06,-1.7575770654171844e-07,-5.60940580957387e-07,-2.4515038509136967e-07,5.952463019759368e-08,-6.013024067321021e-07,-2.466953684504645e-07,1.9297226283660238e-07
-4.676282051799777e-07,-1.2382419704783045e-06,-4.4472073375664827e-07,-1.8439419148517775e-07,8.483006926129107e-08,4.954508863915331e-07,-6.371906020935927e-07,9.279155521626475e-07,-2.904361939029706e-07,-1.0307454541111952e-06,-1.0812454949655007e-06,-1.5844272307643092e-07,-5.590255099112873e-07,-2.2451240460808752e-07,4.461522451278562e-08,-5.220867454773617e-07,-2.722589624206628e-07,2.652691435084362e-07
-4.622060146143079e-07,-1.2608973377993268e-06,-3.9606564889100504e-07,-2.2753650358910004e-07,1.8612207695171006e-07,6.023779274320895e-07,-6.782717306541092e-07,8.418399779087032e-07,-3.429392250691033e-07,-1.056518676294593e-06,-1.0890015181901308e-06,-1.2864336762225373e-07,-5.377465870062722e-07,-1.9175604256472984e-07,3.811957203583215e-08,-4.5331046279410573e-07,-2.9936632650222497e-07,3.551558560442454e-07
-4.525077858843908e-07,-1.2510311784533343e-06,-3.341148562868454e-07,-2.699536927278099e-07,2.728495697881743e-07,6.944669180207849e-07,-7.141443681647442e-07,7.230871560257998e-07,-4.1285188794847516e-07,-1.0747843970976251e-06,-1.0949580303965712e-06,-9.077688738544174e-08,-4.986551042348094e-07,-1.349382564159822e-07,4.3295479427903345e-08,-3.9691318035014465e-07,-3.2508892504702814e-07,4.440097894499027e-07
-4.3842403521193723e-07,-1.2175550182646657e-06,-2.625727020245166e-07,-3.145370382135817e-07,3.358482432074406e-07,7.676614908419234e-07,-7.409144806039039e-07,5.834406493099021e-07,-4.927447492715011e-07,-1.0788728750520941e-06,-1.0952290522261502e-06,-4.6825959510188546e-08,-4.4383173390633373e-07,-2.9887010539970684e-08,6.06715136643054e-08,-3.784196974819817e-07,-3.453227530991116e-07,5.004997773174766e-07
-4.1741830104927574e-07,-1.1696996201300635e-06,-1.8373193351993046e-07,-3.5923109475488526e-07,3.7384534893310906e-07,8.328122105056028e-07,-7.555260689131713e-07,4.4227408893518675e-07,-5.763465726028511e-07,-1.0608260493205605e-06,-1.0863757254200233e-06,8.5598548459188e-10,-3.755772255625649e-07,8.169721738079668e-08,8.115307848120535e-08,-4.03127875597372e-07,-3.565121307959516e-07,5.246949058754699e-07
-3.875530784903557e-07,-1.1074237039456613e-06,-1.0261716792228753e-07,-3.98871181560277e-07,3.8981599134964466e-07,8.890627719221242e-07,-7.579797219994515e-07,3.1591106861269825e-07,-6.615174528508277e-07,-1.0221891283532215e-06,-1.0637874675275997e-06,4.8397820913346114e-08,-3.0151152511815726e-07,1.7809538117357443e-07,9.457018183389277e-08,-4.777361245033329e-07,-3.5578049822961754e-07,5.136080286117346e-07
-3.51128816777479e-07,-1.042352187005417e-06,-4.693663605755424e-08,-4.3139489034143824e-07,3.3191998154847057e-07,9.083276756135197e-07,-7.52624738809232e-07,2.089382769046356e-07,-7.434863518493369e-07,-9.721844623356757e-07,-1.0349361055030313e-06,6.856549000772164e-08,-2.560487824923786e-07,2.5869535294694004e-07,8.475246051293159e-08,-5.857660918321007e-07,-3.51133173617077e-07,4.863041594410198e-07
-3.162575089260682e-07,-1.0130649106048928e-06,-2.3830590745355792e-08,-4.620485236172647e-07,1.8376692924079404e-07,9.162714396693748e-07,-7.481251771219449e-07,1.1602537134178727e-07,-8.236638638336449e-07,-9.423835247280752e-07,-1.010756283222998e-06,7.865804716999634e-08,-2.4462979463224475e-07,2.843657257721472e-07,4.3606363469124956e-08,-7.142043791348559e-07,-3.6996938025591083e-07,4.861489820499928e-07
-2.947302885607393e-07,-1.0240418460647995e-06,-7.006326760078652e-08,-5.014856264720313e-07,-9.199015179846893e-08,9.034187717253638e-07,-7.559590562633457e-07,3.1261397457200395e-08,-9.025478496063446e-07,-9.59605498403256e-07,-1.0206402802540362e-06,6.918101076822656e-08,-2.9582291920137834e-07,2.4358961056519463e-07,-2.9136000185912618e-08,-8.595976603694554e-07,-4.1695277927050686e-07,4.874198915183536e-07
-2.9742271638395424e-07,-1.080350259486076e-06,-1.446770623378855e-07,-5.597745264825994e-07,-5.239323398164792e-07,8.845013816674183e-07,-7.878477935288091e-07,-4.4751598442328705e-08,-9.845980785514812e-07,-1.0453544526637987e-06,-1.092018603096282e-06,2.6326731223292627e-08,-4.113555864196716e-07,1.8565336990266863e-07,-1.2543576302078632e-07,-9.914026151236255e-07,-5.150029449993804e-07,5.301477412890259e-07
-3.3016464715679216e-07,-1.2132094475218409e-06,-1.7086490926104957e-07,-6.414296141776448e-07,-7.873858478679591e-07,9.013095961201576e-07,-8.5273565599666e-07,-1.0610022942569982e-07,-1.0745271069941307e-06,-1.1240287660475703e-06,-1.1890699283987369e-06,-9.244959874934978e-09,-4.363178620947895e-07,1.4274273948537227e-07,-2.3532854530133218e-07,-1.135401276452731e-06,-6.404447868794458e-07,5.992118592209405e-07
-3.920849025347229e-07,-1.2416184598743712e-06,-1.9120992939415554e-07,-7.439966728857707e-07,-9.034858841239018e-07,8.903178406263994e-07,-9.539440533157626e-07,-1.476425536099056e-07,-1.1769644450979265e-06,-1.1747741098953369e-06,-1.2661240933182295e-06,-8.643179535952591e-08,-4.6477531096557583e-07,1.2593783129483946e-07,-3.4843275876641474e-07,-1.212066784259943e-06,-7.181929244816019e-07,5.855484478429458e-07
-4.765566929326313e-07,-1.2639831044701185e-06,-2.5084596625524743e-07,-8.58684921762326e-07,-9.472133967962421e-07,8.332287193151107e-07,-1.089508948784077e-06,-1.719469652295992e-07,-1.284797525020263e-06,-1.2514525082065633e-06,-1.3233943420639253e-06,-1.9501920824637684e-07,-5.415665476353106e-07,9.029448619702405e-08,-4.5442392076315434e-07,-1.1751885294873658e-06,-7.916504095213596e-07,5.271189134649168e-07
-5.73418496154187e-07,-1.3875786609253405e-06,-3.6153166209124877e-07,-9.72101343972066e-07,-1.03704751931545e-06,7.592747551179509e-07,-1.2454551819274351e-06,-1.8533596505118066e-07,-1.3893501566766385e-06,-1.3649202846714025e-06,-1.4437926705790274e-06,-3.0651028081193504e-07,-6.695369060847389e-07,3.381974029977083e-08,-5.460545086473806e-07,-1.0109738128302924e-06,-9.322885990584772e-07,4.58683504062194e-07
-6.709307358667831e-07,-1.5314865257343994e-06,-4.6248106517262483e-07,-1.0704680664268976e-06,-1.155523488408291e-06,6.501107955470884e-07,-1.4052119373436812e-06,-1.923157558086485e-07,-1.4825829292174135e-06,-1.459391719810575e-06,-1.5722653417086122e-06,-4.3039487930399737e-07,-8.092383375293495e-07,-8.774333722361197e-08,-6.177440940656117e-07,-7.81649808043786e-07,-1.080059813408625e-06,3.821297219974041e-07
-7.57102730479892e-07,-1.6174418412489777e-06,-5.184885569087682e-07,-1.1455320188799137e-06,-1.0777252753794083e-06,5.589440177509296e-07,-1.5534754454194217e-06,-1.9524362832301837e-07,-1.530110379506631e-06,-1.4971991125595013e-06,-1.6187593522546943e-06,-4.979614597287842e-07,-9.138233176908409e-07,-2.0556284205327364e-07,-6.659622703142808e-07,-6.969847567749291e-07,-1.1726396492719121e-06,2.659816460489551e-07
-8.207368094696007e-07,-1.6362520666553196e-06,-5.295874225222393e-07,-1.1981040717394975e-06,-8.443071653784483e-07,4.995399675091116e-07,-1.6514009226918533e-06,-1.8778066844808937e-07,-1.5217155852407296e-06,-1.5185996517927562e-06,-1.6611341206312883e-06,-5.124239153218188e-07,-9.584306072230015e-07,-2.9843719151886495e-07,-6.904028776595737e-07,-8.716295714815514e-07,-1.2508742518162635e-06,1.201536855123453e-07
-8.533390724223465e-07,-1.637548672168471e-06,-5.408924850845727e-07,-1.236622907734621e-06,-6.562275117872821e-07,4.424788689224096e-07,-1.6893525886394847e-06,-1.6388467620704257e-07,-1.5213821039093288e-06,-1.5460855761848184e-06,-1.6733114078742152e-06,-5.220103326104368e-07,-1.0288551945882615e-06,-3.7863809050329757e-07,-6.95599658766788e-07,-7.804242142746584e-07,-1.3043321282826939e-06,-1.0709545761230573e-08
-8.521731342229071e-07,-1.6836918128879053e-06,-5.900984851660686e-07,-1.2719156152976587e-06,-6.265082208937241e-07,4.0752607536086685e-07,-1.768065116148114e-06,-1.2821888775855422e-07,-1.535906470754589e-06,-1.5795134068855598e-06,-1.7239536701160916e-06,-5.700704050205183e-07,-1.0500212346683633e-06,-4.0315932790506435e-07,-6.91622123974767e-07,-7.190299311961937e-07,-1.4005822941993135e-06,-1.328478840145914e-07
-8.22345767368338e-07,-1.7354012998007105e-06,-6.133845963921033e-07,-1.3109176835639712e-06,-6.040085897029118e-07,3.9316126427693153e-07,-1.762434235333862e-06,-9.838982995940466e-08,-1.5468136915280746e-06,-1.5730984204364812e-06,-1.773977014663335e-06,-5.33864313143418e-07,-1.0029895432391249e-06,-3.8975908921089886e-07,-6.91434273445415e-07,-8.308042597017882e-07,-1.4674364156657113e-06,-1.9596993043431115e-07
-7.753009912017636e-07,-1.7019824449636514e-06,-5.689598853644756e-07,-1.3517092857324466e-06,-5.790366755810616e-07,4.192239436193846e-07,-1.7126239368309037e-06,-1.0022057001904981e-07,-1.5442869097642942e-06,-1.5561981428163774e-06,-1.7522294561625165e-06,-4.7075085370576715e-07,-9.177003728458843e-07,-3.6404755103377824e-07,-7.053428704733749e-07,-1.0290471939473502e-06,-1.4652416035836398e-06,-1.5744234849675704e-07
-7.236151994461669e-07,-1.6215074629940173e-06,-5.081295092532286e-07,-1.381860848809432e-06,-5.440986356730856e-07,4.792386013810585e-07,-1.66287884150326e-06,-1.514109189575346e-07,-1.5028313079901874e-06,-1.487900173415364e-06,-1.7057934354505837e-06,-4.2891157906289993e-07,-8.596053262950741e-07,-3.3543342399007877e-07,-7.363505888098215e-07,-1.119214399566679e-06,-1.4456936291496572e-06,-1.3381644448038614e-07
-6.758018664357721e-07,-1.5211225701891226e-06,-4.4756117115025145e-07,-1.3816860390696747e-06,-5.63169727587307e-07,5.510397186350788e-07,-1.6283064675627145e-06,-2.47634712878556e-07,-1.4537843714748108e-06,-1.4241093968985578e-06,-1.6589582347927123e-06,-3.834349160329563e-07,-8.248658832782174e-07,-3.226993598854238e-07,-7.795662834966735e-07,-1.1172668220255885e-06,-1.426361937077718e-06,-1.0175607518728324e-07
-6.346171156319259e-07,-1.417092294293806e-06,-3.805996402414447e-07,-1.3324448306520048e-06,-6.572362205718657e-07,6.192070579339305e-07,-1.6089233401492814e-06,-3.6117368870846474e-07,-1.4084520886177022e-06,-1.374599104445738e-06,-1.6081294945154593e-06,-3.5702633633066034e-07,-8.065684340006032e-07,-3.275503562090975e-07,-8.262286968677005e-07,-1.046979569158609e-06,-1.4022876230453927e-06,4.213490107992648e-08
-5.997312168094235e-07,-1.3088436582071032e-06,-3.351250509060726e-07,-1.2269755814885412e-06,-8.498031961751797e-07,6.655121278805738e-07,-1.610113148646679e-06,-4.5961004716680465e-07,-1.3655941966252999e-06,-1.318527256181558e-06,-1.5838085128240254e-06,-3.493570141050875e-07,-8.076206129256321e-07,-3.464772180878316e-07,-8.685573235004615e-07,-9.371860815491278e-07,-1.4008385612676808e-06,1.950596803736237e-07
-5.719807606713021e-07,-1.2394452395947694e-06,-2.9986653326385174e-07,-1.0774551341447373e-06,-1.0846184215949568e-06,6.913252133861007e-07,-1.6286164653875284e-06,-5.152087812101646e-07,-1.3486801294255393e-06,-1.2963616894532467e-06,-1.5730125115628955e-06,-3.4924914100495905e-07,-8.247698479804977e-07,-3.766251911597901e-07,-9.030299872823488e-07,-8.337218247712865e-07,-1.4104662816612368e-06,2.3503924045554175e-07
-5.553616046915001e-07,-1.2081281702992341e-06,-2.737735294746157e-07,-9.144195109879497e-07,-1.222762697116998e-06,6.997004874841746e-07,-1.655660912079817e-06,-5.099885061530872e-07,-1.3444277854464479e-06,-1.2947423038913852e-06,-1.5711522695504484e-06,-3.599673247431582e-07,-8.524871203241025e-07,-4.1405446825620495e-07,-9.315635085949431e-07,-7.901315709212432e-07,-1.4252238454052918e-06,2.4776484033438237e-07
-5.550877239591388e-07,-1.2011261518345173e-06,-2.584164568876598e-07,-7.760389646094319e-07,-1.115417203913206e-06,6.97378500165944e-07,-1.678771570517266e-06,-4.4358048487937226e-07,-1.3425294625800873e-06,-1.3003794764118477e-06,-1.5750321677441185e-06,-3.6890988718691873e-07,-8.834114826716658e-07,-4.555087473606632e-07,-9.595471786867283e-07,-8.034952905391601e-07,-1.4394127125753565e-06,2.1344985110954935e-07
-5.734581370621883e-07,-1.2129089560594572e-06,-2.440801966824208e-07,-6.934749786380829e-07,-1.0533406780857622e-06,6.882713982608638e-07,-1.6844518311590575e-06,-3.322480889043357e-07,-1.3180275276008228e-06,-1.313903004160084e-06,-1.5697069231137398e-06,-3.703134399240629e-07,-9.096058890027628e-07,-4.98413559623409e-07,-9.923776317312673e-07,-8.470948380816728e-07,-1.4369757392597862e-06,1.3531002152663578e-07
-6.073890399094907e-07,-1.2249660211694127e-06,-2.3300272020554255e-07,-6.797496494694926e-07,-1.025299660360049e-06,6.778756227147274e-07,-1.6617359588012088e-06,-2.1344620087577005e-07,-1.2850105311638271e-06,-1.3210890673990046e-06,-1.5543238108284171e-06,-3.618512843000537e-07,-9.249019295455901e-07,-5.405731245697281e-07,-1.0321443911679762e-06,-8.974303233773592e-07,-1.4158005968873052e-06,7.8186144681657e-09
-6.49584528807661e-07,-1.2318282815541774e-06,-2.2700809248248424e-07,-7.265332632730926e-07,-1.028181481446656e-06,6.671994781188317e-07,-1.6059583733833079e-06,-1.3716867011856105e-07,-1.2401656615001326e-06,-1.3196747789720165e-06,-1.528292062021405e-06,-3.42672544070284e-07,-9.271436543807457e-07,-5.802045609172946e-07,-1.0775961133435655e-06,-9.57574329677406e-07,-1.3777417639253352e-06,-1.1566443405420848e-07
-6.923438292233829e-07,-1.2306523422040844e-06,-2.266756665249185e-07,-8.094822228945217e-07,-9.116725790299049e-07,6.514771985641423e-07,-1.521316081718294e-06,-1.4618281323583276e-07,-1.1835950785815573e-06,-1.311049726107831e-06,-1.4924508231696502e-06,-3.174488285438825e-07,-9.186888598847376e-07,-6.160981531065644e-07,-1.125994597658861e-06,-1.0373098846061155e-06,-1.3269541945453387e-06,-2.3969724766898014e-07
-7.304929955684501e-07,-1.2197807015560758e-06,-2.3413940199639567e-07,-8.985587096027751e-07,-6.910059413317058e-07,6.284605691139632e-07,-1.4204929006594408e-06,-2.505823461379354e-07,-1.111690031955724e-06,-1.2956006904499906e-06,-1.4504318409308062e-06,-2.928479595411646e-07,-9.042836615227561e-07,-6.472904059807923e-07,-1.1731295919829444e-06,-1.1296571214250644e-06,-1.2703353238354428e-06,-3.768694146699035e-07
-7.613506656926906e-07,-1.2012664231302945e-06,-2.495058973575443e-07,-9.676335111753457e-07,-5.389937391778044e-07,5.986520575226893e-07,-1.3205294726028057e-06,-4.2050203972542064e-07,-1.0379827514059772e-06,-1.2739670935330814e-06,-1.4066130844294777e-06,-2.734742794100961e-07,-8.873048029679346e-07,-6.719395505251099e-07,-1.2111418939173754e-06,-1.208548871745154e-06,-1.2136096162962306e-06,-5.19396705272412e-07
-7.827930452727746e-07,-1.1762896955795739e-06,-2.680759369180316e-07,-9.99661079906118e-07,-5.56541237378383e-07,5.675798927898004e-07,-1.2363160043461984e-06,-5.982847385288738e-07,-9.770567873409506e-07,-1.2442664285774087e-06,-1.3635853797455342e-06,-2.586389755123832e-07,-8.670963454622802e-07,-6.861541735581797e-07,-1.227706481365465e-06,-1.2235919097332224e-06,-1.1582346057216499e-06,-6.519715947435245e-07
-7.921429155581795e-07,-1.143553118197423e-06,-2.807649052908447e-07,-9.87038489976374e-07,-5.876867305280393e-07,5.435329631976312e-07,-1.1753528497145644e-06,-7.22279643836854e-07,-9.29361458901607e-07,-1.202827498808439e-06,-1.3203773461934262e-06,-2.4289878850059836e-07,-8.396053411930915e-07,-6.845164720522745e-07,-1.2096492743935165e-06,-1.1223864410211723e-06,-1.1023285779275504e-06,-7.538019406939297e-07
-7.875732562135588e-07,-1.1009303521528612e-06,-2.7666696076776166e-07,-9.296417597860516e-07,-3.886653234038703e-07,5.33295556667521e-07,-1.1365906641827246e-06,-7.517317566697396e-07,-9.032590798816444e-07,-1.1481389106833794e-06,-1.274935730279081e-06,-2.2052257077720829e-07,-8.009475564916983e-07,-6.631008876359174e-07,-1.1496520101384435e-06,-8.835732747614482e-07,-1.0443636032759209e-06,-8.085451696929455e-07
-7.708149995094365e-07,-1.0488548845426047e-06,-2.5137787831969554e-07,-8.33639156283429e-07,-3.126985445271158e-07,5.39894014614478e-07,-1.1133108480688095e-06,-6.851031049252326e-07,-8.888116151639506e-07,-1.0841778865991295e-06,-1.2267844194704844e-06,-1.8995724502321257e-07,-7.511560948578862e-07,-6.230245522322283e-07,-1.0514217865484522e-06,-5.418130752220193e-07,-9.85919970476197e-07,-8.100477527308165e-07
-7.48278965912897e-07,-9.899638498454336e-07,-2.079530737192264e-07,-7.108544319059778e-07,-3.311165277933179e-07,5.619917903613641e-07,-1.097220449971088e-06,-5.55168619892873e-07,-8.83349120491631e-07,-1.020112285257321e-06,-1.178253614295244e-06,-1.547444996065978e-07,-6.948977131417828e-07,-5.711372082096983e-07,-9.288003276059938e-07,-1.813981390311679e-07,-9.313944208881864e-07,-7.651103088347437e-07
-7.287000210074939e-07,-9.365485266401934e-07,-1.5559943923406715e-07,-5.763910690270085e-07,-4.22266838981703e-07,5.945878172065278e-07,-1.0809502966812313e-06,-4.1947236281909047e-07,-8.869939281554085e-07,-9.658314021060112e-07,-1.1322699057964508e-06,-1.201450244368827e-07,-6.388453176575901e-07,-5.167045127243229e-07,-7.993776075724777e-07,1.0461773219368925e-07,-8.846287681815577e-07,-6.858408605388691e-07
-7.183366799883699e-07,-8.963991388001307e-07,-1.018733083959368e-07,-4.447142511622213e-07,-5.586298596433049e-07,6.308430089414437e-07,-1.0588439495834236e-06,-3.100379517012063e-07,-8.86489906506201e-07,-9.267314334734225e-07,-1.0898390027093953e-06,-8.883857070502e-08,-5.882710907688501e-07,-4.666768761323497e-07,-6.783473096054645e-07,2.559260378850535e-07,-8.456007298010329e-07,-5.863213650436987e-07
-7.173002224528173e-07,-8.701899399020619e-07,-4.986553580427357e-08,-3.259654716111849e-07,-6.718161720825709e-07,6.647831099057027e-07,-1.0271649806958466e-06,-2.3842130528612943e-07,-8.784794153737636e-07,-9.01101976224495e-07,-1.0482741305842026e-06,-5.977020682318466e-08,-5.456993576314652e-07,-4.231111068948428e-07,-5.770207280407813e-07,2.5972677644763395e-07,-8.102547323398669e-07,-4.779776836485297e-07
-7.200905098858574e-07,-8.530081715724795e-07,1.3504667073344421e-10,-2.236753134653684e-07,-7.348555061841567e-07,6.932661507473338e-07,-9.847510976586484e-07,-2.014134697541968e-07,-8.575293882365632e-07,-8.821018602722855e-07,-1.002484959178984e-06,-2.9331960313686173e-08,-5.118841826909013e-07,-3.8399195527353016e-07,-5.04473635377484e-07,1.421676073487321e-07,-7.730413643535636e-07,-3.707538719914905e-07
-7.201796322470697e-07,-8.349724740868309e-07,4.992775042985108e-08,-1.356969076277361e-07,-6.551740473893508e-07,7.156665603778335e-07,-9.342183560131317e-07,-1.705302004541695e-07,-8.187908396280373e-07,-8.627243877764155e-07,-9.49310311955369e-07,4.412300540116756e-09,-4.874106358323636e-07,-3.461805659928044e-07,-4.6809071608044844e-07,-5.003584279611239e-08,-7.301749655947589e-07,-2.7459161750656585e-07
-7.154282961209675e-07,-8.109741550822e-07,8.343504363683646e-08,-5.935612126495321e-08,-4.48744891428752e-07,7.319969167582641e-07,-8.826988843443725e-07,-1.747191099911218e-07,-7.651334888198976e-07,-8.402288328560901e-07,-8.90401376736356e-07,3.8817411115798925e-08,-4.7375071192150213e-07,-3.083354122983396e-07,-4.7214817254164987e-07,-2.6932268378159443e-07,-6.813557987882934e-07,-1.9851296380676944e-07
-7.105515838973311e-07,-7.849699251131945e-07,9.447450748131082e-08,2.148318337518637e-09,-1.8470928249326954e-07,7.41298763221459e-07,-8.404522432603227e-07,-2.1687613258372113e-07,-7.027030279062453e-07,-8.175469590619635e-07,-8.329272644640204e-07,6.703778922222457e-08,-4.73051908040986e-07,-2.722751739491826e-07,-5.158297476301849e-07,-4.779033355695035e-07,-6.304147789100486e-07,-1.4883502992181698e-07
-7.154293244237054e-07,-7.925509346785027e-07,8.2687834804868e-08,3.7015050076015e-08,8.430394565625402e-08,7.410748031288332e-07,-8.173970497600016e-07,-2.6404320837901317e-07,-6.418645988407876e-07,-8.013523831312325e-07,-7.875667740613702e-07,8.04061708180799e-08,-4.871046596886523e-07,-2.4267132251925324e-07,-5.915570734029471e-07,-6.440102395179679e-07,-5.84544469306986e-07,-1.2800925546049117e-07
-7.412287784068071e-07,-8.18383581175838e-07,4.7365317087004246e-08,2.8198040747031217e-08,2.9052399312489386e-07,7.275384685756285e-07,-8.197823691722591e-07,-2.9419876882313625e-07,-5.94461100744606e-07,-7.989653040293465e-07,-7.643088419052086e-07,7.152622175156988e-08,-5.16354781582911e-07,-2.2570971491033616e-07,-6.845098170924762e-07,-7.358840377748399e-07,-5.527711805782246e-07,-1.344827742255494e-07
-7.970935822629572e-07,-8.741475006596667e-07,-1.5545889256300649e-09,-3.9115507324669425e-08,4.15341320012424e-07,6.963446934722098e-07,-8.491163867823201e-07,-2.646519663191816e-07,-5.827737069055142e-07,-8.164155896151608e-07,-7.701969524909767e-07,3.63846794923106e-08,-5.596889265489637e-07,-2.2711067590053064e-07,-7.742142475345229e-07,-7.295960557940686e-07,-5.436253618942649e-07,-1.6346737738697895e-07
-8.880283009915605e-07,-9.728569551600732e-07,-5.529618771280354e-08,-1.7027182476250737e-07,4.3397585221085886e-07,6.438082503448499e-07,-9.033355897569503e-07,-2.0624564405349168e-07,-6.051122867467069e-07,-8.570234097618649e-07,-8.072169841787211e-07,-2.444207549313553e-08,-6.149022014836815e-07,-2.5003746499460916e-07,-8.393986144921766e-07,-6.260660069383359e-07,-5.618539048382852e-07,-2.1020268657420482e-07
-1.0158484297739654e-06,-1.0637553649924759e-06,-1.1221626743793154e-07,-3.57028379113063e-07,3.2803982226745384e-07,5.690246383817982e-07,-9.783309323279652e-07,-2.167847579827853e-07,-6.57160178411605e-07,-9.19824349713474e-07,-8.713311583513456e-07,-1.0559464180010561e-07,-6.789474641068053e-07,-2.9380184989028857e-07,-8.650701530300786e-07,-4.5607169656726383e-07,-6.064346852033916e-07,-2.6921344196769004e-07
-1.1690581090836364e-06,-1.1966092580032876e-06,-1.9991427003251812e-07,-5.771968490073398e-07,1.0567762476154248e-07,4.765525841003975e-07,-1.0682378393085702e-06,-3.1970295512377397e-07,-7.340472527843742e-07,-9.98224426486802e-07,-9.527692612999175e-07,-1.970532858464407e-07,-7.479908175782833e-07,-3.537051502538366e-07,-8.480175343229544e-07,-2.651191773214927e-07,-6.692817506039702e-07,-3.374163432881483e-07
-1.332604249223689e-06,-1.351517907574929e-06,-3.233773873690912e-07,-7.984379613209673e-07,-2.010322108972678e-07,3.774352875299227e-07,-1.165516428785111e-06,-5.273539614206483e-07,-8.208875844969695e-07,-1.0804447844547401e-06,-1.0374997548633296e-06,-2.8546719521759087e-07,-8.172815269523815e-07,-4.2168956039319344e-07,-7.970191860619951e-07,-9.286471844793428e-08,-7.366161387819907e-07,-4.090029819695553e-07
-1.4904223444533773e-06,-1.4897462939726026e-06,-4.5780232924267035e-07,-9.86072765044841e-07,-5.283588437145259e-07,2.8655650258465815e-07,-1.2609579445340693e-06,-7.94028651468041e-07,-9.053364595858111e-07,-1.15178262706639e-06,-1.1104290195755651e-06,-3.571479066906903e-07,-8.812320409738314e-07,-4.875362685458397e-07,-7.275818927101995e-07,3.8216774223115815e-08,-7.919002601582896e-07,-4.741506740753332e-07
-1.59660429046986e-06,-1.5826429941326341e-06,-5.43065201912362e-07,-1.1127571339641624e-06,-7.975690683586302e-07,2.1776636773625663e-07,-1.3449755490523165e-06,-9.504685352563696e-07,-9.745501661984228e-07,-1.1983851336378484e-06,-1.1589799976447352e-06,-4.0180131496108335e-07,-9.336718663992834e-07,-5.410995594424619e-07,-6.554395489797406e-07,1.229708025289103e-07,-8.208521545086893e-07,-5.223263127304609e-07
-1.648846353147698e-06,-1.6213931871230826e-06,-5.853154695166456e-07,-1.1665870699322019e-06,-9.450115324592948e-07,1.8008488385693758e-07,-1.4100719494274336e-06,-1.086149576425512e-06,-1.0182036288086963e-06,-1.213174518924612e-06,-1.177141038412545e-06,-4.1596928655245743e-07,-9.697447832471817e-07,-5.751298863103665e-07,-5.927973275773244e-07,1.653357159237694e-07,-8.168662523522327e-07,-5.451957288825853e-07
-1.7511251747659699e-06,-1.679940465698634e-06,-6.13196230874302e-07,-1.155118112390362e-06,-9.48483153104442e-07,1.7579288970773352e-07,-1.4531097622929842e-06,-1.2156817553194272e-06,-1.0339775697238481e-06,-1.198592093606472e-06,-1.1674787749336932e-06,-4.042912259457802e-07,-9.877210566553714e-07,-5.874634448882254e-07,-5.477158944790612e-07,1.6919908883979847e-07,-7.829685328435912e-07,-5.413128053989239e-07
-1.7742728431922334e-06,-1.7216341352784392e-06,-5.941336004822813e-07,-1.103996772874208e-06,-8.308554014234378e-07,1.993213473398675e-07,-1.476202500866527e-06,-1.2023997252195466e-06,-1.0287038602417144e-06,-1.1651201094051368e-06,-1.1400170464910973e-06,-3.776128295580623e-07,-9.899459105857372e-07,-5.807870894659063e-07,-5.244565751426002e-07,1.3661249042652644e-07,-7.298858963893913e-07,-5.213818562122305e-07
-1.7502820461069056e-06,-1.697509904748807e-06,-5.498552334915191e-07,-1.0489667167756522e-06,-6.397464764724215e-07,2.3784186811068044e-07,-1.4849635520713372e-06,-1.091895062314227e-06,-1.0117330515918413e-06,-1.126138019603564e-06,-1.1079254493684597e-06,-3.478326146596388e-07,-9.812886434529899e-07,-5.604121498205093e-07,-5.233274134022938e-07,7.265959984283293e-08,-6.700239660103782e-07,-5.047084138910569e-07
-1.7328241892876614e-06,-1.6547113297439134e-06,-5.197815350794174e-07,-1.0222313077676394e-06,-4.239727043331462e-07,2.7527370172164013e-07,-1.4850975979100988e-06,-9.369506980382993e-07,-9.924556603204054e-07,-1.0915512205985867e-06,-1.081593172322662e-06,-3.2292690873991536e-07,-9.662793322753771e-07,-5.316752928159534e-07,-5.39806658482666e-07,-1.018539777387444e-08,-6.119759571173469e-07,-5.0745026299497e-07
-1.7304568511651103e-06,-1.6513863454316758e-06,-5.166142524735647e-07,-1.0394825421206888e-06,-2.2333045544282749e-07,2.9819072318319896e-07,-1.4797651829150204e-06,-7.815654273839591e-07,-9.773663420254451e-07,-1.0648372941874381e-06,-1.0653906573980181e-06,-3.0527887638964685e-07,-9.481550226022145e-07,-4.98522110936461e-07,-5.64503773539821e-07,-9.145458496477386e-08,-5.587927995753003e-07,-5.352141031033889e-07
-1.7318501491823598e-06,-1.670775485366119e-06,-5.280402474507253e-07,-1.0952678005005723e-06,-7.112433052842076e-08,3.0012658434394887e-07,-1.4698017276858793e-06,-6.45705890211704e-07,-9.681339228218326e-07,-1.044182278830359e-06,-1.0579340141221574e-06,-2.9351393796187767e-07,-9.295211724083917e-07,-4.638369145591218e-07,-5.859813183514718e-07,-1.4716471324006385e-07,-5.099865296723904e-07,-5.812694513746737e-07
-1.7372381140862913e-06,-1.6986743898530626e-06,-5.411970454740928e-07,-1.1686374559576452e-06,1.0074269122836147e-09,2.8265187052101845e-07,-1.4560415457503805e-06,-5.500887845230781e-07,-9.63901660350572e-07,-1.0265605997102786e-06,-1.0552698894526352e-06,-2.857674669716065e-07,-9.132622778151765e-07,-4.3040280979978726e-07,-5.958655155729415e-07,-1.579371791305114e-07,-4.651303040674396e-07,-6.301145201545674e-07
-1.7444831616065495e-06,-1.7314480100379195e-06,-5.553309251630547e-07,-1.2345335684441451e-06,-3.4576203821663013e-08,2.5369148944278546e-07,-1.4414027704944402e-06,-5.146600963249983e-07,-9.626193150532942e-07,-1.01035176940598e-06,-1.0535594640108754e-06,-2.812244467425014e-07,-9.013556434511208e-07,-4.010182022163412e-07,-5.921328252962949e-07,-1.1787790065234454e-07,-4.250476544677273e-07,-6.647568954485375e-07
-1.7531852577813042e-06,-1.762936747729661e-06,-5.688467165016919e-07,-1.2739990188581831e-06,-1.889031141313032e-07,2.2415965792229721e-07,-1.430614407467794e-06,-5.52568728837405e-07,-9.586010640023523e-07,-9.955100810477696e-07,-1.0507724358432372e-06,-2.795815015741463e-07,-8.935245633710422e-07,-3.7756525469946753e-07,-5.771073650628406e-07,-4.234134394722148e-08,-3.907426621202437e-07,-6.730203045581648e-07
-1.7629030513020518e-06,-1.78800776413292e-06,-5.803793569598341e-07,-1.2784892485971793e-06,-4.40893095236234e-07,2.0412975336174074e-07,-1.4273944578362303e-06,-6.696329392202735e-07,-9.499073437653424e-07,-9.814299491275688e-07,-1.0454659604225536e-06,-2.791692240574272e-07,-8.87183162661066e-07,-3.593941662414836e-07,-5.521985252550356e-07,2.964978158540152e-08,-3.6140121495074674e-07,-6.497565220961876e-07
-1.7710998535448292e-06,-1.8027784015161137e-06,-5.90366150150318e-07,-1.2487441079642346e-06,-7.337729621303002e-07,1.9966563201340562e-07,-1.4316461559489702e-06,-8.51225739467738e-07,-9.356081276907673e-07,-9.653822569085073e-07,-1.0353048266141455e-06,-2.7665497121769844e-07,-8.788134520395705e-07,-3.431598402529856e-07,-5.150147838124042e-07,4.384466687658835e-08,-3.3407677145644236e-07,-5.963594288556994e-07
-1.7736545119925084e-06,-1.8047901396781841e-06,-5.952559356940422e-07,-1.1919624306519224e-06,-9.920569110661523e-07,2.111389574081889e-07,-1.4394205838845853e-06,-1.0660901492559983e-06,-9.145218485086299e-07,-9.43825978089861e-07,-1.0179073217238979e-06,-2.689419139232967e-07,-8.662550790961947e-07,-3.2486307072663444e-07,-4.6199412471411013e-07,-4.934106206573286e-08,-3.0572345681478805e-07,-5.181553796457963e-07
-1.767999576855726e-06,-1.7930017224037062e-06,-5.937966321767801e-07,-1.1197435773341643e-06,-1.1525159492481986e-06,2.3356760506091966e-07,-1.445851819626429e-06,-1.2355027993453798e-06,-8.887084814101122e-07,-9.152343305254009e-07,-9.924973695499305e-07,-2.5560799826992763e-07,-8.501512549310433e-07,-3.027739981459378e-07,-3.9338987540864144e-07,-2.708387385090926e-07,-2.754977753928266e-07,-4.2606717848021594e-07
-1.756019565937064e-06,-1.7682415586828662e-06,-5.893480599897916e-07,-1.046655972687124e-06,-1.191433053675608e-06,2.5900911143410205e-07,-1.4481102309113115e-06,-1.2811844888702274e-06,-8.622987651372717e-07,-8.823342968572737e-07,-9.612795882754444e-07,-2.398777052443644e-07,-8.340969833884278e-07,-2.793118934503585e-07,-3.1526706499631926e-07,-5.945497441096154e-07,-2.455885735560808e-07,-3.379007722839849e-07
-1.7437040986049727e-06,-1.7334466767404098e-06,-5.876016263464113e-07,-9.879064099620369e-07,-1.1311899280571592e-06,2.8022820526211426e-07,-1.4463962174526285e-06,-1.1955229873991358e-06,-8.408309859660147e-07,-8.510571144855344e-07,-9.288872202558397e-07,-2.2677309428399528e-07,-8.228691128506315e-07,-2.5954727409176493e-07,-2.3694415941172525e-07,-9.462209381302322e-07,-2.1913048751623434e-07,-2.746340935818432e-07
-1.7371322196744366e-06,-1.6926542333825258e-06,-5.92812656559714e-07,-9.543950729635203e-07,-1.021869974071509e-06,2.9416807941671306e-07,-1.4428180274729678e-06,-1.1567501770079813e-06,-8.28722094500876e-07,-8.265183098937397e-07,-8.997202218773282e-07,-2.1967928827513343e-07,-8.193201135794796e-07,-2.477737458345287e-07,-1.6632971129427454e-07,-1.225905929595939e-06,-1.976481514092597e-07,-2.5359201721446487e-07
-1.7378453371671437e-06,-1.6487811308635553e-06,-6.043300899013044e-07,-9.464206494556817e-07,-9.111537348172766e-07,3.032598035465133e-07,-1.4379666359074288e-06,-1.1003164870526734e-06,-8.268835253247146e-07,-8.095101830842154e-07,-8.747460519717193e-07,-2.1800682362163295e-07,-8.219734128299e-07,-2.4430522610956915e-07,-1.0670528972640894e-07,-1.3470718679205748e-06,-1.7794161597969488e-07,-2.753168147482497e-07
-1.7412912882558627e-06,-1.6016025861871103e-06,-6.164733750742437e-07,-9.517995896882507e-07,-8.243628234571235e-07,3.1318292397304473e-07,-1.4301369612024002e-06,-9.657251760397409e-07,-8.306119487018066e-07,-7.965076210277994e-07,-8.513749389655924e-07,-2.1760391827559878e-07,-8.248780975721308e-07,-2.451231920092879e-07,-5.696574810501906e-08,-1.2756607878787146e-06,-1.5454024232275802e-07,-3.2225568814797237e-07
-1.7395286647135804e-06,-1.5478845780639766e-06,-6.219125096165457e-07,-9.520014749797772e-07,-7.6520271359734e-07,3.2836202295799663e-07,-1.4160774476929097e-06,-7.231274684363435e-07,-8.334540810765067e-07,-7.823416364201523e-07,-8.261692324928682e-07,-2.1358545042807609e-07,-8.204744616650703e-07,-2.446068152829435e-07,-1.526166143861106e-08,-1.047461214474357e-06,-1.23841829493811e-07,-3.669199544288209e-07
-1.7262632224252394e-06,-1.4843244934475537e-06,-6.161700010800343e-07,-9.316811788501784e-07,-7.273438393902468e-07,3.485927952962646e-07,-1.3933485365377852e-06,-5.112550552282951e-07,-8.30929703865359e-07,-7.641254907294946e-07,-7.97178111091775e-07,-2.035574725311968e-07,-8.039309726531852e-07,-2.3923306531356064e-07,1.6099674933922673e-08,-7.488798612249521e-07,-8.656988151328535e-08,-3.8486202995791657e-07
-1.7005919558703937e-06,-1.4117814124668861e-06,-6.001568159038332e-07,-8.844786019211415e-07,-7.01587090562842e-07,3.690265955944357e-07,-1.363151621930454e-06,-3.226607139501395e-07,-8.222993120977026e-07,-7.427562336844503e-07,-7.655529055121829e-07,-1.8857166065349972e-07,-7.758585537301194e-07,-2.296817805028385e-07,3.106854362628812e-08,-4.696290064557039e-07,-4.8303014546312736e-08,-3.6599622635854083e-07
-1.6667114846528013e-06,-1.337117475537743e-06,-5.789578386849454e-07,-8.136500148885315e-07,-6.758295480709077e-07,3.831295707600972e-07,-1.3303956555918842e-06,-1.7776612251144304e-07,-8.104771591731801e-07,-7.211089814255996e-07,-7.340412829731021e-07,-1.718680040599652e-07,-7.415016177772592e-07,-2.1956956856380739e-07,2.438127390478696e-08,-2.5943764315684755e-07,-1.6264727054087536e-08,-3.163341448834906e-07
-1.6301410550858707e-06,-1.2699729618945085e-06,-5.579244936086674e-07,-7.298256413983403e-07,-6.345633066380767e-07,3.8662179660909865e-07,-1.3009519152795536e-06,-1.4932025839678332e-07,-7.988280950736025e-07,-7.010682190347224e-07,-7.037414004169884e-07,-1.5633513366605209e-07,-7.06829507556065e-07,-2.1214136069910833e-07,-3.4675991022149494e-09,-1.1822666197314983e-07,4.663446572190406e-09,-2.5255255499730635e-07
-1.5939287487282876e-06,-1.216848751882708e-06,-5.393603694601221e-07,-6.46362368475188e-07,-5.624499478368568e-07,3.8002084806993527e-07,-1.278271965513445e-06,-2.0481305386952999e-07,-7.886935847497383e-07,-6.820952129153243e-07,-6.730474429949734e-07,-1.4148094050994884e-07,-6.752508655576205e-07,-2.0771929345261056e-07,-4.2980351703800716e-08,-2.0415726894985548e-08,1.4261481165871639e-08,-1.9292608728596368e-07
-1.558049471904571e-06,-1.1777456125791275e-06,-5.223894874557852e-07,-5.730098955521367e-07,-4.528981424543535e-07,3.680614611133658e-07,-1.2619865899138978e-06,-3.1331217379807363e-07,-7.792119819775427e-07,-6.624022702494498e-07,-6.387449695707748e-07,-1.2788399047660458e-07,-6.476345904252922e-07,-2.0396986938276084e-07,-7.983567257757358e-08,5.322377759277471e-08,1.593083976638801e-08,-1.512640112061235e-07
-1.5219012332621073e-06,-1.147870304169468e-06,-5.056435043028496e-07,-5.12489252383298e-07,-3.1906482310174536e-07,3.5650680050904615e-07,-1.2493940969790236e-06,-4.410409600754716e-07,-7.693772518614106e-07,-6.413999869174269e-07,-5.991143118328803e-07,-1.1762465452499925e-07,-6.243741006452388e-07,-1.987953026590321e-07,-1.0196261537785007e-07,1.0271745880055699e-07,1.397697405150289e-08,-1.33975450056497e-07
-1.4869263584778522e-06,-1.1218569741617805e-06,-4.899067725811279e-07,-4.63341794864569e-07,-1.9777129395351498e-07,3.501851486978518e-07,-1.2381181727363038e-06,-5.44630578104898e-07,-7.59015777694823e-07,-6.210797019493666e-07,-5.563105509761244e-07,-1.130410277771376e-07,-6.065310580771621e-07,-1.928431042278621e-07,-1.0451020089001697e-07,1.1847561411030265e-07,1.1532367540623485e-08,-1.418561328246063e-07
-1.456385786136883e-06,-1.0962950324239332e-06,-4.779147890768088e-07,-4.254090974795416e-07,-1.3707591717856812e-07,3.495895135374761e-07,-1.2276547741757506e-06,-6.095790993628382e-07,-7.493116562742608e-07,-6.044722899709438e-07,-5.158857072088206e-07,-1.1638671737365014e-07,-5.941558655498314e-07,-1.8929466847778383e-07,-9.155216447503509e-08,9.906369658306402e-08,1.0527753515290274e-08,-1.7269946720411882e-07
-1.4321068212291242e-06,-1.0692228319830292e-06,-4.71326871833447e-07,-4.01744804361913e-07,-1.7114610267136323e-07,3.5140285202406045e-07,-1.2189550300789043e-06,-6.251695827013621e-07,-7.411086165547222e-07,-5.924321047040169e-07,-4.839163326651958e-07,-1.266799403148747e-07,-5.837418024468534e-07,-1.9083274478356993e-07,-7.133970823812733e-08,6.115208535803864e-08,1.4454585462158695e-08,-2.233818273269311e-07
-1.411193883910234e-06,-1.038396498204355e-06,-4.678960344660107e-07,-3.9537398932146075e-07,-2.984436362293876e-07,3.548252472942481e-07,-1.2131948455325588e-06,-5.875539576959981e-07,-7.328828020199891e-07,-5.817950863899701e-07,-4.6405424723285987e-07,-1.3949252876632582e-07,-5.680532246576039e-07,-1.9633609640473886e-07,-5.116552819777079e-08,3.210706792524039e-08,2.721767668727098e-08,-2.895214524910892e-07
-1.38615987245315e-06,-1.0010847827855529e-06,-4.617714422673513e-07,-4.0438804732366335e-07,-4.78828539660768e-07,3.5921076500119174e-07,-1.2105868378906199e-06,-5.022599727371616e-07,-7.211024914381428e-07,-5.668600682302028e-07,-4.5654143630963486e-07,-1.4971791177990618e-07,-5.395441161852063e-07,-2.006837441342585e-07,-3.2823997821284806e-08,2.985944222563731e-08,5.212899399037581e-08,-3.639474732512073e-07
-1.3488206722676187e-06,-9.560169254666628e-07,-4.4699906107235954e-07,-4.198720739325409e-07,-6.522443724674003e-07,3.664721023547063e-07,-1.2099358935064386e-06,-3.7780489793869587e-07,-7.023307558620999e-07,-5.435985523869288e-07,-4.5878206715765964e-07,-1.5538503278846845e-07,-4.951438584112977e-07,-1.9809979101488066e-07,-1.4660097111688687e-08,4.7990024201437116e-08,8.924525518932134e-08,-4.3714875589494225e-07
-1.2954974350298332e-06,-9.057213650735492e-07,-4.216569065297688e-07,-4.284934618235502e-07,-7.646908628762017e-07,3.8275260118898085e-07,-1.2094105222953355e-06,-2.300631905937742e-07,-6.760513412599592e-07,-5.122568964640198e-07,-4.67135978079495e-07,-1.589403135165453e-07,-4.3947853693065834e-07,-1.8644397637289555e-07,4.665190921544447e-09,5.9486585455049934e-08,1.3257038506631783e-07,-5.004886681552814e-07
-1.2301156406568544e-06,-8.56753714471137e-07,-3.8945872189664924e-07,-4.181975755036067e-07,-7.864405548999104e-07,4.079937953615917e-07,-1.2063754088423655e-06,-8.192799735787521e-08,-6.45427902932923e-07,-4.785275212243764e-07,-4.779483350231346e-07,-1.6605679656058773e-07,-3.835487583920263e-07,-1.6903822456688712e-07,2.4036424156423977e-08,3.482106091896846e-08,1.7204420850651145e-07,-5.46937650284109e-07
-1.1623906536428706e-06,-8.166591958410523e-07,-3.575455344196404e-07,-3.8354533238880615e-07,-7.185156968252089e-07,4.2650747910075667e-07,-1.1971433044988104e-06,4.326535738451715e-08,-6.162737753384296e-07,-4.501019190399944e-07,-4.871365529469602e-07,-1.8408620554535097e-07,-3.388443966346829e-07,-1.5269618481109965e-07,4.177645333302849e-08,-4.003948065003225e-08,1.9827190533332715e-07,-5.700668830890859e-07
-1.1021236475130253e-06,-7.893065281690821e-07,-3.319548229654328e-07,-3.273266063372599e-07,-5.928935706136611e-07,4.387206296361967e-07,-1.1763306362538433e-06,1.2867110528193548e-07,-5.930284497562273e-07,-4.312277831451233e-07,-4.8968554933718e-07,-2.1308116609636818e-07,-3.105007664095467e-07,-1.4338337153777445e-07,6.049742526915046e-08,-1.5564521402526201e-07,2.072860737675259e-07,-5.643539559069656e-07
-1.0536683393816548e-06,-7.721630054176247e-07,-3.1403244391704454e-07,-2.58030243115367e-07,-4.688975607866972e-07,4.386689463410608e-07,-1.1374657846996446e-06,1.6748076016491135e-07,-5.761466793933722e-07,-4.196467568787994e-07,-4.796776787000764e-07,-2.4648356899076506e-07,-2.94210224518673e-07,-1.423209003681731e-07,8.681763218188041e-08,-2.8480166814468305e-07,2.0253397863494167e-07,-5.271444595597102e-07
-1.014779098228721e-06,-7.574399789451889e-07,-3.0020673111300697e-07,-1.8631931597530258e-07,-4.152405457534544e-07,4.2256425773130705e-07,-1.075980753129272e-06,1.611538546807548e-07,-5.627143561064124e-07,-4.096861390624097e-07,-4.5224823879179004e-07,-2.741185450922916e-07,-2.794156156569069e-07,-1.4534636411203843e-07,1.272644195678227e-07,-3.9965810450776727e-07,1.9133653853570803e-07,-4.618263578626953e-07
-9.7970287359894e-07,-7.366827182493112e-07,-2.8512816694497974e-07,-1.232099174234618e-07,-4.784520569123771e-07,4.838281903513244e-07,-9.935322986205105e-07,1.167021442007641e-07,-5.488468759993586e-07,-3.9607849954238415e-07,-4.0715023527253454e-07,-2.8611181310558263e-07,-2.562551367657111e-07,-1.462972105182409e-07,1.8306742120263154e-07,-4.895779726043005e-07,1.8113141615767376e-07,-3.7885707939176363e-07
-9.445124366454179e-07,-7.060868622754256e-07,-2.660736136624705e-07,-7.946751754859974e-08,-6.601355246794004e-07,5.220167442785536e-07,-8.982439831830092e-07,4.6106134948364014e-08,-5.32732003117736e-07,-3.7785085576128583e-07,-3.4940074733250437e-07,-2.7969824325160937e-07,-2.2213277761410805e-07,-1.4177754260988264e-07,2.4741725218824917e-07,-5.634675101731664e-07,1.7369669040033023e-07,-2.9303497542703454e-07
-9.110772382885967e-07,-6.694183325981352e-07,-2.454511474181648e-07,-6.467790403533656e-08,-9.208629863017603e-07,5.120564592156557e-07,-8.042957651018321e-07,-3.6724856466966207e-08,-5.159991892530073e-07,-3.599748657182483e-07,-2.90633990749353e-07,-2.5921447476950495e-07,-1.8240558533822915e-07,-1.3295880901589914e-07,3.0765094275289197e-07,-6.296144209941097e-07,1.6484534775336808e-07,-2.1757293844240205e-07
-8.860290714522081e-07,-6.366312136875029e-07,-2.2926557206439882e-07,-8.525821970118177e-08,-1.2022170886492273e-06,4.98980212454764e-07,-7.262868397708188e-07,-1.1988200026488477e-07,-5.021160882936352e-07,-3.492257084243246e-07,-2.4527704278673336e-07,-2.3302350681592001e-07,-1.4576079541718819e-07,-1.2306772167984767e-07,3.512024537842969e-07,-6.711226931368308e-07,1.4794163382974345e-07,-1.5950317001400244e-07
-8.756022595173709e-07,-6.187102902170747e-07,-2.2250784065337498e-07,-1.4129315478633096e-07,-1.4462559215035934e-06,4.78390510130301e-07,-6.729765580566176e-07,-1.9269117816358488e-07,-4.9411639136696e-07,-3.494458689192243e-07,-2.2307073611359418e-07,-2.0844980702286436e-07,-1.1931026343309247e-07,-1.1330735500339663e-07,3.7209399299116325e-07,-6.463911755001136e-07,1.196155083163594e-07,-1.2022058925396697e-07
-8.801141534317959e-07,-6.219674753771662e-07,-2.2512044768749564e-07,-2.2347765928579635e-07,-1.6049414752211623e-06,4.5116767552402553e-07,-6.44986962613191e-07,-2.4380966177281634e-07,-4.924851841249621e-07,-3.5896929635222847e-07,-2.288510736960971e-07,-1.894201456673644e-07,-1.053114998053472e-07,-1.0118369980367086e-07,3.744828976465203e-07,-5.192836782789876e-07,8.31313144578579e-08,-1.0046184654918048e-07
-8.923390247246228e-07,-6.452419771116498e-07,-2.3161674794150643e-07,-3.130548737449149e-07,-1.6465535048157537e-06,4.5009182506030587e-07,-6.355967279622669e-07,-2.6200895830947617e-07,-4.941154620743892e-07,-3.716846157194113e-07,-2.600871699963458e-07,-1.7662628429155349e-07,-1.0129976547853728e-07,-8.27163509824881e-08,3.7010262801647216e-07,-2.918735117046896e-07,4.5877478739528314e-08,-1.0357664717092482e-07
-9.006678491073002e-07,-6.813470332295163e-07,-2.345630890595981e-07,-3.8686172451946664e-07,-1.5639607097063703e-06,4.6236596836731125e-07,-6.355228288268921e-07,-2.4099168199113395e-07,-4.937386768617791e-07,-3.8251681193347254e-07,-3.0906692291114234e-07,-1.7019932506826097e-07,-1.0268087415080095e-07,-5.6417302168893994e-08,3.7068883812157555e-07,-1.269706329530839e-08,1.5517246440797506e-08,-1.3393061511910283e-07
-8.957023110928224e-07,-7.217281531237479e-07,-2.2962824234317116e-07,-4.262819497699911e-07,-1.3781386893944485e-06,4.789566028594199e-07,-6.379986992357713e-07,-1.8903285507181894e-07,-4.871993782415076e-07,-3.89357476747573e-07,-3.6755325529718626e-07,-1.72491310992468e-07,-1.0572537136270142e-07,-2.5882435581301913e-08,3.795728385314279e-07,2.433299896935407e-07,-5.539948830991194e-09,-1.9203500539012046e-07
-8.756508017433435e-07,-7.613869403409901e-07,-2.1882174057027765e-07,-4.252823425594849e-07,-1.1309007014211896e-06,4.916408626493527e-07,-6.416179304420717e-07,-1.312948139819754e-07,-4.74582127879748e-07,-3.950815567912885e-07,-4.2998436008699344e-07,-1.8769473986994412e-07,-1.0934220592616293e-07,1.20819777041574e-09,3.9017812145957496e-07,4.092883179971839e-07,-2.1127459413660026e-08,-2.695454243095706e-07
-8.468276263305519e-07,-8.006563466948915e-07,-2.0943974979972043e-07,-3.9230108233050166e-07,-8.709569590736741e-07,4.868274987856109e-07,-6.488378928534176e-07,-9.864818123230394e-08,-4.604460132149159e-07,-4.085666644145899e-07,-4.934022771209518e-07,-2.1943666355349927e-07,-1.1474667630625493e-07,1.7096403599661848e-08,3.925934926703747e-07,4.5842897066224597e-07,-3.971311760622939e-08,-3.5020654413810694e-07
-8.192565302964016e-07,-8.426110591126755e-07,-2.0932461682365543e-07,-3.449317381043532e-07,-6.383262898147719e-07,4.6479675243132977e-07,-6.619816728425739e-07,-1.1184122073466297e-07,-4.5093972652753794e-07,-4.36591341433643e-07,-5.567299208455392e-07,-2.6692175443143705e-07,-1.2328181293624684e-07,1.8457777867507273e-08,3.8341815513582544e-07,4.210134914762921e-07,-6.675992171003396e-08,-4.1548614022818485e-07
-8.006916933524185e-07,-8.88349058542536e-07,-2.217487311912113e-07,-3.0132479206501546e-07,-4.515149732335116e-07,4.3138786171165424e-07,-6.793532531352139e-07,-1.7277296941032182e-07,-4.494010252832719e-07,-4.802653178362471e-07,-6.166075615702771e-07,-3.2258702219615073e-07,-1.3388831672617818e-07,8.397602654103173e-09,3.703801978809168e-07,3.7428025722673253e-07,-1.022952685220458e-07,-4.5298216011675446e-07
-7.933320526719899e-07,-9.342022757536586e-07,-2.4363916004368477e-07,-2.741057741492931e-07,-3.0714322484178757e-07,3.956695822473577e-07,-6.940338934884774e-07,-2.664164200186301e-07,-4.544424324494288e-07,-5.346728415416077e-07,-6.677007891385888e-07,-3.7475864623287277e-07,-1.4270357451704656e-07,-5.254923338610091e-09,3.670322021903377e-07,4.026859751507054e-07,-1.411998949559291e-07,-4.6170582766992585e-07
-7.947436493153135e-07,-9.73445988330451e-07,-2.679581536708209e-07,-2.6994726519354987e-07,-1.956568787341496e-07,3.7011183208701543e-07,-6.969899390281708e-07,-3.688498713515794e-07,-4.614311310728662e-07,-5.911646345320779e-07,-7.059353752196352e-07,-4.116538788282931e-07,-1.4510057898609943e-07,-1.3853481431776285e-08,3.8178756973199216e-07,5.463737736269713e-07,-1.7609402798790282e-07,-4.5119434568179243e-07
-8.015813878089792e-07,-1.0014751625678998e-06,-2.8860137019365685e-07,-2.9240184066843616e-07,-1.190709466203815e-07,3.657203908097378e-07,-6.826393177453344e-07,-4.576160573195131e-07,-4.6597132770820777e-07,-6.42428571966223e-07,-7.302528260265709e-07,-4.266774539801889e-07,-1.3878602454659747e-07,-1.1946677052163016e-08,4.104908469390964e-07,7.721575177434007e-07,-2.0251526335056268e-07,-4.3716836123036017e-07
-8.132932558985133e-07,-1.0202628083409254e-06,-3.0468437811686503e-07,-3.4339413957700254e-07,-9.288855023396094e-08,3.871775750387652e-07,-6.527054131015226e-07,-5.172604215870851e-07,-4.6721711498755723e-07,-6.872051817383448e-07,-7.471353932468201e-07,-4.218593424881612e-07,-1.2603088656012286e-07,2.367874453546099e-10,4.3886618105621056e-07,9.900115056004186e-07,-2.2128115420496825e-07,-4.358161029652019e-07
-8.329731786426597e-07,-1.0384062377249308e-06,-3.209977038060012e-07,-4.218434222023374e-07,-1.3179686721973482e-07,4.305993742149244e-07,-6.159189273427051e-07,-5.410746753797089e-07,-4.683604875419745e-07,-7.299730007410253e-07,-7.672152156174314e-07,-4.067516305608446e-07,-1.1303607506787041e-07,1.704107594195934e-08,4.525046829523077e-07,1.1023332508691942e-06,-2.3720952660276277e-07,-4.580421599332391e-07
-8.624252832563448e-07,-1.0665493827440884e-06,-3.441037419349095e-07,-5.211775146608998e-07,-2.2777590572986543e-07,4.838782830805416e-07,-5.829515061011593e-07,-5.369230707424329e-07,-4.739205457216774e-07,-7.758174001786411e-07,-8.013653877100374e-07,-3.9287162922618297e-07,-1.0694431066490733e-07,3.055080429919825e-08,4.4763405540318343e-07,1.0502037175818963e-06,-2.5572584150529473e-07,-5.031940562893817e-07
-9.013358439955969e-07,-1.111115785987564e-06,-3.7694095170752e-07,-6.285896785759855e-07,-3.495670880650888e-07,5.309158229252027e-07,-5.616538440501507e-07,-5.278063326626705e-07,-4.860503873450439e-07,-8.267283146125811e-07,-8.564871280989373e-07,-3.890366827268254e-07,-1.126354060775224e-07,3.4910192710121594e-08,4.3340018555792963e-07,8.330350780285237e-07,-2.8006978286765655e-07,-5.610934572571233e-07
-9.441516757127766e-07,-1.1701974197263853e-06,-4.158312386284943e-07,-7.277284514073216e-07,-4.484006681945812e-07,5.582720794856934e-07,-5.551063406503735e-07,-5.39761276492574e-07,-5.024005973027419e-07,-8.795045223188218e-07,-9.329109791112798e-07,-3.9926234602396656e-07,-1.31243260510391e-07,2.8988973696417827e-08,4.237050812580158e-07,5.012704865167931e-07,-3.0917023867189043e-07,-6.126931787602687e-07
-9.767127982836177e-07,-1.2339458873913121e-06,-4.518222810855786e-07,-8.034298344926648e-07,-4.670233629320044e-07,5.600439596131822e-07,-5.624270434694719e-07,-5.896829861316217e-07,-5.169839740874322e-07,-9.275396235081669e-07,-1.023049099785037e-06,-4.2264051652350665e-07,-1.6123805068079633e-07,1.6046342820215957e-08,4.262371475492767e-07,1.3033400733523468e-07,-3.385865000826834e-07,-6.42241777158878e-07
-9.856872232608394e-07,-1.2891331704197877e-06,-4.752706903135067e-07,-8.4581811748091e-07,-3.716991578822943e-07,5.3931761571674e-07,-5.817337635539559e-07,-6.77659864796106e-07,-5.231645616001718e-07,-9.650872404083027e-07,-1.1162616756402851e-06,-4.5580911726606033e-07,-2.0041275718614298e-07,1.0315521474088212e-09,4.368296908913959e-07,-2.1030424317511878e-07,-3.635408961086932e-07,-6.44939092290167e-07
-9.63321788803628e-07,-1.3253008663063028e-06,-4.810778635729326e-07,-8.5269597195441e-07,-1.6547675306260632e-07,5.068027760083842e-07,-6.083413014814103e-07,-7.817100332630647e-07,-5.168539154711407e-07,-9.903119269838067e-07,-1.2074829733018515e-06,-4.947717425446547e-07,-2.4680901924497893e-07,-1.25817944574343e-08,4.433131944203627e-07,-4.774196007907406e-07,-3.8148847927932023e-07,-6.276569579719543e-07
-9.147875601232537e-07,-1.339116341493707e-06,-4.7143215123141957e-07,-8.30035610892523e-07,1.1827296018507337e-07,4.77798053999006e-07,-6.400516928757856e-07,-8.686261016244108e-07,-4.983550847557416e-07,-1.0070402806814395e-06,-1.2799210833804467e-06,-5.355126458059823e-07,-2.999133389927857e-07,-2.421118839728197e-08,4.3398123989502723e-07,-6.535574584196614e-07,-3.942660394716948e-07,-6.031487564302092e-07
-8.581517189767279e-07,-1.3347256830191448e-06,-4.544816161165949e-07,-7.900409052480169e-07,4.144111322272831e-07,4.61761627287775e-07,-6.733214715027785e-07,-9.101276994129494e-07,-4.722838338587988e-07,-1.022279134615837e-06,-1.3414611331543888e-06,-5.741720038404233e-07,-3.5599172878077736e-07,-3.542418598361487e-08,4.0478670352278605e-07,-7.38144960942527e-07,-4.0476348132211234e-07,-5.846798022791921e-07
-8.267900626458761e-07,-1.3205800267181527e-06,-4.404169847371218e-07,-7.47018983781708e-07,6.143233890553779e-07,4.6320118126749355e-07,-7.015381369179197e-07,-8.938359118751217e-07,-4.4587091642359964e-07,-1.0428820135529817e-06,-1.378833956691803e-06,-6.078617585133491e-07,-4.113089227866297e-07,-4.849511594484652e-08,3.606853246712891e-07,-7.470438076582896e-07,-4.146701493920465e-07,-5.798824770657205e-07
-8.508450803362965e-07,-1.3057809520954998e-06,-4.3810472687681227e-07,-7.134618548342335e-07,6.815083689561477e-07,4.821490825950766e-07,-7.209819240017393e-07,-8.321999909248095e-07,-4.271340799294992e-07,-1.0747003763709032e-06,-1.3627004814825306e-06,-6.360228370575786e-07,-4.638237277391885e-07,-6.594912928808559e-08,3.1178893405499114e-07,-7.134844563480746e-07,-4.288320115156186e-07,-5.89005030482683e-07
-9.290334885201915e-07,-1.2988191512180761e-06,-4.5406225191867927e-07,-6.995065062700497e-07,5.913240751357009e-07,5.122938609064756e-07,-7.281978091345756e-07,-7.640913850289268e-07,-4.2380728355409864e-07,-1.1223991836012224e-06,-1.3339082465507824e-06,-6.610117022018234e-07,-5.135934176627122e-07,-9.072924593846615e-08,2.6720359338332203e-07,-6.737695726837607e-07,-4.5227090555947766e-07,-6.11202762239652e-07
-9.767836666495692e-07,-1.3083330893646135e-06,-4.928542366810601e-07,-7.149835485269462e-07,3.0949218399843975e-07,5.480485711139986e-07,-7.272939811171683e-07,-7.408644644936048e-07,-4.423280976519823e-07,-1.1896297058685574e-06,-1.3196647977934369e-06,-6.883081884481333e-07,-5.627030271772668e-07,-1.256778444476464e-07,2.300266743643488e-07,-6.448183049285663e-07,-4.907734520679537e-07,-6.445761453474477e-07
-1.0243481060808979e-06,-1.3429674108452631e-06,-5.569283606813917e-07,-7.684764465447411e-07,1.5256250815899897e-07,5.762831856992308e-07,-7.278764562348311e-07,-8.016089457462278e-07,-4.863381143189742e-07,-1.2801050725050794e-06,-1.3229765767167534e-06,-7.241631988149525e-07,-6.164077175775776e-07,-1.721427573695539e-07,1.9653081246283022e-07,-6.20860439607956e-07,-5.514882185384138e-07,-6.89019862768645e-07
-1.1088131747051878e-06,-1.408680917121369e-06,-6.451007096068454e-07,-8.610635781164534e-07,-1.992785043169286e-08,5.848751874737128e-07,-7.392348505154535e-07,-9.52387841060638e-07,-5.549559468654843e-07,-1.3929000357179714e-06,-1.3494843697765457e-06,-7.715843314035455e-07,-6.780793910751014e-07,-2.2892932496957533e-07,1.5927773917992553e-07,-5.950579797837536e-07,-6.266677443595478e-07,-7.417447710120737e-07
-1.2511106193422452e-06,-1.5045791869374288e-06,-7.510032352486307e-07,-9.808474209185774e-07,-3.389121568911997e-07,5.638851448359879e-07,-7.675487891716793e-07,-1.1605695761016314e-06,-6.417913408853828e-07,-1.5161372264253763e-06,-1.393481306722994e-06,-8.285873543244708e-07,-7.495127949320691e-07,-2.9259727089714115e-07,1.1227878812666633e-07,-5.833075084502394e-07,-7.122283929053821e-07,-7.998299557413547e-07
-1.3880587713685548e-06,-1.6201382824109678e-06,-8.632349614073036e-07,-1.1053736513794666e-06,-7.01612717872888e-07,5.116888314395965e-07,-8.103786667721215e-07,-1.3686325655323454e-06,-7.355809266067641e-07,-1.6370431496716377e-06,-1.4523726735860792e-06,-8.883207556121287e-07,-8.283935346942727e-07,-3.584002777937689e-07,5.49860628826983e-08,-6.274762161548368e-07,-7.992531509299538e-07,-8.541000880016317e-07
-1.5285237748883357e-06,-1.736506734516997e-06,-9.677598538426724e-07,-1.21114960767272e-06,-9.64140547425521e-07,4.3868160971516656e-07,-8.587751780178853e-07,-1.5173175687919992e-06,-8.240404844471616e-07,-1.7412554935369426e-06,-1.5171526128557418e-06,-9.41297262295413e-07,-9.067296261662685e-07,-4.207465770217499e-07,-7.749745661130975e-09,-7.707836659190081e-07,-8.781581056977644e-07,-9.04127265892539e-07
-1.6401189582908899e-06,-1.8324628379581006e-06,-1.0518341182213663e-06,-1.2834783484337875e-06,-1.08572010208227e-06,3.6049309798513556e-07,-9.004133551066158e-07,-1.5666456880689833e-06,-8.934726800211176e-07,-1.7939916943061895e-06,-1.571631037460047e-06,-9.787423707993569e-07,-9.771314575085419e-07,-4.736284724536789e-07,-6.948595171690735e-08,-1.0229991339080768e-06,-9.373907750625503e-07,-9.286136793225598e-07
-1.6807238290762404e-06,-1.892576934893454e-06,-1.1080013623432096e-06,-1.3213735514514718e-06,-1.247119532446389e-06,2.952170127770777e-07,-9.237198884796046e-07,-1.5093722020624167e-06,-9.227574278302366e-07,-1.8168746752432933e-06,-1.6094431225355609e-06,-9.95784448131979e-07,-1.0316998670461875e-06,-5.118121709091285e-07,-1.2642157836086684e-07,-1.335065027969497e-06,-9.701385917779826e-07,-9.26244063335385e-07
-1.7535806075231874e-06,-1.9132074839327483e-06,-1.1363690998646462e-06,-1.336490036480078e-06,-1.3284637902880643e-06,2.5198077353974465e-07,-9.257745717406671e-07,-1.3691649382952092e-06,-9.506958120948811e-07,-1.8499547377566784e-06,-1.6269271893913295e-06,-9.932385075599389e-07,-1.0677283957937e-06,-5.328054317350043e-07,-1.7880045329404975e-07,-1.6336202302871304e-06,-9.80737101795967e-07,-8.972860129496749e-07
-1.750234387533558e-06,-1.9026388720154014e-06,-1.143860236872651e-06,-1.3468774912772095e-06,-1.306719033702067e-06,2.317676002456298e-07,-9.043775075452533e-07,-1.1890369800418992e-06,-9.370116897420551e-07,-1.8508031422612685e-06,-1.6261481522673144e-06,-9.766144792815294e-07,-1.0859639522839853e-06,-5.383893265259386e-07,-2.28489887174279e-07,-1.8513535611816485e-06,-9.760196486137406e-07,-8.526304504053937e-07
-1.7084874277608339e-06,-1.8751439279726228e-06,-1.1404144855584347e-06,-1.3677657457907804e-06,-1.2514415344985535e-06,2.2426042908789718e-07,-8.845491828947972e-07,-1.0132015217514948e-06,-9.170799117385396e-07,-1.8012754925485792e-06,-1.6140619787870396e-06,-9.53723614481588e-07,-1.0911828808766033e-06,-5.341528391447023e-07,-2.755653767698165e-07,-1.9244144385524055e-06,-9.684813005903786e-07,-8.101866768149362e-07
-1.6775784991464877e-06,-1.842766379527104e-06,-1.134138633973296e-06,-1.4038740219950224e-06,-1.2847374688656811e-06,2.1791050883707725e-07,-8.727726737760154e-07,-8.698493833613304e-07,-8.952090254018871e-07,-1.7551154505323275e-06,-1.5972743614895533e-06,-9.311946962988721e-07,-1.0767918025192805e-06,-5.272578864304378e-07,-3.170574761298006e-07,-1.8220319788301192e-06,-9.583733186273835e-07,-7.866240676581158e-07
-1.662756223995181e-06,-1.8103575962893054e-06,-1.12839961908084e-06,-1.4455937446554658e-06,-1.370220426207032e-06,2.115708063790547e-07,-8.636334570304379e-07,-7.655891753107479e-07,-8.773507711212431e-07,-1.7305234849897464e-06,-1.5796877090184895e-06,-9.134460108148984e-07,-1.055843417699947e-06,-5.240444834333168e-07,-3.4818434489311087e-07,-1.5517510651056667e-06,-9.502550769412789e-07,-7.832097881359703e-07
-1.6535418222896402e-06,-1.776764308976636e-06,-1.1225256465753682e-06,-1.4772894338327972e-06,-1.46572355352627e-06,1.946371540824834e-07,-8.58902697581205e-07,-6.921365535854743e-07,-8.650621229312694e-07,-1.7152358325226872e-06,-1.562934722395735e-06,-9.03258625916989e-07,-1.0419616705914257e-06,-5.291171362221886e-07,-3.638802185178994e-07,-1.143810452994519e-06,-9.580308054009784e-07,-7.55543845024788e-07
-1.6495335673742795e-06,-1.7406230597688973e-06,-1.1151662025501696e-06,-1.4836579802960144e-06,-1.551537672071649e-06,1.681236675558543e-07,-8.396906016578599e-07,-6.394342054323962e-07,-8.559011558153852e-07,-1.716702815937124e-06,-1.5480084132398693e-06,-9.027504106547372e-07,-1.03853246207682e-06,-5.453221306609654e-07,-3.6047541943005024e-07,-6.704852155738636e-07,-9.71163457208966e-07,-7.303243951847487e-07
-1.647784988571529e-06,-1.7063553083700263e-06,-1.1074599587094295e-06,-1.4575574623909793e-06,-1.5953720154367237e-06,1.2104333244715766e-07,-8.516379143971436e-07,-6.072340110383692e-07,-8.570690521526652e-07,-1.7404570507850796e-06,-1.5372706258892043e-06,-9.135040889849669e-07,-1.0508740949953594e-06,-5.754650722650677e-07,-3.3794776708747715e-07,-2.997111894824407e-07,-9.852047260613429e-07,-6.979978775745759e-07
-1.6461380760284498e-06,-1.6854729308901008e-06,-1.1032148557347126e-06,-1.3993415088656585e-06,-1.599873828627513e-06,3.727415887145858e-08,-9.254764125888258e-07,-6.08507041222715e-07,-8.716105738911702e-07,-1.788032062969691e-06,-1.5338926667001118e-06,-9.3423233317834e-07,-1.0689755031950065e-06,-6.130212836984386e-07,-3.003275575524835e-07,-7.032521287641484e-08,-9.81856792271804e-07,-6.419791131726629e-07
-1.6411720950504924e-06,-1.6913680186242322e-06,-1.1060958778559294e-06,-1.3179624239461831e-06,-1.5800339924561414e-06,-6.174601710314668e-08,-1.0908963084899859e-06,-6.60143705551363e-07,-9.011693608189923e-07,-1.8477418177164883e-06,-1.53902049944572e-06,-9.594576265145015e-07,-1.0483744828841402e-06,-6.49188071634648e-07,-2.539428200169361e-07,-3.4754573753873705e-08,-9.362132133507267e-07,-6.162193914555451e-07
-1.6262206372560077e-06,-1.7310114518962963e-06,-1.116738408531696e-06,-1.2251155050852398e-06,-1.5573325112247786e-06,-2.1825938191420338e-07,-1.2464270725696983e-06,-7.681092410915658e-07,-9.570664680338142e-07,-1.9148408405283196e-06,-1.5498276837853712e-06,-9.780870086580649e-07,-9.65519662725939e-07,-6.737005607310021e-07,-2.0477519854349383e-07,-2.9260557076485264e-07,-8.608722611649285e-07,-6.481208950088845e-07
-1.5926386153102269e-06,-1.7994505370115954e-06,-1.1325421357389573e-06,-1.1339640036803147e-06,-1.5221706623382746e-06,-3.347935741549453e-07,-1.3164933445983987e-06,-9.179117141251207e-07,-1.0207616610363316e-06,-1.9781113067311325e-06,-1.5597817623558055e-06,-9.777624209850189e-07,-8.985409116829988e-07,-6.496318219015799e-07,-1.5756753473142095e-07,-1.1737550349839244e-07,-8.059888616107418e-07,-6.725682760518061e-07
-1.5344553286962514e-06,-1.881166239456405e-06,-1.149989984942377e-06,-1.067607372802243e-06,-1.4538810345269229e-06,-3.7073139077008657e-07,-1.3585591177326012e-06,-1.0756132033226055e-06,-1.081588040240791e-06,-2.020434895843472e-06,-1.5614562585645379e-06,-9.531195841471586e-07,-8.445369209005952e-07,-5.786575666686411e-07,-1.1699825560201694e-07,1.1076344559866962e-07,-7.956507738780289e-07,-5.413200903756113e-07
-1.453538567759033e-06,-1.957484919203899e-06,-1.1670307657450628e-06,-1.0248707508982654e-06,-1.3401481201619059e-06,-4.251635029447727e-07,-1.4569370246286636e-06,-1.1989461848094136e-06,-1.1400907456641836e-06,-2.0251148053623494e-06,-1.550426842941543e-06,-9.02688413610599e-07,-7.925451721649682e-07,-5.532715782345198e-07,-8.773406423355634e-08,5.247518592756345e-08,-7.553242289215627e-07,-3.799593353358837e-07
-1.361242938206133e-06,-2.015019258699548e-06,-1.1834011303018756e-06,-1.0237207044129446e-06,-1.187671664217466e-06,-4.941165603648302e-07,-1.5749630032160395e-06,-1.251020843396812e-06,-1.1605057975543802e-06,-2.006882393530905e-06,-1.5271914205867594e-06,-8.319009813243365e-07,-7.467133377169272e-07,-4.6640618587344945e-07,-7.305541411771893e-08,-1.2739542031288891e-07,-6.658335601289623e-07,-2.6982732588638945e-07
-1.2743196317475402e-06,-2.0497132619317745e-06,-1.198639661386088e-06,-1.0710436430268927e-06,-1.0646410920560375e-06,-5.401202836371226e-07,-1.6798039141058427e-06,-1.2139419509205298e-06,-1.1527130298178155e-06,-1.9542473491427843e-06,-1.4953820944707248e-06,-7.511615770282541e-07,-6.675658468113217e-07,-3.4736383682352244e-07,-7.26433039735737e-08,-4.2615126297360816e-07,-5.578964426580958e-07,-2.2788767992530976e-07
-1.206652941362606e-06,-2.064705584992378e-06,-1.2095144969495304e-06,-1.0729243952422303e-06,-9.99100708317952e-07,-6.304700772160283e-07,-1.7333697865285537e-06,-1.097693979692169e-06,-1.1476332199527343e-06,-1.867861219836545e-06,-1.4586122843697523e-06,-6.677162162311601e-07,-5.344968234702164e-07,-2.4458552241639605e-07,-8.018582919627256e-08,-7.085607942706437e-07,-4.538102321741094e-07,-1.709925670080949e-07
-1.1617776866821726e-06,-2.0648122831020263e-06,-1.2094269637733926e-06,-1.0402581531939474e-06,-9.909967200688105e-07,-7.123403646270609e-07,-1.7045601138619414e-06,-9.381144006231374e-07,-1.1300074672882397e-06,-1.7801721737494044e-06,-1.417498856200057e-06,-5.844902502491571e-07,-4.148113729138381e-07,-1.6544682205292024e-07,-8.344328553185804e-08,-7.735284279064968e-07,-3.6820780982969406e-07,-9.30384326118682e-08
-1.1309700605124495e-06,-2.052207016054616e-06,-1.1909049706676468e-06,-1.0074961336447909e-06,-9.884182398102183e-07,-7.315252227133476e-07,-1.6895873687311218e-06,-7.842351221056834e-07,-1.1011677296194317e-06,-1.6977050878550262e-06,-1.3692572908549155e-06,-5.016751392019025e-07,-3.2332641420624007e-07,-9.850696407070752e-08,-6.77845125373614e-08,-9.373184527547537e-07,-3.007211761729877e-07,2.283859085122795e-08
-1.0981091571876455e-06,-2.0261183925705345e-06,-1.149792275550539e-06,-1.0514203028063675e-06,-9.541151356318718e-07,-7.227745575502413e-07,-1.6886290715087016e-06,-6.767128665825114e-07,-1.0473675282757972e-06,-1.7047787530319485e-06,-1.3101681436767555e-06,-4.1893210554423743e-07,-2.2137861146356774e-07,-4.093065099561512e-08,-2.3343203708154505e-08,-1.1470631825059201e-06,-2.240091543796934e-07,4.837955050816195e-08
-1.04859174765007e-06,-1.9853711101214193e-06,-1.0881421905771286e-06,-1.0662826656997544e-06,-8.796931607536181e-07,-7.5050413312723e-07,-1.6728363976332703e-06,-6.324512823357047e-07,-9.85536633951609e-07,-1.6978356348378765e-06,-1.2386906726339198e-06,-3.3691018483230987e-07,-1.5741943996880555e-07,1.2987586582471051e-08,4.920759315379705e-08,-1.234101521167162e-06,-1.4015261455665258e-07,7.459123870931387e-08
-9.76569981818002e-07,-1.9305323287294126e-06,-1.0134857369595302e-06,-1.0357508588451285e-06,-7.342414026688985e-07,-7.44171053816271e-07,-1.6776859101640791e-06,-6.454050273289353e-07,-9.335526194796708e-07,-1.6386484755715732e-06,-1.1567872223319155e-06,-2.5895845052420257e-07,-1.1498548416851182e-07,6.813085532201107e-08,1.3797176644121526e-07,-1.1836639489809932e-06,-7.332153265201285e-08,1.0088652495749981e-07
-8.86367527669666e-07,-1.8641989446076998e-06,-9.349523924042107e-07,-9.851560178707832e-07,-5.360267542138079e-07,-7.312981650249929e-07,-1.690196598142632e-06,-6.961066730641981e-07,-8.639338446143272e-07,-1.4824428578158313e-06,-1.0688740878920703e-06,-1.887936759437553e-07,-7.51988439897951e-08,1.257390985180981e-07,2.257257933255147e-07,-9.873309819530113e-07,-1.0100398824168145e-08,1.389641387622416e-10
-7.888530055427109e-07,-1.7906209318164894e-06,-8.594703352896286e-07,-9.53000345802636e-07,-2.899584153409753e-07,-6.937960104419606e-07,-1.642949549292857e-06,-7.605591309178776e-07,-8.006468797286183e-07,-1.331033729578315e-06,-9.797636696176244e-07,-1.2641308732099235e-07,-5.614333281313224e-08,1.8407341865721264e-07,2.981881715986883e-07,-6.375047302675816e-07,3.688977344172197e-08,-1.3389269892904253e-08
-6.967060465488624e-07,-1.7159680384393256e-06,-7.912039010053312e-07,-8.612681675405289e-07,-5.256702762677237e-08,-5.661414858752762e-07,-1.5558803462527176e-06,-8.165819600537302e-07,-7.512781913090363e-07,-1.202676924814412e-06,-8.941020483876389e-07,-7.529503558657047e-08,-4.98012653631119e-08,2.3999377508370147e-07,3.4813610836103833e-07,-1.9131460946930048e-07,6.169399407527659e-08,8.760434458976581e-08
-6.216926983230045e-07,-1.6488421090027388e-06,-7.340299999086673e-07,-7.010858436277471e-07,1.3319830687258248e-07,-4.852714238207017e-07,-1.4387553372809771e-06,-8.499420481181642e-07,-7.121335010679924e-07,-1.097467504630408e-06,-8.173047771809566e-07,-3.919963989649643e-08,-4.332965225685161e-08,2.8927042064988125e-07,3.7538865193882755e-07,2.6114090377332484e-07,7.352566561749392e-08,1.3344538886509706e-07
-5.737457064372841e-07,-1.5999901832564172e-06,-6.938087007000519e-07,-5.392380703868854e-07,2.3174309066494974e-07,-4.406421781615778e-07,-1.3640576709708948e-06,-8.58826299698086e-07,-6.961406126320742e-07,-1.076504436914332e-06,-7.557568789800772e-07,-2.1591834260469122e-08,-4.028775106507277e-08,3.275239369500541e-07,3.8509242098882283e-07,6.229343384672241e-07,7.424704469871487e-08,7.307334699494841e-08
-5.60159669864448e-07,-1.5802032155242143e-06,-6.775113181515573e-07,-4.255224128906389e-07,2.3535568804624079e-07,-3.6380370974334306e-07,-1.2438160131361093e-06,-8.537677581484175e-07,-7.015781178048126e-07,-1.0003862079666107e-06,-7.149566639591485e-07,-2.523080826294228e-08,-4.317615063122071e-08,3.511125199609746e-07,3.8638359473040637e-07,8.266692311685227e-07,5.4691457846734514e-08,-6.97277842798949e-09
-5.83404863204604e-07,-1.596276572302179e-06,-6.893932303574114e-07,-3.6862295446498514e-07,1.9737778608756224e-07,-3.0117547423544964e-07,-1.1225291467299953e-06,-8.508375042393167e-07,-7.272990903794207e-07,-8.878960347161956e-07,-6.970437586000421e-07,-4.604305498328872e-08,-5.670115547862614e-08,3.5915905733289704e-07,3.9040085842659284e-07,8.617529088786449e-07,1.553727780223217e-08,-3.323384294279149e-08
-6.385457906022068e-07,-1.6468976249616629e-06,-7.271801802915321e-07,-3.962668476178673e-07,6.477730728626056e-08,-2.0647552461335482e-07,-1.0425574333587736e-06,-8.608422895285613e-07,-7.696939246829898e-07,-8.128298442197315e-07,-6.982879495951048e-07,-7.610065856513161e-08,-7.751763484265202e-08,3.550628165589444e-07,4.072152317088195e-07,7.737012021365991e-07,-3.789117707005207e-08,-8.416648892510735e-08
-7.126793682549337e-07,-1.7211226164644356e-06,-7.812145808507019e-07,-4.866459529827723e-07,-1.6654128870503398e-07,-1.6069370770275078e-07,-1.0338610213063277e-06,-8.828706586973221e-07,-8.189975519070827e-07,-7.684812304456171e-07,-7.0891522371775e-07,-1.0192206623934258e-07,-9.631609606349293e-08,3.471887822026691e-07,4.432505971237711e-07,6.35584816570975e-07,-9.535779729224617e-08,-8.02215664295016e-08
-7.876791828815689e-07,-1.8007778661182964e-06,-8.35078521651933e-07,-6.039012249162447e-07,-4.369880945406373e-07,-1.5725003981025032e-07,-1.0145255309072035e-06,-9.061895424408142e-07,-8.633457795737678e-07,-7.833868048165122e-07,-7.203032699573448e-07,-1.1133527911587117e-07,-1.0499369307887191e-07,3.4905374869844294e-07,4.998333159974839e-07,5.165299300684023e-07,-1.3175779398286077e-07,-2.1990911627248196e-08
-8.437017680129043e-07,-1.8662681551919047e-06,-8.760140052815191e-07,-7.09144061282596e-07,-6.476246878245519e-07,-1.8834583269622586e-07,-9.716095187283087e-07,-9.18489866092843e-07,-8.906622755552441e-07,-7.897445677163499e-07,-7.203873340682502e-07,-9.583034609923411e-08,-8.825659271218331e-08,3.6738112923316987e-07,5.718588487275405e-07,4.634912599863671e-07,-1.3732687557712687e-07,9.36830584256569e-08
-8.70186839283497e-07,-1.9036726948376647e-06,-8.963924107949972e-07,-7.612905398019866e-07,-7.277133144572966e-07,-2.0453817901245368e-07,-9.1507011119871e-07,-9.120947488834583e-07,-8.96817018620243e-07,-7.827043453776693e-07,-7.049312274285895e-07,-5.4808539776042805e-08,-4.6853208866432294e-08,4.068696475722678e-07,6.467800110659982e-07,4.932526855430307e-07,-1.1504721714699622e-07,1.9943219347700342e-07
-8.685173502344789e-07,-1.909394127727378e-06,-8.95471305709523e-07,-7.477736919186769e-07,-8.19553324185637e-07,-1.436788068920883e-07,-8.736515400761017e-07,-8.851024187617256e-07,-8.86087358070174e-07,-7.631346187729483e-07,-6.768906078045572e-07,7.98407001712366e-09,1.4137661467185315e-08,4.6631793894342444e-07,7.063731211130577e-07,5.906299495457012e-07,-7.170165146317259e-08,2.7523043319488475e-07
-8.445330866295463e-07,-1.8892286287973707e-06,-8.795838170126414e-07,-6.77055666771006e-07,-9.84520994736483e-07,-4.2274007966918124e-08,-8.441552175959929e-07,-8.397072047418613e-07,-8.639786938313185e-07,-6.999915495487021e-07,-6.430250932107427e-07,8.451002793755758e-08,9.174299818397793e-08,5.376673529070977e-07,7.330095953889692e-07,7.169742130122585e-07,-1.5554406700884478e-08,3.2232543257403344e-07
-8.071861127001821e-07,-1.8525658965453721e-06,-8.521195219434929e-07,-5.621896937760702e-07,-1.1475457674537997e-06,4.0151924208880485e-08,-8.218525427868895e-07,-7.7953420888015e-07,-8.363489255053043e-07,-6.327230054657011e-07,-6.073356722378205e-07,1.6669272330044594e-07,1.770601216309207e-07,6.163144604085104e-07,7.174987979021138e-07,8.25750899026116e-07,4.5779287192214895e-08,3.333222812234509e-07
-7.600755568997714e-07,-1.8061859053641663e-06,-8.11716611208051e-07,-4.158830137523812e-07,-1.2293865658141815e-06,6.190806309406615e-08,-8.08694224325244e-07,-7.08294270003685e-07,-8.060526298067455e-07,-5.624757360438437e-07,-5.705063867908163e-07,2.45226159482009e-07,2.64095976759034e-07,6.878515718234126e-07,6.637319605882161e-07,8.773632457038105e-07,1.1074047585807299e-07,3.366579296475433e-07
-7.088237207235848e-07,-1.7520878608695214e-06,-7.580524156676499e-07,-2.5405910524913613e-07,-1.1415363284355423e-06,-1.0731583092011881e-09,-7.939322014423952e-07,-6.320319623210474e-07,-7.730912713936984e-07,-4.84117218258183e-07,-5.274390144454008e-07,2.9680544487441123e-07,3.225755029784906e-07,7.443448983134376e-07,5.870595084854563e-07,8.493848115056041e-07,1.7091089553018267e-07,3.4080098933114395e-07
-6.577979946213518e-07,-1.6933713060834538e-06,-7.165321966826236e-07,-1.2013841608922453e-07,-9.549224119671092e-07,-1.0640808546529346e-07,-7.786077934258202e-07,-5.670704318586489e-07,-7.397014173852136e-07,-4.349858428821636e-07,-4.815943404554313e-07,3.180888375175451e-07,3.4657540893499016e-07,7.599191681182265e-07,5.071393976947083e-07,7.427271008106081e-07,1.9741104074246128e-07,3.274100244842569e-07
-6.339809982538001e-07,-1.6338894789590476e-06,-6.893490226104686e-07,-3.594970020243317e-08,-7.692911229012017e-07,-1.629928603839802e-07,-7.668002032966711e-07,-5.302918628184597e-07,-7.293353428564555e-07,-4.1422543584952474e-07,-4.6328417336151604e-07,2.918754487687959e-07,3.3516376731986034e-07,7.560920625184924e-07,4.389114448547711e-07,5.833397663263248e-07,1.902954297712537e-07,3.067420602612811e-07
-6.702990779932065e-07,-1.5848418328393052e-06,-7.062781224535081e-07,-6.761970913932032e-08,-5.517237309798089e-07,-2.5840871694172355e-07,-7.649071955894129e-07,-5.44245508271238e-07,-7.436214172828161e-07,-4.488551835955151e-07,-4.7479608386247565e-07,2.2532350878767142e-07,2.6347799286280385e-07,7.314815833217147e-07,3.8658232913553257e-07,4.1275862840780094e-07,1.3549933525794743e-07,2.510859453889508e-07
-7.609518616098815e-07,-1.561841356229499e-06,-7.962728770331746e-07,-1.8705957375717746e-07,-3.6938661211776685e-07,-3.5810244901696824e-07,-7.792212103245542e-07,-6.233537463131041e-07,-7.880845597886757e-07,-5.521482134668011e-07,-5.421950461095037e-07,2.0522563445908094e-07,2.141936542598392e-07,6.776960567335596e-07,3.437537986749507e-07,2.653653613489227e-07,2.636490330758051e-08,1.5352577524106182e-07
-8.421677618154304e-07,-1.5822147606738942e-06,-8.466853662370995e-07,-2.8238289173751315e-07,-4.807854319659995e-07,-3.5986603607864883e-07,-8.215705098112448e-07,-7.669325683663833e-07,-8.863561750256635e-07,-6.180439904047178e-07,-6.690058006522577e-07,2.027329052097094e-07,2.1335398378345916e-07,6.413220553327965e-07,2.9915172793598077e-07,1.5227322600035944e-07,-2.54300193225277e-08,1.5406468556880882e-07
-8.908845550903162e-07,-1.6586844409450615e-06,-8.884570432182691e-07,-3.343354393212269e-07,-5.436725057979541e-07,-3.1899110505968343e-07,-8.948434906941065e-07,-9.545453802845791e-07,-9.198164682424536e-07,-6.529094485868763e-07,-7.184889726456478e-07,1.4750365186246152e-07,1.916101016227522e-07,5.62847339739299e-07,2.446356370133087e-07,6.811747305041526e-08,-5.018020032475778e-08,1.7544063924698314e-07
-9.7992314898828e-07,-1.7863112087715015e-06,-9.329114387050111e-07,-3.9355282198366e-07,-4.637201273824937e-07,-3.088911742397434e-07,-9.93830922023029e-07,-1.1469009822971975e-06,-9.55206863766911e-07,-7.072672614161503e-07,-7.307775772578372e-07,4.324859589069832e-08,1.3463137667547285e-07,4.611434451047692e-07,1.802292645452343e-07,1.2813983313243408e-08,-1.3497937662507868e-07,1.3988838422978562e-07
-1.11950699571914e-06,-1.946869631400727e-06,-1.0435129815252773e-06,-5.288772679392066e-07,-4.3031605374001683e-07,-3.2480576830279676e-07,-1.1080039913562614e-06,-1.3112186489859342e-06,-1.0377232543674413e-06,-7.993973505419191e-07,-8.099950231167387e-07,-5.6418112142958706e-08,3.1795640277907745e-08,3.6172979793410836e-07,1.1347275912342073e-07,9.57778108768523e-10,-2.3783764345232564e-07,4.582344098212111e-08
-1.236297852433295e-06,-2.0887724602462383e-06,-1.1815644535991796e-06,-6.926507339574952e-07,-5.686561063224726e-07,-3.513003625176267e-07,-1.222024716224644e-06,-1.3589541119950015e-06,-1.1087561042272052e-06,-8.942215542330496e-07,-9.112315059695679e-07,-1.1834574087113133e-07,-8.149754062491035e-08,2.3594145503491847e-07,5.467049967250145e-08,4.484297121005136e-08,-3.104368521002945e-07,-5.427026976742272e-08
-1.2840758948741707e-06,-2.1594236805802743e-06,-1.2558144738110739e-06,-7.489971882261845e-07,-6.296762585372836e-07,-3.938920907488165e-07,-1.3213407291754745e-06,-1.2912077332359368e-06,-1.1217142933909498e-06,-9.098602106028529e-07,-9.756379024256964e-07,-1.2129902587999644e-07,-1.81027216760521e-07,1.374717885202787e-07,1.1839860000576062e-08,1.3074032259371744e-07,-3.193461761592791e-07,-1.1789269283340075e-07
-1.317489694585434e-06,-2.1195277955597832e-06,-1.2750567077768807e-06,-7.350319177060903e-07,-5.767046784361264e-07,-4.346608681927426e-07,-1.389942803371559e-06,-1.2687757507945025e-06,-1.1318692557170798e-06,-9.133624976197082e-07,-9.751699901261018e-07,-1.0668129459008845e-07,-2.5688606233819154e-07,6.790040218486953e-08,-1.1595551030797091e-08,2.0307439527208462e-07,-3.5140421944400905e-07,-1.1404899274118446e-07
-1.3402572541971724e-06,-2.0949901478169855e-06,-1.2849712392167142e-06,-7.322106813251885e-07,-5.912164423834866e-07,-4.535637117057359e-07,-1.3920039106058966e-06,-1.2674326188757136e-06,-1.148289876901153e-06,-8.943939713448033e-07,-9.947527978334624e-07,-1.1620111182730883e-07,-2.7534119782263467e-07,1.4530858199636839e-08,-1.617903035853039e-08,1.883456340266364e-07,-4.063075923129097e-07,-1.3283930397898536e-07
-1.3533804007017243e-06,-2.1357935782623627e-06,-1.3315485449406854e-06,-7.795958108211429e-07,-7.250684389171121e-07,-4.324681805738456e-07,-1.3537105001887226e-06,-1.2174354159911724e-06,-1.1727745704461304e-06,-8.830803884370336e-07,-1.0154279147656325e-06,-9.926135489078952e-08,-2.619415098485744e-07,-1.6347530867634732e-08,-3.814881954643457e-09,3.277913739444445e-08,-4.5456826813972787e-07,-1.1407038000318675e-07
-1.36536855607429e-06,-2.1384822252080742e-06,-1.3463609737867148e-06,-8.293412928339134e-07,-8.576856669413142e-07,-3.938281317865951e-07,-1.2801750597219678e-06,-1.133556622976241e-06,-1.1922787581849315e-06,-8.388033666315624e-07,-1.033630640829616e-06,-6.165098466634462e-08,-2.425188925425524e-07,-3.723005983014167e-08,2.450074449030821e-08,-2.6872846288277443e-07,-4.4367194512204587e-07,-6.727359419533855e-08
-1.3135854173577727e-06,-2.0994163168715318e-06,-1.335744154010972e-06,-8.101690885286811e-07,-8.975912758239437e-07,-3.3422371829341997e-07,-1.1748345888086694e-06,-1.0851024047705474e-06,-1.1676327677113186e-06,-7.702313950703933e-07,-1.0237636232127583e-06,2.7526087878729955e-09,-2.2762882827315176e-07,-6.034714959767687e-08,6.888456051663003e-08,-6.623243606315485e-07,-4.0391546812797615e-07,-7.629414795706153e-09
-1.2179778608890064e-06,-2.015179968786957e-06,-1.2862553004297696e-06,-7.622359326579493e-07,-8.836187327174696e-07,-2.5957141619653996e-07,-1.0993794658445564e-06,-1.0815466472827481e-06,-1.0968127321808714e-06,-6.878652343139778e-07,-9.96916666953399e-07,7.991340272384226e-08,-2.2581280787081128e-07,-8.171679687866549e-08,1.2870908691150985e-07,-1.052862079411995e-06,-3.5822260806969723e-07,3.640664387619586e-09
-1.1263668004189342e-06,-1.911233452136247e-06,-1.223651104733855e-06,-7.159831412280376e-07,-7.9227355967036e-07,-1.6349046242423505e-07,-1.001932230309319e-06,-1.0561107856448313e-06,-1.0211901502698748e-06,-5.826437240351365e-07,-9.089266218378693e-07,1.625971471643908e-07,-2.238698368121416e-07,-9.344819481992381e-08,2.006087902617541e-07,-1.3340997785802746e-06,-3.0906154913143537e-07,-2.1159706107970096e-08
-1.0474856230131559e-06,-1.794337797582694e-06,-1.16747452974587e-06,-6.847576110413822e-07,-6.870611791603557e-07,-5.8279471186163287e-08,-8.893783768645778e-07,-1.0625662992793096e-06,-9.474509600218031e-07,-4.616588137790917e-07,-8.015155667284876e-07,2.5934582573117853e-07,-2.0607809673755328e-07,-8.867872623567634e-08,2.7781652475352594e-07,-1.4185463474492522e-06,-2.504759471511157e-07,-4.7934515284079326e-08
-9.728776218838336e-07,-1.6615382193700885e-06,-1.1046056862875383e-06,-6.690163866747166e-07,-6.021719070090263e-07,3.739361926665687e-08,-7.826074688681887e-07,-1.0857272156948662e-06,-8.685181911480165e-07,-3.327784763692228e-07,-6.948103891391332e-07,3.411388991800676e-07,-1.6345015052208796e-07,-5.912007561112643e-08,3.5103810052725185e-07,-1.2474617443813292e-06,-2.0758671642555832e-07,-6.424358988586762e-08
-9.377000882413344e-07,-1.5527122247554673e-06,-1.0669292415123452e-06,-7.011490654837428e-07,-5.479576574897108e-07,1.1237137843481837e-07,-6.4645615071147e-07,-1.089166714554924e-06,-8.193647044560773e-07,-2.0207433068903498e-07,-5.801675667166042e-07,4.0987583322093286e-07,-9.723425693301464e-08,-4.9305371056254925e-09,4.1116969706826245e-07,-8.393725790301143e-07,-1.7992522758344815e-07,-5.328826723538e-08
-9.284295217974878e-07,-1.4714245944848765e-06,-1.0552502987806978e-06,-7.650955923340567e-07,-5.201854491755949e-07,1.5045557706426686e-07,-5.421847404371528e-07,-1.0716696438246712e-06,-7.895772882758501e-07,-1.0391682695230699e-07,-4.904963324270931e-07,4.734655163647733e-07,-1.5653291669189736e-08,6.685203736474113e-08,4.5303159338227405e-07,-2.8452599967070865e-07,-1.5959323433420743e-07,-6.781947803620094e-09
-9.296466476807886e-07,-1.4077798634226328e-06,-1.0522458405099455e-06,-8.262521770344002e-07,-4.654274354895612e-07,1.7149317255663535e-07,-4.5896568673958545e-07,-1.0157487888230026e-06,-7.668097798556559e-07,-3.0393907637677406e-08,-4.188176656116995e-07,5.289389829974447e-07,6.887741350045674e-08,1.4436723859987398e-07,4.778427552721915e-07,2.810264504285597e-07,-1.4345356272364662e-07,7.471215101191367e-08
-9.346546066205766e-07,-1.3568052793648358e-06,-1.0532942127498424e-06,-8.598763052331866e-07,-3.665111642737283e-07,1.7567216617669688e-07,-3.802953086911696e-07,-9.349258619061406e-07,-7.479128439756163e-07,3.249551762036264e-08,-3.515339421475572e-07,5.853282190698926e-07,1.4543730958043257e-07,2.21184181302307e-07,4.924130577475248e-07,5.045605667290911e-07,-1.2018614480565222e-07,1.7232707597228698e-07
-9.276320624920462e-07,-1.3005126859041448e-06,-1.0434771030083482e-06,-8.40255147982003e-07,-2.446402388084294e-07,1.7366669759946317e-07,-3.1972126668468277e-07,-8.528525741357477e-07,-7.215723248987889e-07,8.743633139512475e-08,-2.871445863933724e-07,6.419378331549296e-07,2.079414894986696e-07,2.909421560887082e-07,5.053858199725e-07,4.862082946187937e-07,-8.775027961410654e-08,2.7081460178393835e-07
-9.05918218680141e-07,-1.2337566815407622e-06,-1.0205803843631891e-06,-7.683143515108249e-07,-1.292264953178483e-07,1.6062426453827695e-07,-2.5450923137112514e-07,-7.871331941930658e-07,-6.875836182465002e-07,1.4631485507820028e-07,-2.1877670918060434e-07,6.957722851107169e-07,2.54638611913219e-07,3.485639765543113e-07,5.229549875839347e-07,4.899356459718403e-07,-4.8248452934918725e-08,3.5811725022715164e-07
-8.720954116296693e-07,-1.1563106911567665e-06,-9.881884936414142e-07,-6.603802538222256e-07,-5.2062817877925144e-08,1.4636409940107803e-07,-1.8412876735506872e-07,-7.514116038111799e-07,-6.485455825762754e-07,2.072115388458104e-07,-1.4967672180787797e-07,7.454793311489723e-07,2.8915435883488305e-07,3.9265772969861794e-07,5.46464055437451e-07,3.1588050448223647e-07,-5.662041031918403e-09,4.2099207775797715e-07
-8.312351133595486e-07,-1.0715786411837735e-06,-9.510975580809032e-07,-5.404278888667271e-07,-3.0504287212792836e-08,1.494005779115887e-07,-1.1320399644889345e-07,-7.500243385744349e-07,-6.070618728800655e-07,2.6364415367723776e-07,-8.428912358894102e-08,7.874674162842505e-07,3.183940754600384e-07,4.233508054408881e-07,5.727056596804903e-07,-1.0884962297070905e-07,3.538712260609688e-08,4.521726892701143e-07
-7.901022169169254e-07,-9.885260732629887e-07,-9.152261558397936e-07,-4.336592493298804e-07,-6.023477098578552e-08,1.6883637120320666e-07,-4.3840828341020216e-08,-7.725362084626791e-07,-5.665202204488774e-07,3.083023556918036e-07,-2.5375498341534385e-08,8.214860672846883e-07,3.511195841235819e-07,4.457255040781402e-07,5.969398430969562e-07,-5.610405771954862e-07,7.34499804958134e-08,4.494772889942402e-07
-7.523133982094323e-07,-9.164224950655376e-07,-8.832336403714078e-07,-3.5531499678954264e-07,-1.163528558740293e-07,2.00467195207921e-07,2.2272991585482882e-08,-7.929882405761562e-07,-5.286412329816587e-07,3.487832062270889e-07,2.5959325478713735e-08,8.486879799353957e-07,3.9548639356174245e-07,4.660053780588592e-07,6.176751416173634e-07,-7.459347463970016e-07,1.1142466201536706e-07,4.1995399722411903e-07
-7.171680126422173e-07,-8.606364623803544e-07,-8.536504632934139e-07,-3.071939558841276e-07,-1.5541331146213422e-07,2.3472263222022284e-07,8.41325874854708e-08,-7.800266936095856e-07,-4.925900372923383e-07,3.895599868877054e-07,7.296357378557608e-08,8.729918391698709e-07,4.555861702882065e-07,4.901549518778905e-07,6.399408794708153e-07,-6.846363813223235e-07,1.5485329897149836e-07,3.7905614846266444e-07
-6.82066176359925e-07,-8.208149867991177e-07,-8.231130362075687e-07,-2.819369544242288e-07,-1.25296034790517e-07,2.7127780438430044e-07,1.4132670234612224e-07,-7.124994302234048e-07,-4.5650347089211207e-07,4.3313158150909404e-07,1.1921100698151241e-07,8.98399692333402e-07,5.304369249742968e-07,5.215283713649728e-07,6.734487981216657e-07,-4.3853416995570254e-07,2.0642567819832688e-07,3.4411501362007037e-07
-6.459951219374345e-07,-7.919362471612712e-07,-7.89463381605678e-07,-2.703654642243811e-07,5.939731611542795e-09,3.147306041803565e-07,1.9531768261705444e-07,-5.8882416786144e-07,-4.1893107093439844e-07,4.831820051030996e-07,1.6552226515224753e-07,9.250290271311175e-07,6.127136161813632e-07,5.598342393891963e-07,7.266360985780655e-07,-5.3583765490697337e-08,2.6492940025582547e-07,3.283088281679895e-07
-6.110035521778529e-07,-7.668241916598016e-07,-7.530417747171059e-07,-2.660106527249067e-07,2.3914090776016243e-07,3.738413769500099e-07,2.437968701633223e-07,-4.2530107858744654e-07,-3.7963275527760616e-07,5.342137211783336e-07,2.122160652717053e-07,9.500966882275036e-07,6.915044180652675e-07,6.022051237327277e-07,8.015140704706186e-07,3.906260594421644e-07,3.2636846310147075e-07,3.380968144496395e-07
-5.804807737688345e-07,-7.383002590110957e-07,-7.155046266826404e-07,-2.642469656130587e-07,5.343861968350819e-07,4.4249489673208837e-07,2.8426369745388366e-07,-2.529809593495652e-07,-3.3774814688414746e-07,5.81342243703626e-07,2.5612489116472964e-07,9.71530993101868e-07,7.57426250318793e-07,6.444515451099999e-07,8.929497828967852e-07,8.04210481884777e-07,3.872598679522828e-07,3.7523938858534087e-07
-5.562249126359104e-07,-7.004525642872183e-07,-6.779059858113842e-07,-2.5707653132787066e-07,8.201179453399555e-07,5.085293356830002e-07,3.156983454156426e-07,-1.0604869299760612e-07,-2.934886592833188e-07,6.250881579333831e-07,2.9668854999357793e-07,9.917303197552679e-07,8.072567190004456e-07,6.837565494917261e-07,9.898407050723713e-07,1.1011818234534794e-06,4.446003458167179e-07,4.353253436788896e-07
-5.372922936187514e-07,-6.480645479575069e-07,-6.38602309454046e-07,-2.369050276099623e-07,1.0257108042782207e-06,5.646871855316229e-07,3.3961850442638664e-07,-9.730565391793826e-09,-2.462003072865416e-07,6.667627876540818e-07,3.3894579000702267e-07,1.0098936538969708e-06,8.434937607352448e-07,7.197631015160855e-07,1.080033480915154e-06,1.2166611890188895e-06,4.975161270835956e-07,5.094995307754296e-07
-5.214485994787933e-07,-5.827288358369408e-07,-5.982746678940009e-07,-1.9904867524599262e-07,1.1052215956844735e-06,6.080594071706879e-07,3.62050155791657e-07,3.039618498112354e-08,-1.9572639656630057e-07,7.069828853659408e-07,3.8420835929373345e-07,1.0213397089144444e-06,8.725040747743963e-07,7.556835396409355e-07,1.1507671884699631e-06,1.1352868539895696e-06,5.466046048590375e-07,5.868781785980238e-07
-5.074173826317917e-07,-5.113099671680627e-07,-5.579902708295151e-07,-1.4586054567666688e-07,1.0491941559769514e-06,6.42731244947079e-07,3.8388506927905933e-07,2.1750129877830838e-08,-1.443863914888419e-07,7.475952312949878e-07,4.323793100736615e-07,1.0309120240197943e-06,9.019505857629812e-07,7.937755516993681e-07,1.1916309390856946e-06,9.051653524533207e-07,5.928432638193775e-07,6.563417366266523e-07
-4.95146509348454e-07,-4.4240781640428705e-07,-5.194113312036401e-07,-8.758238240271324e-08,8.952604751534213e-07,6.761864548151223e-07,4.125955723028087e-07,-2.6740822968977426e-08,-9.448587419602535e-08,7.893847272278443e-07,4.808836809452913e-07,1.0379046155800013e-06,9.317692958050379e-07,8.329405984314245e-07,1.2025938727204372e-06,6.275019447373731e-07,6.38261353523427e-07,7.136314323899549e-07
-4.840299376641077e-07,-3.82186360438685e-07,-4.843610721510215e-07,-3.6433373261252035e-08,6.97672943588333e-07,7.10525151480998e-07,4.4113693754563475e-07,-9.373798853358036e-08,-5.4298352803950424e-08,8.30764602065739e-07,5.28712680103773e-07,1.0413147240353678e-06,9.651388231199955e-07,8.750955581388711e-07,1.192072803404496e-06,4.207193390644433e-07,6.863946299697356e-07,7.592024690793103e-07
-4.712189952627223e-07,-3.3023076039406865e-07,-4.491052697968274e-07,5.351261858554819e-09,5.049624665314375e-07,7.514803205811043e-07,4.7380195686082923e-07,-1.6237602073524463e-07,-1.9813106639076943e-08,8.756883426785476e-07,5.768942270328595e-07,1.0480472406626902e-06,1.0060759301700776e-06,9.221089466479108e-07,1.1731698126381616e-06,3.8126517004256497e-07,7.400920892180747e-07,7.94454750084898e-07
-4.523734896490057e-07,-2.7688602451493956e-07,-4.086350761619395e-07,4.698979239942655e-08,3.540314407484357e-07,7.992816148308092e-07,5.207952682909972e-07,-2.1843507265011653e-07,1.518602281604741e-08,9.283454300456907e-07,6.278760441251391e-07,1.0615051177772838e-06,1.054530557509517e-06,9.758890951272728e-07,1.1574814412027084e-06,5.531691271631995e-07,7.942503804435725e-07,8.182339308043078e-07
-4.248287933183537e-07,-2.1136089044652772e-07,-3.603147488168002e-07,1.0357948853223276e-07,2.6134148874151613e-07,8.552197450960337e-07,5.800638621153043e-07,-2.530235828040339e-07,5.3701776829530065e-08,9.879387666016163e-07,6.833039783674027e-07,1.0814749726435904e-06,1.1083327775429806e-06,1.037144140869743e-06,1.1487877215170327e-06,9.288539751872463e-07,8.506823748930378e-07,8.255464426505038e-07
-3.9029650549843645e-07,-1.297499324598421e-07,-3.058844494868897e-07,1.8777301680850483e-07,2.257788256355488e-07,9.117858920103672e-07,6.468330456411465e-07,-2.656605728374662e-07,9.710057781716081e-08,1.0520957316539648e-06,7.415186757761335e-07,1.1053690690599525e-06,1.1605701230529517e-06,1.1018178954261e-06,1.1462199418597352e-06,1.4431810215313428e-06,9.07719635983474e-07,8.121496602319265e-07
-3.542642934553469e-07,-3.585758212268618e-08,-2.5035677230206007e-07,3.001257159774734e-07,2.279067439448522e-07,9.588479447323988e-07,7.155439613579051e-07,-2.56584089183435e-07,1.4035740163819e-07,1.1138254130986848e-06,8.004376487183734e-07,1.1291859821321743e-06,1.2027921356279014e-06,1.1633147872210406e-06,1.149828734729609e-06,1.9936387851069335e-06,9.602169824196363e-07,7.804128346754742e-07
-3.220953702873052e-07,6.04580556059789e-08,-1.9833977362966493e-07,4.2980874629988483e-07,2.7649630084192263e-07,9.909326314459501e-07,7.758837416154492e-07,-2.2452640347847815e-07,1.8441743511301486e-07,1.1687961094702658e-06,8.577794937640765e-07,1.1473337988874792e-06,1.2287402008688018e-06,1.2157077071052866e-06,1.1623855926108735e-06,2.4858415307392447e-06,1.0144401640998516e-06,7.40933671223643e-07
-2.954331501047432e-07,1.4972398569218516e-07,-1.5049340526391147e-07,5.608709055775225e-07,3.361334075737238e-07,1.009638048031823e-06,8.192587847381183e-07,-1.6625611268054871e-07,2.2443261429238694e-07,1.2175699117332237e-06,9.135623778564822e-07,1.1578229714692477e-06,1.2460352768291272e-06,1.2560264772457405e-06,1.1851086989324163e-06,2.856415430224427e-06,1.0666015454274078e-06,7.069969252926845e-07
-2.717680475406606e-07,2.2687623753810466e-07,-1.0377827499211008e-07,6.801638827772725e-07,3.7087471554783623e-07,1.020099587233655e-06,8.47987314112991e-07,-7.159152705814151e-08,2.624804844804649e-07,1.2659515179246784e-06,9.695121967769774e-07,1.1717870577066863e-06,1.2577674068095602e-06,1.2839351915481374e-06,1.2169988813430268e-06,3.070900780713578e-06,1.1176440365869063e-06,6.921513830573903e-07
-2.45094471257852e-07,2.933658042880744e-07,-5.384849714317898e-08,7.728026223792313e-07,3.478547105087388e-07,1.0312765347868159e-06,8.635785586862249e-07,3.627535746702871e-08,2.995850422606975e-07,1.3159169929231924e-06,1.0284563317120223e-06,1.184743124513736e-06,1.2698076277342568e-06,1.3013314721797238e-06,1.2577303450505263e-06,3.1101536426858795e-06,1.1678617906638089e-06,7.034494271536607e-07
-2.1570705212992042e-07,3.4777497198820997e-07,-3.5420570101587188e-09,8.266857675496174e-07,2.5139001102142084e-07,1.0494399287243829e-06,8.77707273198124e-07,1.460122870122327e-07,3.2132318171746625e-07,1.3655669141082133e-06,1.0888582083271977e-06,1.1992946148859866e-06,1.2851686805198894e-06,1.3129388769361554e-06,1.3095047459160334e-06,2.971324005042759e-06,1.2040171495537678e-06,7.33645666315861e-07
-1.8888538261684181e-07,3.882985131503594e-07,4.167455561165449e-08,8.205691790104191e-07,1.0321699154851941e-07,1.0737311482428273e-06,8.872739939514127e-07,2.440152512939064e-07,3.307805822870106e-07,1.3935099457370947e-06,1.1458796888529947e-06,1.2021270962191434e-06,1.2900752764870552e-06,1.3196627228304937e-06,1.3767878793674955e-06,2.6806427562077724e-06,1.2242181843809393e-06,7.836053031268119e-07
-1.702833814517403e-07,3.9898333652290385e-07,6.257104952710776e-08,7.609839787088909e-07,-6.302864456656012e-08,1.1045258893662365e-06,8.758130931265154e-07,3.1441686090736506e-07,3.275807682036402e-07,1.4033858184304706e-06,1.1784229354512393e-06,1.18886789709065e-06,1.2840715514667018e-06,1.3207880318755e-06,1.4471215397847461e-06,2.297370311335454e-06,1.228981277030797e-06,8.534866502203079e-07
-1.5952657401665676e-07,3.8688257103041435e-07,6.70457514648061e-08,6.740599650751506e-07,-1.5293235621518036e-07,1.1430164508665571e-06,8.533604589823009e-07,3.4751126093624853e-07,3.1186631075711734e-07,1.3981039949627632e-06,1.1896300641004206e-06,1.1819377306924341e-06,1.2716579806639272e-06,1.3114368655485835e-06,1.5202602111825153e-06,1.903904697540779e-06,1.2200615285588806e-06,9.352226401840472e-07
-1.5041111430916655e-07,3.7116659505807606e-07,6.22014268411583e-08,5.916087793523441e-07,-1.2755597117884477e-07,1.1924674747995963e-06,8.187354807663431e-07,3.4271586903937717e-07,2.948780728303787e-07,1.3844209747510517e-06,1.1884221189500473e-06,1.181953314718912e-06,1.2526360722250461e-06,1.3002520557344168e-06,1.6024854625797569e-06,1.5715536182737282e-06,1.204623352397288e-06,1.031078693064853e-06
-1.3207731230832925e-07,3.696237252404118e-07,5.8065692866457775e-08,5.420895697499001e-07,1.237332021697718e-07,1.255420812266091e-06,7.776787916556724e-07,3.2510229209093494e-07,2.8082288600929506e-07,1.3704900544507214e-06,1.1963256059230884e-06,1.1923310735102107e-06,1.246567326037227e-06,1.311729253816241e-06,1.6701033073992004e-06,1.352651244561321e-06,1.1907011387323286e-06,1.1168007896704597e-06
