0,1,2,3,4,5,6,7,8,9,10,11,12,13,14,15,16,17
-2.8191531177882124e-07,-2.537381869420517e-06,-2.2185565810422317e-07,-3.3349819547206886e-07,2.3488023525561236e-07,5.109968025040201e-07,2.5848339325681297e-07,2.8516045868358795e-08,3.6759356110550835e-07,-2.8049280274675435e-07,-5.095640158751267e-07,-8.584877564458413e-09,2.507714891213849e-07,-5.267341050752961e-07,2.499719154979814e-07,-2.7472036818917197e-07,3.7775428926886276e-07,-4.7472353530186763e-07
-2.911010859833887e-07,-2.9328595861111024e-06,-2.884387752738558e-07,-3.6055299708983695e-07,3.224622118833604e-07,4.7473756298397687e-07,2.0563305258585444e-07,1.0450527346546957e-07,3.351656264050263e-07,-2.6832680984005545e-07,-2.924837897265814e-07,-1.2912646867682532e-07,1.7312591305654195e-07,-4.0858314511322866e-07,2.8623166288476613e-07,-2.1204382687716084e-07,2.713224487604852e-07,-3.986027618064173e-07
-2.6108079820766234e-07,-3.66847764242386e-06,-3.131174183619284e-07,-3.7243369223386363e-07,3.6228454702500745e-07,4.097432192188327e-07,1.5254369619486938e-07,1.392704383470438e-07,2.867212973924024e-07,-2.1626693824849853e-07,-1.3983178508949021e-07,-1.807717470032737e-07,9.374007875025092e-08,-2.958342064164436e-07,3.0732702424503074e-07,-8.249929882399553e-08,1.7181407445065425e-07,-3.4704843173909136e-07
-1.7615174746581082e-07,-3.2607624935124367e-06,-2.87833259113677e-07,-3.555120107268197e-07,3.171490757562729e-07,3.384391697035803e-07,1.0252479408418403e-07,1.3129270810623565e-07,2.1638318656139827e-07,-1.5630202510025151e-07,9.574671421249816e-10,-6.765094436951382e-08,1.979511212120137e-08,-1.7926705335199168e-07,3.06955914840573e-07,9.215919080228213e-08,7.262782978592169e-08,-3.302569772642363e-07
-1.1939977069366758e-07,-1.4350219675291732e-06,-2.2741724115445644e-07,-2.973155028596546e-07,3.4686527967545516e-07,2.6774465738221514e-07,5.5990878475297843e-08,1.0502410339675185e-07,1.2784099076301154e-07,-1.1833917587093803e-07,1.2108515889058732e-07,-6.296125009458829e-08,-1.0014407063855452e-08,-6.081760730950297e-08,2.6234156735703733e-07,1.9891781930614003e-07,-2.132956998075067e-08,-2.813252024160751e-07
-9.002801903740366e-08,1.1496649791620788e-06,-1.3263556008375982e-07,-2.0801670882658007e-07,3.4913967484732824e-07,1.6476946815663525e-07,1.3615087582772013e-08,6.181280348189414e-08,3.260339914478449e-08,-7.451974338311885e-08,2.6920455578626385e-07,-7.441663325372699e-08,-3.0828890995446846e-09,2.5572475221596804e-08,2.151488900867313e-07,2.280543207332397e-07,-8.044544668811994e-08,-1.9272509997555645e-07
-5.781806557768631e-08,1.7651647040090098e-06,-1.1046801319002742e-07,-1.073273276621239e-07,3.1270113166849933e-07,5.19766683227528e-08,-2.4706701698692714e-08,5.118910900788717e-08,-4.9989759338559e-08,3.685985309786891e-09,2.575090627289679e-07,-7.743115847675487e-08,3.051738821366738e-08,6.637345108606358e-08,1.446715072790084e-07,1.979987273556306e-07,-1.0927184171351946e-07,-1.0122595436967461e-07
-2.984614899268526e-08,2.2475694952489217e-06,-1.1258958977602485e-07,-2.617282545678841e-08,2.707202430863576e-07,-4.384440261116215e-08,-6.014407134563328e-08,8.490462663329548e-08,-1.0659908830385033e-07,4.736445455898381e-08,1.581027959659785e-07,-1.5585807611330276e-07,-1.3509700165018102e-08,1.3145839018383984e-07,5.891912786325753e-08,1.215149669161117e-07,-1.5009092127772013e-07,-1.3481453891478793e-08
1.4449901105537114e-08,4.227862835134225e-06,-8.124395504613283e-08,3.426184301514411e-08,1.683075000902171e-07,-1.2410545051322605e-07,-9.471442634101482e-08,5.873799860260481e-08,-1.1823870108166188e-07,9.49886196410745e-08,1.187652117584686e-07,-1.5945905716758139e-07,5.653943098899895e-09,1.7647902858462375e-07,-1.572330132938996e-08,9.82033364533859e-08,-1.3565887703036194e-07,5.445201525643464e-08
7.09526300810574e-08,4.870706141575667e-06,-5.7351539393048505e-08,8.473163957575213e-08,6.233932547938746e-08,-1.90855514134797e-07,-1.2507383554141754e-07,2.0775715260573565e-08,-1.405644778827027e-07,1.2382238928794545e-07,3.877086407538247e-08,-1.1108588640776645e-07,2.7494050345944737e-09,2.017191213150509e-07,-1.061124051756475e-07,9.049709348371769e-08,-1.0723008649899869e-07,1.1177255587400386e-07
1.3607592049699802e-07,3.03891979966664e-06,-9.823493784545007e-09,1.4709789840586064e-07,-3.420482204514066e-08,-2.4157510140059887e-07,-1.4552200940620003e-07,-2.371860261237053e-08,-1.7777262042472406e-07,1.1617288185119043e-07,-3.58073865552528e-08,-8.862928071346051e-08,1.4107467674114647e-08,2.126412604452274e-07,-1.4150149415120733e-07,7.268589350344965e-08,-8.191083616831771e-08,1.8751426126927703e-07
1.9106351871953942e-07,1.3371481868760743e-06,8.585664284605396e-08,2.481645831955231e-07,-1.7922225724442096e-07,-2.7896279882404145e-07,-1.4947780734096623e-07,-8.384733800427151e-08,-2.0983665686859623e-07,1.1554366910197272e-07,-1.7957236124387386e-08,-6.509190093204548e-08,-4.356191232172069e-08,1.8673916904111603e-07,-2.1915155175560383e-07,3.72663972889178e-08,-9.246858664834992e-08,2.579347494355029e-07
2.356943174010401e-07,5.568037319747744e-07,2.2820333278645446e-07,3.599832404775228e-07,-3.6194873057849474e-07,-3.066218940935358e-07,-1.3153471499066916e-07,-1.254756326400537e-07,-2.0013001135848083e-07,1.337928096174334e-07,1.6017867266244106e-08,5.4641818609327916e-08,-1.0352374079245637e-07,1.5344037066231205e-07,-2.7082369990890575e-07,-4.997903092613463e-08,-9.779524289975211e-08,3.2741259235694463e-07
2.4193581736293157e-07,-4.971096260583634e-07,4.2473928772497554e-07,4.32270212343831e-07,-5.669970062419528e-07,-3.279849923393658e-07,-9.199392872130515e-08,-1.6330125311735258e-07,-1.6375098615012714e-07,1.6875274775382426e-07,2.5678432349893143e-08,2.2314442911651991e-07,-1.0654872670628476e-07,1.284097534973683e-07,-3.1017946631132247e-07,-1.1149186226230605e-07,-7.544436520877144e-08,3.7820059598944616e-07
2.1131934712356684e-07,-1.891949399233056e-06,5.376920695395744e-07,4.1119801828813307e-07,-7.590529993111832e-07,-3.451312190986362e-07,-2.8146959539570976e-08,-1.8091429404072175e-07,-1.2263629697257763e-07,1.6805536181108973e-07,1.5815796305337843e-08,3.995490829606763e-07,-1.619329125468964e-07,9.820450642256934e-08,-3.673462875525458e-07,-1.612057225184555e-07,-1.4439951229105256e-08,3.9593131217447467e-07
2.0584949544645632e-07,-2.970277289358889e-06,5.662831703846212e-07,3.4312182502596836e-07,-8.454234093462993e-07,-3.5932617525664905e-07,6.252355274568014e-08,-2.0877170175534106e-07,-7.678946299085028e-08,1.420685762563158e-07,-2.6262998898403266e-08,5.037319500867787e-07,-1.4828650837488545e-07,9.019859080669403e-08,-4.007294038697626e-07,-2.4535763624565075e-07,7.256708307784241e-08,4.26171334408313e-07
2.0786828024706286e-07,-2.5785679838867217e-06,5.946217587875092e-07,2.8832173154257734e-07,-9.205056878741171e-07,-3.722183964118732e-07,1.590784945647292e-07,-2.586025028505307e-07,-2.6777109746391087e-08,1.536085503963663e-07,-8.031950234006246e-08,4.11910692610066e-07,5.446630065363691e-08,5.116303996492797e-08,-4.2610855375886914e-07,-2.9466451698419124e-07,1.520574666960603e-07,4.483356699364485e-07
2.1880391795807076e-07,-2.2340107889412072e-06,6.379949278134163e-07,2.52356353522288e-07,-9.95467141356002e-07,-3.863657863693553e-07,2.5183701906292994e-07,-3.228724513992218e-07,7.783594226120152e-11,2.0505072040699691e-07,-1.298040904231925e-07,3.815878936168112e-07,2.6064795503939644e-07,-3.751690139590443e-08,-4.4015687953950197e-07,-3.396355466029064e-07,2.17976480400514e-07,4.633360281006704e-07
2.335598348327983e-07,-1.417951125248908e-06,7.213765016353704e-07,2.3294726658642046e-07,-1.1489386367387664e-06,-4.053749830085357e-07,3.09403066000032e-07,-4.0096198791978283e-07,9.388569603148925e-09,2.7039535646631893e-07,-1.7059459370529562e-07,4.472623564378696e-07,2.7724444513877305e-07,-2.0350706304704451e-07,-4.579277529560324e-07,-3.9370261172383643e-07,2.678578813897147e-07,4.811117745499913e-07
2.391708300261922e-07,-3.0276792458118445e-07,8.091262231195085e-07,2.179984639978729e-07,-1.2400481574966045e-06,-4.335147873156247e-07,3.0493283359720415e-07,-4.774781906205177e-07,1.1764702728752847e-10,3.3189547050396314e-07,-2.0674099732885358e-07,5.545067258775345e-07,2.6257598498768717e-07,-3.900765673360658e-07,-4.3514288413844457e-07,-4.475032801724846e-07,2.962472239653764e-07,4.614030483905003e-07
2.4189660414700525e-07,1.1771368239386976e-06,7.25065385035617e-07,1.301995204157731e-07,-1.222283810181412e-06,-4.7387626063757715e-07,2.8037648441016245e-07,-5.481958200161525e-07,-2.7933204771922236e-08,3.926482997473894e-07,-2.516318340366951e-07,7.230722079803561e-07,2.928059345184211e-07,-5.767742186763579e-07,-3.8373016915919263e-07,-5.130711358947095e-07,3.0438887431749525e-07,4.5116090918141126e-07
2.5416255340208976e-07,2.04610067694203e-06,6.366353667430998e-07,6.619662766582427e-08,-1.1827792087976745e-06,-5.261096244067242e-07,2.643376374609102e-07,-5.970776365107919e-07,-5.968338166115318e-08,3.6834108000056304e-07,-3.2467511200156656e-07,7.381587368778802e-07,2.89898447274856e-07,-6.37576926592918e-07,-3.210068289439207e-07,-5.727560646281107e-07,3.054740319949717e-07,4.346740501510349e-07
2.5044916170900585e-07,2.1260318850156553e-06,6.26664767101819e-07,2.1376207823829858e-08,-1.1387903035260946e-06,-5.861697294842874e-07,2.58789029919103e-07,-6.333650946319628e-07,-9.362982061532127e-08,3.080887254912421e-07,-4.453698214510617e-07,6.361720622970666e-07,2.5515210680960745e-07,-5.666153293490966e-07,-2.6321991386805027e-07,-6.070244281422356e-07,3.1172903442998007e-07,4.079415922541293e-07
2.73236001650728e-07,1.7764883107185724e-06,6.149481487117526e-07,1.453193471894604e-08,-1.1194812968987436e-06,-6.482119405217154e-07,2.2013927412730325e-07,-6.54668660578875e-07,-1.253555863219318e-07,2.7737277709073747e-07,-6.295528987083386e-07,4.972844029901708e-07,1.1612177224392837e-07,-5.318531193358692e-07,-2.196094872229522e-07,-5.841893271622184e-07,2.829247514591884e-07,4.046658269656739e-07
2.805522731879186e-07,1.141553738169135e-06,6.098959320188932e-07,-9.922144350845038e-09,-1.1690954888013987e-06,-7.062786169561936e-07,1.990650492831622e-07,-6.607990568125864e-07,-1.5046665600617814e-07,2.702018192191053e-07,-8.726748535996635e-07,3.8454085218542424e-07,9.485119238677993e-08,-5.766106864585952e-07,-1.8534551596125882e-07,-5.168798514867762e-07,2.623858744135466e-07,4.031517971277532e-07
2.9732054804321085e-07,2.1944817393556537e-07,6.399643759069919e-07,2.625292731037838e-08,-1.2584747432468142e-06,-7.56795580842657e-07,1.2816789889881378e-07,-6.670496008412903e-07,-1.6948894102202623e-07,2.6198734747541433e-07,-1.1488383740436148e-06,3.357122897665227e-07,1.389457000164096e-07,-6.620053715797442e-07,-1.6363942140298084e-07,-4.631070017218899e-07,2.53458227560835e-07,3.965423632178166e-07
3.511493101328309e-07,-1.0408212331047912e-06,7.175352126361071e-07,6.80113921477514e-08,-1.3738481549553065e-06,-7.99815666808421e-07,5.346243327149353e-08,-6.675310568514486e-07,-1.8436146563144513e-07,2.5544640902442687e-07,-1.4329089539007523e-06,3.5757251057554744e-07,2.216151522742151e-07,-6.391503672433181e-07,-1.3413719238547552e-07,-4.2558736427336856e-07,2.3556990877195133e-07,4.607917915229827e-07
3.661025071336786e-07,-2.494729922919148e-06,8.080002119908153e-07,2.960942779706679e-08,-1.4846910528830455e-06,-8.381065282049962e-07,-6.2762279777139834e-09,-6.697648683876665e-07,-1.988414729239377e-07,2.4321844462424745e-07,-1.6584067429478536e-06,4.256261792329258e-07,2.5615281367700613e-07,-5.126131996193243e-07,-1.3191955016973544e-07,-3.5108533126560566e-07,2.1335416156709236e-07,5.172543993412455e-07
3.698622500060056e-07,-3.7161055455574773e-06,8.812158566614636e-07,-2.0852158421848214e-08,-1.5774750756713728e-06,-8.759919389753073e-07,-8.210420876679642e-08,-6.813290838353978e-07,-2.1877252304086472e-07,2.4600350380367053e-07,-1.7780312551103815e-06,4.739398660003477e-07,3.713606113659139e-07,-3.52036563449292e-07,-1.5662661972704823e-07,-2.4253084732186986e-07,1.7261728002325778e-07,5.255246390261359e-07
3.660729342747152e-07,-4.0760714525750625e-06,9.132287498728035e-07,-6.640932934228133e-08,-1.6466528564194534e-06,-9.163028819742959e-07,-1.3536931660291422e-07,-7.035481289744501e-07,-2.489987021703125e-07,2.91504395032438e-07,-1.9682417407551962e-06,5.114306743140796e-07,5.344789874706276e-07,-1.8791945848547937e-07,-1.9633491309259046e-07,-1.6700814188557318e-07,8.568562319355235e-08,5.611067166367199e-07
3.293609985263979e-07,-3.136296559266555e-06,8.931898224264048e-07,-1.1283884932759254e-07,-1.6845716229297312e-06,-9.600005745457953e-07,-1.8007007127452215e-07,-7.414576850165863e-07,-2.8992564550215044e-07,3.8316389351201435e-07,-2.1761826686351174e-06,5.441017534707683e-07,7.027443125703459e-07,-2.9094346641182494e-08,-2.5560793450044106e-07,-1.4442452402384175e-07,-3.57799579096367e-08,5.667156416894797e-07
3.3644728390626105e-07,-8.875261133961939e-07,8.802427805648217e-07,-1.646517049260946e-07,-1.7048831878683556e-06,-1.0060093058218273e-06,-2.2315464304534908e-07,-7.959000204766938e-07,-3.3921310229518104e-07,4.238628990799514e-07,-2.2260244614641754e-06,6.26717031077582e-07,8.694076776945992e-07,5.032008426001956e-08,-3.231201352668512e-07,-1.3296079215180922e-07,-1.5862498753066753e-07,5.337890889386525e-07
3.562118025476658e-07,1.8920442326907772e-06,8.989809327502786e-07,-2.480469838684714e-07,-1.7074531515101709e-06,-1.0528574684713618e-06,-2.7682156242281144e-07,-8.531935951833359e-07,-3.910224211274801e-07,4.020353780892323e-07,-2.2062128520513185e-06,7.364938956629977e-07,1.052895872689453e-06,6.912577849235889e-08,-3.948085603880069e-07,-1.4756750402425907e-07,-2.967961617401367e-07,5.25704458877884e-07
3.9485703169500875e-07,4.090665329617007e-06,8.650308298535516e-07,-3.963781363082652e-07,-1.6927448854923068e-06,-1.0973529927509756e-06,-3.204709050047403e-07,-9.116307153732017e-07,-4.370912542928795e-07,3.6459611113901796e-07,-2.1890112078379572e-06,8.591159602529571e-07,1.20093651202612e-06,9.391414134319664e-08,-4.6810329740217083e-07,-1.1313210409153048e-07,-4.271268824254465e-07,5.163212661111899e-07
4.262344854412723e-07,4.689932684252146e-06,8.113158132447155e-07,-5.684551285512637e-07,-1.6639050496315262e-06,-1.1320521574726646e-06,-3.5157886220719414e-07,-9.693963398287137e-07,-4.711750593342102e-07,2.951542386758379e-07,-2.1606496813334987e-06,1.0038894550137588e-06,1.3231139237383386e-06,1.0787048246308834e-07,-5.418373731288168e-07,-1.0080503622762486e-07,-5.341466235982595e-07,4.749118911932956e-07
4.270556777501173e-07,4.382622107366748e-06,6.937237153093029e-07,-6.666039314297349e-07,-1.6218602708929055e-06,-1.134352446670997e-06,-3.7135384771440774e-07,-1.0253376018954327e-06,-4.912550073023745e-07,1.5043760814747576e-07,-2.1097059636867278e-06,1.1477818558319894e-06,1.4291220328022064e-06,1.1881604222062407e-07,-6.051397172505354e-07,-1.208570202127372e-07,-6.234275537091037e-07,4.0054807444073647e-07
3.7504820434625707e-07,3.912374874179478e-06,5.576082888765815e-07,-7.786718081249013e-07,-1.5701663533064642e-06,-1.114139886311206e-06,-3.72287766163054e-07,-1.0795225110019133e-06,-4.990827079777996e-07,-2.702310754161773e-08,-2.044921646471015e-06,1.2889116843224128e-06,1.5196642904722457e-06,8.628327435531573e-08,-6.56223549403872e-07,-1.7994540800267994e-07,-6.920752720808364e-07,3.093525986408796e-07
3.1566438777768794e-07,3.0846843424797044e-06,4.2787164825804883e-07,-8.999217221054799e-07,-1.5151079130044958e-06,-1.0842720470840575e-06,-3.6223599909518293e-07,-1.129069061562644e-06,-4.985597489249548e-07,-2.0656261007969432e-07,-1.9708992633807752e-06,1.418552120393508e-06,1.6165491378710653e-06,1.0398809665196157e-08,-6.976802088293716e-07,-2.6853282679936825e-07,-7.326164149653895e-07,2.2120567431671879e-07
2.88087492741769e-07,4.346929191578866e-07,3.0172861326096115e-07,-9.654297305046427e-07,-1.4646695063600727e-06,-1.0559338696048074e-06,-3.4227423471172665e-07,-1.1729542897911003e-06,-4.943754664244261e-07,-3.102632735521348e-07,-1.8936967962823068e-06,1.5251902014803326e-06,1.7097280227947675e-06,-8.454279690851067e-08,-7.306900877694739e-07,-3.572413586667814e-07,-7.62284619747883e-07,1.3928247419947895e-07
2.7051510435702115e-07,-9.936579838773187e-07,2.2993155746903878e-07,-9.346114342296597e-07,-1.423305217420317e-06,-1.0220256056506593e-06,-3.161155467131662e-07,-1.2072167819139927e-06,-4.905635290937776e-07,-3.9684070455491406e-07,-1.820769119861478e-06,1.588562130827131e-06,1.7861962454772287e-06,-1.8829743242853606e-07,-7.592388414173793e-07,-4.4410919463362206e-07,-7.947071136889681e-07,6.390787096568071e-08
2.6513630088063154e-07,-1.3592890441291972e-06,1.9049297881231183e-07,-8.710972156210642e-07,-1.3936025691867688e-06,-9.899836195838639e-07,-2.8106536507594575e-07,-1.2348187168221248e-06,-4.890930832846755e-07,-4.968035450301383e-07,-1.762243813765717e-06,1.6167444999708902e-06,1.819180209269645e-06,-2.802654527330503e-07,-7.825036456477659e-07,-5.052602895654663e-07,-8.258472231357401e-07,1.7455416728577183e-08
2.150917148790495e-07,-2.188424694385399e-06,1.5825334510483392e-07,-8.669062043123713e-07,-1.3718162155956556e-06,-9.60753523717055e-07,-2.437787814732363e-07,-1.2542679268461077e-06,-4.900264193032235e-07,-5.31090167737762e-07,-1.7213808290645636e-06,1.6166187874376492e-06,1.8194947966301746e-06,-3.654564552559503e-07,-8.004819995119336e-07,-5.334686420902732e-07,-8.616225747693902e-07,-8.457267488287915e-09
1.8985502466862058e-07,-2.6326519419991214e-06,1.5471855754254062e-07,-8.716056197133184e-07,-1.3507241178231525e-06,-9.267433210126492e-07,-2.051263218029508e-07,-1.2634877780611098e-06,-4.929243156308552e-07,-5.498713152119376e-07,-1.6966169403143202e-06,1.5906829182693808e-06,1.8009594945185638e-06,-4.371526262292518e-07,-8.118574115960251e-07,-5.39973490976031e-07,-9.007016289844592e-07,-1.3872624788728487e-08
2.0139638421109046e-07,-2.4823089664575393e-06,1.5784416162887386e-07,-8.941135101036026e-07,-1.327272611286603e-06,-8.901647967227866e-07,-1.6720695926168353e-07,-1.2640846655656885e-06,-4.973292753995921e-07,-5.870215864390458e-07,-1.683041675253208e-06,1.5540593112807133e-06,1.7776508604234182e-06,-4.869582931187783e-07,-8.158390223115705e-07,-5.275446593903324e-07,-9.382197229524277e-07,9.776443567209141e-10
1.9293225007872385e-07,-2.202811233775869e-06,1.5957484343698815e-07,-9.362605457217383e-07,-1.2972013522551378e-06,-8.50980034870455e-07,-1.3489495302408234e-07,-1.2569358522446932e-06,-5.02257145048021e-07,-6.253820534074936e-07,-1.6699279911127332e-06,1.523457984075518e-06,1.7607764591301326e-06,-5.057537726527208e-07,-8.153647968731322e-07,-5.034708969622372e-07,-9.721809182975824e-07,2.4713269905496763e-08
2.1095093731344007e-07,-2.517208767407656e-06,1.579802307170438e-07,-9.739685322855076e-07,-1.2580770060108711e-06,-8.087235583114772e-07,-1.0724282396613962e-07,-1.244097638347422e-06,-5.062926637683168e-07,-6.752083705778361e-07,-1.6539882382177142e-06,1.5044357551603448e-06,1.7487329362789306e-06,-4.975055710778295e-07,-8.093647993997471e-07,-4.692075191094508e-07,-1.0009277907718361e-06,5.2490102473434363e-08
2.3314195888344635e-07,-3.168164565179874e-06,1.2467805626619873e-07,-1.013213715166458e-06,-1.2110604139908672e-06,-7.650220081659423e-07,-8.443640220631939e-08,-1.2282797676341076e-06,-5.081694337813848e-07,-7.196910955056365e-07,-1.6359560882218613e-06,1.5016149953793018e-06,1.7396430600958724e-06,-4.7137657565415205e-07,-8.009381002682557e-07,-4.252700640010728e-07,-1.0164326994046751e-06,8.090611424484121e-08
2.1713063993893208e-07,-3.6818670741587857e-06,1.0537035202274056e-07,-1.0525062354124533e-06,-1.1575828140666152e-06,-7.194596449290995e-07,-6.531806071803826e-08,-1.212607679000528e-06,-5.066915779961093e-07,-7.365152102441178e-07,-1.618865419181576e-06,1.5194044461962406e-06,1.7179555716738564e-06,-4.4071715043578207e-07,-7.84092534874521e-07,-3.724650416683763e-07,-1.0181570413359553e-06,1.125704276617469e-07
2.0329672146050925e-07,-3.903155365984724e-06,1.136592577115381e-07,-1.0777272250212765e-06,-1.1043826710507098e-06,-6.721610445140061e-07,-4.666287713428747e-08,-1.2010686963639709e-06,-5.006929700121382e-07,-7.372951029303252e-07,-1.6088261284145655e-06,1.555071121982518e-06,1.6990470789118225e-06,-4.090966151707282e-07,-7.597188772938086e-07,-3.1005552395315736e-07,-1.0116832562117021e-06,1.5236376630597887e-07
1.8107898206257143e-07,-3.984501543260127e-06,1.853942791349886e-07,-1.0779287387581459e-06,-1.059418091414981e-06,-6.250316372933109e-07,-2.6329436897466312e-08,-1.1949996328862806e-06,-4.902134070178597e-07,-7.221714485265159e-07,-1.6141150866193164e-06,1.6067015033589044e-06,1.6827299169952253e-06,-3.6550234768355975e-07,-7.319782098654255e-07,-2.382463737063335e-07,-9.950312659379126e-07,2.0516055519122808e-07
1.823960748173926e-07,-4.292741139313507e-06,3.250228301938823e-07,-1.048313013664177e-06,-1.0305208845184855e-06,-5.817275090299635e-07,-5.155651402206476e-09,-1.1964997573034766e-06,-4.773353248280948e-07,-6.844436641264787e-07,-1.6441100838100124e-06,1.668836908613704e-06,1.666317629439295e-06,-3.2025733323613457e-07,-7.025133120179007e-07,-1.5932825939865756e-07,-9.663467079971622e-07,2.779838665057991e-07
2.2634030987690469e-07,-5.129048197352757e-06,3.817103468283969e-07,-9.885715686085838e-07,-1.0239262298969581e-06,-5.463832256118308e-07,1.5240759104985045e-08,-1.2057591610119736e-06,-4.6466249827808493e-07,-6.325586919235787e-07,-1.705950738194958e-06,1.7320271938728539e-06,1.6464047036719223e-06,-2.685774907398433e-07,-6.766359307988298e-07,-7.650554235307887e-08,-9.614838094156662e-07,3.7122398502263305e-07
2.1953381163869134e-07,-6.5220918387409895e-06,4.0808603249634363e-07,-9.002064171855887e-07,-1.0406539305924858e-06,-5.209755895702487e-07,3.6017839827177407e-08,-1.2208874021811e-06,-4.531626667290085e-07,-5.624018016738624e-07,-1.7983719746950987e-06,1.7873021316718469e-06,1.619017135452007e-06,-2.3844095462492093e-07,-6.563519605948631e-07,7.28115791201857e-09,-1.008244499513613e-06,4.823059980931793e-07
1.6730158907045113e-07,-8.269834924319814e-06,4.037203630257043e-07,-7.810736147172167e-07,-1.0769390374668243e-06,-5.061922417184844e-07,5.962873861833896e-08,-1.2389036038962601e-06,-4.4279608115047127e-07,-4.766819816026554e-07,-1.9168267450111816e-06,1.8310488072760087e-06,1.587862461670055e-06,-2.9704950910147396e-07,-6.468730253047831e-07,8.818915666342281e-08,-1.042801245308025e-06,6.017438574836598e-07
1.8695129149575387e-07,-9.838309729564966e-06,4.7667150093860174e-07,-6.402077975706292e-07,-1.1285803956506266e-06,-5.029354948598285e-07,8.488140456616504e-08,-1.2577799941353714e-06,-4.3528491580392395e-07,-3.8829122035015185e-07,-2.045556227510824e-06,1.8577338698105453e-06,1.555243625477681e-06,-3.979746440424877e-07,-6.525148564794586e-07,1.6121935367378228e-07,-1.1658938575154591e-06,7.183083171112074e-07
2.5132006129156935e-07,-1.0554008612158622e-05,5.872397455892272e-07,-5.013280737580709e-07,-1.1939450776010339e-06,-5.11758157747098e-07,1.0635380382832863e-07,-1.2783328624708215e-06,-4.347540507152281e-07,-3.057187130179019e-07,-2.1696846697453766e-06,1.862871808875377e-06,1.542583000852532e-06,-4.71996753743235e-07,-6.783054233056814e-07,2.2197080783100445e-07,-1.3048240262017837e-06,8.161689295665184e-07
3.089665882554279e-07,-1.0589588025992402e-05,6.428856889048812e-07,-3.8165202725391255e-07,-1.2699576486420309e-06,-5.321894149121112e-07,1.1935827930990896e-07,-1.3011752639859939e-06,-4.449995212339842e-07,-2.3776644975956242e-07,-2.243302998921359e-06,1.846685199739791e-06,1.5533126219503508e-06,-5.50594836897184e-07,-7.295928892731425e-07,2.697123935710247e-07,-1.4257249480820826e-06,8.73400318310709e-07
3.2766614305612743e-07,-9.532179374250628e-06,6.463146259287127e-07,-3.535616543673254e-07,-1.3507649901522433e-06,-5.61743590076363e-07,1.2286551088918957e-07,-1.327226149181438e-06,-4.671450395045381e-07,-1.8463488233979183e-07,-2.2555690673100655e-06,1.810762194241225e-06,1.5495658688247092e-06,-6.657991740666058e-07,-7.908686456678883e-07,3.0749116773458335e-07,-1.5074609971103318e-06,9.259666666139498e-07
3.6613862348477284e-07,-7.869355190436052e-06,5.942512587144925e-07,-3.7078702426734377e-07,-1.4299604955952308e-06,-5.973585653046445e-07,1.1657012754080669e-07,-1.3618955366716416e-06,-5.00355092840622e-07,-1.5516249576579896e-07,-2.2176724569515784e-06,1.7588373174478017e-06,1.53854841800527e-06,-7.767725529236086e-07,-8.484352988527213e-07,3.3873614646153414e-07,-1.5716612568629332e-06,9.314846321480285e-07
4.0488109945909914e-07,-7.085538380033991e-06,5.246365945858577e-07,-3.501572766839639e-07,-1.503095421667225e-06,-6.372945248982642e-07,9.822679810581827e-08,-1.4023330911040785e-06,-5.432527393806287e-07,-1.4669405570511278e-07,-2.1413254963947227e-06,1.6955082885402538e-06,1.5149623100627624e-06,-8.69232376274016e-07,-8.965569425106601e-07,3.6545338697286417e-07,-1.6222957909723238e-06,9.207975599109335e-07
4.5206489530105765e-07,-5.980454749451356e-06,5.187126400102401e-07,-3.4863670115309604e-07,-1.5673065486423371e-06,-6.839521709360451e-07,6.692060153488365e-08,-1.4489104972875263e-06,-5.931738771793996e-07,-1.5824800453547998e-07,-2.0797591353314614e-06,1.6260598999556949e-06,1.4776712477038345e-06,-9.002432314617942e-07,-9.280984199581485e-07,3.8915329058595747e-07,-1.6598563820571933e-06,8.969540341229215e-07
4.817981720147992e-07,-4.43627864203898e-06,5.305471961562945e-07,-4.174945107772954e-07,-1.6181370593270848e-06,-7.32493188008289e-07,2.783125127507325e-08,-1.4992194461427316e-06,-6.448717301982626e-07,-1.869523147644872e-07,-2.033311274044823e-06,1.5554293109617153e-06,1.44274060152853e-06,-9.089400945637231e-07,-9.454417221795792e-07,4.1200873188558623e-07,-1.6933952550378272e-06,8.693988306722663e-07
5.070247274017556e-07,-3.3782290126055073e-06,5.265115391457781e-07,-5.240075868290327e-07,-1.6492387011796234e-06,-7.728288674480755e-07,-9.13767204682733e-09,-1.5450305346481062e-06,-6.918229986564727e-07,-2.2447955884498227e-07,-1.988652840491017e-06,1.484492365587331e-06,1.3744896775368593e-06,-9.520667653298514e-07,-9.423228595321221e-07,4.352051251120125e-07,-1.712954497230622e-06,8.461316431712822e-07
4.777228214892056e-07,-2.3253080495456136e-06,5.161888250137838e-07,-6.075456575800055e-07,-1.6552806745592173e-06,-8.01965889718017e-07,-3.563544716494984e-08,-1.5804571156739383e-06,-7.293467331428971e-07,-2.848720463517046e-07,-1.8911575142012817e-06,1.4078962656126026e-06,1.3127475847204953e-06,-9.865776936364179e-07,-9.319436243631636e-07,4.572734039708517e-07,-1.6969545668054815e-06,8.294824823721424e-07
4.3022893914665494e-07,-1.5251900781418397e-06,4.6585050686913573e-07,-6.906360617792637e-07,-1.6335540883980212e-06,-8.112106329887664e-07,-4.8299953164733896e-08,-1.6000197896154129e-06,-7.559383015330887e-07,-3.283919169009412e-07,-1.7833877432941073e-06,1.3152378066118753e-06,1.2019247265627973e-06,-1.022136889779055e-06,-8.823901015654461e-07,4.7527576841219567e-07,-1.66421632630625e-06,8.182216412680376e-07
3.7692409604537566e-07,-9.77535039647476e-07,3.876175542137418e-07,-7.88592324630833e-07,-1.583256418291022e-06,-8.042969906995251e-07,-4.744471611479246e-08,-1.5999509233955835e-06,-7.721908577844345e-07,-3.54933847485084e-07,-1.6142238339882328e-06,1.1895576091657886e-06,1.064314869926057e-06,-1.070251810352253e-06,-7.977259090939728e-07,4.871671725086403e-07,-1.5837184664153155e-06,8.081675489847119e-07
3.1304741952670475e-07,-5.501922498740643e-07,3.074617346931115e-07,-8.957793298588586e-07,-1.5060981844598568e-06,-7.94880047583335e-07,-3.623219674351422e-08,-1.5720378078994761e-06,-7.80131198611814e-07,-3.327687397428456e-07,-1.4059754900685214e-06,9.225791419946129e-07,1.022782752739995e-06,-1.159647661065761e-06,-7.334934815928915e-07,4.928060327674289e-07,-1.5258178680344635e-06,7.940611949334893e-07
2.7236421101172867e-07,-4.129063604154884e-07,1.8911565260434664e-07,-1.0089063763491159e-06,-1.4088992016473673e-06,-7.86062184146448e-07,-2.1819425572360013e-08,-1.5312516844376798e-06,-7.837663834738608e-07,-1.9484808103254592e-07,-1.3154936123205129e-06,6.467202709704456e-07,9.731616277810066e-07,-1.2807315954900192e-06,-6.70921717805735e-07,4.933348890817178e-07,-1.486563652681968e-06,7.702017341343823e-07
2.4838084772113305e-07,-4.705655843685117e-07,6.765259104000177e-08,-1.117123490341655e-06,-1.3035156690449695e-06,-7.886821592724876e-07,-1.3563593288278857e-08,-1.4857145443131585e-06,-7.882319882642964e-07,-7.93187387540404e-08,-1.277241335011853e-06,3.935815833663874e-07,9.1029795169458e-07,-1.4351030363087048e-06,-6.060418857498398e-07,4.914021421464481e-07,-1.4416399723291964e-06,7.327858184525143e-07
2.362692962403424e-07,-7.409955809927112e-07,-5.055406754596024e-08,-1.2177761292103358e-06,-1.2022705003093843e-06,-8.05855423346975e-07,-1.735093712566834e-08,-1.4403467289816092e-06,-7.968437850823765e-07,2.2242158054381857e-08,-1.0121612539038299e-06,3.583666323757077e-08,8.558025359011446e-07,-1.5902699194386613e-06,-5.420104793943989e-07,4.911157586413688e-07,-1.4196007527527778e-06,6.823293119198151e-07
2.2249351449718872e-07,-1.265926103013941e-06,-1.5516971719667744e-07,-1.3121333897487064e-06,-1.1138992311595695e-06,-8.308578703056285e-07,-3.272778858344564e-08,-1.4025116905149526e-06,-8.09420343577856e-07,1.0196030466720641e-07,-7.122280420305117e-07,-3.397950757619662e-07,8.037445786054503e-07,-1.6482356023429634e-06,-4.830731478375933e-07,4.965215401153661e-07,-1.382366184955793e-06,6.226114080689285e-07
2.0154828148515158e-07,-1.9005478049263134e-06,-2.5202833477846844e-07,-1.395544510669587e-06,-1.0439761258661244e-06,-8.641207160528471e-07,-5.63196460559361e-08,-1.3719023334979218e-06,-8.238645371025191e-07,2.847838604191841e-07,-5.486488788791198e-07,-5.113659501809796e-07,6.872677343826774e-07,-1.5836044294716216e-06,-4.218823029216246e-07,5.086666211660125e-07,-1.3500288803800107e-06,5.592335254472837e-07
1.9091081512481708e-07,-2.423467163524581e-06,-3.451328938874113e-07,-1.4682159499370576e-06,-9.96614770772441e-07,-9.033209054489588e-07,-8.576593021276288e-08,-1.3505406881064443e-06,-8.382336293782141e-07,5.427005716849826e-07,-4.3795692032432943e-07,-5.729233931033061e-07,5.815204260915856e-07,-1.5932338915065065e-06,-3.538448673403928e-07,5.244954974331951e-07,-1.2610402928223243e-06,4.98391747881227e-07
1.9018947989685484e-07,-2.647097496809811e-06,-4.278741060358739e-07,-1.5290809492471076e-06,-9.732367745070806e-07,-9.460045750566339e-07,-1.1885909278818013e-07,-1.3404298145229724e-06,-8.506063618314572e-07,7.186919866589126e-07,-3.1715639234012555e-07,-6.241181585778564e-07,4.54510412357847e-07,-1.5257311616502538e-06,-2.6086906121188075e-07,5.392563576559879e-07,-1.191357932315876e-06,4.4699053249411824e-07
1.9362354010258288e-07,-2.4410983522129506e-06,-5.101062625800365e-07,-1.5753967402116932e-06,-9.703589602647103e-07,-9.906603333879552e-07,-1.514782564608089e-07,-1.3466112086197244e-06,-8.584283167846814e-07,8.117834342110063e-07,-1.1823643066432137e-07,-7.692210777346402e-07,3.20866423970347e-07,-1.4084477927979636e-06,-1.6401291134323717e-07,5.487872406540076e-07,-1.0852609406016524e-06,4.1065308511084846e-07
1.9630457174970324e-07,-1.9268792586490518e-06,-5.673575474497998e-07,-1.6068731786222036e-06,-9.803750474026758e-07,-1.0329055104169333e-06,-1.7944481949845065e-07,-1.3587712893929254e-06,-8.596748074912737e-07,8.493652824000479e-07,1.0638067275676733e-07,-9.112880992208668e-07,2.0836941735561186e-07,-1.2855768635557583e-06,-6.96365495960401e-08,5.497366388957391e-07,-9.627106366069806e-07,3.904445999150193e-07
1.8968213900129222e-07,-1.289728104950896e-06,-6.061872792059196e-07,-1.625963799487046e-06,-9.942267904030913e-07,-1.06945482633992e-06,-2.0141542847414083e-07,-1.3743969705482346e-06,-8.542260703103648e-07,8.86507049766212e-07,3.49825226287032e-07,-9.674594579238657e-07,1.185858807473641e-07,-1.1788724424125227e-06,1.8072125337121477e-08,5.399562837836081e-07,-8.386812223039428e-07,3.828283759727269e-07
1.6812128360592602e-07,-7.642171075922858e-07,-6.445010644228871e-07,-1.6360464726049875e-06,-1.002404743722124e-06,-1.0982120567462613e-06,-2.1736458960581147e-07,-1.391884522408115e-06,-8.429019792663739e-07,9.058850843779605e-07,4.207182725733791e-07,-9.61563024664631e-07,1.0253847536570075e-08,-1.1635298115852822e-06,5.409224074351263e-08,5.202785698840437e-07,-7.204884607022473e-07,3.823335111109924e-07
1.3728735570072322e-07,-5.003850378202359e-07,-6.890803691800329e-07,-1.6313515812416816e-06,-9.952349053010231e-07,-1.1164789230505519e-06,-2.251314727248774e-07,-1.4032647741884946e-06,-8.25605950681233e-07,9.043216459481486e-07,3.4935331227175447e-07,-9.088808499166675e-07,-4.8599591559047195e-08,-1.215610300193374e-06,1.1732863567928427e-07,4.948826833616795e-07,-6.258397982828572e-07,3.843091060414292e-07
1.0169376707397548e-07,-4.2935900533135115e-07,-7.43081438650358e-07,-1.6194861831692093e-06,-9.662052005482941e-07,-1.1216688471627796e-06,-2.2162533880875535e-07,-1.4043943256527514e-06,-8.017942681431447e-07,9.327416301779055e-07,2.660332258511919e-07,-8.466245263037139e-07,-1.628193801756551e-07,-1.2705221399197333e-06,1.8887694596846554e-07,4.6864322200859594e-07,-5.626166836501237e-07,3.8524835863791874e-07
5.8036561731935173e-08,-5.436416849212862e-07,-8.074051237822783e-07,-1.6050079333027816e-06,-9.169372379670972e-07,-1.1135626069675707e-06,-2.0751198995421475e-07,-1.3920996938565272e-06,-7.726823615966079e-07,8.830329125115668e-07,1.6531351294844568e-07,-7.608587524445609e-07,-2.2543109098565594e-07,-1.3620027794707837e-06,2.5448409355689977e-07,4.4394575026374884e-07,-4.916199209416001e-07,3.8235937858724367e-07
1.2796592779694709e-08,-8.790157809100688e-07,-8.780639348824755e-07,-1.590901900767309e-06,-8.574719383468892e-07,-1.0952212354516737e-06,-1.878989631169362e-07,-1.3652854888722347e-06,-7.415542032829786e-07,7.972628866201035e-07,6.407446709885676e-08,-7.262627641505601e-07,-2.613700836708295e-07,-1.453043965065592e-06,3.1809961355382206e-07,4.203450964937384e-07,-4.0833223304921447e-07,3.7455457785170937e-07
-2.782484516304129e-08,-1.5485739952372235e-06,-9.62919515212666e-07,-1.589113971291452e-06,-8.002262627426101e-07,-1.0713994211599505e-06,-1.6803709868446104e-07,-1.327156122443357e-06,-7.116188340515196e-07,7.083269865190551e-07,3.2007488848076624e-08,-7.313634609027805e-07,-3.0281713065958876e-07,-1.5398770507155678e-06,3.5619806166278733e-07,3.962400772526801e-07,-3.4478962129475567e-07,3.6246353926396745e-07
-6.079894638807344e-08,-2.4409210598348904e-06,-1.0561161277896622e-06,-1.5973442042465685e-06,-7.539005305228169e-07,-1.0467165748024577e-06,-1.5095224752374716e-07,-1.2874825486439047e-06,-6.846927983570303e-07,5.970690381803129e-07,3.463311084041285e-08,-7.372593170219695e-07,-3.3275388485315257e-07,-1.6051541729820124e-06,3.844914132091663e-07,3.69894930733473e-07,-3.146341607505235e-07,3.470602336572966e-07
-8.290038418088574e-08,-3.1913450473087277e-06,-1.127496891973648e-06,-1.611075520722801e-06,-7.223997426689046e-07,-1.025145439950179e-06,-1.3928173523842856e-07,-1.2511820558477396e-06,-6.619031062647763e-07,5.273587646864235e-07,2.428373777958298e-08,-7.389610708811064e-07,-4.206495142028846e-07,-1.6523398005600747e-06,4.138695642778271e-07,3.3981630620030876e-07,-3.0188827251590357e-07,3.281204931599235e-07
-9.532364337499617e-08,-3.5306010869260023e-06,-1.1867600638539323e-06,-1.6300416684360892e-06,-7.063344498398913e-07,-1.0095774599861741e-06,-1.3574988778947557e-07,-1.2224888461027433e-06,-6.438876038861957e-07,4.86083902109363e-07,4.918406196207165e-08,-7.24854898409703e-07,-5.356973819764678e-07,-1.7098696531747735e-06,4.5688061990455095e-07,3.0623641550981535e-07,-2.734361620271878e-07,3.0487599995668306e-07
-1.010858156222951e-07,-4.614632693770561e-06,-1.2369573746660177e-06,-1.648972885420785e-06,-7.034584719528656e-07,-1.0008124804350945e-06,-1.40348597446968e-07,-1.2037992420682008e-06,-6.296689293215246e-07,4.5029859457248716e-07,8.259577218505402e-08,-6.953069259775977e-07,-6.167197630060285e-07,-1.7647005260635883e-06,4.829128724182802e-07,2.719467321979335e-07,-2.3376506460046933e-07,2.776790842163116e-07
-1.0021364860478054e-07,-6.3990591282043105e-06,-1.26101440249879e-06,-1.6590597608136908e-06,-7.092984827383213e-07,-9.976137880647947e-07,-1.4958772596468583e-07,-1.1921656501195129e-06,-6.167993818228173e-07,3.995866287947467e-07,1.1074363880972555e-07,-6.533048102798434e-07,-6.48191528081896e-07,-1.8082148493751842e-06,4.980723766793653e-07,2.410134388367572e-07,-1.7847857390625691e-07,2.4810939535781e-07
-9.60904700389908e-08,-7.050650306756883e-06,-1.2730883633171185e-06,-1.6641740841144794e-06,-7.195775096859838e-07,-9.983333096960388e-07,-1.5973878506665923e-07,-1.1845341454719273e-06,-6.034433784073537e-07,3.581385423430683e-07,1.4506662658099637e-07,-6.068201853442244e-07,-6.746743164542592e-07,-1.8387612126729984e-06,5.07387611469555e-07,2.1642776177825873e-07,-1.3981503656507652e-07,2.183823598690023e-07
-9.270027117760206e-08,-6.883393828159732e-06,-1.2793715098615975e-06,-1.663138797993628e-06,-7.319193033903706e-07,-1.0019824936051773e-06,-1.687395215624614e-07,-1.1788445213677227e-06,-5.894490552501069e-07,3.302883243511509e-07,1.6306742184663088e-07,-5.572230086039567e-07,-6.929176179359566e-07,-1.8317286104427037e-06,4.917819699286615e-07,1.988905112441863e-07,-1.2299084561188433e-07,1.914187613658609e-07
-9.261439898567403e-08,-6.650333671418477e-06,-1.2772230212343725e-06,-1.6563960659409297e-06,-7.45046073717518e-07,-1.0076975302338199e-06,-1.7454142778999038e-07,-1.1727549896712957e-06,-5.752476737756186e-07,3.022905058428407e-07,1.591171648473096e-07,-5.099636365496551e-07,-7.059149639214461e-07,-1.7973012648833087e-06,4.6698305827427254e-07,1.8752151434385386e-07,-1.2901977216235016e-07,1.7077114219492743e-07
-9.573183597334627e-08,-5.9948535624371316e-06,-1.275054673683235e-06,-1.6492064618252605e-06,-7.580785883272582e-07,-1.0143088018844748e-06,-1.7458662942850373e-07,-1.164440754562105e-06,-5.610687236024376e-07,2.924060846529292e-07,1.4302158068555425e-07,-4.702467140429952e-07,-7.235808703945187e-07,-1.7613865980818203e-06,4.4112258091953617e-07,1.7977444879043414e-07,-1.322982544440132e-07,1.58854203481268e-07
-9.9731139879229e-08,-5.012398792634929e-06,-1.2778885018602312e-06,-1.6441857137253952e-06,-7.715380315005499e-07,-1.0209159371164197e-06,-1.680987751849143e-07,-1.154716070728853e-06,-5.475032452318381e-07,2.870311446508908e-07,1.3272925408251567e-07,-4.373747913751371e-07,-7.308447574186116e-07,-1.7253382738361044e-06,4.122701817243688e-07,1.7150703731679022e-07,-1.2338642232642504e-07,1.5515651250392756e-07
-1.0539117026545751e-07,-3.968709857069889e-06,-1.2800524149215954e-06,-1.6460947926194292e-06,-7.872938458883545e-07,-1.026962567290483e-06,-1.5654628552693992e-07,-1.1457795900393093e-06,-5.352571284951218e-07,2.7948807579711515e-07,1.2045035295233572e-07,-4.0442381229292186e-07,-7.301645847221054e-07,-1.6984760118021229e-06,3.8277654764390546e-07,1.5826461275701088e-07,-1.139081853863001e-07,1.5643697124156476e-07
-1.1216019762304442e-07,-3.1379355040281584e-06,-1.2797197059220843e-06,-1.677031611882147e-06,-8.061932470847757e-07,-1.0313634956773303e-06,-1.4103347722000982e-07,-1.1394634461696084e-06,-5.2367056866933e-07,2.7733082981479053e-07,1.1610408270362098e-07,-3.6387405191037303e-07,-7.288931749235818e-07,-1.6857306327310065e-06,3.748024252048909e-07,1.3706279330681283e-07,-1.0470988207427853e-07,1.5794632761163235e-07
-1.1909358706318514e-07,-2.5672426804569476e-06,-1.2797732029927256e-06,-1.7226054368005946e-06,-8.267764390010385e-07,-1.032533097596439e-06,-1.21620974185711e-07,-1.1366743085139595e-06,-5.106923960452112e-07,2.8727781021663615e-07,1.22326596369923e-07,-3.2079809026232507e-07,-7.171027618162345e-07,-1.679271337325116e-06,3.684572015099078e-07,1.0657896403790951e-07,-1.0613988240517786e-07,1.5423895053890733e-07
-1.2774704212087492e-07,-1.7276964083710331e-06,-1.276929467193005e-06,-1.7697312746563749e-06,-8.468492907969812e-07,-1.0297118685874454e-06,-9.969241260969445e-08,-1.1381558826390826e-06,-4.947098720791476e-07,2.701398385107356e-07,8.743442809196528e-08,-2.946718863057526e-07,-6.750369358683258e-07,-1.6745316311014717e-06,3.596525489785066e-07,6.635328161401659e-08,-1.0867448055347873e-07,1.4039347981811092e-07
-1.4210455054188178e-07,-9.278965073119755e-07,-1.271643505744569e-06,-1.8108088212876712e-06,-8.647946393418321e-07,-1.0233143920049752e-06,-7.79515019149657e-08,-1.1488147924391682e-06,-4.750741890535513e-07,1.7437178903807352e-07,1.0721296899172612e-08,-2.6533938760641785e-07,-6.18743373506625e-07,-1.668261705730036e-06,3.5731567116152986e-07,1.7593007367933447e-08,-1.042229955801123e-07,1.1450365127950577e-07
-1.689905239010202e-07,-3.771182176080685e-07,-1.2604744839983252e-06,-1.8194881329520384e-06,-8.79090866624514e-07,-1.0134464615700845e-06,-5.677775418243757e-08,-1.1673655142780353e-06,-4.5039270289547895e-07,1.2699931803709028e-07,-1.1433951932611298e-07,-2.198102040006636e-07,-5.543892119554147e-07,-1.6460493699963717e-06,3.562666251204941e-07,-3.57903930069723e-08,-9.337452230412786e-08,7.926849630895812e-08
-2.1354459408144093e-07,2.1246315793745133e-07,-1.2405221581134306e-06,-1.7973595391097175e-06,-8.891895662671937e-07,-9.989151310687052e-07,-3.298971035016526e-08,-1.1864747842140143e-06,-4.1782318918520036e-07,3.817219735080966e-08,-3.3682826948446076e-07,-1.557450708493937e-07,-4.838694051543771e-07,-1.5933543198187292e-06,3.6212639002480823e-07,-8.820298006973918e-08,-8.554585413037051e-08,4.040298646644071e-08
-2.788773900890893e-07,2.6475216210072735e-07,-1.2308404870257974e-06,-1.73758518717828e-06,-8.987427229800615e-07,-9.782389188510489e-07,-3.4390686435978055e-09,-1.2046692286122052e-06,-3.749816350065596e-07,-9.212632209898048e-08,-3.9309335036930987e-07,-7.02580685642397e-08,-4.1649506866274617e-07,-1.507521778091406e-06,3.7774931740160306e-07,-1.3471295781465628e-07,-8.736766284189793e-08,3.7127462587509696e-09
-3.339877988774938e-07,-1.9858032428953013e-07,-1.1976631471509241e-06,-1.6387674494507497e-06,-9.166320325707853e-07,-9.510010746793286e-07,3.222584310541873e-08,-1.2199695973510832e-06,-3.216635030376196e-07,-1.8622049748622983e-07,-4.384428182866675e-07,7.051915538901082e-08,-3.402714090286118e-07,-1.3899447338457478e-06,4.006844189383835e-07,-1.7148202359302865e-07,-1.013579264030016e-07,-2.5839054503124317e-08
-3.538050502187919e-07,-6.517255201680961e-07,-1.1332427586737773e-06,-1.5014722058620252e-06,-9.528990333470124e-07,-9.180817640768484e-07,7.294670041774058e-08,-1.2307257696338162e-06,-2.5946799273744377e-07,-1.5526967544469973e-07,-6.362834857154109e-07,2.41434107740925e-07,-2.527696166165926e-07,-1.2469807220245917e-06,4.243556936779942e-07,-1.9493153578787142e-07,-1.268497373612692e-07,-4.363128766753982e-08
-3.183608084919976e-07,-1.985372075356511e-06,-1.043050550506744e-06,-1.337198990353912e-06,-1.0134073563156834e-06,-8.818224711939917e-07,1.1736489310066171e-07,-1.2368846949478698e-06,-1.914295894157824e-07,-8.543356068121591e-08,-9.076453158166265e-07,4.267385047247682e-07,-1.6226282666057278e-07,-1.0888453135801934e-06,4.499785278502078e-07,-2.0233851294795782e-07,-1.5174138104163489e-07,-4.632403165335581e-08
-2.6265595848927916e-07,-3.962094122796088e-06,-9.175275310270684e-07,-1.1617571630388424e-06,-1.0978795742479976e-06,-8.466676539837521e-07,1.620522725595259e-07,-1.2381427883216475e-06,-1.2289019646930467e-07,-5.010014184687819e-09,-1.1920774179257652e-06,6.293283335305709e-07,-6.587151795824032e-08,-9.244655794825157e-07,4.730073991461907e-07,-1.9356035221675308e-07,-1.7413057920264228e-07,-3.379004356425675e-08
-2.1658968560078155e-07,-6.038730145816821e-06,-7.697663212644592e-07,-1.0209397647589878e-06,-1.2004226618861743e-06,-8.183662448607045e-07,2.016160600482349e-07,-1.234850131720764e-06,-6.098744466450081e-08,5.683724880234904e-08,-1.4402152641709733e-06,8.211934222688819e-07,3.766282442587748e-08,-7.641577505610404e-07,4.903078589722033e-07,-1.7099312250109518e-07,-1.9378680303698955e-07,-9.044145933766932e-09
-1.667151277849058e-07,-8.201335210039647e-06,-6.155574153349503e-07,-9.591397841596743e-07,-1.3102229727199791e-06,-8.009808386960444e-07,2.3306501528866706e-07,-1.2289790875820546e-06,-1.1482329268874117e-08,9.400332194073173e-08,-1.5541269798699348e-06,9.903971829344756e-07,1.455875256849696e-07,-6.125123116451578e-07,5.012065408714404e-07,-1.3762226943504984e-07,-2.0115752884189777e-07,2.3758925396999486e-08
-1.1717265848360416e-07,-9.291350551545218e-06,-4.686415266360716e-07,-9.698996280939027e-07,-1.414197979794612e-06,-7.946589932003645e-07,2.5825426774465514e-07,-1.222595943276638e-06,2.3586706984765008e-08,1.3208163214154137e-07,-1.6792122474537407e-06,1.1288321659865365e-06,2.569555106073548e-07,-4.696957440805e-07,5.036005354955545e-07,-9.631733553723746e-08,-1.9547661922776204e-07,6.026880977280757e-08
-3.322396688165284e-08,-8.926501067244117e-06,-3.3895475473092097e-07,-9.590020224362634e-07,-1.5027868582392409e-06,-7.967769030527765e-07,2.7992106664391655e-07,-1.216811107730332e-06,4.469679088286133e-08,2.24336285023518e-07,-1.7565149657659547e-06,1.2269149008347363e-06,3.681188691218106e-07,-3.3557021716444226e-07,4.994949326232552e-07,-5.1387494337909965e-08,-1.7784227872858795e-07,9.54661948686441e-08
3.039913826219789e-08,-7.332031633856845e-06,-2.4486290985551434e-07,-8.767111840345615e-07,-1.5741434088597135e-06,-8.046362511967003e-07,2.969763432207142e-07,-1.2152948122203561e-06,5.266126454836389e-08,3.486986528402136e-07,-1.831526047793299e-06,1.2721701041674832e-06,4.7085457242628307e-07,-2.1096107878632056e-07,4.921996941386386e-07,-8.914265555753264e-09,-1.532137259430058e-07,1.2446456729068078e-07
5.978129956161479e-08,-4.82809719020911e-06,-1.8973138819993172e-07,-8.034445780021859e-07,-1.6323951233369309e-06,-8.164364291685913e-07,3.057443159394112e-07,-1.2222583113648082e-06,4.883932460805871e-08,4.5178091185482794e-07,-1.7903114768040384e-06,1.274158776104455e-06,5.618999439666782e-07,-9.81560165603947e-08,4.817085064626821e-07,2.5859571352301755e-08,-1.287977259606685e-07,1.448030591338913e-07
7.993821835715357e-08,-2.1993002154511114e-06,-1.6641333463870352e-07,-8.181795346486454e-07,-1.6831894907449164e-06,-8.306379264708818e-07,3.041046121357287e-07,-1.2395774842113225e-06,3.6412692776845327e-08,5.336256032425653e-07,-1.7205995981283368e-06,1.251446242478155e-06,6.428555615759758e-07,2.0846123086307254e-09,4.704091730834538e-07,5.082351312322343e-08,-1.0836283604088598e-07,1.5698028377627297e-07
1.220783093338934e-07,1.236572925049577e-08,-1.6881516401494265e-07,-8.653829855951174e-07,-1.7319525177210788e-06,-8.458896136547558e-07,2.9189559750310864e-07,-1.2675209714541425e-06,1.9761725998683764e-08,5.764714271713665e-07,-1.6617957276611441e-06,1.2423901736943824e-06,7.136331557729804e-07,9.071361048624478e-08,4.621709113152656e-07,6.635830353557931e-08,-9.230885977381764e-08,1.6218487624459029e-07
1.322084293344848e-07,1.2361615774051701e-06,-1.8712335894407786e-07,-9.193955123152843e-07,-1.7839818858619427e-06,-8.614883483319136e-07,2.687749335188238e-07,-1.3024925340093856e-06,2.7452512808066683e-09,5.886350768245672e-07,-1.547064288650571e-06,1.2569804813838171e-06,7.791819002261891e-07,1.6858430329191872e-07,4.603878957507922e-07,7.349120969194711e-08,-8.433165304667917e-08,1.6032078606531502e-07
1.1573958064835048e-07,1.453298662028308e-06,-2.157262995766947e-07,-9.943503899402414e-07,-1.841935621475643e-06,-8.767804183957932e-07,2.3480343828976075e-07,-1.3433435734785149e-06,-1.1549584319543888e-08,5.802739535885251e-07,-1.4643782103439977e-06,1.3008160053159099e-06,8.397290667500163e-07,2.33743956812738e-07,4.7102530614052586e-07,7.333591860111018e-08,-8.111441407197762e-08,1.50296561496774e-07
7.000745550355834e-08,1.0847458217078134e-06,-2.5269644306377104e-07,-1.03668243780734e-06,-1.9015537533907985e-06,-8.900544105258964e-07,1.9259600856348744e-07,-1.3899997856166514e-06,-2.0206744103041573e-08,5.578038128821456e-07,-1.4189269693446196e-06,1.3832399932572925e-06,8.921490516076783e-07,2.818021518486471e-07,4.99824058780301e-07,6.688653302207003e-08,-7.567381762667655e-08,1.3078730250386748e-07
1.3897017674094512e-08,1.4595649400841432e-07,-2.810276495864715e-07,-1.058306776978202e-06,-1.9514945770875794e-06,-8.989626477639611e-07,1.4623086959087063e-07,-1.4365560211934335e-06,-2.129767869952881e-08,5.035148529552015e-07,-1.3911925111662456e-06,1.500156310805421e-06,9.330862434833682e-07,3.0633884722949773e-07,5.480297287579233e-07,5.4075449429302715e-08,-6.479858835165617e-08,1.0023022197433835e-07
-5.005683376831692e-08,-7.065711534565198e-07,-3.2169278923335633e-07,-1.0646808639316891e-06,-1.978731208535623e-06,-9.020716605914173e-07,9.849780866013188e-08,-1.4787862551780293e-06,-1.518417459630027e-08,4.414279802010365e-07,-1.3965831178115234e-06,1.619895283345859e-06,9.548310725249986e-07,3.004137599017783e-07,6.107694024035971e-07,3.3769887560748124e-08,-4.772190387918444e-08,5.7746833495044274e-08
-1.243113002969221e-07,-1.4508470465512572e-06,-3.748422329048264e-07,-1.0620929343453086e-06,-1.9738799552864577e-06,-8.991035426063479e-07,5.197425313188687e-08,-1.5130881716419408e-06,-3.5839314620220376e-09,3.8071782541725985e-07,-1.4078923607084932e-06,1.7404921196696933e-06,9.563579247892766e-07,2.6136490701658455e-07,6.795446246839508e-07,5.7597661345053825e-09,-2.7353681509893666e-08,5.547208034020473e-09
-1.8729807880061994e-07,-2.565232268759374e-06,-4.320844891261516e-07,-1.0687359200017804e-06,-1.9329809647419517e-06,-8.897716360661275e-07,1.2414286142438834e-08,-1.5342863001763448e-06,1.2742897141957687e-08,3.225438776629671e-07,-1.415323361911376e-06,1.8546753927811364e-06,9.408604101358973e-07,1.9388080211836294e-07,7.445846465187146e-07,-2.7381172698028166e-08,-9.21370668540912e-09,-5.018547256353503e-08
-2.375028880043005e-07,-3.4861221491280122e-06,-4.928469525955641e-07,-1.0755095219415278e-06,-1.8588914618908596e-06,-8.737528504107249e-07,-1.2536274119170933e-08,-1.5391520138174689e-06,3.4005078447191796e-08,2.8036880754296107e-07,-1.4153250470078924e-06,1.9419015202777756e-06,9.130701060598774e-07,1.0853842834026881e-07,7.963882851663703e-07,-6.167660718224015e-08,3.4199068604074287e-09,-1.0206029965430466e-07
-2.7743315873258756e-07,-4.230616981002173e-06,-5.456725001695709e-07,-1.0809599029059978e-06,-1.7639738597914423e-06,-8.523610323442853e-07,-1.9534439771269793e-08,-1.5292423507408116e-06,5.879675490728309e-08,2.4658344565018893e-07,-1.402709864189983e-06,2.0030661553697452e-06,8.778569822845673e-07,1.7301750574302604e-08,8.272470233981356e-07,-9.459139103979328e-08,8.299292371033109e-09,-1.4527377426700216e-07
-3.055715974010002e-07,-4.640449586864856e-06,-5.876252877774794e-07,-1.0847712267307264e-06,-1.6695468158073543e-06,-8.292661827171006e-07,-1.2885819183570548e-08,-1.5100660144214882e-06,8.283220639318501e-08,2.1921597364958764e-07,-1.3791568804585992e-06,2.0341948595520444e-06,8.397481774638361e-07,-6.977264138193115e-08,8.338921724627146e-07,-1.2574313402990077e-07,3.5326193339300375e-09,-1.7869853833124184e-07
-3.2818766783520676e-07,-4.311183047678454e-06,-6.203830331545508e-07,-1.0899853165831697e-06,-1.599098334990641e-06,-8.088798918908604e-07,-1.550954073553089e-09,-1.4889208615088578e-06,1.0078522091281685e-07,1.975544414533182e-07,-1.3499416873188445e-06,2.0356516117242028e-06,8.033835900539196e-07,-1.4520164954046928e-07,8.180532994245515e-07,-1.5548973905832754e-07,-8.38765382703354e-09,-2.036819653499676e-07
-3.4596901432129335e-07,-3.6638637296453466e-06,-6.499802259390299e-07,-1.1008398560134622e-06,-1.5697835892828347e-06,-7.945627015461605e-07,4.82753360045109e-09,-1.4737967761692591e-06,1.083244699821311e-07,1.8241939757379939e-07,-1.3215135297629349e-06,2.0161885672443406e-06,7.724314746606384e-07,-2.0505503259640653e-07,7.862694754949782e-07,-1.8439415278470487e-07,-2.58528800274138e-08,-2.232960789745201e-07
-3.6044536940747135e-07,-2.8892130603398306e-06,-6.741941828708307e-07,-1.1168310760990867e-06,-1.5879900167445956e-06,-7.884459882366855e-07,-2.984013005632441e-09,-1.4705669710739336e-06,1.0228829328616471e-07,1.6490281531858735e-07,-1.3003350563282593e-06,1.9884312796236525e-06,7.490593181022216e-07,-2.5052664744205953e-07,7.454740360613214e-07,-2.1406552779885756e-07,-4.870176880397891e-08,-2.4191486531607923e-07
-3.7541372687131713e-07,-2.057745482143867e-06,-6.967631799879975e-07,-1.1398399425033982e-06,-1.6487453915430665e-06,-7.913894436979236e-07,-3.173552260129604e-08,-1.4820353380538178e-06,8.12025390911473e-08,1.4035092134211143e-07,-1.2913375584753493e-06,1.9533717026512903e-06,7.316809078330283e-07,-2.8666839664590616e-07,7.025785332405652e-07,-2.464117690057163e-07,-7.744683644866642e-08,-2.6307638653465717e-07
-3.9402699753435836e-07,-1.3274552693386351e-06,-7.212702295964847e-07,-1.1658917041277736e-06,-1.7362871363286845e-06,-8.015830726024017e-07,-8.004785228610763e-08,-1.5057676997381071e-06,4.774074129684279e-08,1.1029376329283979e-07,-1.2954061695182215e-06,1.924939695143226e-06,7.178152489818234e-07,-3.1776749767495073e-07,6.644351127849069e-07,-2.8103138660747463e-07,-1.0999781070540883e-07,-2.867412847327335e-07
-4.169364994409477e-07,-6.568233910215956e-07,-7.450823778552023e-07,-1.189542965223596e-06,-1.8271763468546452e-06,-8.137255855403026e-07,-1.355641162957761e-07,-1.5329410883780614e-06,9.923371148672439e-09,7.86321860927787e-08,-1.3084381090029533e-06,1.8988109765736731e-06,7.057717518073744e-07,-3.442972634295861e-07,6.365799012303373e-07,-3.144040900828694e-07,-1.4080588545904024e-07,-3.096267883959365e-07
-4.4081552354647893e-07,-6.575374323393683e-08,-7.667531827444931e-07,-1.2034592336339735e-06,-1.8986419197279831e-06,-8.213775145110095e-07,-1.8156488323583906e-07,-1.5538478442043316e-06,-2.244980155092329e-08,5.32640575350374e-08,-1.3239070655092236e-06,1.8759306540679531e-06,6.963743501064072e-07,-3.6460649865704725e-07,6.20596885986365e-07,-3.4294615526435704e-07,-1.6415731621322584e-07,-3.289272058214494e-07
-4.651381866391514e-07,3.376248407750113e-07,-7.850858062650327e-07,-1.200929359285677e-06,-1.9387272405275464e-06,-8.210894145862669e-07,-2.0831949210111502e-07,-1.5624897664111538e-06,-4.372168773827617e-08,3.644154986763182e-08,-1.3370669996087917e-06,1.8602674233451864e-06,6.858857523700296e-07,-3.7815416167688736e-07,6.122567639793569e-07,-3.66455240709519e-07,-1.8078958618639378e-07,-3.450288022309439e-07
-4.893205747790842e-07,4.3217553005132875e-07,-8.015124925079347e-07,-1.1854358681734937e-06,-1.9499813483096347e-06,-8.140731686641911e-07,-2.1781174566907595e-07,-1.559019567741226e-06,-5.46980125367616e-08,2.4173977223845038e-08,-1.3471432998052755e-06,1.8468184188533668e-06,6.702154102963793e-07,-3.8621808730455337e-07,6.051379612964563e-07,-3.876776890746023e-07,-1.9458019193120858e-07,-3.6010118624024233e-07
-5.134458230471586e-07,1.0300357114578924e-07,-8.230605728000662e-07,-1.1670042895442015e-06,-1.9438778481377867e-06,-8.040481724684176e-07,-2.1882488041376497e-07,-1.549105463849781e-06,-5.987785309607773e-08,1.1612051611466426e-08,-1.3561187264983105e-06,1.8372823775527507e-06,6.47594169771904e-07,-3.9064326512753245e-07,5.936841467874976e-07,-4.0929941261742426e-07,-2.0676676357392666e-07,-3.7511944651781526e-07
-5.377685291165466e-07,-7.07972856437303e-07,-8.450497671787152e-07,-1.147835535626001e-06,-1.932966685078853e-06,-7.94459140325878e-07,-2.2060952781024212e-07,-1.53913397812209e-06,-6.413726882257162e-08,-4.797391839657039e-09,-1.366116880463163e-06,1.8276025236725594e-06,6.1471212651858e-07,-3.936734309790017e-07,5.771493048836694e-07,-4.325156423348717e-07,-2.1765117856152904e-07,-3.89678767126638e-07
-5.606990184861837e-07,-1.958153628117738e-06,-8.661292406821432e-07,-1.1293501788492294e-06,-1.928337280603435e-06,-7.879553119146547e-07,-2.3146591336523456e-07,-1.5357659649514073e-06,-7.217270832485296e-08,-2.6824674499704797e-08,-1.3781382669064185e-06,1.8196250735219382e-06,5.740371438509387e-07,-3.9903755105501925e-07,5.559169381813328e-07,-4.583615125526034e-07,-2.289320509815109e-07,-4.042839266088518e-07
-5.814786676296161e-07,-3.43272589647176e-06,-8.861250027391458e-07,-1.1140994653461323e-06,-1.939270596401419e-06,-7.869002323226462e-07,-2.584349374431608e-07,-1.545752222032854e-06,-8.842212023603768e-08,-5.3920895961133116e-08,-1.3927628602092031e-06,1.812058124303187e-06,5.292362458661092e-07,-4.1112802050265446e-07,5.301683108900574e-07,-4.879673353041042e-07,-2.4487653030281403e-07,-4.2081198065769546e-07
-5.982288845185887e-07,-4.841737861058955e-06,-8.967402335102245e-07,-1.1021546208062487e-06,-1.9762931763547677e-06,-7.925238920363748e-07,-3.0321800689999326e-07,-1.5726078642800352e-06,-1.1476801894527193e-07,-8.171393767789931e-08,-1.4115334064389878e-06,1.8090121461517379e-06,4.852162388990426e-07,-4.31467117963347e-07,5.038519463626133e-07,-5.199286561931055e-07,-2.6910646039243696e-07,-4.398323840639913e-07
-6.088688271583068e-07,-5.8029532460970016e-06,-8.909894622721284e-07,-1.0898199465129317e-06,-2.0472564741632403e-06,-8.036176445464027e-07,-3.5862066013078033e-07,-1.614748150802715e-06,-1.4842016050724224e-07,-1.0162344178157267e-07,-1.4379022671909614e-06,1.8169051163151251e-06,4.4986681886664053e-07,-4.5620679149462826e-07,4.80855561586269e-07,-5.487329353165488e-07,-3.0145680983611154e-07,-4.588028785490961e-07
-6.108491143832024e-07,-6.055943127098217e-06,-8.603018129857805e-07,-1.0721645956780445e-06,-2.151955710048488e-06,-8.175058871485934e-07,-4.1279612504255776e-07,-1.666589598470501e-06,-1.8401156729574111e-07,-1.0532394546823193e-07,-1.4773122885282817e-06,1.8387567332499996e-06,4.3151132414438313e-07,-4.782714660403713e-07,4.655323021343368e-07,-5.677582196405717e-07,-3.3980443492281106e-07,-4.743966429747236e-07
-6.029013232665338e-07,-5.392013660557958e-06,-8.002315747454811e-07,-1.0458524076850106e-06,-2.2879862584565125e-06,-8.32954382863068e-07,-4.5885920573975956e-07,-1.7230391999006093e-06,-2.1859487829833232e-07,-9.068305583148225e-08,-1.5356882121020429e-06,1.8742038593453088e-06,4.3496631467097784e-07,-4.924563240708523e-07,4.5705135213297005e-07,-5.744271894874651e-07,-3.841685435614132e-07,-4.863433592665532e-07
-5.874656873572417e-07,-3.812625900677706e-06,-7.173151854520543e-07,-1.0111149124353642e-06,-2.449253596839067e-06,-8.513294793908954e-07,-4.991353269340835e-07,-1.7820886290113803e-06,-2.536741039839844e-07,-6.388607241633587e-08,-1.6157795359036351e-06,1.916203703247588e-06,4.595215961981029e-07,-4.981717029922574e-07,4.477770975413318e-07,-5.716730565769661e-07,-4.3627386773280995e-07,-4.979485125018161e-07
-5.696638549099159e-07,-1.6195708025914538e-06,-6.251829869669352e-07,-9.745490745999044e-07,-2.6260183431246274e-06,-8.742292812793277e-07,-5.396896561360242e-07,-1.8416519033376964e-06,-2.9195290214430907e-07,-3.5373476897192056e-08,-1.7132258101351202e-06,1.9584833709404984e-06,5.007416786121956e-07,-4.979932810488037e-07,4.294270866425722e-07,-5.648861294253713e-07,-4.937522695823646e-07,-5.13140841908209e-07
-5.549835411990344e-07,6.265530878266307e-07,-5.409766785756777e-07,-9.417791287915183e-07,-2.802402578245485e-06,-9.006285416718132e-07,-5.830733449010244e-07,-1.8970795675867163e-06,-3.334385493987465e-07,-1.4241077974666985e-08,-1.8162231030153484e-06,1.995266966046524e-06,5.500278340455826e-07,-4.953191280645258e-07,3.966867948429491e-07,-5.590678898583173e-07,-5.506240283705727e-07,-5.342905606313248e-07
-5.472362413515313e-07,2.0415664809659844e-06,-4.67215152960236e-07,-9.152359307613035e-07,-2.9739855996280357e-06,-9.272389980540273e-07,-6.280949878073034e-07,-1.942993282507903e-06,-3.758506159046969e-07,-6.598623080017033e-09,-1.909979347089516e-06,2.0189121953999716e-06,5.967687048866551e-07,-4.93815741086497e-07,3.4932399761273644e-07,-5.588615280170676e-07,-6.017492347430855e-07,-5.627398041685002e-07
-5.488356907721387e-07,2.119273574166778e-06,-4.059935088903419e-07,-8.9769295982577e-07,-3.1499299861323064e-06,-9.512023352907778e-07,-6.742910667799736e-07,-1.9767520578189465e-06,-4.1773980819276365e-07,-1.584025955663146e-08,-1.9823410699928254e-06,2.026964828709014e-06,6.302494591028826e-07,-4.970628442840923e-07,2.9100306874720234e-07,-5.688016015712116e-07,-6.453632517679609e-07,-5.994360340150547e-07
-5.608281811651854e-07,3.809939162715564e-07,-3.957759898519479e-07,-8.938553011677885e-07,-3.28146397509358e-06,-9.712174218329024e-07,-7.226077777701148e-07,-1.9988194223627293e-06,-4.5925900131204665e-07,-4.2020964150989504e-08,-2.0265712652999022e-06,2.0185987324843433e-06,6.416730285453076e-07,-5.065242323342161e-07,2.2949667090364085e-07,-5.908091601850929e-07,-6.810490546135914e-07,-6.436231788902948e-07
-5.811818704846546e-07,-3.0447864764314876e-06,-4.4557588694768037e-07,-9.067650209716956e-07,-3.3452784361691793e-06,-9.861463861920799e-07,-7.715522203262489e-07,-2.0100771380622784e-06,-4.999588617419069e-07,-8.13650077273268e-08,-2.0412106803725313e-06,1.9959741968785163e-06,6.293423303275628e-07,-5.199784699236494e-07,1.7520828695423184e-07,-6.214785540428752e-07,-7.062015331672606e-07,-6.917287754754125e-07
-6.067079495464879e-07,-5.440770869790231e-06,-5.270673142127085e-07,-9.356128647392733e-07,-3.3151393264080776e-06,-9.94215009454152e-07,-8.162754692484703e-07,-2.010353636838231e-06,-5.379199733112302e-07,-1.2806590173651983e-07,-2.0294502855450278e-06,1.9634027930955063e-06,5.968873952306551e-07,-5.335713432391904e-07,1.3721718080591952e-07,-6.53632035748043e-07,-7.184319347949677e-07,-7.392471585366837e-07
-6.343953240751853e-07,-6.736909265386774e-06,-6.044896697558298e-07,-9.767209990426188e-07,-3.2808300494119825e-06,-9.94706851627857e-07,-8.536604654799596e-07,-2.0003720802078757e-06,-5.721152960106469e-07,-1.7815475170017148e-07,-1.9988820357429535e-06,1.920508393197177e-06,5.497136184407201e-07,-5.458746015795215e-07,1.1893138170622698e-07,-6.814241314097811e-07,-7.209394929883602e-07,-7.840015737449023e-07
-6.629114674307855e-07,-7.341406933666744e-06,-6.900969812867723e-07,-1.0270864410836264e-06,-3.254900195696712e-06,-9.896559753990881e-07,-8.86429656273705e-07,-1.983969612601026e-06,-6.041884533368361e-07,-2.3094043979730463e-07,-1.960117177390115e-06,1.8662780523873103e-06,4.940819149285436e-07,-5.586485426290144e-07,1.1592128052673867e-07,-7.033920222094322e-07,-7.224829993695221e-07,-8.263510567989659e-07
-6.927868000526699e-07,-8.216745562720877e-06,-7.862768118365413e-07,-1.0842962271520974e-06,-3.2077716722468e-06,-9.825398522331804e-07,-9.197347961557866e-07,-1.9659268845388834e-06,-6.362063038484845e-07,-2.858309826230191e-07,-1.923455957785672e-06,1.7973259798518374e-06,4.3550064831804935e-07,-5.732030374557079e-07,1.2125518872955673e-07,-7.201746780119178e-07,-7.29893308739632e-07,-8.658240863890346e-07
-7.237520607132273e-07,-8.82329979913974e-06,-8.615941858559731e-07,-1.1434608619986857e-06,-3.168743160724632e-06,-9.752471348342812e-07,-9.545151474719152e-07,-1.948171986067508e-06,-6.670830192562643e-07,-3.3890529894731254e-07,-1.895646063297843e-06,1.7172094299860775e-06,3.8104500758854256e-07,-5.875367867793498e-07,1.302241466846106e-07,-7.30924837262806e-07,-7.420108737731219e-07,-8.990641353918979e-07
-7.540538487565803e-07,-7.474494993731603e-06,-9.321763372076388e-07,-1.1990838687851136e-06,-3.1432403093113857e-06,-9.67096024730475e-07,-9.86636618621762e-07,-1.9295767278864463e-06,-6.927862650722739e-07,-3.84261863308842e-07,-1.8791824956732718e-06,1.6342970025177202e-06,3.384851471695051e-07,-5.985468517069339e-07,1.4043920448081757e-07,-7.333145912709895e-07,-7.524466544601079e-07,-9.223856862611054e-07
-7.81381935944629e-07,-5.947508403430733e-06,-9.924069719390396e-07,-1.2450375539024531e-06,-3.1035404317894612e-06,-9.56640793280605e-07,-1.0123828873393946e-06,-1.9089398951613204e-06,-7.10201015270981e-07,-4.1845348627289923e-07,-1.8736754843194055e-06,1.5557312017455232e-06,3.129712384668141e-07,-6.060903155442029e-07,1.511970386882497e-07,-7.261806559197463e-07,-7.562412321180654e-07,-9.35612766905874e-07
-8.037460802171837e-07,-5.112514265004851e-06,-1.0344380266611675e-06,-1.2785479317158939e-06,-3.0648196076636058e-06,-9.431831051345574e-07,-1.0319747231275112e-06,-1.8870149517396538e-06,-7.194272502561263e-07,-4.4219913659621804e-07,-1.8772054951596076e-06,1.4875852941402e-06,3.053952536551602e-07,-6.131993661658931e-07,1.6141135323819712e-07,-7.105471526613801e-07,-7.524327606669973e-07,-9.420872140798797e-07
-8.205467512725153e-07,-4.405595912062777e-06,-1.0647934181433476e-06,-1.2996392150030272e-06,-3.0334429752671036e-06,-9.260421856152957e-07,-1.0467020848284486e-06,-1.8646174262739017e-06,-7.219428487971231e-07,-4.5841294200072656e-07,-1.8872165608111586e-06,1.434740024496668e-06,3.1321559768589293e-07,-6.2217190553943e-07,1.7124962339891581e-07,-6.878566380434519e-07,-7.411377574476572e-07,-9.45308598311076e-07
-8.311497857991506e-07,-3.5186789434895747e-06,-1.0786420629709804e-06,-1.3061727321804615e-06,-3.0105016879683604e-06,-9.036276711502384e-07,-1.0553341447645216e-06,-1.8404198789771485e-06,-7.181913418745895e-07,-4.69628217202378e-07,-1.9015825104129885e-06,1.4020373629671074e-06,3.318536090591537e-07,-6.319465023882417e-07,1.8233708651695095e-07,-6.593061947417696e-07,-7.219650984666966e-07,-9.470142006556653e-07
-8.348401577598505e-07,-2.7933636997071424e-06,-1.0778019404661465e-06,-1.2977923930785735e-06,-3.0002442337686603e-06,-8.747260550704049e-07,-1.055890841189854e-06,-1.8127323160650444e-06,-7.08317212221005e-07,-4.782909274124004e-07,-1.919327772182337e-06,1.3912388975525512e-06,3.5518181931949534e-07,-6.399569606967731e-07,1.9506957035094636e-07,-6.274655387802499e-07,-6.967017547416732e-07,-9.484253028430146e-07
-8.321288905176407e-07,-2.368756759154301e-06,-1.0680600290119226e-06,-1.2784708677102007e-06,-2.9961298123905967e-06,-8.405327582316997e-07,-1.0495520409010643e-06,-1.7820635108118369e-06,-6.942271656970329e-07,-4.874743026716353e-07,-1.9399534334402547e-06,1.4009861881472436e-06,3.776413501916165e-07,-6.450426678190375e-07,2.079249129409711e-07,-5.967769907509156e-07,-6.694313815058732e-07,-9.513680627849842e-07
-8.254207343607653e-07,-2.7846842602897135e-06,-1.0550640943721012e-06,-1.2544979343068217e-06,-2.992994022293275e-06,-8.041565957167191e-07,-1.0397552577355367e-06,-1.7505072642378196e-06,-6.788545390674882e-07,-4.986368672566791e-07,-1.9618298860513626e-06,1.424401599620098e-06,3.9688008188975763e-07,-6.471805338709899e-07,2.194607715701555e-07,-5.70446026312812e-07,-6.427486916160596e-07,-9.568861933081522e-07
-8.167548188574684e-07,-3.6729144723590073e-06,-1.043453480609538e-06,-1.231606918570005e-06,-2.9862094322739044e-06,-7.678343789937652e-07,-1.0275587150648704e-06,-1.7188663884155624e-06,-6.633241934822735e-07,-5.092998645954793e-07,-1.981678292793632e-06,1.4589421712757265e-06,4.1512829788813596e-07,-6.452360983199305e-07,2.3087723102149119e-07,-5.471545748679194e-07,-6.148959518528271e-07,-9.637395418583704e-07
-8.078332794547707e-07,-5.041129076015004e-06,-1.0346416885123584e-06,-1.2125094338617782e-06,-2.968661863248767e-06,-7.315524253603104e-07,-1.0108458996057595e-06,-1.685902908483966e-06,-6.464745774221156e-07,-5.146935681435463e-07,-1.9963556306365824e-06,1.502535219715019e-06,4.3681132902883343e-07,-6.370250827051155e-07,2.449033343751315e-07,-5.222007260614109e-07,-5.823042434137776e-07,-9.698401463400428e-07
-7.99118642692081e-07,-6.499930892401356e-06,-1.0279611106050751e-06,-1.1978297479280303e-06,-2.9358666875995537e-06,-6.946000932631934e-07,-9.889178819064294e-07,-1.650818880432345e-06,-6.276537925194051e-07,-5.122862310387525e-07,-2.005195258167058e-06,1.5493119175139123e-06,4.640924522302157e-07,-6.218115884397827e-07,2.629821412841934e-07,-4.916418303580728e-07,-5.446424515157421e-07,-9.749849065376623e-07
-7.90066137011072e-07,-7.681205322296444e-06,-1.0223274069878647e-06,-1.1880199162699546e-06,-2.890017564721723e-06,-6.571898818505795e-07,-9.651045936544906e-07,-1.6149459871253876e-06,-6.084832996944692e-07,-5.038822617254335e-07,-2.0098478076938374e-06,1.5923907396322637e-06,4.954078451668141e-07,-6.011491591142391e-07,2.845294589538907e-07,-4.544557842589898e-07,-5.055050415019289e-07,-9.806483040874903e-07
-7.809308616764688e-07,-8.385662118896075e-06,-1.0158642233833519e-06,-1.1810859445531905e-06,-2.8376725369899133e-06,-6.196104516287258e-07,-9.429154213683598e-07,-1.5799875314524218e-06,-5.908310662921671e-07,-4.932376097092387e-07,-2.011548727625725e-06,1.6259808174897925e-06,5.277862890055432e-07,-5.766875435030172e-07,3.091341449009303e-07,-4.110935365376563e-07,-4.6843109235779393e-07,-9.867918803388278e-07
-7.710105430200407e-07,-8.447821584172803e-06,-1.0050055413718201e-06,-1.1739113732285453e-06,-2.783964022956501e-06,-5.806699393177154e-07,-9.213965861691399e-07,-1.5456056417377046e-06,-5.741863125617948e-07,-4.829907327909359e-07,-2.009278680712936e-06,1.6527097431213044e-06,5.594021140541372e-07,-5.484806862925992e-07,3.3700432515795834e-07,-3.6214058949037316e-07,-4.341079458688534e-07,-9.903984968016408e-07
-7.591017945980043e-07,-8.110392163388874e-06,-9.859641857312352e-07,-1.1616224638600377e-06,-2.7302825050592642e-06,-5.38415288334425e-07,-8.967266474758515e-07,-1.5102045833453152e-06,-5.563856674888624e-07,-4.745741476036225e-07,-2.0010280692817554e-06,1.6753567056972138e-06,5.894885426776244e-07,-5.161110557400116e-07,3.6767131761447224e-07,-3.09240684374527e-07,-4.021896426758235e-07,-9.879549617022794e-07
-7.445849445458479e-07,-7.845513237188636e-06,-9.576959413370462e-07,-1.141367360756157e-06,-2.6764819609708026e-06,-4.924006656163055e-07,-8.673541952573656e-07,-1.473330119895124e-06,-5.363122586884013e-07,-4.693248640896629e-07,-1.985928779956527e-06,1.6981518355046374e-06,6.169797002263286e-07,-4.801595049899938e-07,3.9897705357529694e-07,-2.557161890317302e-07,-3.732155165107175e-07,-9.783337377068853e-07
-7.282883255397689e-07,-7.764781322058237e-06,-9.227815734546434e-07,-1.113974751837701e-06,-2.6227626170034008e-06,-4.442649264079609e-07,-8.35084801846704e-07,-1.4357779137607107e-06,-5.144722170981303e-07,-4.675472922257854e-07,-1.9640145112883465e-06,1.7243340792121672e-06,6.405526398632766e-07,-4.415059905843385e-07,4.278899707002976e-07,-2.045795902428128e-07,-3.47501738774458e-07,-9.626571067965453e-07
-7.112154691762034e-07,-7.75422304731982e-06,-8.854346828650982e-07,-1.0817780407993464e-06,-2.569229101897907e-06,-3.9615984626962906e-07,-8.019080686587588e-07,-1.3976886447276418e-06,-4.913869091552659e-07,-4.6694933402957103e-07,-1.934432810743761e-06,1.754631391701013e-06,6.596584336622694e-07,-4.0036255352940773e-07,4.534898568648302e-07,-1.56469180695256e-07,-3.2414154254570164e-07,-9.427381840438872e-07
-6.941646809442103e-07,-7.74658729312125e-06,-8.496539528529015e-07,-1.0473701563848321e-06,-2.516329806363432e-06,-3.4987912293585557e-07,-7.690321985413632e-07,-1.3589138060959325e-06,-4.6740930535743514e-07,-4.6396111082569474e-07,-1.8957061274889968e-06,1.78853915299539e-06,6.744465237990888e-07,-3.575780923840432e-07,4.7539959728886635e-07,-1.1089262781471735e-07,-3.0273105825382897e-07,-9.209900609617385e-07
-6.778740417603575e-07,-7.5702902965478615e-06,-8.190909133202122e-07,-1.0142943951127302e-06,-2.4671243896395e-06,-3.077007036631773e-07,-7.394972381419389e-07,-1.3212611853207568e-06,-4.445210119275621e-07,-4.5695737669074075e-07,-1.8484405482804281e-06,1.822068975143412e-06,6.8504903563441e-07,-3.1638171514672183e-07,4.928231521179357e-07,-6.890710152058305e-08,-2.8491072576576835e-07,-9.008523499498657e-07
-6.627585292142437e-07,-7.1856931293502e-06,-7.965510514544995e-07,-9.879335923493075e-07,-2.4270295972262483e-06,-2.7228843497532175e-07,-7.18182482365544e-07,-1.2884462354330404e-06,-4.264293803032391e-07,-4.470438291409924e-07,-1.7968254354204332e-06,1.8507846476496211e-06,6.924844247703232e-07,-2.808953083862681e-07,5.056135666697719e-07,-3.263716072681981e-08,-2.716337169838728e-07,-8.851165333624238e-07
-6.487899330735378e-07,-6.714652997250916e-06,-7.822002929035401e-07,-9.706197670350692e-07,-2.399051554773498e-06,-2.4423782370319215e-07,-7.066684956163955e-07,-1.2630003029903025e-06,-4.153706098496062e-07,-4.3558176236586225e-07,-1.747059877546611e-06,1.873324996263579e-06,7.006083225869293e-07,-2.5235192346626426e-07,5.156436838103839e-07,-1.9650143472030957e-09,-2.593548101509783e-07,-8.733033474665852e-07
-6.346848692713583e-07,-6.333066168234923e-06,-7.723231682661654e-07,-9.595913870505089e-07,-2.379778553854493e-06,-2.2025859500287994e-07,-6.996160231489148e-07,-1.2434777809269356e-06,-4.0957540358296364e-07,-4.2198768768329736e-07,-1.7050993061537625e-06,1.8938971133305607e-06,7.158246374073848e-07,-2.2794623374731697e-07,5.273417553990421e-07,2.6572116656500964e-08,-2.4141138622856606e-07,-8.620194324703233e-07
-6.18570183082636e-07,-5.990006271581697e-06,-7.615136716453633e-07,-9.493636000833355e-07,-2.3615179893922365e-06,-1.9509254418925104e-07,-6.885736464998394e-07,-1.226009845592301e-06,-4.0498675993838765e-07,-4.05498929886552e-07,-1.6758183947554536e-06,1.9181457033020877e-06,7.437102867821319e-07,-2.0386364329193208e-07,5.441694243316703e-07,5.6687686525340564e-08,-2.139734231863172e-07,-8.486332408143741e-07
-5.998418186567257e-07,-5.819622161959628e-06,-7.465632836036343e-07,-9.35998174709863e-07,-2.337937833331352e-06,-1.6537554893239228e-07,-6.689138515685158e-07,-1.2079590477794976e-06,-3.9882548413412217e-07,-3.873449670850236e-07,-1.662540049073087e-06,1.9472263997236113e-06,7.857393049950308e-07,-1.785118769114715e-07,5.661634151300069e-07,8.926451762392065e-08,-1.7946011658556636e-07,-8.351045039142067e-07
-5.795923351078954e-07,-6.246996835720426e-06,-7.278291574596193e-07,-9.191522343384343e-07,-2.3065820662012377e-06,-1.3114067184517969e-07,-6.41756853746567e-07,-1.1888201313395486e-06,-3.905187824698054e-07,-3.6990784653836374e-07,-1.665668465576772e-06,1.979960054107252e-06,8.389164367988114e-07,-1.5253325965427686e-07,5.907233569309354e-07,1.2294658736480783e-07,-1.4363497420122518e-07,-8.225803865710558e-07
-5.600101967418168e-07,-7.198983323781043e-06,-7.076084519030022e-07,-9.005247207653688e-07,-2.267503178479198e-06,-9.425689132587059e-08,-6.106657528070329e-07,-1.1685657605339552e-06,-3.8010381050209405e-07,-3.545177280874227e-07,-1.6814792958391734e-06,2.0147195050429584e-06,8.974191468165729e-07,-1.2711674830866415e-07,6.148079669860176e-07,1.562395217040117e-07,-1.1131938506371732e-07,-8.130823968615367e-07
-5.43147944575996e-07,-8.511595086805063e-06,-6.884993473366387e-07,-8.819621287842276e-07,-2.222910479636503e-06,-5.702306809358421e-08,-5.796739256634723e-07,-1.1473754476129755e-06,-3.6787352099988924e-07,-3.4150225709789267e-07,-1.7027859061418686e-06,2.049003070028371e-06,9.540449162666258e-07,-1.0352413513612146e-07,6.353672487112752e-07,1.8745741217607975e-07,-8.607372078739036e-08,-8.078403358800797e-07
-5.303106553741132e-07,-9.973124123836295e-06,-6.73449499178141e-07,-8.656446317047559e-07,-2.178977202663502e-06,-2.246506582733314e-08,-5.54499351032701e-07,-1.1273038566875256e-06,-3.559619473923055e-07,-3.321451292473249e-07,-1.7211615333990218e-06,2.0786786969377573e-06,1.0014607102597508e-06,-8.343688184714764e-08,6.488542964470495e-07,2.1343800078898722e-07,-7.187508318838567e-08,-8.072313243119904e-07
-5.225996968571434e-07,-1.102858634037541e-05,-6.654467085985334e-07,-8.540505551060535e-07,-2.144985419488442e-06,5.8476410952561955e-09,-5.418457150813276e-07,-1.1121862354663012e-06,-3.4839919198218065e-07,-3.2867802571933345e-07,-1.7287616024682029e-06,2.0977899030163956e-06,1.034291122651908e-06,-6.801529806223669e-08,6.530837832869591e-07,2.305420260881131e-07,-7.21173989815903e-08,-8.126751967176718e-07
-5.204759199875643e-07,-1.130554206416562e-05,-6.657492648087507e-07,-8.484370860682456e-07,-2.1277311792041367e-06,2.5776625997134514e-08,-5.449100083317938e-07,-1.104861824353396e-06,-3.4834083809450953e-07,-3.320471013394811e-07,-1.7194628337038172e-06,2.103509481516551e-06,1.0510783379758674e-06,-5.653356162835407e-08,6.49181397392426e-07,2.3738830972914684e-07,-8.681901310799744e-08,-8.244896579888305e-07
-5.232726317549955e-07,-1.0854263938116024e-05,-6.727187530981622e-07,-8.483107675669619e-07,-2.1268003206122947e-06,3.790634903144008e-08,-5.610764373067134e-07,-1.1053601830186855e-06,-3.5616687706625756e-07,-3.4105192283988127e-07,-1.6912524477109175e-06,2.0958325500493617e-06,1.0539883643283474e-06,-4.7427035158417435e-08,6.409502567977513e-07,2.352700369701582e-07,-1.130825121211343e-07,-8.424549100512765e-07
-5.296546051727483e-07,-1.00112492071476e-05,-6.837682040626924e-07,-8.533733945496717e-07,-2.136758480917083e-06,4.385312519831722e-08,-5.861961764495243e-07,-1.1126995528482027e-06,-3.7128914742500245e-07,-3.5476797798664675e-07,-1.6496594200250025e-06,2.075565094025334e-06,1.0462955507636282e-06,-4.167191610957842e-08,6.312496431881475e-07,2.253984008792833e-07,-1.487155642425362e-07,-8.670170006138534e-07
-5.387529315629981e-07,-8.803466656354355e-06,-6.982226273083153e-07,-8.658784270369025e-07,-2.153558861646071e-06,4.3725547928482896e-08,-6.200442435798748e-07,-1.1274056386740276e-06,-3.9468973371099864e-07,-3.7451985016855504e-07,-1.6081122812465206e-06,2.0431442870119815e-06,1.0302514741066502e-06,-4.425632438969874e-08,6.194614340199704e-07,2.0726369586319068e-07,-1.9298916884556005e-07,-8.983127425660468e-07
-5.50287216449143e-07,-7.5448908736881785e-06,-7.178743697404116e-07,-8.891906734005367e-07,-2.1765522275482278e-06,3.6628163979031344e-08,-6.647729493023266e-07,-1.1501549641326173e-06,-4.276642527620829e-07,-4.019225211706212e-07,-1.5825516752974844e-06,1.9997246809115797e-06,1.0073629226518379e-06,-6.099485645165984e-08,6.042674915432514e-07,1.8115868151034394e-07,-2.422451825985015e-07,-9.350608041806989e-07
-5.628994186247642e-07,-6.439352709862894e-06,-7.408855639202898e-07,-9.23017227335008e-07,-2.2037038496606637e-06,2.3934559263753828e-08,-7.177125452359227e-07,-1.1779162017486996e-06,-4.6781941905281073e-07,-4.349250724539997e-07,-1.5836081391765326e-06,1.9494708735256875e-06,9.800828214069966e-07,-9.373430864780449e-08,5.868365000156576e-07,1.5142976799351539e-07,-2.864778895471176e-07,-9.700851301838564e-07
-5.728373946639938e-07,-5.2093142549890165e-06,-7.664028731050061e-07,-9.615780725881849e-07,-2.227668049107649e-06,1.0780115736992582e-08,-7.683780661516247e-07,-1.2032013426196442e-06,-5.079845158471056e-07,-4.6793858008162293e-07,-1.6121941604465295e-06,1.8974725837191784e-06,9.524670272666536e-07,-1.3885084152505877e-07,5.700095313862643e-07,1.25486125764732e-07,-3.132377990272925e-07,-9.961278240596085e-07
-5.795244723901275e-07,-4.002396271201253e-06,-7.873783656166965e-07,-9.96771215360446e-07,-2.2395177369117436e-06,3.171139398201197e-09,-8.046417924320212e-07,-1.2183830788579445e-06,-5.404881379183165e-07,-4.961897402513209e-07,-1.660788942887598e-06,1.845637884301795e-06,9.292179776043904e-07,-1.8972143275838633e-07,5.547989405528434e-07,1.0888029353258203e-07,-3.1593263498182164e-07,-1.0105296456119345e-06
-5.820871709466273e-07,-2.925310840360259e-06,-8.009265797069644e-07,-1.0236163067720338e-06,-2.2362250487216163e-06,3.76016131295954e-09,-8.213986729239685e-07,-1.2207939160044755e-06,-5.623068566879198e-07,-5.193989822995209e-07,-1.7181526048687256e-06,1.7910145639282815e-06,9.146572738816773e-07,-2.392726246477629e-07,5.389948901849335e-07,1.0226447123248467e-07,-2.977324179666432e-07,-1.014460637043887e-06
-5.822648450015638e-07,-1.9664542873216426e-06,-8.090955487672047e-07,-1.0421840128278159e-06,-2.2225987726430084e-06,1.1037610418809085e-08,-8.223361842373599e-07,-1.213093215492304e-06,-5.754288907842543e-07,-5.407150067350402e-07,-1.7739338621750456e-06,1.7300971156713672e-06,9.124095895343394e-07,-2.7994672540272446e-07,5.205501443898522e-07,1.0345695590813935e-07,-2.6749968525663177e-07,-1.0114023008510553e-06
-5.836304436959276e-07,-1.09903132071698e-06,-8.166575076334911e-07,-1.0549186724268362e-06,-2.205865968611865e-06,2.22112812069565e-08,-8.146156874633948e-07,-1.1995580823402975e-06,-5.829377209478619e-07,-5.629602716898851e-07,-1.8212748970695591e-06,1.6639010756495799e-06,9.244947103854784e-07,-3.0343846663367473e-07,5.010758748447403e-07,1.1110438434917758e-07,-2.3328736948633443e-07,-9.946068294063391e-07
-5.904120647006043e-07,-4.661774400201312e-07,-8.287417716064607e-07,-1.0641113537121346e-06,-2.190578375214555e-06,3.5665389513512166e-08,-8.043919395700065e-07,-1.1835903132295992e-06,-5.862759372946615e-07,-5.872877732498519e-07,-1.8576465381664374e-06,1.5983013727115715e-06,9.488962949244412e-07,-3.0360787769963225e-07,4.850651552270987e-07,1.2486850245597687e-07,-2.0024165405961912e-07,-9.800238902970532e-07
-6.06348549192128e-07,-7.258884130053324e-08,-8.495624952588432e-07,-1.0715557346839232e-06,-2.179418986503444e-06,5.05818633977491e-08,-7.971631472902992e-07,-1.168256568345546e-06,-5.860831193873676e-07,-6.146465313387039e-07,-1.8844927627902518e-06,1.5404782942048123e-06,9.777307396431957e-07,-2.8088125632968234e-07,4.761571691748408e-07,1.4255361337446132e-07,-1.7227332182852128e-07,-9.681289314215049e-07
-6.320967833496151e-07,1.9572622124208564e-07,-8.76202805142344e-07,-1.0781120173517054e-06,-2.1760860800402634e-06,6.589534500505864e-08,-7.982430247441276e-07,-1.156323000940506e-06,-5.832006079058351e-07,-6.460140543560653e-07,-1.9056218439394383e-06,1.4961709608454135e-06,9.994454820196922e-07,-2.427534057583242e-07,4.7516256417257413e-07,1.5923294018620884e-07,-1.5227488303660644e-07,-9.547626627521318e-07
-6.71605240900205e-07,1.7364088268581016e-07,-8.706524261343176e-07,-1.0787098175454084e-06,-2.18438762173268e-06,8.102909326595574e-08,-8.093182959118047e-07,-1.1478037987452614e-06,-5.771035889118061e-07,-6.794955687412669e-07,-1.9252506011303332e-06,1.4705361417918499e-06,1.0048347301090628e-06,-1.9897990776627686e-07,4.813848666893129e-07,1.701501554951271e-07,-1.40238526570034e-07,-9.409309647489233e-07
-6.943384899916707e-07,3.3362146239442746e-09,-8.39511869300203e-07,-1.064621830796028e-06,-2.204898424360612e-06,9.692191578364178e-08,-8.255030372043135e-07,-1.1385557100838955e-06,-5.64498226806726e-07,-7.083082537233662e-07,-1.9476057338620976e-06,1.469244448776764e-06,9.920624287120547e-07,-1.563415895770426e-07,4.927175400017047e-07,1.735617550661355e-07,-1.3451395241499336e-07,-9.022254773085012e-07
-6.804226848398356e-07,-2.01793849803924e-07,-7.375557609077653e-07,-1.0257569357989807e-06,-2.2347772277014287e-06,1.1461556913687936e-07,-8.38888928092251e-07,-1.12323678754044e-06,-5.417624442673955e-07,-7.232196320557476e-07,-1.977896672304516e-06,1.4967946416077395e-06,9.670467745739075e-07,-1.1738696501729993e-07,5.052339332907662e-07,1.703310636566314e-07,-1.3324701547263219e-07,-8.374080921519439e-07
-6.176052869506447e-07,-4.1975784636835426e-07,-5.965928195080094e-07,-9.527978411121047e-07,-2.2711657760276276e-06,1.3258135636869638e-07,-8.456171717499629e-07,-1.0998727735190119e-06,-5.0923266916932e-07,-7.173613762387236e-07,-2.021824305304845e-06,1.5545351277305189e-06,9.411407111122786e-07,-8.169915331651138e-08,5.133861441948218e-07,1.6244048331818194e-07,-1.3233665171289983e-07,-7.640305750420166e-07
-5.37497162151965e-07,-5.372553078711184e-07,-5.145914525192674e-07,-8.461102133508933e-07,-2.3123823426356205e-06,1.467739223281628e-07,-8.476911683621077e-07,-1.0705485943169877e-06,-4.7179106956382555e-07,-6.887337145388586e-07,-2.0820660585578236e-06,1.641565487375555e-06,9.295213761951759e-07,-4.603548757660497e-08,5.124863927491285e-07,1.536170822902522e-07,-1.5786536924016312e-07,-6.982227707659635e-07
-4.786875195428438e-07,-5.129622401181584e-07,-4.53581785491987e-07,-7.112423802249218e-07,-2.3548999507087185e-06,1.5401586040615382e-07,-8.479960843082736e-07,-1.0380111836806457e-06,-4.348697922136924e-07,-6.396605644272796e-07,-2.154295589897131e-06,1.7564326872595073e-06,9.490222885307901e-07,-3.896699169458012e-09,5.029765086529561e-07,1.5034886542533823e-07,-1.8089099516868813e-07,-6.46033932254387e-07
-4.2397075481271275e-07,-3.57403952112542e-07,-3.0279259375888573e-07,-5.636538878522416e-07,-2.3911477454031645e-06,1.545129051287973e-07,-8.465931698312366e-07,-1.0041753660657237e-06,-4.012022522607252e-07,-5.762340671131613e-07,-2.2269235318814485e-06,1.8954576878342553e-06,1.011965458419908e-06,5.178430873817017e-08,4.884326384241502e-07,1.5915684423800214e-07,-2.0920122507234338e-07,-5.941827400910676e-07
-3.233749994778208e-07,-2.1158718139741536e-07,-1.3507542193137408e-07,-4.2181954388928177e-07,-2.4122270293213906e-06,1.5054497639011976e-07,-8.432075279011295e-07,-9.721384389670275e-07,-3.7189666589362025e-07,-5.084883387328341e-07,-2.2854414198282896e-06,2.0488001137125966e-06,1.1180163856963405e-06,1.2271243668241078e-07,4.7200219080325267e-07,1.8123091134000483e-07,-2.3350342075495412e-07,-5.283155899798792e-07
-2.262422663077408e-07,-1.6671901432919276e-07,-9.008393811042696e-09,-3.2026353664251017e-07,-2.412227604193494e-06,1.4382044198445405e-07,-8.402948337135963e-07,-9.473559093115547e-07,-3.4861114787978213e-07,-4.480707999490167e-07,-2.3178342993179246e-06,2.199969051787185e-06,1.2511670996445565e-06,2.0110043622514698e-07,4.544325147315018e-07,2.1062242802499839e-07,-2.518947220052785e-07,-4.562527106606415e-07
-1.720266662402471e-07,-2.8598311952214643e-07,6.418224459007804e-08,-3.2246912687850796e-07,-2.388357003871552e-06,1.3529001017349908e-07,-8.402514103337962e-07,-9.35095357952713e-07,-3.3267499855155503e-07,-4.0293705883268315e-07,-2.3174430576985187e-06,2.330792946241432e-06,1.3851797105249874e-06,2.7114214289185906e-07,4.347113078865104e-07,2.3849505767179484e-07,-2.6459377502146323e-07,-4.069991476769888e-07
-1.6128780984524478e-07,-5.02476339428448e-07,1.022879048395863e-07,-3.462493337675263e-07,-2.3384204526911314e-06,1.2666877972973487e-07,-8.405441362316168e-07,-9.364567100621035e-07,-3.2287703845123186e-07,-3.739516408760424e-07,-2.2836853628952316e-06,2.427088837951373e-06,1.493123209644043e-06,3.1400051720587676e-07,4.122133130221179e-07,2.582676589162402e-07,-2.7169505379293034e-07,-3.818600820019927e-07
-1.4448372250782218e-07,-7.958052334447811e-07,1.483961401186669e-07,-3.136409348867053e-07,-2.2618424974019286e-06,1.2004027189112706e-07,-8.350365081444877e-07,-9.485385103231423e-07,-3.164058354331602e-07,-3.57151938628927e-07,-2.2229098040690666e-06,2.480419233385682e-06,1.5550024253551808e-06,3.125911267228405e-07,3.852232857364578e-07,2.6657525250385557e-07,-2.7508459612891973e-07,-3.737434231838076e-07
-1.0020607006887427e-07,-9.885496207411146e-07,1.9077873020629815e-07,-3.026571986675001e-07,-2.1648618640142517e-06,1.154052145663793e-07,-8.208772098612587e-07,-9.681210760562429e-07,-3.124913789607489e-07,-3.4892689938338703e-07,-2.1485936355796475e-06,2.4873488781518954e-06,1.5618768405914555e-06,2.560233229838286e-07,3.5020610707306175e-07,2.617849365082824e-07,-2.802611350760258e-07,-3.4583278867385227e-07
-7.229533643620402e-08,-8.055457391570951e-07,2.0162836365611945e-07,-3.4061311956277686e-07,-2.0628241333528283e-06,1.0999192842094284e-07,-8.020206587522642e-07,-9.932698729737794e-07,-3.1364602357771356e-07,-3.482467616927864e-07,-2.0781866501515832e-06,2.4499292859177978e-06,1.5175673677341459e-06,1.4450386989252334e-07,3.0414314523312686e-07,2.440706869315426e-07,-2.931213023578635e-07,-3.0882657008062916e-07
-8.739402347001046e-08,-1.0336221376443217e-07,1.7386007584842915e-07,-4.219264495324727e-07,-1.9751911945342467e-06,1.0088137567869566e-07,-7.853476370867714e-07,-1.0215150480379886e-06,-3.226684403160427e-07,-3.547996277805218e-07,-2.0272560754530784e-06,2.3770839687333136e-06,1.4374712908281408e-06,-8.275588000174967e-09,2.479772964426967e-07,2.1642151034591023e-07,-3.1490754491051033e-07,-2.7346405122356296e-07
-1.4131381586884617e-07,1.0864357005972012e-06,8.285143489845168e-08,-4.761803861945302e-07,-1.917854315044466e-06,8.77443135720488e-08,-7.753714140610006e-07,-1.0487679846698874e-06,-3.394891378225381e-07,-3.671915961893172e-07,-2.0047625210494707e-06,2.283378846246644e-06,1.3432115930983318e-06,-1.791193427071053e-07,1.8679306625214612e-07,1.8326803886848356e-07,-3.416670424121376e-07,-2.632703227111284e-07
-2.0113615384443312e-07,2.3772384882873434e-06,-1.9607666629805133e-08,-5.495546362050834e-07,-1.8988063317386038e-06,7.282635596861832e-08,-7.732261618015608e-07,-1.07098309947205e-06,-3.612725472494444e-07,-3.835517185292851e-07,-2.011589152596998e-06,2.184485192881281e-06,1.254965487841113e-06,-3.4385749480209745e-07,1.2682666277393752e-07,1.47739248109521e-07,-3.67853025931766e-07,-3.014004255467914e-07
-2.612114036039779e-07,2.9373050837229783e-06,-1.22087883280198e-07,-6.362826067681434e-07,-1.9170708019510334e-06,5.962763029986824e-08,-7.776633186534738e-07,-1.0852609226956749e-06,-3.83877908491243e-07,-4.020533615701831e-07,-2.0411675350234426e-06,2.0929706952584825e-06,1.1860198995391981e-06,-4.840775468643251e-07,7.406336869588683e-08,1.1201618503633242e-07,-3.8809759873557163e-07,-3.5164180067901667e-07
-3.277792809900738e-07,2.004743711922175e-06,-2.2064375179723903e-07,-6.908233091784688e-07,-1.961741496049304e-06,5.27469152905503e-08,-7.84179392402191e-07,-1.0884214144394009e-06,-4.0187417788634337e-07,-4.1952650827622055e-07,-2.080782741642036e-06,2.017207027294494e-06,1.141957399357596e-06,-5.887922588914401e-07,3.403408991644328e-08,8.080259682791388e-08,-3.9568043492665547e-07,-3.955495442517985e-07
-3.6635129791574446e-07,-5.851465101996188e-07,-2.760444022374331e-07,-7.201487813690609e-07,-2.0130634786951783e-06,5.7946122234200667e-08,-7.844368652380828e-07,-1.075906937981576e-06,-4.08474591725128e-07,-4.306121535569188e-07,-2.114263737804025e-06,1.961991576652287e-06,1.1228838079011165e-06,-6.53564767114339e-07,1.234472808654059e-08,6.240880579012202e-08,-3.8295544670922676e-07,-4.324828864095933e-07
-3.9101212911571e-07,-3.0710607861221425e-06,-2.9620401606252234e-07,-7.21291290824927e-07,-2.0496532081066107e-06,8.006943726648538e-08,-7.699527064220044e-07,-1.044159061906655e-06,-3.9798351442191564e-07,-4.2980808230104614e-07,-2.12699707990319e-06,1.9287752382510756e-06,1.1262593647749256e-06,-6.799313797226638e-07,1.1786650928069125e-08,6.48070908457735e-08,-3.4575709837423573e-07,-4.386522171669823e-07
-4.059532413110889e-07,-4.845279182805878e-06,-2.913497942750272e-07,-6.957250469180427e-07,-2.0585518818639053e-06,1.1984597914541131e-07,-7.376078997488281e-07,-9.943841530730583e-07,-3.692416385325144e-07,-4.1445723509282475e-07,-2.111255181481239e-06,1.9160505800991567e-06,1.14927148508747e-06,-6.742078760824396e-07,2.985349933880555e-08,9.113897941059362e-08,-2.8678676037965985e-07,-4.3670326614595063e-07
-4.055834207791903e-07,-5.7122236604485336e-06,-2.5272811563640746e-07,-6.577025322697357e-07,-2.0397788039103637e-06,1.7307390126854972e-07,-6.909840228223611e-07,-9.33058124366831e-07,-3.262932120460281e-07,-3.8549759433802873e-07,-2.068258579871597e-06,1.920634355872036e-06,1.1900079785286923e-06,-6.447399630130449e-07,6.060512599133223e-08,1.3894084582133854e-07,-2.1413664307399858e-07,-4.2875162899131516e-07
-3.9957207948321985e-07,-6.4660023404658106e-06,-2.0919144664343409e-07,-6.11222893217634e-07,-2.0026871653521305e-06,2.328560806716807e-07,-6.371970200312578e-07,-8.69204605529281e-07,-2.7602975095931586e-07,-3.461594290999522e-07,-2.006264006270182e-06,1.9384089854980687e-06,1.2466162572702095e-06,-5.994915880812726e-07,9.736736795310782e-08,2.018235968288231e-07,-1.3753918805996482e-07,-4.2290964949808816e-07
-3.8441248860372216e-07,-6.755043966185065e-06,-1.6358456675024673e-07,-5.605610012861168e-07,-1.959854869288052e-06,2.9211449314778415e-07,-5.840836990605882e-07,-8.117580364306659e-07,-2.2580133054112028e-07,-3.0114319964235915e-07,-1.937046324980544e-06,1.9638809950641303e-06,1.3152170777154296e-06,-5.457896120764447e-07,1.3478951513359008e-07,2.7056171999899897e-07,-6.61000883379456e-08,-4.0986491578000467e-07
-3.62387166039322e-07,-5.91953310774638e-06,-1.1459108530588638e-07,-5.117169266289909e-07,-1.923157281557274e-06,3.448822788272061e-07,-5.390392260741513e-07,-7.678264015675696e-07,-1.8200783409672418e-07,-2.560910511037799e-07,-1.8723159233211196e-06,1.9907386799761454e-06,1.3890463942564692e-06,-4.903648201558077e-07,1.6918680316311956e-07,3.347159275741131e-07,-6.406972541574222e-09,-3.904217488875047e-07
-3.3978065184486986e-07,-4.719069097541592e-06,-7.08797990133559e-08,-4.6863063437099207e-07,-1.9002594229110045e-06,3.87513715171629e-07,-5.066593397080197e-07,-7.407684933408962e-07,-1.483545734035879e-07,-2.1581202674214125e-07,-1.8202299079779708e-06,2.0145196295726585e-06,1.4599193444437759e-06,-4.3758892844561473e-07,2.0012178591842878e-07,3.8618464985141095e-07,3.988655280693235e-08,-3.714862283966926e-07
-3.1991974211455357e-07,-4.126132517742192e-06,-3.039638062631398e-08,-4.323705496118447e-07,-1.8911336518617836e-06,4.1982206915646414e-07,-4.861472996943306e-07,-7.289090121608838e-07,-1.2448673518705805e-07,-1.8247185009755022e-07,-1.7835410363551255e-06,2.0346263853255235e-06,1.5200150834413756e-06,-3.8799239372226655e-07,2.2994413026587547e-07,4.2188097879339095e-07,7.581166993788756e-08,-3.489832431350151e-07
-3.042668811135831e-07,-4.343148147380276e-06,6.717203076126598e-09,-4.017007357769408e-07,-1.8890673099431732e-06,4.4420998845414417e-07,-4.730570184793757e-07,-7.273564968665496e-07,-1.0732662453149235e-07,-1.5606644066259393e-07,-1.7611057612142536e-06,2.053270663325413e-06,1.5623998290182728e-06,-3.397612128337222e-07,2.608708251185742e-07,4.426600722252459e-07,1.047381140139157e-07,-3.2565468000533074e-07
-2.9269868615698254e-07,-4.447277421933289e-06,3.947122462774844e-08,-3.7567742113123325e-07,-1.8869715166496445e-06,4.629893626621104e-07,-4.6438359154236847e-07,-7.31855810791101e-07,-9.421044132826527e-08,-1.362880873622933e-07,-1.750935737747487e-06,2.0733073818809428e-06,1.5821612824533556e-06,-2.9157958789991846e-07,2.925355175952176e-07,4.5050878231683697e-07,1.2649114382004016e-07,-2.971314262257824e-07
-2.8535881255140605e-07,-4.798854908549385e-06,6.420882207281593e-08,-3.5466083586848383e-07,-1.8819484048948966e-06,4.76931387093248e-07,-4.6041297158471e-07,-7.404617578689476e-07,-8.408409777158122e-08,-1.2279599719657316e-07,-1.7512825251862732e-06,2.0977596704496492e-06,1.5796727267618888e-06,-2.435832339526655e-07,3.2194024740872435e-07,4.477561184237629e-07,1.3820166904816285e-07,-2.685475807490602e-07
-2.8229179822203315e-07,-4.588356245359819e-06,8.443113727439282e-08,-3.386948097962074e-07,-1.8741931587641594e-06,4.861163190179087e-07,-4.618332582741468e-07,-7.522511682475037e-07,-7.622272473873808e-08,-1.1411258720680608e-07,-1.7596525780338894e-06,2.1299364983112844e-06,1.5628698986137499e-06,-1.9687781178809147e-07,3.4510241382084444e-07,4.3757849635867703e-07,1.3730089350214337e-07,-2.438758277458072e-07
-2.8354412192037756e-07,-4.6281288714649084e-06,1.0035312095645852e-07,-3.263820868354881e-07,-1.864901040380213e-06,4.906024750641426e-07,-4.6798691669105255e-07,-7.666370705080143e-07,-6.995081959929963e-08,-1.081124447143021e-07,-1.7726577051454717e-06,2.1717738120685173e-06,1.5445754670381678e-06,-1.5458910007963192e-07,3.5725384181541565e-07,4.227814118103055e-07,1.2210642729308386e-07,-2.3146499496309085e-07
-2.8984476005733197e-07,-4.982530205946924e-06,1.1120584666523092e-07,-3.1690305742105527e-07,-1.8571252568489012e-06,4.895697075859618e-07,-4.790395662704641e-07,-7.845995174562265e-07,-6.643572378532055e-08,-1.0429646304101062e-07,-1.7875139572869959e-06,2.221631708200898e-06,1.5363174866728518e-06,-1.2062136037804318e-07,3.533079936712131e-07,4.0354063863017193e-07,9.086420282645492e-08,-2.3471759970337547e-07
-3.0296784379241275e-07,-5.189506614015327e-06,1.1567913331416658e-07,-3.12237785910315e-07,-1.8565398994632876e-06,4.81020878158276e-07,-4.972986505874543e-07,-8.087039003794832e-07,-6.916368049095888e-08,-1.0462191898403212e-07,-1.8024621410875238e-06,2.2742077047268027e-06,1.5438787677897226e-06,-9.918774285286937e-08,3.301447765254832e-07,3.77685834732093e-07,4.3320862741742355e-08,-2.522834056712917e-07
-3.2555863080059115e-07,-5.5088925422040165e-06,1.0918829657295783e-07,-3.1618409525324035e-07,-1.8679538760274328e-06,4.634293257235374e-07,-5.246835196836704e-07,-8.405853611709918e-07,-8.139036829502846e-08,-1.119173215423754e-07,-1.8142971907318893e-06,2.3214785669567314e-06,1.5665869179336205e-06,-9.223009488440885e-08,2.89594914349729e-07,3.43609220610959e-07,-1.647202792674339e-08,-2.825078153006805e-07
-3.598429503587723e-07,-5.3757851994458905e-06,8.885028089834926e-08,-3.3178379952179986e-07,-1.8905554566328085e-06,4.3730491477830953e-07,-5.605535317038927e-07,-8.790407252978114e-07,-1.0375805658910118e-07,-1.2866416914076478e-07,-1.8153187758882168e-06,2.351854592639226e-06,1.5977699172931566e-06,-1.0117633157366216e-07,2.389674245573313e-07,3.019904950991638e-07,-8.040297027108689e-08,-3.202839191034957e-07
-4.069502186065329e-07,-4.573159282391638e-06,5.252704189294266e-08,-3.6000667697330557e-07,-1.9171681168376012e-06,4.0476483424361847e-07,-6.033815908642361e-07,-9.208885104891116e-07,-1.3473509964663584e-07,-1.5735312309399063e-07,-1.793283407898897e-06,2.3491470930803933e-06,1.624937413545546e-06,-1.296936762592973e-07,1.87572969841219e-07,2.5505015394334485e-07,-1.407758350222739e-07,-3.6315578518422065e-07
-4.6662398658562597e-07,-3.224437380214455e-06,-1.024309276564495e-09,-3.993321587505744e-07,-1.937227310827737e-06,3.684990045368151e-07,-6.527591570007194e-07,-9.622122146608449e-07,-1.7186005307189453e-07,-2.0004770390188916e-07,-1.73528422500552e-06,2.2959996617725047e-06,1.6318252435413421e-06,-1.8140238399277414e-07,1.44640074620974e-07,2.0617704330194242e-07,-1.9176999052266633e-07,-4.1030474806333893e-07
-5.378988787687964e-07,-1.434916784755309e-06,-6.884019183277696e-08,-4.4474157068504946e-07,-1.939996355136859e-06,3.3202688025189823e-07,-7.078137736812198e-07,-9.98135812277036e-07,-2.113389724451044e-07,-2.5610271001426007e-07,-1.6293090400156625e-06,2.1761793699561054e-06,1.6035296323838579e-06,-2.5684131737915913e-07,1.1693909642902824e-07,1.6087571207700607e-07,-2.2741272193280246e-07,-4.5944399863601823e-07
-6.134552768983694e-07,4.083507456365776e-07,-1.4602353640895378e-07,-4.875270939341953e-07,-1.917702855495211e-06,3.000549340151708e-07,-7.649139769211856e-07,-1.0231547789139478e-06,-2.476117418443284e-07,-3.2078555262036806e-07,-1.4818208814946408e-06,1.9964444004613443e-06,1.5323071441083103e-06,-3.518737579958925e-07,1.1058597867940969e-07,1.2620345499493767e-07,-2.4127217638819514e-07,-5.075340262745643e-07
-6.856956940339155e-07,2.2489682733866095e-06,-2.2063669578565313e-07,-5.181479267936806e-07,-1.8700093549957683e-06,2.768258613522011e-07,-8.191993942998237e-07,-1.0339418609324338e-06,-2.754055925785716e-07,-3.869477265064126e-07,-1.3158610698001633e-06,1.7826293849115129e-06,1.4210144694370814e-06,-4.5470024556396613e-07,1.2804545068093505e-07,1.0750438939100411e-07,-2.2997140681904735e-07,-5.492791930369059e-07
-7.448989233070366e-07,3.988578624993576e-06,-2.8412443500387716e-07,-5.302980965561672e-07,-1.8067215803215446e-06,2.636181952032438e-07,-8.679013221128552e-07,-1.0324459043216768e-06,-2.9259990618097625e-07,-4.476766346322414e-07,-1.1638675543761782e-06,1.5643108181159106e-06,1.2832597290499504e-06,-5.482093881322051e-07,1.6537509732242168e-07,1.0564180820903053e-07,-1.9733446303063276e-07,-5.804943976681544e-07
-7.595884111115817e-07,5.381669559140668e-06,-3.4132603718092605e-07,-5.222712383909805e-07,-1.7439163587391686e-06,2.58456988813078e-07,-9.101801457983572e-07,-1.0253149797862852e-06,-3.0036932084796246e-07,-4.966488717192108e-07,-1.1353936161046694e-06,1.4357407157518936e-06,1.1402962790787602e-06,-6.158918203235588e-07,2.155843671743809e-07,1.1719527056820771e-07,-1.5183211841267928e-07,-5.986434053213354e-07
-7.596097250857362e-07,6.1469187306986924e-06,-3.2812494669480413e-07,-4.956297292340004e-07,-1.695317748519976e-06,2.580977804066405e-07,-9.442530935015422e-07,-1.0202939363296127e-06,-3.011338170923387e-07,-5.278405279410993e-07,-1.178798947232514e-06,1.4424889190810059e-06,1.0147505624953817e-06,-6.468366479023528e-07,2.674509298091282e-07,1.3583418526027796e-07,-1.0349631242382094e-07,-6.040875178333921e-07
-7.631251484451291e-07,6.047130230520852e-06,-2.9545817914518964e-07,-4.54832743396814e-07,-1.6681448993341872e-06,2.593714180328276e-07,-9.674185212977801e-07,-1.023743445619067e-06,-2.9783893644868476e-07,-5.374976830420279e-07,-1.2006035725475524e-06,1.3915677625379467e-06,9.232614582401287e-07,-6.395925953880611e-07,3.1134137268559877e-07,1.5296883231576107e-07,-6.063124717429816e-08,-6.022724079019124e-07
-7.265437661869411e-07,5.019040107368556e-06,-2.1501825549253682e-07,-4.0836484299848194e-07,-1.6621222540219544e-06,2.589672223950249e-07,-9.79448270621432e-07,-1.0402978374860698e-06,-2.948024105294138e-07,-5.271839276330535e-07,-1.1948041915354466e-06,1.3619563580685355e-06,8.722671862711599e-07,-6.088166697133175e-07,3.34646964104806e-07,1.5917991283090734e-07,-3.2269212187772815e-08,-6.017020817166599e-07
-6.658312100712354e-07,3.285384261890439e-06,-1.4714144443620683e-07,-3.674278498442257e-07,-1.6742585710248896e-06,2.537948605609501e-07,-9.836675400892089e-07,-1.0720677019702726e-06,-2.969268368654347e-07,-5.041499832310982e-07,-1.3286667229541304e-06,1.5167574511317576e-06,8.590493580132251e-07,-5.772462671106759e-07,3.0012568767212583e-07,1.4782325363011096e-07,-2.496951312640381e-08,-6.129408893234654e-07
-6.157310330967548e-07,1.350146374980335e-06,-8.327312731144726e-08,-3.412550353626337e-07,-1.7000926868497777e-06,2.425463158776036e-07,-9.840650607422936e-07,-1.1170683714310909e-06,-3.0701197094887097e-07,-4.784641228432346e-07,-1.483204860768835e-06,1.7063575164449133e-06,8.754160098165243e-07,-5.639983346914255e-07,2.743496327411788e-07,1.1790773397477487e-07,-4.024843569953433e-08,-6.407154691005301e-07
-5.884742145647492e-07,-3.2202490047927767e-07,-3.924069600111002e-08,-3.335555481109858e-07,-1.733265638571118e-06,2.2607175303944192e-07,-9.83523917483314e-07,-1.1698480970200883e-06,-3.248136964285435e-07,-4.6015954723139814e-07,-1.568787695143571e-06,1.8348077048147468e-06,9.103595603335075e-07,-5.804447450719966e-07,2.405919786394693e-07,7.273391035186925e-08,-7.778704059450598e-08,-6.841251935068039e-07
-5.837631920632352e-07,-1.444564627898696e-06,-2.7315347641372598e-08,-3.4321865308451166e-07,-1.767941912801202e-06,2.0566995310101088e-07,-9.85399245626828e-07,-1.2246544810877122e-06,-3.489735480184765e-07,-4.577153928297716e-07,-1.600984694423685e-06,1.9090845217882054e-06,9.515713174506685e-07,-6.275574506887233e-07,1.9201988618452746e-07,1.6160243922167273e-08,-1.3428887517765332e-07,-7.39347998978698e-07
-6.026877345755098e-07,-2.0074163710023766e-06,-4.4727032725392304e-08,-3.664958213461486e-07,-1.8020720839735065e-06,1.8184830561725554e-07,-9.939208838920987e-07,-1.277514417539745e-06,-3.783917866063726e-07,-4.761595515630092e-07,-1.603089654385494e-06,1.938183783599306e-06,9.879025013563916e-07,-6.978998658405591e-07,1.1182367884380907e-07,-4.8674957682987474e-08,-2.0514813159824339e-07,-8.022875075490135e-07
-6.401295098608401e-07,-2.2147285433618127e-06,-8.267310791207407e-08,-3.976531664332801e-07,-1.8343036180017328e-06,1.5521094692610992e-07,-1.0110155278356277e-06,-1.3254913424074082e-06,-4.1116446140379333e-07,-5.146446793129563e-07,-1.5846584593122718e-06,1.926320110877867e-06,1.0124493600101775e-06,-7.790824842442317e-07,4.047758575825712e-08,-1.1778906807074921e-07,-2.836335216760321e-07,-8.635303848004087e-07
-6.861175261241273e-07,-2.263603396299687e-06,-1.30178744719027e-07,-4.297357229918857e-07,-1.8616070206527957e-06,1.2753869040683882e-07,-1.0340473040456414e-06,-1.365836820353107e-06,-4.4377188417530105e-07,-5.664980009442096e-07,-1.5610689936333215e-06,1.8899482462203673e-06,1.0236853906991721e-06,-8.588450654674265e-07,-1.5570036193494907e-08,-1.859151317832937e-07,-3.6203778103807114e-07,-9.165519263122089e-07
-7.312603932920356e-07,-2.3271795501910196e-06,-1.7735165772244656e-07,-4.5719558474713485e-07,-1.8821096362877485e-06,1.0116472494316308e-07,-1.057899353397995e-06,-1.396997661272591e-06,-4.725126036030824e-07,-6.225484874995148e-07,-1.5441008598256985e-06,1.8469065577904918e-06,1.0241644211070562e-06,-9.28611589328882e-07,-6.248984408036556e-08,-2.482576198568688e-07,-4.350795138174193e-07,-9.60976728157906e-07
-7.683339965325511e-07,-2.486633297703365e-06,-2.169047201354702e-07,-4.779557627585491e-07,-1.896767043437421e-06,7.787983609060475e-08,-1.0780723648771192e-06,-1.4192408501836182e-06,-4.950003337510545e-07,-6.744657837194413e-07,-1.5391841444159585e-06,1.8119157944317641e-06,1.018950305147608e-06,-9.845497902081518e-07,-9.740697006865934e-08,-3.014703606631572e-07,-5.005466786207783e-07,-9.992270608907905e-07
-7.944905512834074e-07,-2.7894795547937214e-06,-2.482854294722848e-07,-4.921616903293129e-07,-1.908490356852207e-06,5.904314427402053e-08,-1.0910856806637943e-06,-1.4331914934108786e-06,-5.097025656636268e-07,-7.15886561106905e-07,-1.5453663376125717e-06,1.7956366005115706e-06,1.014867615263777e-06,-1.0270120533211126e-06,-1.2203244475991414e-07,-3.4283075277253003e-07,-5.530740444047674e-07,-1.019934282489885e-06
-8.089129324764608e-07,-3.331327179547675e-06,-2.691545402125689e-07,-4.998505818320852e-07,-1.9162818828501787e-06,4.603696527304317e-08,-1.0939930250031042e-06,-1.4385398999784629e-06,-5.151902953558001e-07,-7.430196361396934e-07,-1.557557646572401e-06,1.8045064987866288e-06,1.0193900441740198e-06,-1.0556164937027543e-06,-1.3552299388273765e-07,-3.7021825855938206e-07,-5.877469098741525e-07,-1.026122722693356e-06
-8.128691299646982e-07,-4.128310841255034e-06,-2.6449229076727596e-07,-5.007898541959128e-07,-1.917899071644775e-06,3.9735781118643275e-08,-1.0855826812515792e-06,-1.4348244225246794e-06,-5.108925795788144e-07,-7.558261050731565e-07,-1.5690759986739478e-06,1.839266300890922e-06,1.0383146399015528e-06,-1.0716383057187993e-06,-1.3827857894203343e-07,-3.835658029561772e-07,-5.948413967020411e-07,-1.0182838587677354e-06
-8.019763259759586e-07,-5.167436876407151e-06,-2.3895685445335897e-07,-4.954411683216396e-07,-1.9086068122078187e-06,3.9971264793344994e-08,-1.0671506876930723e-06,-1.4231412663960427e-06,-4.977715027083949e-07,-7.579650925886089e-07,-1.5731636905454094e-06,1.8953264968914173e-06,1.0695529815490208e-06,-1.0764122124227946e-06,-1.2470440478915406e-07,-3.847343633156565e-07,-5.724591200765728e-07,-1.0006187974915354e-06
-7.80457941432615e-07,-6.353893647006216e-06,-1.982379355600369e-07,-4.843175822616368e-07,-1.8812247793549164e-06,4.6368617614339785e-08,-1.0403770032433396e-06,-1.4030157037366091e-06,-4.7717511261672e-07,-7.544892333961258e-07,-1.5639943190838334e-06,1.9645928274134674e-06,1.1101795461054847e-06,-1.0636968877825014e-06,-1.0861418478119596e-07,-3.750176130024645e-07,-5.21130963053432e-07,-9.769809245427893e-07
-7.555261910106178e-07,-7.5432734504014e-06,-1.4817492912716177e-07,-4.666989022258749e-07,-1.8188598796636536e-06,5.934599844069449e-08,-1.0050553857051204e-06,-1.3738716916092191e-06,-4.496140917539765e-07,-7.496863233858619e-07,-1.5381620579778973e-06,2.0366167710225735e-06,1.1548430801075774e-06,-1.0498991961468382e-06,-8.84613021790047e-08,-3.5386293728104324e-07,-4.592247047475157e-07,-9.460941696064819e-07
-7.320116473251396e-07,-8.29908466452201e-06,-1.0138966944284415e-07,-4.416998166419071e-07,-1.7163229192198463e-06,7.93567054633073e-08,-9.603073670562067e-07,-1.3353741803591287e-06,-4.156480342584066e-07,-7.468325653612331e-07,-1.4964777032480823e-06,2.098476438579447e-06,1.1877408218699605e-06,-1.0415633550271504e-06,-5.98933563150123e-08,-3.205380526154153e-07,-3.8826449679225433e-07,-9.152733452950536e-07
-7.140973493493042e-07,-8.2116233503291e-06,-5.716566030813744e-08,-4.1043327598447423e-07,-1.5753402460322195e-06,1.0542398530293951e-07,-9.069162750415402e-07,-1.288187960321394e-06,-3.772005432255898e-07,-7.478480205700286e-07,-1.4448392746784794e-06,2.137356000662734e-06,1.1946978023071414e-06,-1.0410062897243602e-06,-2.6120497905382643e-08,-2.755585418377321e-07,-3.031221296500903e-07,-8.544944513619062e-07
-6.931795618326137e-07,-7.092082543577678e-06,4.316290190774521e-09,-3.7283065725702536e-07,-1.4077145665584617e-06,1.355553184682713e-07,-8.461046513452456e-07,-1.2349355349450187e-06,-3.3638247650651367e-07,-7.509886356997715e-07,-1.397921515084725e-06,2.147008114707779e-06,1.164994136104147e-06,-1.0355350565751923e-06,5.643964781428124e-09,-2.1966055749008157e-07,-2.354540456171876e-07,-7.940421532920958e-07
-6.613465649400855e-07,-5.9810935267548536e-06,8.991318863183204e-08,-3.284559219631694e-07,-1.2505121396133387e-06,1.685811990947469e-07,-7.764061659087773e-07,-1.1743925173838675e-06,-2.9309331408921426e-07,-7.488236843477687e-07,-1.3638552588387188e-06,2.1333525167016545e-06,1.1042129394244893e-06,-1.0213242912451694e-06,2.835017689778645e-08,-1.5290369215755943e-07,-1.7861960222090278e-07,-7.181138636124015e-07
-5.961512123330586e-07,-5.536529643480596e-06,2.2864284975276808e-07,-2.7082591391051976e-07,-1.1285199373338261e-06,2.0431707813901656e-07,-6.945222713522973e-07,-1.1096198891905148e-06,-2.453653267869421e-07,-7.270501423945937e-07,-1.3580655041752219e-06,2.1141964678992746e-06,1.0367194529678592e-06,-9.810636295054128e-07,2.561719277413023e-08,-7.640300674598323e-08,-1.626423766756977e-07,-6.303745775654341e-07
-4.952760979112611e-07,-4.3312685078536565e-06,4.087398107381006e-07,-1.9442008194452675e-07,-1.0987138517252996e-06,2.414630034822009e-07,-6.000397975895597e-07,-1.0373338039934383e-06,-1.9265830255187742e-07,-6.7569211825483e-07,-1.3965427429235456e-06,2.113674475824381e-06,1.0170711290156813e-06,-9.141843276052786e-07,-4.4210941367523965e-08,5.571225245462511e-09,-2.328539839243369e-07,-5.92063182122509e-07
-4.292852723754117e-07,-1.818472581355773e-06,5.295357414937814e-07,-9.16003092461093e-08,-1.1122143400973e-06,2.7632217208982495e-07,-4.973895383708061e-07,-9.67521845513428e-07,-1.3795758781643916e-07,-5.913216816628246e-07,-1.4905100713601963e-06,2.1546926807724763e-06,1.0988993549444658e-06,-9.221513899538845e-07,-1.0936751330086836e-07,8.663898655165796e-08,-3.051929481021622e-07,-5.672075598068876e-07
-3.8207185539414363e-07,8.30784267588903e-07,6.023992447115892e-07,4.419751741220025e-08,-1.1501205498565385e-06,3.0419296975091715e-07,-3.926509977000244e-07,-9.366924084733168e-07,-8.652019743241766e-08,-4.7077097883260165e-07,-1.636208896011979e-06,2.2516272551991443e-06,1.2904446594771488e-06,-9.650523043006002e-07,-1.7189936287733668e-07,1.6144736487657857e-07,-3.514474408518555e-07,-5.417699329558621e-07
-3.433734066655076e-07,2.5482636086961217e-06,6.804217828110888e-07,2.086539027470229e-07,-1.1893827686100706e-06,3.2145371464323527e-07,-2.9052006603421024e-07,-9.253979219100486e-07,-4.3690159775713366e-08,-3.15131047773581e-07,-1.8110416475574215e-06,2.4037936810136732e-06,1.4257216869499655e-06,-9.86591197265928e-07,-2.444143897627653e-07,2.269180796374049e-07,-4.0490617059383343e-07,-4.2624663826669195e-07
-3.05259260717754e-07,3.970774482935682e-06,7.387731049427448e-07,3.910333240097702e-07,-1.2479258883186644e-06,3.262194440898297e-07,-1.949190582017315e-07,-9.231509636922438e-07,-1.385282284131995e-08,-1.3658758141777168e-07,-1.981210826866548e-06,2.5936021110007502e-06,1.478520119335632e-06,-9.677467074264775e-07,-3.070890641852586e-07,2.812126709785099e-07,-4.32780390087869e-07,-3.4204711187503535e-07
-2.0366533432306883e-07,3.494158679822722e-06,8.353230262893248e-07,5.484283376398414e-07,-1.3521597265345025e-06,3.1830621943349356e-07,-1.0970074269735614e-07,-9.528656548705806e-07,6.3172139719185e-10,4.6241971282398533e-08,-2.032727059345886e-06,2.7923222972844475e-06,1.6264338904612917e-06,-9.269819433848852e-07,-3.6722222519818665e-07,3.2349921102516583e-07,-4.976538848880732e-07,-3.1343949208082255e-07
-1.2693376173765735e-07,2.140262655513749e-06,8.846151395146576e-07,6.266959630725955e-07,-1.524863584292802e-06,2.9950350454160087e-07,-3.682706365945732e-08,-9.985562058658914e-07,9.540391609846524e-10,2.126554696112209e-07,-1.952598644256076e-06,2.97043181621405e-06,1.8429270225323794e-06,-9.37649967044288e-07,-4.844642787100686e-07,3.5480363129898994e-07,-6.535913107730345e-07,-2.48640385083881e-07
-1.0429642698420068e-07,3.916100152954737e-07,8.972878885531339e-07,6.37050380167152e-07,-1.6570897011579208e-06,2.7302956711411034e-07,2.4202927238000795e-08,-1.031689962383617e-06,-8.612041764318103e-09,2.9543522109906255e-07,-1.8946901553310224e-06,3.1061189385454567e-06,2.0148583715742653e-06,-9.646555983100868e-07,-5.932461461523646e-07,3.77078346779807e-07,-7.84751445764352e-07,-2.2752702034634406e-07
-9.203241603778401e-08,-1.0626897289445366e-06,9.394856712893446e-07,6.29471006539782e-07,-1.7576544696429182e-06,2.41521029947368e-07,7.311545911536912e-08,-1.0443376473876385e-06,-2.3948472669296863e-08,2.7495388743930054e-07,-1.8636679523571915e-06,3.188787447555821e-06,2.181335744942007e-06,-9.816902608595988e-07,-6.503547665387024e-07,3.907145382352895e-07,-9.281256441765027e-07,-1.9956208724826162e-07
-8.254346288602977e-08,-1.597122613806233e-06,9.637689353861696e-07,6.529450081934169e-07,-1.8961028516667346e-06,2.0563059233827555e-07,1.0631117406841303e-07,-1.056795815148558e-06,-4.3636155666510626e-08,2.760783917557417e-07,-1.820068407651362e-06,3.21982317015642e-06,2.346489456694396e-06,-9.240184964477202e-07,-7.159256837684502e-07,3.9412458008620305e-07,-1.0707191438179686e-06,-1.5750178921546708e-07
-6.430807196864561e-08,-1.1182803503900077e-06,1.0107576385257241e-06,6.914727860036654e-07,-1.9392042578304236e-06,1.6499644760273182e-07,1.1913814012769749e-07,-1.0712031830556977e-06,-6.810505500259216e-08,2.9762000453811003e-07,-1.677439155799882e-06,3.2115258133153343e-06,2.447400367496233e-06,-8.749589918159882e-07,-8.254366434335906e-07,3.85999359669138e-07,-1.1329468990228347e-06,-1.0889042679207245e-07
-2.084758609291497e-08,4.712293474710711e-08,1.0808674902129497e-06,6.781250213600741e-07,-1.914782029768701e-06,1.19965242550433e-07,1.0966442206055978e-07,-1.0913362675330656e-06,-9.750346466871452e-08,3.1357929796391716e-07,-1.4963565418095822e-06,3.182433686833404e-06,2.511822278875812e-06,-8.456186358311254e-07,-9.093616540862976e-07,3.664787991833482e-07,-1.1534459941338562e-06,-6.098271666208459e-08
1.9165929855206956e-08,1.3095746782022765e-06,1.081980488255639e-06,6.26668543046144e-07,-1.8480416053868967e-06,7.17380783886298e-08,7.914933068294188e-08,-1.124550758069803e-06,-1.3126492715563394e-07,3.108648285528757e-07,-1.3832212262866663e-06,3.1495444519640112e-06,2.548461321195356e-06,-8.363930354262524e-07,-9.525322932447839e-07,3.3600025434009803e-07,-1.1541860847454125e-06,-5.365677752119925e-08
3.0442483915550085e-08,2.0441371110274664e-06,1.056323826800941e-06,5.507277066803561e-07,-1.8273539701987554e-06,2.1687202984450165e-08,3.080181452763869e-08,-1.1687555570191482e-06,-1.6847140231444754e-07,2.527186658676139e-07,-1.2641217892491163e-06,3.122492362624522e-06,2.5633452698701056e-06,-8.488511263396007e-07,-9.531043369091816e-07,2.950142289514236e-07,-1.1883297952553786e-06,-4.800875227990335e-08
9.909175016346716e-10,1.880231590903117e-06,1.035822116956919e-06,4.699291143579052e-07,-1.8227648953994548e-06,-2.8683490294531326e-08,-2.941069995144865e-08,-1.2198325525076788e-06,-2.0684829927711768e-07,1.9748174530194615e-07,-1.2006855925154162e-06,3.103169589934754e-06,2.5777369603412274e-06,-8.770619267245384e-07,-9.414359721805487e-07,2.4632400456582724e-07,-1.227040365504227e-06,-6.454703030307628e-08
-3.100752824767507e-08,8.557302082959211e-07,9.956436757244416e-07,3.6932402091538607e-07,-1.8163509972537064e-06,-7.530643361745955e-08,-9.162766413233193e-08,-1.2697511922971329e-06,-2.417649396227302e-07,1.1325858610389807e-07,-1.1916368113559186e-06,3.088423445040816e-06,2.590918586643024e-06,-9.231699023498187e-07,-9.239270008320986e-07,1.9420718232246773e-07,-1.2530466733008753e-06,-9.601249588424927e-08
-7.51331520059536e-08,-6.673229342549806e-07,9.629418986943924e-07,3.00679731460881e-07,-1.8224969381809517e-06,-1.1331406552693854e-07,-1.4482388915281747e-07,-1.3080208484884655e-06,-2.674081540328414e-07,5.188943240067864e-09,-1.2059565831287909e-06,3.072031762418637e-06,2.6028243020245353e-06,-9.675743327371206e-07,-8.846976126748326e-07,1.4570661230884533e-07,-1.2789966157892768e-06,-1.1099721078300283e-07
-1.157375289292145e-07,-2.0956615442636576e-06,9.398000529680753e-07,2.622044613997468e-07,-1.8044035627700741e-06,-1.39380930001556e-07,-1.8188193435614613e-07,-1.3270725898493506e-06,-2.799408699305523e-07,-4.431089136392607e-08,-1.2519546738843823e-06,3.0481928884773483e-06,2.616115602878539e-06,-1.0130762645787092e-06,-8.750319904600297e-07,1.0733421062109617e-07,-1.285886887679936e-06,-1.1692262659932178e-07
-1.3888965189989866e-07,-2.702360090180058e-06,9.440915678700024e-07,2.365572575976358e-07,-1.770433904591674e-06,-1.5245570352486953e-07,-2.0122871579842298e-07,-1.324151648284775e-06,-2.7851379611309274e-07,-7.359165918418948e-08,-1.2975229879911464e-06,3.014702463960024e-06,2.6305253074147387e-06,-1.0582454259159205e-06,-8.674704806873118e-07,8.451610033597798e-08,-1.2626782751893664e-06,-1.3163847910756357e-07
-1.5260343590188246e-07,-3.121190700290214e-06,9.737068319805224e-07,2.2699780817938972e-07,-1.73096968234117e-06,-1.5338396162731123e-07,-2.0413802650049283e-07,-1.2997092138075727e-06,-2.6368007928821266e-07,-7.827810464945795e-08,-1.3313594152252141e-06,2.97362628353828e-06,2.644611503303248e-06,-1.092339840351681e-06,-8.422853114700556e-07,8.309506738296508e-08,-1.221748226355426e-06,-1.4582026175163683e-07
-1.5379482152140222e-07,-2.3567729265675653e-06,1.009798409901077e-06,2.207750543095791e-07,-1.6840326996392647e-06,-1.4323820822940677e-07,-1.927454990602797e-07,-1.2563615435060627e-06,-2.36730620002307e-07,-4.229676448752195e-08,-1.3456165763123153e-06,2.930839513517148e-06,2.655520370350824e-06,-1.108696874867741e-06,-8.24113403866447e-07,1.0609598607099857e-07,-1.1762555686905104e-06,-1.6014955386128082e-07
-1.416430012434511e-07,-1.192203384152547e-06,1.0348186876214117e-06,2.2000781362509462e-07,-1.6396099625394707e-06,-1.248703869095115e-07,-1.7077580985941076e-07,-1.199121191905841e-06,-2.006762823988013e-07,-2.6152386664855145e-08,-1.3338512801324822e-06,2.890721766508201e-06,2.6584169643786017e-06,-1.095677397983118e-06,-8.102205555231712e-07,1.5329900874659173e-07,-1.1284808473521615e-06,-1.7369248187926363e-07
-1.2358742886826706e-07,2.2092213236535803e-07,9.95534229455843e-07,2.2547644281182104e-07,-1.5931527848433205e-06,-1.0145928850308322e-07,-1.4295511845360955e-07,-1.1343516569855659e-06,-1.601384091570247e-07,3.089207467142887e-08,-1.2974186461651817e-06,2.851545948126433e-06,2.6474559562886756e-06,-1.052279377437783e-06,-8.049358912613034e-07,2.1890320210581583e-07,-1.0841185300099408e-06,-1.6452223013221087e-07
-1.0456900550432546e-07,1.6552365692048442e-06,8.827831794624903e-07,2.3145909140709692e-07,-1.5315033325696206e-06,-7.465435671521426e-08,-1.1158550731764272e-07,-1.0665832019273757e-06,-1.1898207708709496e-07,1.2127673325731568e-07,-1.1831461103325478e-06,2.804884927980959e-06,2.6175752443435317e-06,-9.869440508228548e-07,-7.899741515934359e-07,2.9603759481049216e-07,-1.0362290222474524e-06,-1.4369371327934681e-07
-8.23564561429014e-08,2.8849580046065684e-06,7.857623414043618e-07,2.325672546809117e-07,-1.4455691645409298e-06,-4.416519774220568e-08,-7.545235330135997e-08,-9.97891599713116e-07,-7.902739569716718e-08,2.1348599089838871e-07,-9.883734236451884e-07,2.737389806515157e-06,2.565205111499924e-06,-9.133018632072964e-07,-7.763592901458378e-07,3.7766241503862664e-07,-9.67899516595233e-07,-1.2062549570905737e-07
