0,1,2,3,4,5,6,7,8,9,10,11,12,13,14,15,16,17
4.2223619449251627e-08,-6.481046791335983e-08,-6.818643328889379e-09,-3.880462114637178e-08,6.86438351261618e-08,3.333396789129705e-08,-1.2024697969998129e-07,-1.4800212753719108e-08,-5.097673058325428e-08,1.037720327491864e-07,8.32021213188058e-08,1.6694620019917972e-07,3.628505844689658e-07,1.0751792889258482e-07,2.827084830238169e-08,2.123342342820853e-07,1.6479473875730253e-07,1.123621980370787e-07
2.158571133092119e-08,-3.791414359739035e-08,-1.4489605157150925e-09,-1.4690828475754286e-08,5.753528777653659e-08,5.519632827803516e-08,-1.1809130942830735e-07,4.837345987996809e-10,-3.6151950999177e-08,8.051711264678254e-08,8.126956131943649e-08,8.844121323976154e-08,2.554809020127783e-07,1.0006189296506338e-07,3.218346862820553e-08,1.93689667581412e-07,1.3735349214617222e-07,1.0038231016952969e-07
2.8766853773689825e-09,-1.8671921992486545e-08,4.112422238945784e-10,7.881934878464609e-10,4.433816497882862e-08,6.70270938543528e-08,-1.0159414388095243e-07,1.4465644186206013e-08,-2.7255885016770983e-08,5.581515790017017e-08,7.384824424666105e-08,1.3710106981585185e-08,1.4189560670895516e-07,7.891008979507488e-08,3.574686848390834e-08,1.7298154759749866e-07,1.1291774827861054e-07,8.826441239960427e-08
-1.0604593051442469e-08,-1.4750987187273906e-09,2.3037628319611033e-09,1.3201812069735529e-08,3.227723546707313e-08,7.357909499112725e-08,-7.361577037670181e-08,2.565826947046272e-08,-2.2625482538262922e-08,3.342780402045683e-08,6.201260513263714e-08,-5.426098900662634e-08,3.896408261551016e-08,4.980531576845523e-08,3.7388881667154235e-08,1.5208416503104017e-07,9.158969671716548e-08,7.568621102746147e-08
-1.7507048989496836e-08,1.1258199700398363e-08,5.457440973018479e-09,2.2656310606768373e-08,2.246631383020061e-08,6.936909128688239e-08,-4.035743204743276e-08,3.158657953184696e-08,-2.009957686352015e-08,1.560384009571352e-08,4.6195112391735725e-08,-1.1354607910930571e-07,-3.96285990368581e-08,1.8692494081902036e-08,3.410693182405211e-08,1.296543106154211e-07,7.224549887323173e-08,6.208201978573333e-08
-1.913902345226276e-08,2.3491096815364224e-08,8.737211024587532e-09,2.9567352032759127e-08,1.398293803775243e-08,5.1202248054696925e-08,-8.804142940682408e-09,2.942543395179212e-08,-1.721571085427915e-08,2.0798443464745846e-09,2.7607450901294918e-08,-1.5947488183651275e-07,-8.63957189519102e-08,-9.869867637174197e-09,2.359607385845002e-08,1.0332335499215231e-07,5.315311504359577e-08,4.66160273614366e-08
-1.8238710746710804e-08,3.030593280020924e-08,1.0459163817323224e-08,3.128362145449163e-08,5.6276493313376365e-09,2.2709765164470575e-08,1.733595021925945e-08,1.7694399120082826e-08,-1.1860168605211793e-08,-8.859944748353711e-09,9.266632794365591e-09,-1.8311115164404287e-07,-1.0133539694968546e-07,-3.333573558023392e-08,6.199507860962246e-09,7.209349510362681e-08,3.379877703370906e-08,2.8993463640062894e-08
-1.703194583744676e-08,3.0844664617086314e-08,1.0563140068269544e-08,2.7712055387820988e-08,-2.385836435762366e-09,-8.360221462614917e-09,3.950177057402832e-08,-1.97664603237188e-09,-3.399888103689705e-09,-1.9090224967456216e-08,-4.829333520192513e-09,-1.7527413890862075e-07,-9.018836235889234e-08,-4.984520731986245e-08,-1.4735100896051854e-08,3.706566223163329e-08,1.4924474931838105e-08,1.0218620504125335e-08
-1.6120858769723142e-08,2.7911420755211604e-08,1.0675355610574236e-08,2.1952501796920388e-08,-8.525971445285307e-09,-3.2114244927602765e-08,6.157998574296775e-08,-2.4661615059115798e-08,6.939154341727538e-09,-2.9528356416049606e-08,-1.2094655224182724e-08,-1.33541350923897e-07,-6.223749204958707e-08,-5.860269204879563e-08,-3.4427582102937493e-08,2.622989963459316e-12,-2.2249209192570472e-09,-8.424528232523917e-09
-1.4848078211099583e-08,2.399569258692409e-08,1.2229475442630651e-08,1.6873024680843577e-08,-1.1651668891433135e-08,-4.144720832758376e-08,8.456379039378058e-08,-4.391445748152903e-08,1.7080858601296335e-08,-3.996625656167541e-08,-1.3567301462367795e-08,-6.5798310665898e-08,-2.8986284614756995e-08,-5.992019165733373e-08,-4.891824028372897e-08,-3.855746153023016e-08,-1.815052609293004e-08,-2.6175451279600073e-08
-1.2357742500661218e-08,2.0379569452478912e-08,1.4528646810079054e-08,1.3015404558660948e-08,-1.2808107987531979e-08,-3.622746380367379e-08,1.0345075374849731e-07,-5.394806897117747e-08,2.5360097018720478e-08,-4.924203491828854e-08,-1.3992211865036482e-08,1.2399133172640571e-08,-2.456012404983786e-09,-5.408725059079982e-08,-5.6003742504748224e-08,-7.915078634925417e-08,-3.5640116828734035e-08,-4.332029188043854e-08
-8.115112575696318e-09,1.6095561545279283e-08,1.4519796465464816e-08,8.16724061473516e-09,-1.500629118169838e-08,-2.4245237548708488e-08,1.092648818350949e-07,-5.121169767886862e-08,3.084242175775448e-08,-5.488724058802698e-08,-1.9319742618638938e-08,8.390290001539407e-08,6.277664300922666e-09,-4.210506970117487e-08,-5.427279577359275e-08,-1.2123160913699182e-07,-5.731586074372193e-08,-6.024740307706579e-08
-1.5778611695450939e-09,8.798401316501202e-09,8.51819384464112e-09,-1.0471866094264238e-09,-2.1779837238858068e-08,-1.8289258732624983e-08,9.395881252238349e-08,-3.446131611622887e-08,3.2860721873675375e-08,-5.327187668859176e-08,-3.397185421844734e-08,1.346771260860255e-07,-1.0774529937733977e-08,-2.5215923180763095e-08,-4.1998330502291606e-08,-1.619067696729896e-07,-8.493612052412781e-08,-7.669060208811133e-08
8.172752049717317e-09,-3.540287284449929e-09,-5.696166887831563e-09,-1.7205270173571e-08,-3.534653828948743e-08,-3.021892774881303e-08,5.3949729813302136e-08,-4.726526082049647e-09,3.1427796104264524e-08,-4.065950718763469e-08,-5.918362074599254e-08,1.55201347455928e-07,-5.5837467612508925e-08,-8.54161743397316e-09,-1.7931272506052275e-08,-1.9746575509876035e-07,-1.1893249055265067e-07,-9.170015165886339e-08
2.1889457339213596e-08,-2.1629518745453872e-08,-2.800987442631466e-08,-4.118415428302371e-08,-5.577180976583518e-08,-6.473794416962599e-08,-9.438607467374609e-09,3.4282511569704364e-08,2.6730803748664605e-08,-1.5965496771099537e-08,-9.325344292961459e-08,1.4030329359904472e-07,-1.2384152064874967e-07,-1.6077622783556535e-09,1.6281582692470033e-08,-2.2610194741133555e-07,-1.589120463222658e-07,-1.0415731311835983e-07
3.8792749757611955e-08,-4.5039101337585636e-08,-5.6429783953693636e-08,-7.22854560024348e-08,-8.159536331199908e-08,-1.1677708279961442e-07,-9.145728900788165e-08,7.610396774616577e-08,1.8343540118062808e-08,2.0255147088392092e-08,-1.3318956552046368e-07,8.942558134534368e-08,-2.037874555414659e-07,-1.1856404074613895e-08,5.4512901251819154e-08,-2.4881473122527145e-07,-2.0466545979793805e-07,-1.1388952159006986e-07
5.560927703256935e-08,-7.272376617707657e-08,-8.791199300486214e-08,-1.0848146521436503e-07,-1.1052662986758946e-07,-1.7423288309733814e-07,-1.8522939011037018e-07,1.1281018031886582e-07,5.43300833210253e-09,6.333354172280054e-08,-1.7545616155907648e-07,8.122780463042335e-09,-2.8169205967839185e-07,-4.256911790737891e-08,8.743969579136986e-08,-2.673872332948115e-07,-2.542050688363238e-07,-1.2169486562929862e-07
6.73248288708029e-08,-1.0287545806042382e-07,-1.1865003512021915e-07,-1.4622483281027712e-07,-1.4000050860076338e-07,-2.235966988950955e-07,-2.8177827795025214e-07,1.369659933038203e-07,-1.190959701906409e-08,1.0607278120463434e-07,-2.1531998975588808e-07,-9.025561504582347e-08,-3.433544337082694e-07,-9.015404514937685e-08,1.0633460929645705e-07,-2.814132956328188e-07,-3.04513973312817e-07,-1.2833126370972341e-07
6.97441344478898e-08,-1.324059092491792e-07,-1.44324406573441e-07,-1.8035052507926439e-07,-1.6688425348711355e-07,-2.546896067352383e-07,-3.695192084545696e-07,1.4394252178309466e-07,-3.144006531339038e-08,1.4218055622040943e-07,-2.4640467264360204e-07,-1.8520984806699722e-07,-3.776490457836786e-07,-1.4333814419700912e-07,1.0711550680514015e-07,-2.878208558129924e-07,-3.5003800094714676e-07,-1.3355729923582925e-07
6.221282804765462e-08,-1.5738842131531108e-07,-1.6104291616297275e-07,-2.0523114973507354e-07,-1.8832321505528044e-07,-2.6319653807069863e-07,-4.3462943841420493e-07,1.3379307904488563e-07,-4.9375856956939216e-08,1.6802138521290447e-07,-2.626084358917463e-07,-2.536339027599886e-07,-3.803042096151346e-07,-1.8715586856773057e-07,9.23011250221631e-08,-2.8399912845515804e-07,-3.8485014858746586e-07,-1.3603741125564616e-07
4.835435705819202e-08,-1.7501301757959036e-07,-1.6772161370965537e-07,-2.1737925817483836e-07,-2.0327998945275115e-07,-2.5159468377532836e-07,-4.63326630496892e-07,1.1060358424377672e-07,-6.194383050816091e-08,1.8483914200038192e-07,-2.6220742367489064e-07,-2.7684538608950135e-07,-3.565201748968239e-07,-2.0860712098796078e-07,6.965579459039482e-08,-2.716421532396405e-07,-4.0577417126369883e-07,-1.3457568813669482e-07
3.4311041442347034e-08,-1.8572475524500427e-07,-1.67604831784737e-07,-2.1782331876092225e-07,-2.1319918526658322e-07,-2.2830699036338206e-07,-4.4624737923119583e-07,8.049413607362059e-08,-6.673125907166346e-08,1.9741150661938398e-07,-2.5025904710591205e-07,-2.4671894215840565e-07,-3.199417011129714e-07,-2.0171525245668725e-07,4.814713033465248e-08,-2.579219843722575e-07,-4.136993483283278e-07,-1.289950853919479e-07
2.554739817638524e-08,-1.93507452839167e-07,-1.6718141942729996e-07,-2.1210177711162755e-07,-2.2186378225165218e-07,-2.0445849895503724e-07,-3.8338699968353946e-07,4.9914560650643156e-08,-6.341316842447263e-08,2.1128603397096212e-07,-2.366930864741512e-07,-1.6792318026039225e-07,-2.8678971166816383e-07,-1.6998810762469677e-07,3.353364734611164e-08,-2.5346482023965676e-07,-4.137266524902404e-07,-1.2051001953432482e-07
2.4609863116531285e-08,-2.0373394341227798e-07,-1.7292672468537383e-07,-2.0748404438165188e-07,-2.3313517732776915e-07,-1.892837708371661e-07,-2.8666661313127873e-07,2.3998402876440035e-08,-5.4388998699482366e-08,2.3007085335109803e-07,-2.3118311255042763e-07,-5.553899499887846e-08,-2.6884508777322074e-07,-1.263751782011565e-07,2.5817239835754908e-08,-2.6851695956829897e-07,-4.1086529770922096e-07,-1.1120337380079881e-07
3.0877439162129356e-08,-2.2004722332906844e-07,-1.8776259325995062e-07,-2.0923336355549135e-07,-2.4826921626146917e-07,-1.866051438609025e-07,-1.7787187179568608e-07,6.088406493031771e-09,-4.504198343476309e-08,2.548206762533698e-07,-2.3820213391402156e-07,7.013666142393827e-08,-2.693854100268679e-07,-8.470206676809375e-08,1.9399416077749076e-08,-3.0884686315129376e-07,-4.0897193663208645e-07,-1.0310192948657456e-07
4.137615044398627e-08,-2.423519963754957e-07,-2.0962812461637982e-07,-2.183228265543136e-07,-2.65654532320009e-07,-1.9388109582946844e-07,-8.211872796241915e-08,-2.2625463994337183e-09,-4.252732682897583e-08,2.837513644697847e-07,-2.5522760848944353e-07,1.8908655485933917e-07,-2.837699030611666e-07,-5.546446553537159e-08,6.066883118225176e-09,-3.730721290005396e-07,-4.097533391487117e-07,-9.786254312954307e-08
5.182303209885042e-08,-2.6707663893920476e-07,-2.3287703242968487e-07,-2.3189126120010393e-07,-2.8181035288152716e-07,-2.0360508699383357e-07,-1.9693012966874987e-08,-2.368622356639604e-09,-5.2772297369477396e-08,3.1259589316006616e-07,-2.748567097354528e-07,2.85556562024998e-07,-3.0363352815979267e-07,-4.422579062723226e-08,-1.9963653279437008e-08,-4.52902320220789e-07,-4.1276766912675003e-07,-9.672595000438458e-08
5.789610058909172e-08,-2.89418196322804e-07,-2.5165351679094153e-07,-2.458726771236013e-07,-2.9373766124228464e-07,-2.0626928638731308e-07,-5.1441809250662024e-11,2.2032370396861945e-09,-7.734831540665789e-08,3.367342533869681e-07,-2.894859248227239e-07,3.498176876077898e-07,-3.216972930717629e-07,-4.8661095105887286e-08,-5.789735955595591e-08,-5.361167696946753e-07,-4.178616437805213e-07,-1.0022655453666307e-07
5.6856354931473506e-08,-3.06022269926079e-07,-2.629246987493575e-07,-2.5772232937057065e-07,-3.006595002445966e-07,-1.9419255172291023e-07,-2.0128719660513454e-08,7.481422208654723e-09,-1.1270165128403064e-07,3.532490783206675e-07,-2.952937158002481e-07,3.786751785911984e-07,-3.3454189069110345e-07,-6.11959659567778e-08,-1.0026057189468562e-07,-6.103826282617041e-07,-4.2511268259827156e-07,-1.0821174068442983e-07
4.883909126014218e-08,-3.162824775599663e-07,-2.6738116197338054e-07,-2.673308339123861e-07,-3.0394803373454997e-07,-1.649675495351441e-07,-6.677754525497122e-08,1.0691684489820035e-08,-1.5222968229548037e-07,3.6236372922202216e-07,-2.933849750951473e-07,3.762320447644555e-07,-3.4230940619059026e-07,-7.263814276474328e-08,-1.3662085956957066e-07,-6.664060836867818e-07,-4.3441389107632954e-07,-1.1953015565051785e-07
3.691554105226454e-08,-3.2168667651699575e-07,-2.681186668292088e-07,-2.76111452582296e-07,-3.0573873203555526e-07,-1.2258460797197725e-07,-1.2168634094238968e-07,1.0955297043863654e-08,-1.8911255337138983e-07,3.670850127174148e-07,-2.8813641573481374e-07,3.5380294043323965e-07,-3.468920939857323e-07,-7.658237647790073e-08,-1.583618659147583e-07,-7.001407477284321e-07,-4.450925189783911e-07,-1.3237796163217916e-07
2.554228412179675e-08,-3.243331273764156e-07,-2.684824829035435e-07,-2.8570678998995645e-07,-3.0761011622394544e-07,-7.5225917844793e-08,-1.6664717549678847e-07,8.832362693749258e-09,-2.1886597600585907e-07,3.693123526690301e-07,-2.8430891136315654e-07,3.259685743609191e-07,-3.5071541120380744e-07,-7.324526424075778e-08,-1.6213979419744305e-07,-7.136871359804533e-07,-4.565423842746139e-07,-1.4528490745494304e-07
1.8223787701480116e-08,-3.2609121986918027e-07,-2.710654346273468e-07,-2.974222284288323e-07,-3.10339768708516e-07,-3.135569513294934e-08,-1.8810691611741522e-07,5.2931758853237e-09,-2.407404729225576e-07,3.6845520554064e-07,-2.8541264723878063e-07,3.03434699420672e-07,-3.56743898940618e-07,-6.780675723757192e-08,-1.5047893359469204e-07,-7.142523213057158e-07,-4.6681119896807966e-07,-1.578055592806959e-07
1.5983810949385515e-08,-3.286840802261531e-07,-2.7756156767290883e-07,-3.122878058078964e-07,-3.139569308691169e-07,2.8788833413826348e-09,-1.8105481923673942e-07,1.3279156747627575e-09,-2.5677560200819243e-07,3.6192330866848807e-07,-2.928767501500146e-07,2.8809751536424326e-07,-3.685897284167193e-07,-6.58661546344088e-08,-1.293850909616186e-07,-7.114519967742652e-07,-4.768915988753332e-07,-1.7060783635277398e-07
1.7537601329653063e-08,-3.3376383033656665e-07,-2.8862039175281286e-07,-3.3087862346306067e-07,-3.180096570670657e-07,2.3798512265546328e-08,-1.509276355635957e-07,-1.7058223267489333e-09,-2.6874307263138935e-07,3.4757378531120223e-07,-3.0617180494377975e-07,2.740035920187461e-07,-3.8906191230074277e-07,-7.051849354072935e-08,-1.0534918730753746e-07,-7.140581819800049e-07,-4.904241726690329e-07,-1.8463647698896472e-07
2.066599017288694e-08,-3.4229902575655797e-07,-3.03295574613528e-07,-3.52470128393514e-07,-3.2113148297856546e-07,2.9632243107151777e-08,-1.1090093242718435e-07,-2.220766594297085e-09,-2.7639182575033133e-07,3.263793767406403e-07,-3.2332812797021076e-07,2.524605006907994e-07,-4.185337261371426e-07,-8.310934386231663e-08,-8.403081095002018e-08,-7.272690542096926e-07,-5.031520946863863e-07,-2.0003539415908084e-07
2.359097901149108e-08,-3.538421864371301e-07,-3.1859426289843795e-07,-3.744803442885701e-07,-3.209610632758372e-07,2.104777058791734e-08,-7.506662537380833e-08,8.931506877187901e-10,-2.7775663398173917e-07,3.0275224064125784e-07,-3.4177944858171776e-07,2.174278858397509e-07,-4.535795463902084e-07,-1.0331391207741576e-07,-7.014407329359551e-08,-7.514580324122419e-07,-5.172953249351322e-07,-2.160117798379982e-07
2.548566440245118e-08,-3.6677036009598586e-07,-3.3068674665512605e-07,-3.9348902796740186e-07,-3.155292392056566e-07,1.7644025121946467e-09,-5.244406605728949e-08,7.825923553485836e-09,-2.714912079268871e-07,2.824837809719151e-07,-3.6041377125596023e-07,1.684763423291604e-07,-4.889908768174426e-07,-1.27874882571061e-07,-6.751985918599322e-08,-7.830306059186228e-07,-5.314789814757314e-07,-2.3136890127493877e-07
2.6097649449673325e-08,-3.7960823909425503e-07,-3.372677097220957e-07,-4.0740803307331084e-07,-3.0498809615574824e-07,-2.2937923473927244e-08,-4.590358605895883e-08,1.7407179175532708e-08,-2.5847224337603514e-07,2.711562286911853e-07,-3.811878157609011e-07,1.1063519880055915e-07,-5.214508904649809e-07,-1.516424719984695e-07,-7.947840551035978e-08,-8.169186028720316e-07,-5.41011849696315e-07,-2.453874709624461e-07
2.4889667924330967e-08,-3.92213777136294e-07,-3.389153739964892e-07,-4.167125315682669e-07,-2.9220987889528924e-07,-4.926487190207335e-08,-5.482955950445837e-08,2.7273979677152178e-08,-2.412189323594111e-07,2.7142433711018034e-07,-4.082760133653532e-07,5.2315415952005766e-08,-5.519284744892814e-07,-1.708069151719463e-07,-1.0890236411822513e-07,-8.491254381415182e-07,-5.5012246931676e-07,-2.5830543007240637e-07
2.0420234941347282e-08,-4.055418513265875e-07,-3.379378016109993e-07,-4.2333018503677674e-07,-2.8114377829542236e-07,-7.645003410971011e-08,-7.742580969877398e-08,3.44625800575499e-08,-2.2321684743770508e-07,2.808923312802331e-07,-4.443062380654558e-07,2.395611419440057e-09,-5.842240404849866e-07,-1.870821676869504e-07,-1.5690995481487927e-07,-8.778239779454933e-07,-5.610164287500448e-07,-2.7093117004981016e-07
1.0844696480918571e-08,-4.200200049095944e-07,-3.357569731207664e-07,-4.281650362887102e-07,-2.7381802427463114e-07,-1.0511422963558947e-07,-1.1049679777444452e-07,3.600479702151983e-08,-2.0881082404896163e-07,2.933779732863767e-07,-4.8669007500555e-07,-3.285300384463089e-08,-6.209598967799047e-07,-2.062955101434288e-07,-2.209105745344515e-07,-9.027649514150797e-07,-5.731064198105202e-07,-2.8384565689786796e-07
-4.921154041904438e-09,-4.339947540096113e-07,-3.3138238777112733e-07,-4.2971505658237144e-07,-2.6898273692529725e-07,-1.3401640080723682e-07,-1.480919742434969e-07,2.9833100360736845e-08,-2.029998599458575e-07,2.989115073524969e-07,-5.277760606935733e-07,-5.138555295805202e-08,-6.605525412566273e-07,-2.331936430660596e-07,-2.941065438851722e-07,-9.240615498001708e-07,-5.845114382196451e-07,-2.974243096071613e-07
-2.6538236438571563e-08,-4.4382862329292703e-07,-3.2238294728402217e-07,-4.25180434511587e-07,-2.6299389195875366e-07,-1.5836307275521643e-07,-1.8187958093016457e-07,1.5348578922856774e-08,-2.1046179853535386e-07,2.8854242901271e-07,-5.583739561803545e-07,-5.4913558503973535e-08,-6.97054208319992e-07,-2.685378967702737e-07,-3.6727117357567874e-07,-9.417788764875152e-07,-5.935833250915743e-07,-3.120921696032746e-07
-5.2711020608800425e-08,-4.4579637826857395e-07,-3.073365280048753e-07,-4.1292988816367143e-07,-2.5264782057133183e-07,-1.7125342569596881e-07,-2.0404248149439865e-07,-6.6284624279862465e-09,-2.3420243032831102e-07,2.6017710976737166e-07,-5.72898085124851e-07,-4.7689950275370043e-08,-7.234359805038992e-07,-3.096061097733761e-07,-4.317104356205543e-07,-9.566699756029019e-07,-5.981998032267884e-07,-3.2851147620721145e-07
-8.203212904349625e-08,-4.3826949697419365e-07,-2.874097884009183e-07,-3.9396348137839444e-07,-2.3730705161601932e-07,-1.6668009660748127e-07,-2.1012813850161763e-07,-3.4345945149540075e-08,-2.7404234007109656e-07,2.1389608895664084e-07,-5.718156867823843e-07,-3.5225031373376206e-08,-7.357820731608261e-07,-3.5318392928618766e-07,-4.81783552482229e-07,-9.707148776312313e-07,-5.996994917789658e-07,-3.4761711182813293e-07
-1.1336179677864468e-07,-4.224748289135107e-07,-2.659859695378967e-07,-3.712983000710666e-07,-2.1908322602942182e-07,-1.417373918394395e-07,-1.9935945029878364e-07,-6.582334740372017e-08,-3.2553662155336537e-07,1.568118554837504e-07,-5.608710972592627e-07,-2.287602525842857e-08,-7.357453123239521e-07,-3.97204091743359e-07,-5.159554272722116e-07,-9.861933054150944e-07,-6.013112406355778e-07,-3.69434399718193e-07
-1.4500933308536558e-07,-4.0155934786620926e-07,-2.4715078496999314e-07,-3.4831759917775485e-07,-2.017951540273109e-07,-9.778093600096506e-08,-1.7334150803515029e-07,-9.940490888893536e-08,-3.8090193309881587e-07,9.68237225270862e-08,-5.477144679275808e-07,-1.501270550059117e-08,-7.294608995064281e-07,-4.405360690835305e-07,-5.359004139713151e-07,-1.00408670809353e-06,-6.036211274207995e-07,-3.92533632803247e-07
-1.7434258026618582e-07,-3.7918057644300634e-07,-2.3435535028682495e-07,-3.277856651738809e-07,-1.8962343270341526e-07,-4.124963182769409e-08,-1.3552271333746807e-07,-1.3396646832485754e-07,-4.3156167060210633e-07,4.411460502833502e-08,-5.388098776482853e-07,-1.5097972342664027e-08,-7.24023296611833e-07,-4.807414339197205e-07,-5.442538047064844e-07,-1.0235372178369459e-06,-6.075988522707239e-07,-4.1458074962077924e-07
-1.986900466581655e-07,-3.5883661172267114e-07,-2.30133162792082e-07,-3.1208983199261526e-07,-1.862434152878884e-07,1.6457374320297654e-08,-9.175996481737927e-08,-1.68645804416609e-07,-4.7071026067995406e-07,7.6237454492831e-09,-5.380209481741984e-07,-2.5622580135364735e-08,-7.240187903048004e-07,-5.144790584536777e-07,-5.429342581868244e-07,-1.0426253234433464e-06,-6.127566958193372e-07,-4.333594752197582e-07
-2.1664563170432585e-07,-3.439177141076219e-07,-2.3629024949476874e-07,-3.0376799103309865e-07,-1.942640281313017e-07,6.137024647785347e-08,-5.0542622916540587e-08,-2.0277950824024664e-07,-4.948548371162928e-07,-8.356348248085935e-09,-5.461051866759239e-07,-4.643686559540359e-08,-7.301534615471074e-07,-5.399221087841159e-07,-5.331549895801868e-07,-1.0594302436778338e-06,-6.161998785493687e-07,-4.4765732123259577e-07
-2.28673587409443e-07,-3.373136956639822e-07,-2.53589730417824e-07,-3.05047759036448e-07,-2.1431084224937582e-07,8.16958064566821e-08,-2.1537919211418088e-08,-2.3617908162655005e-07,-5.037281315579401e-07,-6.4517500132574985e-09,-5.612472346440466e-07,-7.185540642067618e-08,-7.39904123778757e-07,-5.58742726572674e-07,-5.162481215809327e-07,-1.0727233838764258e-06,-6.181137581333735e-07,-4.5739675255680704e-07
-2.3633454750118852e-07,-3.4079311623539776e-07,-2.8054100530246794e-07,-3.162929545080208e-07,-2.437234485960912e-07,7.293483482553029e-08,-1.2349019396931487e-08,-2.6899273682563933e-07,-4.993039682109591e-07,5.0874741261363845e-09,-5.794236567927091e-07,-8.985338181728055e-08,-7.496858010811641e-07,-5.745947667518379e-07,-4.943321952010317e-07,-1.0823367092260933e-06,-6.155456004804671e-07,-4.6300533650592196e-07
-2.4093985488788194e-07,-3.533664720026045e-07,-3.126800871337951e-07,-3.347576696913428e-07,-2.7666949702925814e-07,4.012240582099384e-08,-2.493574060907462e-08,-3.0151565419400313e-07,-4.842375325848546e-07,1.6436408212305526e-08,-5.95546318166073e-07,-8.592647517645433e-08,-7.570401760770038e-07,-5.893177622941936e-07,-4.707643298496381e-07,-1.0893396162489953e-06,-6.053023779512852e-07,-4.6489675985461986e-07
-2.426876350860722e-07,-3.7119242959780674e-07,-3.436056484843344e-07,-3.552268927481476e-07,-3.0563270889473524e-07,-4.720713976662655e-09,-5.372950622668502e-08,-3.3409124687252474e-07,-4.6089103258560574e-07,2.134585962407167e-08,-6.052724882887488e-07,-4.925470186282598e-08,-7.623671120239589e-07,-6.011673453995211e-07,-4.501915081583854e-07,-1.0957722899607765e-06,-5.90009055721581e-07,-4.6360886813255804e-07
-2.410601390435758e-07,-3.8925879267651817e-07,-3.6780983290061353e-07,-3.725315917694228e-07,-3.2479946577653346e-07,-4.822638279728573e-08,-8.671304996080605e-08,-3.6670069665110915e-07,-4.315905140070803e-07,1.844675015698726e-08,-6.066667420669979e-07,2.293278459018783e-08,-7.696161685989216e-07,-6.050068071648592e-07,-4.376671981670318e-07,-1.10553279609691e-06,-5.681899951479965e-07,-4.600738165433837e-07
-2.3570220631645663e-07,-4.0337243292480547e-07,-3.829684957836946e-07,-3.8391549009659724e-07,-3.326653127055871e-07,-7.786556946219617e-08,-1.0938754746264574e-07,-3.985460506188303e-07,-4.000349903290421e-07,9.32858269499581e-09,-6.003184048796361e-07,1.2395288975531987e-07,-7.846509982554957e-07,-5.976045764834045e-07,-4.3676667709399607e-07,-1.1217451128339496e-06,-5.413534492686468e-07,-4.556020775909844e-07
-2.2705927282932247e-07,-4.112804120204823e-07,-3.89475955423562e-07,-3.889926423790969e-07,-3.311196464561339e-07,-8.803670559689218e-08,-1.0962962279100422e-07,-4.2792018525991515e-07,-3.710486429222234e-07,-7.430447147601779e-09,-5.873233061547577e-07,2.388959712369699e-07,-8.107585380432097e-07,-5.818675012627183e-07,-4.4761040566338933e-07,-1.144279070492169e-06,-5.133179128604327e-07,-4.514013646525282e-07
-2.1601937024110035e-07,-4.119187269149603e-07,-3.8777319963423815e-07,-3.8738602945652887e-07,-3.2231090639222775e-07,-7.747606164061674e-08,-8.048209059377624e-08,-4.522621478241882e-07,-3.4906674091918535e-07,-1.837110111318255e-08,-5.667838202200507e-07,3.480150016237582e-07,-8.438470401450583e-07,-5.669117092085734e-07,-4.6640701891219756e-07,-1.1679551915698982e-06,-4.854645505225452e-07,-4.477834848505704e-07
-2.0300672034330857e-07,-4.0419553653151814e-07,-3.760907455533232e-07,-3.7670171351357566e-07,-3.059473085080186e-07,-4.3032200276049303e-08,-2.0176656781388852e-08,-4.6902764676658864e-07,-3.368445393882078e-07,-2.855198139739071e-08,-5.352216368125446e-07,4.3102495919063905e-07,-8.717077511143317e-07,-5.642578121703209e-07,-4.873447393376137e-07,-1.183182951833746e-06,-4.563002551625657e-07,-4.441580113038303e-07
-1.8772938016283608e-07,-3.867940853394853e-07,-3.50988214839417e-07,-3.5322669417371854e-07,-2.7929076816444487e-07,1.488548810473352e-08,6.82363587331151e-08,-4.770612451956046e-07,-3.3550744272315676e-07,-5.276695386910284e-08,-4.885596494499627e-07,4.7203450768166365e-07,-8.790327511630045e-07,-5.816111002078984e-07,-5.054731426328798e-07,-1.1805807167735879e-06,-4.293561858053643e-07,-4.3959452815846144e-07
-1.6987122458735193e-07,-3.5955654337301884e-07,-3.1033295136368044e-07,-3.149961965965951e-07,-2.390839152994924e-07,9.448625499980824e-08,1.7585223789666798e-07,-4.775966914473586e-07,-3.4599794428855544e-07,-6.629617187804323e-08,-4.231691738687483e-07,4.6511796456848706e-07,-8.557140277718382e-07,-6.189257183901487e-07,-5.18149721449221e-07,-1.1554975089341258e-06,-4.032341713749391e-07,-4.3357676652445794e-07
-1.4958402462880648e-07,-3.2530739509537106e-07,-2.551086561220664e-07,-2.635999778906733e-07,-1.8681355742112625e-07,1.8875911655216934e-07,2.87203889527512e-07,-4.7411997394961803e-07,-3.694546768480022e-07,-7.553662726634807e-08,-3.429720486268189e-07,4.1787111129351886e-07,-8.026273830449448e-07,-6.680268240622773e-07,-5.241286186020971e-07,-1.110202692361915e-06,-3.7657317316391275e-07,-4.2627598415463774e-07
-1.276305841284536e-07,-2.885759418292896e-07,-1.939995212236011e-07,-2.0732046670785842e-07,-1.2933631533792262e-07,2.8521472131443406e-07,3.8313386023112e-07,-4.7101438949236195e-07,-4.0504379981960956e-07,-6.43770905558464e-08,-2.5952985379152004e-07,3.499431482839874e-07,-7.307054629889756e-07,-7.14796982836893e-07,-5.216809515240807e-07,-1.0526810951999201e-06,-3.523942639479714e-07,-4.1783377441246027e-07
-1.0461868031580011e-07,-2.539497341669898e-07,-1.343345294099349e-07,-1.5395512260113507e-07,-7.406250660012793e-08,3.5586269310162155e-07,4.474904531527613e-07,-4.716755095053465e-07,-4.476767353301989e-07,-5.9993341012190015e-09,-1.8117136362042558e-07,2.868265039421441e-07,-6.548796817803126e-07,-7.426897849914628e-07,-5.079553498615705e-07,-9.941685439092482e-07,-3.311143588177856e-07,-4.0769746673008215e-07
-8.00641817719013e-08,-2.2623567685661784e-07,-8.506339442495243e-08,-1.1165495363205015e-07,-3.77105069355972e-08,3.765144103280608e-07,4.734060968276215e-07,-4.770430188790853e-07,-4.884270624006855e-07,4.579587883588867e-08,-1.3948962997863743e-07,2.5166299440696e-07,-5.884302558696981e-07,-7.374891565930218e-07,-4.806108951506145e-07,-9.459976039579318e-07,-3.133878457522866e-07,-3.948633661096637e-07
-5.262869132006435e-08,-2.0399794381147686e-07,-7.342977179974042e-08,-1.0503266224704484e-07,-3.270533223996146e-08,3.44672722394623e-07,4.645404933342096e-07,-4.851002694091819e-07,-5.17786759537502e-07,8.5107852674111e-08,-1.6109296692887833e-07,2.5826325557158565e-07,-5.410951651924559e-07,-6.902477658704095e-07,-4.4079205189234873e-07,-9.168310310870992e-07,-2.9602218396918304e-07,-3.790132343610965e-07
-2.145878383809544e-08,-1.863110204552677e-07,-6.08442179736932e-08,-1.0118078647983088e-07,-2.2608903210686905e-08,3.44152604583567e-07,4.3141690600697583e-07,-4.91361138583678e-07,-5.29428606968194e-07,1.277097295304774e-07,-1.514089357062833e-07,3.1083218580272065e-07,-5.192262400096958e-07,-6.112619139079375e-07,-3.952789393273991e-07,-9.107450960721678e-07,-2.8679756430002945e-07,-3.613899380621442e-07
1.2323196132298228e-08,-1.9706883927217787e-07,-5.274108659584915e-08,-1.0061700229738161e-07,-1.583076914723877e-08,3.861896445752202e-07,3.870961118458829e-07,-4.902604529153241e-07,-5.222513717565187e-07,1.7064106436811247e-07,-1.333333796059614e-07,3.964367348611715e-07,-5.251575698089636e-07,-5.184716036366097e-07,-3.5578855100956726e-07,-9.259455185477832e-07,-2.783460237905114e-07,-3.4492394583134914e-07
4.5496620568382346e-08,-2.3012114476588197e-07,-8.185042558886038e-08,-1.2491939966803024e-07,-4.5003328546965274e-08,3.533838222023914e-07,3.4522999008958627e-07,-4.770715184746705e-07,-4.996378522865018e-07,2.468007535587137e-07,-2.028059316788489e-07,4.927812624364865e-07,-5.549209108389788e-07,-4.406539444660106e-07,-3.348594189373326e-07,-9.546623949943213e-07,-2.6831848484226104e-07,-3.326817102536041e-07
7.433673275689177e-08,-2.5818048388306314e-07,-1.257784227567757e-07,-1.6480893420393165e-07,-8.008354410051328e-08,2.5478815804194974e-07,3.191099502294839e-07,-4.4951931949875797e-07,-4.672484494914778e-07,2.9731708887704887e-07,-2.969423790343561e-07,5.762307966251391e-07,-5.968804547020043e-07,-4.536138214401193e-07,-3.4013343000292784e-07,-9.849030577104591e-07,-2.6156884891751385e-07,-3.2627643866601965e-07
9.697727262582136e-08,-2.8309376627080075e-07,-1.5007971982758938e-07,-1.933642241178622e-07,-7.572671221864031e-08,1.6835716900872236e-07,3.188043051907375e-07,-4.088078194397478e-07,-4.3193725887110313e-07,3.429308058303809e-07,-3.5484263740010226e-07,5.736548020069804e-07,-6.347368351370515e-07,-4.870970105817661e-07,-3.707620024892412e-07,-1.0051491916892554e-06,-2.501439398215975e-07,-3.2547913590028703e-07
1.1455431539313553e-07,-3.0803865156815474e-07,-1.4338772450299185e-07,-1.9522669031471932e-07,-4.504931505026844e-08,1.0224552461700415e-07,3.4716435931030616e-07,-3.5975537920448017e-07,-4.011025762916403e-07,3.8787802044312785e-07,-3.334135067705579e-07,5.411519312594658e-07,-6.537524366054896e-07,-5.064760887789908e-07,-4.185313501656138e-07,-1.0081103616317213e-06,-2.3255537861788854e-07,-3.288363232609516e-07
1.3024612056379556e-07,-3.18559450749152e-07,-1.411504527477389e-07,-1.9265179302278462e-07,-8.598192810892186e-09,1.792029974805359e-08,3.9840759630969853e-07,-3.0944440921194263e-07,-3.8209763570587105e-07,4.1255907991896725e-07,-3.197073947317349e-07,5.581976302319277e-07,-6.458251292082212e-07,-5.859741936474984e-07,-4.721783995455483e-07,-9.973981771846117e-07,-2.1157847482035465e-07,-3.3512747151488067e-07
1.471138865945399e-07,-3.1408973980977497e-07,-1.0479839405851552e-07,-1.6631776176420154e-07,2.0624684025437782e-08,1.9522338780236766e-08,4.6086922875499856e-07,-2.639790377430786e-07,-3.8075212108551923e-07,4.4132319007632875e-07,-2.898523317307201e-07,5.707536191060016e-07,-6.10226667532612e-07,-6.946571421003164e-07,-5.212245455150057e-07,-9.828228491857244e-07,-1.8912614485597167e-07,-3.429728578999507e-07
1.6659264478510792e-07,-3.050798325618453e-07,-6.505341567598246e-08,-1.3738926018940435e-07,8.849832343511107e-08,5.083278937901878e-08,5.208619745848494e-07,-2.2723255835288035e-07,-3.996403960354641e-07,4.516747745181986e-07,-2.429146985238914e-07,5.311168368236174e-07,-5.506272605976952e-07,-7.698303208094046e-07,-5.579735905785056e-07,-9.74409873511135e-07,-1.6669985280849514e-07,-3.509752168239396e-07
1.887229825425478e-07,-2.9068598676206465e-07,-2.5278385995292727e-08,-1.1036788463950104e-07,1.5800344800042418e-07,1.0104665554970716e-07,5.690871262865128e-07,-1.9870548936356574e-07,-4.3614528420078846e-07,4.295688148055199e-07,-1.6489415144289565e-07,4.7030245411378964e-07,-4.718272182476589e-07,-7.994393560471728e-07,-5.785603512285549e-07,-9.779361932061575e-07,-1.4643592433452462e-07,-3.5768190691193615e-07
2.133495510954403e-07,-2.7653197267052627e-07,9.799398130350941e-09,-8.899601766613156e-08,2.0977205283041812e-07,1.5192850523359063e-07,5.993992001196792e-07,-1.7476129108244691e-07,-4.875961849537359e-07,3.9660962443326197e-07,-1.0289939177817464e-07,4.479057564941222e-07,-3.785633956990339e-07,-7.947374424406361e-07,-5.833036407430108e-07,-9.921432484078965e-07,-1.2890784896831524e-07,-3.621039847117662e-07
2.4094302897702663e-07,-2.644585367523989e-07,3.859289281863761e-08,-7.402929481303444e-08,2.477865217807958e-07,1.8156165405998807e-07,6.066836494428604e-07,-1.5120506385010723e-07,-5.509747761513623e-07,3.820760267131096e-07,-5.843637352836392e-08,4.499828454181047e-07,-2.757832812597024e-07,-7.592336188712323e-07,-5.758983114454495e-07,-1.0140837452703316e-06,-1.1155156993620497e-07,-3.644505684832855e-07
2.7244592213497e-07,-2.553993914394278e-07,6.12143488854671e-08,-6.494620777016477e-08,2.769502166378645e-07,1.8921643753429035e-07,5.875104639294031e-07,-1.2460212479708693e-07,-6.224479377204852e-07,3.747468982348123e-07,-1.8892349084039198e-08,4.5944869246816434e-07,-1.6852657253480008e-07,-7.057297603797651e-07,-5.615237926366852e-07,-1.037497381344581e-06,-9.314272668706605e-08,-3.6567516003796793e-07
3.086005576560446e-07,-2.4987049122362875e-07,7.820280753072239e-08,-6.093381170750069e-08,2.989720774138789e-07,1.8070185861255852e-07,5.413231286502398e-07,-9.377678438498411e-08,-6.97339229343163e-07,3.8349817849682857e-07,1.61599463013276e-08,4.6707606427170783e-07,-6.116554233394791e-08,-6.479575047969131e-07,-5.446998459172949e-07,-1.0582650144957904e-06,-7.687780675030742e-08,-3.672612628269108e-07
3.494879682078804e-07,-2.4743885353615324e-07,9.045249722944316e-08,-6.051672670876408e-08,3.17947485320769e-07,1.6399248993692573e-07,4.727396898550293e-07,-5.993890805572705e-08,-7.684713323455442e-07,4.099247598729291e-07,4.8558317657148e-08,4.5957578459759905e-07,4.2351319093257506e-08,-5.947720294025287e-07,-5.279978061343925e-07,-1.0746750473491735e-06,-5.962282896850154e-08,-3.6973433789182746e-07
3.9440936215110375e-07,-2.465446400054976e-07,9.952642805256829e-08,-6.094193776419233e-08,3.372708774884417e-07,1.4849944992310918e-07,3.91668715116111e-07,-2.518321553411107e-08,-8.275068069588267e-07,4.3615632515451683e-07,7.916241807779517e-08,4.295739587586063e-07,1.3838750843625725e-07,-5.492499740745538e-07,-5.119766829495e-07,-1.0832673902867776e-06,-4.123868671651784e-08,-3.722272919152969e-07
4.417114932437747e-07,-2.4471210112680964e-07,1.0756244325595054e-07,-5.8776147057092827e-08,3.598264874740082e-07,1.4004984662767363e-07,3.1213438231025487e-07,7.29614875202248e-09,-8.66896441303817e-07,4.585042555927919e-07,1.0811218147307108e-07,3.7868973709790325e-07,2.2197970213750067e-07,-5.106433987492926e-07,-4.960000089114702e-07,-1.083733367521563e-06,-1.967508636568132e-08,-3.7314618839188283e-07
4.884240256094478e-07,-2.392439566096955e-07,1.1590667445012535e-07,-5.1776930153170435e-08,3.8641903555557345e-07,1.3863696125303658e-07,2.452438201532266e-07,3.423904504077398e-08,-8.828242554797443e-07,4.79821067045604e-07,1.3363500971340198e-07,3.1896798030944505e-07,2.87051323744746e-07,-4.78260662114111e-07,-4.797318621461009e-07,-1.0749454891311108e-06,3.5204693237805428e-09,-3.710485568789149e-07
5.302870887694129e-07,-2.2991198136916852e-07,1.240887781967817e-07,-4.05296713801985e-08,4.132814177046174e-07,1.3979787060568006e-07,1.9817227613571207e-07,5.424728369007624e-08,-8.770442570499813e-07,4.910764207865704e-07,1.533978954923158e-07,2.654259043700525e-07,3.286936830598412e-07,-4.5388123889537156e-07,-4.645276569348604e-07,-1.0567637801624434e-06,2.4698086295641016e-08,-3.6541746566181026e-07
5.626097574110417e-07,-2.1847460918960442e-07,1.302961999306705e-07,-2.8241027320391072e-08,4.375182325863589e-07,1.3810525147934845e-07,1.737886121390579e-07,6.41175368871505e-08,-8.576493693558917e-07,4.929585105365969e-07,1.6514918068723765e-07,2.2944139603398556e-07,3.451931871773782e-07,-4.3677778226980347e-07,-4.532347857652207e-07,-1.0315348224632899e-06,4.3417119489676714e-08,-3.563376640195841e-07
5.820875767194164e-07,-2.072424464012244e-07,1.3298303613170432e-07,-1.8634086447608686e-08,4.581164042731144e-07,1.301777243180344e-07,1.6963211538321514e-07,6.507668047934705e-08,-8.35272913195814e-07,4.885678818008935e-07,1.6843012561611613e-07,2.1609187076155708e-07,3.392668212880985e-07,-4.2470736076417666e-07,-4.482985440057494e-07,-1.001159768727606e-06,5.76539485285679e-08,-3.438033065870155e-07
5.888898301422263e-07,-1.976213192187081e-07,1.3236720324859451e-07,-1.3646170491452271e-08,4.7276912709535074e-07,1.1603665000434551e-07,1.7870651298096515e-07,6.298674777529494e-08,-8.170245658261093e-07,4.776085454674405e-07,1.6579378127037653e-07,2.228510994221785e-07,3.1686398405063853e-07,-4.14419993082784e-07,-4.499445385720236e-07,-9.692039024587307e-07,7.004680044442824e-08,-3.27366079429243e-07
5.861897348268104e-07,-1.8907404023380892e-07,1.302761354810824e-07,-1.2771378833828971e-08,4.814186025629916e-07,9.889807404198289e-08,1.898565998866396e-07,6.113626138621679e-08,-8.039831138752132e-07,4.6310523395003537e-07,1.6076769990840524e-07,2.421010884829819e-07,2.839159542635302e-07,-4.0344054763575915e-07,-4.5612779497187506e-07,-9.380982880592878e-07,8.332655683819399e-08,-3.0671539508375065e-07
5.782850987049137e-07,-1.8035022953711607e-07,1.286165512144655e-07,-1.4272103520178484e-08,4.844275662322209e-07,8.38017936844298e-08,1.904966877072893e-07,6.371996811860352e-08,-7.932054327601029e-07,4.467478752048911e-07,1.56066243702284e-07,2.6505756919754247e-07,2.438124521921139e-07,-3.941794573188791e-07,-4.6422923883640423e-07,-9.106335181721695e-07,9.67259193842518e-08,-2.8276856159300163e-07
5.686161619736877e-07,-1.712160640339048e-07,1.2789766964609322e-07,-1.6798732959235694e-08,4.821938515705033e-07,7.573472215173431e-08,1.7050526682178177e-07,7.489659306282702e-08,-7.822943646718615e-07,4.291250009119482e-07,1.5224429297357898e-07,2.8542888945840367e-07,1.9750828125110555e-07,-3.9172807623131886e-07,-4.7269881795962765e-07,-8.934019239334791e-07,1.0607903118954685e-07,-2.572437112003966e-07
5.588188227869553e-07,-1.6307614381299052e-07,1.2729370910528787e-07,-1.9873754562734694e-08,4.757267559995963e-07,7.783414220725183e-08,1.2540841183617297e-07,9.639869351262607e-08,-7.726007070933503e-07,4.0875836008730215e-07,1.4812907596721154e-07,3.0128108264821427e-07,1.4559484472736267e-07,-4.002181653801855e-07,-4.809491965123087e-07,-8.881210829772836e-07,1.155183789110272e-07,-2.3208171775117918e-07
5.49527356780203e-07,-1.574502368208171e-07,1.2588013904457631e-07,-2.3190672528579992e-08,4.670347274359944e-07,9.001128116842579e-08,5.8808212669655044e-08,1.2803416277874343e-07,-7.670710391441473e-07,3.8380363091912945e-07,1.4209172722074037e-07,3.1421394227555153e-07,9.001168801745008e-08,-4.199310450217762e-07,-4.880944803624925e-07,-8.955736693227379e-07,1.2143275938747464e-07,-2.0937891014249614e-07
5.412936704389898e-07,-1.5478255863104153e-07,1.2360813530504276e-07,-2.5990340955838987e-08,4.5856443477728676e-07,1.0882958788906506e-07,-1.6902731290418116e-08,1.6756942562242706e-07,-7.67281988028467e-07,3.542746822603124e-07,1.333554240823576e-07,3.276237114553172e-07,3.4329383704032506e-08,-4.475753599776049e-07,-4.926476630940975e-07,-9.009842155753049e-07,1.2733367708932038e-07,-1.90838939884676e-07
5.346363220672384e-07,-1.5372184661875365e-07,1.2126208487327562e-07,-2.744011980936724e-08,4.5224678706050863e-07,1.2933629899843216e-07,-8.341685410882728e-08,2.096253805510139e-07,-7.707870647076585e-07,3.2236371709807357e-07,1.224487559087121e-07,3.456895025012298e-07,-1.7134593298862162e-08,-4.77349725900817e-07,-4.939095219442609e-07,-9.036438514730353e-07,1.3004098506026543e-07,-1.7752663629139516e-07
5.292784635473e-07,-1.5210369062925986e-07,1.1941883916426655e-07,-2.7529169173684515e-08,4.4951744519038237e-07,1.4759938637401004e-07,-1.2273914826748795e-07,2.476236674224162e-07,-7.713032258845566e-07,2.8917667494883197e-07,1.1041864574651784e-07,3.726041402324185e-07,-6.075907804813287e-08,-5.046062812395968e-07,-4.933595803933461e-07,-9.115938653844405e-07,1.256415301244688e-07,-1.70689520639683e-07
5.241384528468696e-07,-1.4848810563087632e-07,1.1810632489299262e-07,-2.7234406105333372e-08,4.4992491292416893e-07,1.6182827965948248e-07,-1.2366401759727236e-07,2.7720353393029054e-07,-7.629067731640299e-07,2.555372353931931e-07,9.906190327776916e-08,4.109561862523096e-07,-9.430438477890006e-08,-5.264844313254779e-07,-4.940443305243663e-07,-9.230685393696807e-07,1.1883198240077354e-07,-1.6973016580687203e-07
5.184319367545949e-07,-1.4223583565850524e-07,1.1756532592885965e-07,-2.7492225149969898e-08,4.5265147524720495e-07,1.71808787530827e-07,-8.544759980395247e-08,2.96070606691287e-07,-7.458744993827065e-07,2.2373839324139148e-07,9.098330515968134e-08,4.5938081704096016e-07,-1.1648275475823296e-07,-5.422355687902638e-07,-4.981969501190038e-07,-9.482412022149016e-07,1.047887836282499e-07,-1.7482733516591788e-07
5.129481090018918e-07,-1.3285020563555649e-07,1.1901342469606867e-07,-2.7944718824140968e-08,4.5740306741226773e-07,1.777977338593177e-07,-1.8116871379435752e-08,3.043209182736912e-07,-7.230646322170794e-07,1.9528033111050622e-07,8.918403721536198e-08,5.116486184512496e-07,-1.2471473974557274e-07,-5.532134871007054e-07,-5.052549286172467e-07,-9.346603868960499e-07,1.070561710758521e-07,-1.8312514717523343e-07
5.113551264278564e-07,-1.1983238400155785e-07,1.2447380512262632e-07,-2.684255694095985e-08,4.6474762099281634e-07,1.7956990163519016e-07,5.960677048231128e-08,3.0571258221732906e-07,-6.997380320461552e-07,1.721610811964652e-07,9.665407005698113e-08,5.594998349511962e-07,-1.1425797989602654e-07,-5.616472717940747e-07,-5.116794072680392e-07,-8.323113303047367e-07,1.4225194605131994e-07,-1.9217773449533788e-07
5.162241466020639e-07,-1.0261356504275782e-07,1.3525579595230834e-07,-2.2400612245098445e-08,4.76088263222263e-07,1.7616229231811322e-07,1.2763923565103283e-07,3.047089288487852e-07,-6.807781603681741e-07,1.5497099643214353e-07,1.1524261441861371e-07,5.923493822576389e-07,-7.96249486583783e-08,-5.694390174892745e-07,-5.119346698469338e-07,-6.234280554709648e-07,1.8070019492592585e-07,-2.0085050716571727e-07
5.30799995290065e-07,-8.322423567804302e-08,1.5047347177913377e-07,-1.4414388725012204e-08,4.914173131478925e-07,1.6695095363228906e-07,1.6719006234503298e-07,3.065057899831169e-07,-6.670524640538733e-07,1.4892966516502753e-07,1.4581780397484004e-07,6.037703014124282e-07,-1.689563704790792e-08,-5.780698860302403e-07,-4.996057685742568e-07,-4.6864851968419015e-07,2.2199617293764886e-07,-1.8011019319407738e-07
5.555555648404466e-07,-6.425916777056239e-08,1.6711991791497065e-07,-5.109274224353548e-09,5.095634832470499e-07,1.5326075131644074e-07,1.6470345915608092e-07,3.14659257752376e-07,-6.566412730259934e-07,1.5408041857080666e-07,1.8880338105981731e-07,5.945662614702614e-07,7.439265573845393e-08,-5.84360277546786e-07,-4.688933976880598e-07,-4.0252301117321786e-07,2.637095289852963e-07,-1.3258930125784986e-07
5.879952002846804e-07,-4.8060918971236885e-08,1.8186778665768311e-07,3.5495903744393288e-09,5.299252976726828e-07,1.3848496744511497e-07,1.1615217683161611e-07,3.30708715660878e-07,-6.455895937238193e-07,1.681744751527737e-07,2.443947956986228e-07,5.706013204676066e-07,1.9212452677512494e-07,-5.814703991477255e-07,-4.1695811825953465e-07,-3.495321416644517e-07,2.961959194163593e-07,-8.082564832201282e-08
6.266760595386812e-07,-3.5711792175722725e-08,1.9304926363258016e-07,1.1784268833128201e-08,5.538657362872002e-07,1.2624622756379805e-07,2.8164338095961496e-08,3.5558655278122543e-07,-6.314230481699358e-07,1.892761121437834e-07,3.1217304833777267e-07,5.394405799532375e-07,3.263062646687601e-07,-5.618594767168597e-07,-3.461623750518438e-07,-3.530955017260168e-07,3.301186935122952e-07,-1.700998363837809e-08
6.666625233584167e-07,-2.58830917912721e-08,2.0115575996686646e-07,1.9308276078536496e-08,5.819572518653464e-07,1.1834802119373009e-07,-8.261863653091984e-08,3.8244372382956457e-07,-6.155723489842618e-07,2.1176661599925647e-07,3.898264026168655e-07,5.055539923078848e-07,4.628680070139891e-07,-5.195360409542797e-07,-2.645375271222207e-07,-3.506087089301548e-07,3.61548617225066e-07,7.058366087415296e-08
7.043938497641148e-07,-1.8081853723930948e-08,2.0763952158755407e-07,2.6643798168478445e-08,6.135975182631215e-07,1.1416361635879053e-07,-1.84808954357664e-07,4.1119411779329545e-07,-6.020459787223654e-07,2.324537199838231e-07,4.7244858261097505e-07,4.5960464466261447e-07,5.872062704188266e-07,-4.544857010616518e-07,-1.8383989192028733e-07,-2.7229246944370727e-07,3.8402746064784714e-07,1.7221569442402532e-07
7.30642520106508e-07,-1.0797484388174695e-08,2.1325583326109798e-07,3.3276461628195227e-08,6.463948540693754e-07,1.1167591640514262e-07,-2.615516677990812e-07,4.3850495878044435e-07,-5.986812629294744e-07,2.452305775178856e-07,5.52554147168391e-07,3.9885967132094897e-07,6.859040777008372e-07,-3.717899918436497e-07,-1.1591854016825128e-07,-1.6334347525395997e-07,3.97524647563913e-07,2.324312262435077e-07
7.427320855085727e-07,4.619248999430688e-10,2.176095120829578e-07,3.714914740702661e-08,6.759854599531806e-07,1.0920409589044355e-07,-3.1065099319281376e-07,4.5910185301075957e-07,-6.048806398650964e-07,2.465999336295309e-07,6.219904929357908e-07,3.314560500953319e-07,7.520241819526098e-07,-2.820847594034833e-07,-6.894495344066302e-08,-1.701000679856226e-07,3.8605891453005515e-07,2.6112297916629444e-07
7.442290328896016e-07,1.3654495594562158e-08,2.2008347337734227e-07,3.7905257588067394e-08,6.980252335029218e-07,1.0622266644719442e-07,-3.3550771109789406e-07,4.7308088046712614e-07,-6.140017197963378e-07,2.2905024418901497e-07,6.731945603732914e-07,2.592257801828719e-07,7.845351105207973e-07,-1.9939124508970993e-07,-4.533521554632536e-08,-1.5098478295553935e-07,3.768253200272399e-07,2.790564572430769e-07
7.502708419081358e-07,2.7350742365360536e-08,2.207179956748319e-07,3.7877711628750096e-08,7.114895133760391e-07,1.0249138323264517e-07,-3.463349926174893e-07,4.804514993669782e-07,-6.188652887239165e-07,2.0982021312205537e-07,7.008443486990721e-07,1.9360049864587146e-07,7.857583383966304e-07,-1.375595661568456e-07,-4.2464316549476107e-08,-1.7753689609354645e-07,3.6112899495421026e-07,2.934553155353221e-07
7.514981868555241e-07,4.1599708448574714e-08,2.199132309474321e-07,3.9501314455220816e-08,7.143185816244754e-07,9.67535579422785e-08,-3.5080950545881886e-07,4.825815427819897e-07,-6.11798828136403e-07,1.9564371059834099e-07,7.021783349844845e-07,1.8206859277136682e-07,7.621178206031204e-07,-1.0539146181981243e-07,-5.549886536761807e-08,-2.0059623016324775e-07,3.3844332623026665e-07,3.086154195818076e-07
7.191485637550171e-07,5.4347017589989125e-08,2.171455490106831e-07,4.380404938091959e-08,7.029599996840426e-07,8.697809721619844e-08,-3.5301661887011733e-07,4.804793353889169e-07,-5.9001711652102e-07,1.7778364481707575e-07,6.766241951780376e-07,2.2566761762928314e-07,7.204974707779984e-07,-1.0451692988974195e-07,-8.00474969150488e-08,-1.1655249475490704e-07,3.386233903171488e-07,3.176365203433325e-07
6.853371533147506e-07,6.425205465436562e-08,2.1032886006128188e-07,4.9605991555134695e-08,6.772119049793565e-07,7.228425704662013e-08,-3.555685035494466e-07,4.7213779638500987e-07,-5.555499265162851e-07,1.6344890334603296e-07,6.25972101736426e-07,2.2089858675246657e-07,6.68520929878037e-07,-1.2929432663772688e-07,-1.1275689684988631e-07,-6.802800685821553e-08,3.412006134316618e-07,3.101926864713589e-07
6.570245292099965e-07,6.485106485254852e-08,1.9684172912659234e-07,5.205128996458091e-08,6.355422760199238e-07,5.464329133490382e-08,-3.712735797528932e-07,4.5774732043583953e-07,-5.140585179408412e-07,1.7110977457441653e-07,5.550049142092921e-07,3.2562090979565774e-07,6.078229417172161e-07,-1.6843058365122953e-07,-1.5043846610209535e-07,-1.0316260524494491e-07,3.4500015487833e-07,2.976889888455038e-07
6.18571757539662e-07,5.0127561124686525e-08,1.7614192474855714e-07,4.8749419545823075e-08,5.839520813396752e-07,3.8700984794244734e-08,-3.7974941165548696e-07,4.417982769730313e-07,-4.700244300593144e-07,1.8112883576248513e-07,4.7220436030291205e-07,4.830187931123405e-07,5.434845835603171e-07,-2.1113136627049692e-07,-1.8966357681562896e-07,-1.6856007850531456e-07,3.366670005087172e-07,2.631864552963266e-07
5.911693220829082e-07,1.907062209124344e-08,1.4953048733892436e-07,3.997398800557837e-08,5.351090928796472e-07,2.983293176472174e-08,-3.7308921203961966e-07,4.150662323595866e-07,-4.2858691779346954e-07,1.8623885361272857e-07,3.8906148137008695e-07,5.908778399263177e-07,4.867631601464858e-07,-2.4902044718049787e-07,-2.2737962168917268e-07,-2.4659139995545674e-07,3.3452954380631353e-07,2.111978182759681e-07
5.714329088233724e-07,-1.4219035623213343e-08,1.2291595024689064e-07,2.78366762646866e-08,4.988461718155744e-07,3.177493835140466e-08,-3.440641234922316e-07,3.877408652776254e-07,-3.926846464043449e-07,1.9519465434059797e-07,3.1764982218006875e-07,5.995342008070838e-07,4.48572417861122e-07,-2.800609239878273e-07,-2.614641750346047e-07,-3.670614063694891e-07,3.2562623923330644e-07,1.5321629479428873e-07
5.592015069059311e-07,-4.314703671702535e-08,1.0123463529708339e-07,2.1085666613935026e-08,5.012860330113691e-07,4.5132553547102926e-08,-2.809629331379648e-07,3.6245541517010944e-07,-3.687511481870588e-07,1.686109619626996e-07,2.666556072102993e-07,5.461203766305205e-07,4.419852634630516e-07,-3.159622108674937e-07,-2.907072590156106e-07,-4.96848508918042e-07,3.34157164535395e-07,9.924092489936984e-08
5.590602432563821e-07,-6.324140542660976e-08,8.712474505523677e-08,1.9068905360574113e-08,5.015685432609551e-07,6.725863007300118e-08,-1.8455512714544748e-07,3.3345051072043e-07,-3.628454281332336e-07,1.201209466521316e-07,2.398159657381927e-07,4.874653127149893e-07,4.7271048634933996e-07,-3.5901248911299595e-07,-3.150468234434686e-07,-6.071917823449589e-07,3.200725840614879e-07,5.12685346523323e-08
5.628175218312558e-07,-7.255493738557191e-08,8.078091234098557e-08,9.528446486714324e-09,5.030411141424788e-07,9.347156638532412e-08,-6.140084757657359e-08,3.072195906042506e-07,-3.7593699314458324e-07,7.202791315023616e-08,2.32036556899994e-07,4.885812677267155e-07,5.290875999713553e-07,-4.098425187807212e-07,-3.3618277421736897e-07,-6.683934032211164e-07,2.986121430947447e-07,5.50318306828398e-09
5.711285425611086e-07,-7.989287139817945e-08,7.986894733710756e-08,-1.5036117746652347e-09,5.139415388216784e-07,1.1930061772735715e-07,7.760986721326705e-08,2.9549138945876423e-07,-4.007807998970387e-07,-1.5852037819148415e-08,2.3787714609885e-07,3.5478517953595057e-07,5.711690915210233e-07,-4.6903369268269533e-07,-3.573438074107668e-07,-6.868505076945188e-07,2.840616350427436e-07,-3.595793902936457e-08
5.671757110637667e-07,-6.848942310336657e-08,8.18261762464196e-08,-3.959488385971883e-09,5.488573391217618e-07,1.4248950759522703e-07,2.080981057713194e-07,2.770054838274899e-07,-4.36291972847661e-07,-8.536669891318957e-08,2.5369621845849533e-07,1.8352808316340836e-07,5.826109222093461e-07,-5.335159224312525e-07,-3.8205526430220706e-07,-6.976595193099833e-07,2.724297389631934e-07,-8.228737373904893e-08
5.420254289273979e-07,-4.2158532728625745e-08,8.590237876028165e-08,3.7624757666870085e-09,5.75286706444484e-07,1.6299268730590355e-07,3.1611800711614317e-07,2.524254567057435e-07,-4.805201232055638e-07,-1.4159808573761216e-07,2.767930796783001e-07,8.381656252876878e-08,5.230199624697161e-07,-6.048416937254051e-07,-4.133637241498479e-07,-7.364173649718188e-07,2.7389637255944086e-07,-1.2875963760493563e-07
4.976729703711125e-07,1.415173500838229e-10,9.366290395008971e-08,3.5748732377580916e-08,5.819207969247213e-07,1.8075587544624478e-07,4.164008355630601e-07,2.2718572793954384e-07,-5.152347008784959e-07,-1.807019272629522e-07,3.045112841748911e-07,-6.7470107771770125e-09,3.56319105458109e-07,-6.819711156409704e-07,-4.5415252655955455e-07,-8.134828867663244e-07,2.69816716243796e-07,-1.7496018951940195e-07
4.4839406825339223e-07,7.992072860784022e-08,9.4125077004528e-08,9.865051160253398e-08,5.678864889043078e-07,1.9340962347238733e-07,5.455944708876308e-07,1.680475226689303e-07,-5.413505959355176e-07,-2.0485285877739575e-07,3.361021380654087e-07,-6.740580421947044e-08,2.609500633490153e-07,-7.730557519770252e-07,-5.075461387973826e-07,-8.950450845555435e-07,2.509284951557982e-07,-2.2564163373678938e-07
4.135566573706625e-07,1.2557015179164805e-07,8.752148860695104e-08,1.3464105491243824e-07,5.180563213487225e-07,1.9639287290708572e-07,7.306269967550923e-07,1.3858214966533234e-07,-5.476815489172461e-07,-2.3609439104020806e-07,3.6498516381278583e-07,-1.0398693101463091e-07,2.299255231895233e-07,-8.666295622674053e-07,-5.762219828399653e-07,-9.83360122231615e-07,2.397421786349355e-07,-2.8408668655431667e-07
3.9595234687503727e-07,1.5302224488037875e-07,6.904843982376339e-08,1.6063521684143623e-07,4.504093673484975e-07,1.8572167322339145e-07,8.045680199794991e-07,1.0548010248208257e-07,-4.958554522034147e-07,-2.6753738054838337e-07,3.722645104821641e-07,-1.4108768664170043e-07,2.077814586628997e-07,-9.62070134739838e-07,-6.606233303887204e-07,-1.081677479055951e-06,2.250289918085022e-07,-3.3417129578199905e-07
3.4674449380003536e-07,1.7810197939864676e-07,9.576827308129253e-09,1.9663067149780198e-07,3.9381981092331675e-07,1.609924507138262e-07,8.098518103999636e-07,6.268534377086824e-08,-4.4342611161889026e-07,-2.922167145991421e-07,3.759810523543639e-07,-1.6496022340361155e-07,1.1839260254475966e-07,-1.0553391191713844e-06,-7.574789584963025e-07,-1.1847373978872163e-06,2.0694829518313876e-07,-3.6790523471325414e-07
3.2078692153501317e-07,1.8947823437580747e-07,-4.730109047425788e-08,2.536757020658856e-07,3.4361325564162475e-07,1.2615625248992745e-07,7.658608460783797e-07,1.9366784805008342e-08,-4.3403488682316707e-07,-3.1775368412314257e-07,3.5323959534430494e-07,-1.6969051497776734e-07,-2.6697593858720147e-08,-1.134824526120392e-06,-8.602556813067834e-07,-1.2958664928405118e-06,1.9191525066153828e-07,-3.7050565269345847e-07
3.226560658040943e-07,1.9672763784409522e-07,-9.770356835706604e-08,3.2863249985977366e-07,3.0618158952762905e-07,8.80054867838469e-08,7.66618559463107e-07,-6.76510166562589e-09,-4.2916227241264533e-07,-3.384478164638143e-07,2.804639633586952e-07,-1.9271056014951874e-07,-8.733543825594753e-08,-1.1945851209171012e-06,-9.614987201751802e-07,-1.4097816594483567e-06,1.6225913439514495e-07,-3.3592333681700556e-07
3.1842146010345524e-07,2.3819581275024774e-07,-1.5462736021810167e-07,3.9605993163528744e-07,2.738043727167741e-07,5.42304171647837e-08,8.908353167728206e-07,-3.5600438933391055e-08,-4.0212778103530255e-07,-3.5116129356558106e-07,2.3167579056595168e-07,-2.5521370117220693e-07,-1.3732261536649255e-07,-1.2181386390013215e-06,-1.054952303612908e-06,-1.518325195744743e-06,1.3699288518499003e-07,-3.4169257490147404e-07
3.308300697371067e-07,2.8799087429292694e-07,-2.011975561018969e-07,4.318893459282121e-07,2.2088165360148666e-07,3.2285148681470255e-08,1.0260959560867274e-06,-6.042283577261551e-08,-3.26488191347204e-07,-3.6843300206909397e-07,1.6474183027700836e-07,-3.285051713303717e-07,-2.2786237905489142e-07,-1.2160938154772901e-06,-1.135768287942972e-06,-1.6231092856009693e-06,1.1380901231560943e-07,-3.6052858976765005e-07
3.4732765280190756e-07,3.1740988024302913e-07,-2.5215910190162165e-07,4.5218964093896836e-07,1.4257248867672113e-07,2.8459298953641043e-08,1.1279475199371386e-06,-1.1077481666615007e-07,-2.360835256129943e-07,-3.8509262961758334e-07,5.109496967567261e-08,-3.805906146103846e-07,-2.1646212810144534e-07,-1.1839136041602773e-06,-1.2000957011050178e-06,-1.7313698718499575e-06,1.039669287007263e-07,-3.3634214649869584e-07
3.549102479180201e-07,3.5088540684189855e-07,-2.9447793023064605e-07,4.807095859574649e-07,9.10916119239e-08,4.6088855987803775e-08,1.2285666981596552e-06,-1.6024341358874812e-07,-1.4801342329135942e-07,-4.051809628666619e-07,-5.974624900777427e-08,-3.5406748468312034e-07,-2.2351084707404828e-07,-1.1177444510675165e-06,-1.2445877832452505e-06,-1.8292150169449182e-06,7.558987765499574e-08,-2.9810592213901536e-07
3.7354420284430046e-07,3.8376173257934256e-07,-2.983423705466477e-07,5.160416442823861e-07,6.787655974944309e-08,8.339254683559766e-08,1.3771117227465084e-06,-2.0968452840763074e-07,-6.634696695903692e-08,-4.261790262989737e-07,-1.7327474285480798e-07,-3.5714818285646563e-07,-2.9099651750618405e-07,-1.0326249496450347e-06,-1.2682895246619155e-06,-1.919045541651158e-06,4.8369758235759575e-08,-2.592853699669238e-07
4.004107318994721e-07,4.1008442576778024e-07,-2.718367362644956e-07,5.264159937877786e-07,5.1914998338730743e-08,1.3306376405418546e-07,1.5295586993077926e-06,-2.3720812922975131e-07,-2.7479709374590668e-08,-4.474133490318894e-07,-2.651533141939588e-07,-3.6921914566108506e-07,-2.942561645347882e-07,-9.493017017101988e-07,-1.2737232811110327e-06,-1.992169319141485e-06,2.047202451966626e-08,-2.1057367397188147e-07
4.266439066866245e-07,4.322703096811766e-07,-2.464389226679542e-07,5.276489891778536e-07,4.4976786620196794e-08,1.8499704491532628e-07,1.6013342662360471e-06,-2.9309856777711465e-07,-2.1174483058788196e-08,-4.796239673763032e-07,-3.323054877591132e-07,-3.960409632134349e-07,-2.1442111153537474e-07,-8.799933243331631e-07,-1.2671637063522185e-06,-2.045564277825938e-06,-2.885033356044643e-08,-1.8499660083904736e-07
4.5649556787800794e-07,4.663642168814369e-07,-2.1656493809005723e-07,5.044634804691734e-07,2.4901916782473744e-08,2.306401587477154e-07,1.6796883348142456e-06,-3.4714339698669847e-07,-3.732044839864971e-08,-4.8282857260065e-07,-3.829261416042754e-07,-4.784238969278559e-07,-1.3626002180052946e-07,-8.634569790869261e-07,-1.2562407480341193e-06,-2.0839729196114413e-06,-6.13596032799734e-08,-1.788648657061511e-07
4.827601129817495e-07,4.872128581731413e-07,-1.873059226030076e-07,4.7659741423788773e-07,-1.3550654480429573e-08,2.6596059441767096e-07,1.7250522918865933e-06,-3.8993733443223686e-07,-6.735052767710086e-08,-4.76740559557415e-07,-4.133377996660152e-07,-6.683274937211213e-07,-8.2423851798357e-08,-9.177097351749942e-07,-1.246934193969993e-06,-2.1048415504271895e-06,-9.341747436409589e-08,-1.843232164164039e-07
5.027965691867299e-07,4.7529464852027044e-07,-1.664280444352519e-07,4.5830207264255244e-07,-4.902856023213343e-08,2.9170774294513506e-07,1.7268059718903819e-06,-4.269066044185055e-07,-8.617249476797532e-08,-4.5603000256156214e-07,-4.321004683294175e-07,-7.467444269986498e-07,-3.551171821645288e-08,-9.92691702949913e-07,-1.2408989143538005e-06,-2.1090887310949208e-06,-1.1733432670441836e-07,-2.0070498501243187e-07
5.097787956571578e-07,4.3717342442907213e-07,-1.4276853868987466e-07,4.471214221349668e-07,-6.095416454145506e-08,3.1172731600348343e-07,1.7187501688720082e-06,-4.6491698452441184e-07,-8.68026739415972e-08,-4.383623693607473e-07,-4.4033069807628587e-07,-7.948283385166102e-07,-4.9464599354932985e-08,-1.089615304428049e-06,-1.235986057051437e-06,-2.0953023437103225e-06,-1.3207456000463567e-07,-2.1601530139310667e-07
5.06980481969623e-07,4.174508757174745e-07,-1.1890853172514875e-07,4.51834475556871e-07,-5.620518034132086e-08,3.303692314150824e-07,1.711597205685393e-06,-5.066634549282627e-07,-7.531324868408036e-08,-4.0883435313347683e-07,-4.378402035608046e-07,-8.45662838674994e-07,-6.54225610064305e-08,-1.1806578290058272e-06,-1.2290771360876193e-06,-2.067874053331186e-06,-1.442445543348941e-07,-2.2926575962755401e-07
5.166317934774879e-07,3.949927893287654e-07,-8.760794037370189e-08,4.6776121413995177e-07,-4.220247523627452e-08,3.501769559292902e-07,1.748898105723187e-06,-5.363999529748021e-07,-7.620413820053535e-08,-3.9793938886594495e-07,-4.287185195766541e-07,-8.741948818321899e-07,-6.118239921276943e-08,-1.2384888274009476e-06,-1.2180919689237296e-06,-2.029565829005026e-06,-1.6105440438106235e-07,-2.417729181800863e-07
5.299900024612636e-07,4.093270453136756e-07,-4.9715486028673304e-08,4.903297485072941e-07,-1.8529409041459743e-08,3.713540625333981e-07,1.8109010610555474e-06,-5.681831735925267e-07,-7.703031681123557e-08,-4.1096070943780184e-07,-4.179312391987437e-07,-8.892030458882275e-07,-4.30554931732612e-08,-1.2915208674575467e-06,-1.202942132872753e-06,-1.987544136633181e-06,-1.840350783467497e-07,-2.532966313054679e-07
5.29279924308559e-07,4.2652066924371634e-07,-1.4260075388797854e-08,5.113571133698827e-07,2.993137482683604e-09,3.929932850828774e-07,1.869390453146445e-06,-5.828549045912843e-07,-5.029286438580516e-08,-4.2691232700260645e-07,-4.088526813870524e-07,-8.772478167624105e-07,-2.0851084223822414e-08,-1.330107159296822e-06,-1.1848166150271655e-06,-1.946461984974278e-06,-2.005440808674358e-07,-2.6162411793646135e-07
5.362038193490208e-07,4.4384625483773704e-07,1.756982918926077e-08,5.300741618052664e-07,1.3744914344290942e-08,4.1425014643883845e-07,1.8983436803835545e-06,-5.816252598834506e-07,-2.7853457872472227e-08,-4.277627998274274e-07,-4.0267273234091753e-07,-8.74919053926644e-07,-1.6369270642528786e-10,-1.3527559929995059e-06,-1.165623338655253e-06,-1.906187426437548e-06,-1.997111900872615e-07,-2.6624364090651896e-07
5.48179150015512e-07,4.5268725654799025e-07,3.802057272917194e-08,5.442438562057816e-07,2.787725715910083e-08,4.3446183538932024e-07,1.8781570262778046e-06,-5.687389961176488e-07,-3.653465228808206e-08,-4.233574627442779e-07,-3.942003582387096e-07,-8.755941225401892e-07,2.0058185101858745e-08,-1.3534209832038031e-06,-1.1475355079201835e-06,-1.8693392878947797e-06,-1.8954412489407813e-07,-2.6783120480615753e-07
5.624564635437537e-07,4.5146399646466987e-07,5.503572991631836e-08,5.5287682150591e-07,4.345289267371843e-08,4.5281427240468103e-07,1.8485807802970008e-06,-5.589081403379827e-07,-6.735574165227413e-08,-4.1363088156993496e-07,-3.828068949763764e-07,-8.543678422024429e-07,4.056340755291167e-08,-1.3280810274159098e-06,-1.1319512368320085e-06,-1.834497834989237e-06,-1.6699602841664565e-07,-2.659903362155749e-07
5.804171200490763e-07,4.523878235503679e-07,6.573589984338147e-08,5.594401728167656e-07,5.95337651949008e-08,4.6814767817380943e-07,1.8131133205696924e-06,-5.441156142627568e-07,-8.001372356691459e-08,-3.9087572414238525e-07,-3.6917581188355095e-07,-8.186277514188423e-07,6.768743685738513e-08,-1.288026770352468e-06,-1.1202228048409104e-06,-1.8029798347721906e-06,-1.369122151632349e-07,-2.615060324907918e-07
5.965238259125309e-07,4.4990766847191265e-07,7.449434565600047e-08,5.6302953952343e-07,8.285488359911594e-08,4.791663720152965e-07,1.7833493975725238e-06,-5.217547907538608e-07,-1.1667719009684062e-07,-3.5760912876420853e-07,-3.538877438862783e-07,-7.673122585162329e-07,9.089750526871999e-08,-1.2352753326875946e-06,-1.1123347407358499e-06,-1.776278678499593e-06,-1.0701037474549163e-07,-2.5458586040573193e-07
6.069646286663394e-07,4.4199991654622304e-07,8.293792875120625e-08,5.594797538632644e-07,1.0809292447679477e-07,4.851210997549778e-07,1.7612592429562224e-06,-5.003337261722366e-07,-1.649645610020864e-07,-3.2219971307931275e-07,-3.403243509140009e-07,-7.140120577280299e-07,1.116191898631529e-07,-1.207447609250314e-06,-1.106161393451047e-06,-1.7492887473652985e-06,-7.441653879304279e-08,-2.448351460607987e-07
6.142913770549336e-07,4.3184840965932017e-07,8.781400233092553e-08,5.5772350395313e-07,1.3335690440610141e-07,4.864156914153862e-07,1.7383806822574588e-06,-4.6779442485382466e-07,-2.1746863856776612e-07,-2.932655300365175e-07,-3.280153908012622e-07,-6.939713350717223e-07,1.3287165290574393e-07,-1.2014555100296259e-06,-1.0980177432027314e-06,-1.7212371242493082e-06,-4.275335651614443e-08,-2.317343681055631e-07
6.175812036124846e-07,4.2445268275217066e-07,9.115671780309168e-08,5.586309967734476e-07,1.571291149171011e-07,4.84770727191652e-07,1.7041937101761091e-06,-4.259403133049851e-07,-2.3932894353999054e-07,-2.808279172748252e-07,-3.1611973402789003e-07,-7.089995376385726e-07,1.6274394443615712e-07,-1.1926894822088595e-06,-1.0830520303017372e-06,-1.6891465040519314e-06,-1.4787570491248578e-08,-2.1650172270301655e-07
6.169632759383027e-07,4.279094349439946e-07,9.149164353707283e-08,5.593539105969721e-07,1.7131448988519347e-07,4.830536649858119e-07,1.6646735175673226e-06,-3.7816640792543754e-07,-2.3117901114791328e-07,-2.9230223536628775e-07,-3.057354149481602e-07,-7.412049567185386e-07,2.004898622581527e-07,-1.1847059881027038e-06,-1.0572467066698307e-06,-1.6590220223287273e-06,2.9269053141460275e-09,-1.9912256730049907e-07
6.14458052290607e-07,4.309416875177847e-07,8.809763553701363e-08,5.610202728004706e-07,1.7396465951144547e-07,4.843872726870324e-07,1.650583842834305e-06,-3.2770453107352455e-07,-2.0624390664014653e-07,-3.1028245236698115e-07,-3.0019760297716933e-07,-7.801335435017034e-07,2.415300216484482e-07,-1.1666280293935246e-06,-1.01913233631656e-06,-1.6327572288136663e-06,1.2868775834545973e-08,-1.7970088021815822e-07
6.088411164301698e-07,4.3091147765269426e-07,7.620026250122324e-08,5.524403651811074e-07,1.657080259323796e-07,4.903354136799013e-07,1.6445931141859232e-06,-2.810043721264893e-07,-1.832024713652863e-07,-3.1425662389351503e-07,-3.0344775580197385e-07,-8.142693413733807e-07,2.7997804075255387e-07,-1.164917263282076e-06,-9.70616767628551e-07,-1.6152271434040236e-06,1.7744620473952868e-08,-1.613535838956632e-07
6.002153474022632e-07,4.194484055763135e-07,5.3234826507605726e-08,5.213703854911178e-07,1.440615361111006e-07,4.992476138479021e-07,1.6353560270612094e-06,-2.4516901743888006e-07,-1.6668723749363296e-07,-2.7917619652416777e-07,-3.2092645745107603e-07,-8.32065920935255e-07,3.064094776364711e-07,-1.1666382338116059e-06,-9.155350392422423e-07,-1.6117211339459855e-06,1.540921616447579e-08,-1.4766549848155816e-07
5.861017606520093e-07,3.733988119917067e-07,1.7591228901206787e-08,4.902691502974612e-07,1.08038232628997e-07,5.060220199951331e-07,1.6235550687900415e-06,-2.2226340534586446e-07,-1.590466156935152e-07,-2.643783848296635e-07,-3.5458713871537464e-07,-8.270433725270688e-07,3.1393697180159465e-07,-1.1949149581707178e-06,-8.593215636695223e-07,-1.6255602824981313e-06,6.200051649947216e-09,-1.339656098564206e-07
5.676122769594329e-07,3.563229651263226e-07,-2.9115230879039087e-08,4.4596648525895907e-07,6.909478122998384e-08,5.034384427182813e-07,1.5926281287794283e-06,-2.0682235165288463e-07,-1.9465720848712987e-07,-2.7176291118945005e-07,-4.039141410395329e-07,-7.905428941920435e-07,2.972888125642327e-07,-1.3149564316292556e-06,-8.080884659851592e-07,-1.6385432762989644e-06,-1.1298729199671815e-08,-1.193478604186617e-07
5.377965475837855e-07,3.4922981523221866e-07,-8.09286121388647e-08,4.0131939592454093e-07,3.344249057401694e-08,4.843970370615504e-07,1.5526823707254642e-06,-1.9283307300168289e-07,-1.961852286247566e-07,-2.7514551178153956e-07,-4.635401249370071e-07,-7.069020880572482e-07,2.521771106823497e-07,-1.387180034374705e-06,-7.675398036814832e-07,-1.6410998036445528e-06,-3.7104790276258254e-08,-1.1083079896859692e-07
4.985707424966804e-07,3.5086542132629385e-07,-1.3107716052821763e-07,3.5761481551572345e-07,2.5328133524804044e-08,4.4427057766130024e-07,1.516117795566056e-06,-1.8664251676217735e-07,-1.7944671259947486e-07,-2.3952999050645354e-07,-5.249163472984916e-07,-5.725507505827563e-07,1.8166963755478293e-07,-1.4100687044663092e-06,-7.417066732080099e-07,-1.6250785315290238e-06,-8.043568987146411e-08,-1.0925340972129152e-07
4.566886992337295e-07,3.563981987868846e-07,-1.6411929645647882e-07,2.8566285506759816e-07,5.545761653567293e-08,3.825367906230425e-07,1.4776874957762181e-06,-1.6924193862485577e-07,-1.4983500201943234e-07,-1.6324665344549371e-07,-5.811106474415064e-07,-3.921944952413153e-07,9.678606153299105e-08,-1.4632551623158705e-06,-7.306419037360652e-07,-1.5767150551645677e-06,-1.247371570847537e-07,-1.1661395976708537e-07
4.210409042503314e-07,3.276417094060164e-07,-1.5041719327941116e-07,1.9022709111808826e-07,7.94214140196411e-08,3.0290270589139933e-07,1.4313843150764328e-06,-1.3652769138657727e-07,-1.0990309647727552e-07,-8.743579308802507e-08,-6.168173660155588e-07,-1.7895794935941284e-07,1.9583904612139218e-08,-1.5405382278652018e-06,-7.296843347850906e-07,-1.4955250326859117e-06,-1.461788268987788e-07,-1.3326225750924833e-07
4.1212522032972637e-07,2.964134995143557e-07,-1.4918958059124624e-07,1.1258452275837815e-07,1.0339522661425816e-07,2.120539906290922e-07,1.3823988765710423e-06,-1.2193203481835779e-07,-6.578913438855682e-08,-1.2269169047515736e-08,-6.046947845087625e-07,4.327130145919752e-08,-3.236861861807177e-08,-1.6599520648906746e-06,-7.318948464564407e-07,-1.3865537997770731e-06,-1.3770044831552264e-07,-1.525507228652476e-07
3.960415629424934e-07,2.7888514145265074e-07,-1.374636684795292e-07,5.21772368975562e-08,1.2104939108684693e-07,1.1831085448560627e-07,1.349600184954852e-06,-7.59094107066257e-08,-4.490197827957536e-08,5.251167114546373e-08,-6.180169799881689e-07,2.4754755041677396e-07,-5.103662120209707e-08,-1.7312627564669738e-06,-7.297269340293288e-07,-1.2631761634847812e-06,-1.2291749341502026e-07,-1.6806212031503548e-07
3.99539869230593e-07,2.3883501242082407e-07,-9.312569817745074e-08,6.1807748753148165e-09,1.4129711831746914e-07,3.082196188456323e-08,1.2764789632360888e-06,-1.4297194307655285e-08,-6.096001808438936e-08,9.82461887726731e-08,-5.891143137558024e-07,3.8192617739245025e-07,-3.879352868208533e-08,-1.7708484558480549e-06,-7.199357208297419e-07,-1.155127495102691e-06,-1.088239568613316e-07,-1.7626691965750956e-07
3.6576518977271305e-07,2.0590225957862017e-07,-7.161132418627573e-08,-2.842827534118761e-08,1.4887787632486e-07,-4.1679237743891385e-08,1.2140218394761586e-06,-8.668742231534127e-09,-7.95227831761549e-08,1.3203398477207826e-07,-5.3814995415267e-07,4.3442626792950925e-07,-1.477983652928322e-08,-1.8080198333199285e-06,-7.055221795743098e-07,-1.0700653566641541e-06,-8.662614655439585e-08,-1.739237843553979e-07
2.9086945175648955e-07,1.6741821936174575e-07,-7.729181852110801e-08,-4.8701846603046145e-08,1.4168279671286172e-07,-9.305896682100849e-08,1.1497702044241254e-06,-2.6396417470065246e-08,-9.27642563141844e-08,1.676255474367752e-07,-5.35551857740829e-07,4.944392097082103e-07,4.397068108619447e-09,-1.8546403609476254e-06,-6.936924702022918e-07,-1.0313638891206981e-06,-6.845959041691402e-08,-1.645095310278823e-07
2.3638563314864716e-07,1.3311695263591393e-07,-1.1525681234470878e-07,-6.215138499202471e-08,1.2680261950273176e-07,-1.2141708594948942e-07,1.0099761078360799e-06,-4.189087358636187e-08,-1.1494943256712563e-07,1.8610168561015423e-07,-5.56697940979982e-07,4.4329521572051694e-07,5.079121836924275e-09,-1.8774956183447509e-06,-6.928072863460418e-07,-1.0358576378881006e-06,-4.2612932941263434e-08,-1.4735413440035665e-07
2.017613359944726e-07,1.0813713932094706e-07,-1.3588667579933373e-07,-7.7223228624918e-08,9.851661360369955e-08,-1.28731853643965e-07,9.60759837769961e-07,-5.951831076954733e-08,-1.245467044755235e-07,1.4518258040177263e-07,-5.724627502712502e-07,3.1466975959129234e-07,-6.316108115710772e-09,-1.8541370018877668e-06,-7.092795098054523e-07,-1.063776908334571e-06,-1.827947919629813e-09,-1.2631437378028766e-07
1.7090780164931807e-07,7.284110146543412e-08,-1.5989330951763102e-07,-9.13374820787496e-08,7.062133213731616e-08,-1.1940867886288231e-07,1.015470448533312e-06,-6.856718159241495e-08,-1.454982896935234e-07,1.156656117179394e-07,-6.322966222283972e-07,1.6837617612161612e-07,-2.6427226311515373e-08,-1.806236129703612e-06,-7.456159879905637e-07,-1.1011172770179357e-06,3.3645287572963436e-08,-1.064711576400257e-07
1.399634668121155e-07,8.010225363062684e-08,-2.4014457874266834e-07,-1.033753272044727e-07,2.8671572449536998e-08,-9.930573959903009e-08,1.0545378784940972e-06,-9.698017515029865e-08,-1.6057760392716574e-07,9.471895816677366e-08,-7.149634988574981e-07,7.642781204543433e-08,-5.089442641621676e-08,-1.7927514940269545e-06,-7.993377670302092e-07,-1.1082945516170282e-06,6.59715757851089e-08,-9.233006624711954e-08
9.086421189052246e-08,1.0821273402409245e-07,-2.781155380552452e-07,-1.1282638194813553e-07,-1.748603422683367e-08,-7.484088075759693e-08,1.0158003805022005e-06,-1.2025625618423434e-07,-1.4025704261412925e-07,8.304539346151311e-08,-7.638837283797213e-07,-1.9609742395390287e-08,-6.450143367243011e-08,-1.8063024945926085e-06,-8.635978107763095e-07,-1.0929057157990977e-06,9.182656888722555e-08,-7.935037998428418e-08
5.569659437271444e-08,1.3890965281050002e-07,-2.956845767594571e-07,-1.2632250910481618e-07,-6.289192343051094e-08,-5.1214904020979e-08,9.140321644798788e-07,-1.4712905390833616e-07,-1.3002491975763502e-07,6.32660499745225e-08,-7.759815565511346e-07,-1.2766336194441943e-07,-4.978222471516573e-08,-1.8373203831334385e-06,-9.283388274300623e-07,-1.0425171931878679e-06,8.700913880939679e-08,-7.87670619782989e-08
4.6441950667261656e-08,1.6830557670837317e-07,-3.112433469031684e-07,-1.3705614314425254e-07,-6.9596604857627e-08,-3.081010419980884e-08,7.88443889562695e-07,-1.6960783445625268e-07,-1.3907001072365108e-07,-3.7762651284997176e-09,-7.598997703557523e-07,-1.5552273843713892e-07,-1.277653416203858e-10,-1.8680932410971253e-06,-9.831524164875394e-07,-9.919854938777948e-07,3.921321290399125e-08,-8.975176390378993e-08
4.43317455107038e-08,1.724867398410098e-07,-3.283763811662338e-07,-1.4594663430994156e-07,-8.032815562642296e-08,-1.368379981935423e-08,7.064376840247618e-07,-1.7249824768870034e-07,-1.531120071492985e-07,-6.766570090170468e-08,-7.161537747140785e-07,-1.1394769534658416e-07,6.868447856883429e-08,-1.890729516029866e-06,-1.0201140141736964e-06,-9.536262688629924e-07,-3.1132409382791545e-09,-1.015340706828323e-07
5.053817601488028e-08,1.639477892463625e-07,-3.449032170072149e-07,-1.5267995918703522e-07,-8.492667332520534e-08,-3.1739383303970985e-11,6.352471901495788e-07,-2.1319832716190346e-07,-1.3368943616282545e-07,-1.0816551376997129e-07,-6.628512631322199e-07,-5.44667063141444e-08,1.3214157077727115e-07,-1.9011310652792617e-06,-1.035653795494397e-06,-9.198703523004616e-07,-1.4827770382943296e-08,-1.1382108983991096e-07
4.178453995967996e-08,1.4234426309489791e-07,-2.955003613958795e-07,-1.4897313593299756e-07,-5.877520707466466e-08,7.855165825329716e-09,5.955401605547219e-07,-2.4967572512302534e-07,-1.2517769906870057e-07,-1.4656606260208407e-07,-6.007904277427013e-07,4.5773187080807035e-09,1.7555868822059176e-07,-1.9158772881808783e-06,-1.0311550752311552e-06,-8.769544061132144e-07,1.591930723577702e-08,-1.0900070607910303e-07
2.7559493672892003e-08,1.1055958193625663e-07,-2.391818359614639e-07,-1.433579435171802e-07,-5.455929810107446e-08,6.23166661162815e-09,5.211424182861505e-07,-2.7098084711229747e-07,-1.567251557613381e-07,-2.1428674442646297e-07,-5.402718094355724e-07,5.6072278999213855e-08,2.01597223822826e-07,-1.931541790730104e-06,-1.0109283847993835e-06,-8.05647697963452e-07,4.3410338448168625e-08,-7.289833690100141e-08
4.254616645816471e-08,7.534331696535172e-08,-1.9973324521597505e-07,-1.3854778153546758e-07,-9.889916064389543e-09,-7.433930437355983e-09,4.380714206943267e-07,-2.7711559282005927e-07,-2.0366811163470932e-07,-2.630628014425222e-07,-4.800377106591831e-07,8.174375886991842e-08,2.1938029183115213e-07,-1.9419718565617753e-06,-9.782057694482283e-07,-6.966786075447306e-07,5.7075031821386014e-08,-1.6890246556268434e-08
6.731332429987923e-08,4.5267009843973885e-08,-1.5702208325631773e-07,-1.3233961483678592e-07,4.234988180211336e-08,-3.182687684787605e-08,3.5032642671419753e-07,-2.721393744541257e-07,-2.586870344943401e-07,-3.064742757590471e-07,-4.4502612677880734e-07,7.344775356000166e-08,2.3471978834471218e-07,-1.9435366670153667e-06,-9.322340928226837e-07,-5.194744283704133e-07,6.593091881057866e-08,3.204316948869891e-08
9.267658712811523e-08,2.484527623525037e-08,-1.3152677460480848e-07,-1.2209666310321529e-07,8.540971026313508e-08,-6.055593716470223e-08,2.6045939952540944e-07,-2.47885959534894e-07,-3.175334767451313e-07,-3.368670978283948e-07,-4.258835834740467e-07,3.289252633829133e-08,2.3343915938750833e-07,-1.925466564554613e-06,-8.692283525573373e-07,-4.4782304007946155e-07,6.998313954789368e-08,7.583827408950365e-08
1.1288303670468985e-07,1.896425653696526e-08,-1.1108330986349377e-07,-1.0485916981600645e-07,1.3598290421760811e-07,-8.309191841188045e-08,2.1798700250021005e-07,-2.1770926162272523e-07,-3.913947805027398e-07,-3.7013291597708864e-07,-4.2358678000492287e-07,-2.893830471441478e-08,2.177782169690252e-07,-1.8840908716154047e-06,-7.867574865322155e-07,-3.8268795736007767e-07,6.217305958881571e-08,1.223205503151326e-07
1.3413586036638476e-07,2.8035963032399406e-08,-9.254782605455023e-08,-8.006361458750102e-08,1.627307734690359e-07,-8.82846712557359e-08,2.133139293480523e-07,-2.04111524697239e-07,-4.512103652007474e-07,-3.760341283732561e-07,-4.203018440599298e-07,-9.673193379829252e-08,1.923652417870221e-07,-1.8208026119118058e-06,-6.879113958589234e-07,-2.986887766864834e-07,5.1435331691970404e-08,1.6199066413979015e-07
1.63367112556296e-07,5.474428957457594e-08,-7.840369379516102e-08,-4.960440232862094e-08,1.7464404688950998e-07,-6.921755127203005e-08,2.39744676239944e-07,-2.042414054179974e-07,-4.902447968813237e-07,-3.6119318897522915e-07,-3.903712873184542e-07,-1.58187331553935e-07,1.9302863516235986e-07,-1.7695546664407405e-06,-5.822265517009441e-07,-2.3241514058949722e-07,5.216514315251197e-08,1.881125131972943e-07
1.863121282606348e-07,9.792097299805241e-08,-6.056967355812438e-08,-1.8045163401441957e-08,1.787369912378473e-07,-2.5670106246381958e-08,2.6187558579657163e-07,-2.1762002424364566e-07,-5.15905064034766e-07,-3.591507593990584e-07,-3.488029447149913e-07,-2.0809167355126263e-07,2.2339815606463596e-07,-1.686752177453064e-06,-4.833062133536418e-07,-1.6603672623298012e-07,5.586498995693348e-08,2.0970565125982097e-07
2.0899602494596445e-07,1.5049641598661516e-07,-4.254314786771848e-08,1.4152208231855755e-08,1.8781241561605933e-07,3.476984330964224e-08,2.70120264164169e-07,-2.3739615981158487e-07,-5.220969080461229e-07,-3.622284262846216e-07,-3.053036965137582e-07,-2.45987669597601e-07,2.643691189359821e-07,-1.5757317568647234e-06,-4.0509313312130085e-07,-1.0462712638017076e-07,6.830888908673745e-08,2.2404016664624218e-07
2.327054531390713e-07,2.0856259422537566e-07,-2.5271145402039244e-08,4.478914850398206e-08,1.923279502540517e-07,9.83923137140884e-08,2.6603912309697046e-07,-2.5193575904384834e-07,-5.146025232401698e-07,-3.5548878214420386e-07,-2.6820827923220174e-07,-2.7079393589009625e-07,3.0831620800849845e-07,-1.4522339451805333e-06,-3.5811508064027927e-07,-9.022426565833652e-08,8.200488759042806e-08,2.417504960949136e-07
2.4885958157469415e-07,2.5188529787520945e-07,-1.0251455272172795e-08,7.086835418310945e-08,1.871003219421129e-07,1.5464829187543517e-07,2.458144424915397e-07,-2.5986008162305147e-07,-4.948577640576003e-07,-3.655900604695995e-07,-2.2632529899273975e-07,-2.783507379688282e-07,3.406411611003053e-07,-1.3154020809578527e-06,-3.4647213005752624e-07,-3.8666265093103425e-08,9.336070375223958e-08,2.6872395579877863e-07
2.637485546361217e-07,2.6477903019151134e-07,-1.448554850747503e-09,9.141978038065764e-08,1.725290427565195e-07,1.964229829013491e-07,2.1701390528301188e-07,-2.6347526875235845e-07,-4.6768835705546784e-07,-3.6133637951522206e-07,-1.7199271880690392e-07,-2.63496006830899e-07,3.657099108932404e-07,-1.193165309286692e-06,-3.683801852647208e-07,4.970306273285109e-08,1.183243308692881e-07,2.828260431154032e-07
2.7867823382037153e-07,2.5453921181094855e-07,-1.966514492423852e-09,1.0264376730452389e-07,1.4277342792479554e-07,2.1974242821783461e-07,1.7901596628688358e-07,-2.610834995141698e-07,-4.3913057419501574e-07,-3.025653588108358e-07,-1.3479046428593222e-07,-2.2303790332516513e-07,3.792989475667119e-07,-1.1102887930001536e-06,-4.0943651305565715e-07,1.2288561674207055e-07,1.3945376390168448e-07,2.941581985971389e-07
2.883285214404256e-07,2.491704654217189e-07,-1.076184681853509e-08,1.0557985133252831e-07,1.0484370515433242e-07,2.2437222210881396e-07,1.394739106872544e-07,-2.518826197905183e-07,-4.162420071223056e-07,-2.7980313306465846e-07,-1.0245424226481548e-07,-1.5686441960569678e-07,4.041669020850208e-07,-1.062640686105857e-06,-4.4887198240163053e-07,1.738518030638308e-07,1.531700156656824e-07,3.0777255980206315e-07
2.96458977049452e-07,2.675340431394404e-07,-2.138697011970205e-08,1.0505621448108363e-07,6.664926638294091e-08,2.128111452493242e-07,1.0261782932476663e-07,-2.3532069922332004e-07,-4.0230340141731016e-07,-2.721166773074942e-07,-9.818424416245736e-08,-6.817937678212066e-08,4.28075927368812e-07,-1.013233597161673e-06,-4.653926873438214e-07,2.4285632356616005e-07,1.5604701712317471e-07,3.1962115173545154e-07
3.091366807227152e-07,2.861103000104761e-07,-2.3876525314473813e-08,1.0590724373171124e-07,5.0893667372249396e-08,1.9106476321142573e-07,7.291117681343603e-08,-2.1003519978744105e-07,-3.968395507575782e-07,-2.619892568213026e-07,-1.0496627686223588e-07,3.6385704671699566e-08,4.569379497151942e-07,-9.824234421229435e-07,-3.9553125765203744e-07,2.929492207498636e-07,1.4854567302482878e-07,3.1957499083569837e-07
3.3351806938127263e-07,2.773470974531863e-07,-1.119264873762859e-08,1.1602702202114357e-07,8.681854757035472e-08,1.7014257599184833e-07,4.5585256417718265e-08,-1.780281345330224e-07,-3.990624328684467e-07,-2.3232853113577137e-07,-1.082981985646407e-07,1.478707495850271e-07,5.106982206390145e-07,-9.54600083816228e-07,-2.827853932543313e-07,3.273571651899623e-07,1.5755701015475744e-07,3.130030550480895e-07
3.684321652613432e-07,2.5766460820921775e-07,1.7517727023988186e-08,1.38277881113442e-07,1.350746242907901e-07,1.5768596690487369e-07,2.234291016614323e-08,-1.4262904943734428e-07,-4.0641768997765754e-07,-1.8162866792028023e-07,-1.0656686611498207e-07,2.5671139120052096e-07,5.905273777588363e-07,-9.082185151511199e-07,-1.9642870038876392e-07,3.9157295308659045e-07,1.667251105276101e-07,3.0027687098194424e-07
3.9900367659028964e-07,2.357682067062068e-07,6.183752893471486e-08,1.7034004377059143e-07,1.6524963371200633e-07,1.5573821218162408e-07,1.0203849332722282e-08,-1.0753399088030864e-07,-4.1880003557882535e-07,-1.2683771791228055e-07,-1.0771183243541944e-07,3.528084295847711e-07,6.75772773715602e-07,-8.48973805441928e-07,-9.508004729962725e-08,4.518489561357651e-07,1.6884768275983068e-07,2.843438041634589e-07
4.360610665307633e-07,2.134091076351623e-07,1.1139679082658038e-07,2.0788504539062324e-07,1.7572303465624471e-07,1.6862471883702126e-07,1.2948541194029594e-08,-7.5209963202605e-08,-4.3665683123807914e-07,-8.730929237994354e-08,-1.1854537931716792e-07,4.246103726617792e-07,7.143080638969086e-07,-7.787476821277332e-07,4.827314115751722e-08,4.5645963957504173e-07,1.867314010387987e-07,2.7082344134233374e-07
4.635235698665179e-07,2.1050374992094534e-07,1.6208819117536085e-07,2.464789345932342e-07,2.0206859921567424e-07,1.9532303002115516e-07,3.8873601973194656e-08,-4.6743282555137785e-08,-4.588416461377946e-07,-6.358543162884848e-08,-1.280142119882322e-07,4.6103695393696573e-07,7.114330123177508e-07,-7.105773347859376e-07,1.9568402156870072e-07,5.193987737959718e-07,1.8803003745846087e-07,2.5918352428008123e-07
4.6074224886323207e-07,2.2378468466038977e-07,2.120439252125771e-07,2.8446028181976956e-07,2.6212397001305963e-07,2.4159617053365354e-07,9.127656395090664e-08,-2.3616288176227637e-08,-4.83932718348546e-07,-2.140033898190566e-08,-1.3500282193821477e-07,4.574288230225086e-07,7.169674152982794e-07,-6.866187417457415e-07,2.9174224084298986e-07,5.543139662157615e-07,1.753251974703724e-07,2.580650820847381e-07
4.702403906193755e-07,2.467149052289424e-07,2.569685149415823e-07,3.220756670807118e-07,3.1342351726506706e-07,3.0928931386171333e-07,1.6634720399476377e-07,-7.075126324105308e-09,-5.088442982801563e-07,1.804153875681641e-08,-1.3240801984765405e-07,4.214295920495545e-07,7.318631994105356e-07,-7.297698856051298e-07,3.485534206686126e-07,5.694514388096005e-07,1.786271172389846e-07,2.384641694451238e-07
4.5658863205290547e-07,2.770348203323127e-07,2.9450033417422636e-07,3.608285148019187e-07,3.755977788617423e-07,3.792561810638617e-07,2.5145758831735454e-07,2.7299015814896074e-09,-5.286598108811008e-07,4.14228937224871e-08,-1.2285538561374802e-07,3.7335826817342276e-07,7.351448022302916e-07,-7.239364009895932e-07,3.817872881302163e-07,6.170311142040868e-07,1.9500402423194592e-07,2.2257675190401073e-07
4.221276309392183e-07,3.048995847912817e-07,3.2202849142696714e-07,4.0235888420417675e-07,4.4734039117525e-07,4.163922549604185e-07,3.3015953132694114e-07,8.133066168678848e-09,-5.359231846508714e-07,3.3080445396709736e-08,-1.0816014684053757e-07,3.38959980050497e-07,6.680632347432266e-07,-7.72077973875738e-07,4.016078291320138e-07,6.713188326267963e-07,2.0763182503618002e-07,2.0874159155443082e-07
4.130426548190899e-07,3.272312122234119e-07,3.390877374427626e-07,4.512611518956096e-07,5.019490863051286e-07,4.0210212719531904e-07,3.583171481175685e-07,1.4490218106500718e-08,-5.28446589700125e-07,3.269071916627185e-08,-8.4898347050887e-08,3.3773538811300717e-07,6.374718281273741e-07,-7.896327054443279e-07,4.2300279599612905e-07,7.555723901293511e-07,2.0913067353798993e-07,2.0553487302897547e-07
4.54894394359502e-07,3.452146959135998e-07,3.5019209904047407e-07,5.09907248533495e-07,5.499117915239711e-07,3.2312348350892607e-07,3.052748193558332e-07,2.956833759037163e-08,-5.066368924805141e-07,5.805247576031551e-08,-4.631332269437186e-08,3.736990386051351e-07,6.86503361297591e-07,-6.906144822125786e-07,4.584975157009236e-07,8.370251320310142e-07,2.1318108103842722e-07,2.014388625331375e-07
4.917341490398425e-07,3.5939973384770474e-07,3.592304044641935e-07,5.773619663197122e-07,5.960067859994204e-07,2.5734640310300507e-07,1.5102933358194728e-07,5.823741107779899e-08,-4.726618054189491e-07,1.0440118451897948e-07,-6.0844977915114394e-09,4.3377991681329824e-07,7.641678059394118e-07,-5.449489086104358e-07,5.139175750048172e-07,9.191219006140132e-07,2.1152228548434562e-07,2.164986373167071e-07
5.123003058736084e-07,3.713864620330961e-07,3.678712110387249e-07,6.463977124458646e-07,6.354879548249314e-07,2.334738224571468e-07,1.5066818662682725e-08,9.796866939025918e-08,-4.3183107386755147e-07,1.3480159943264288e-07,7.54260007391564e-08,4.938431343743073e-07,8.501903185241799e-07,-4.054402208887368e-07,5.848635183699904e-07,1.0067977266877542e-06,2.015686822148831e-07,2.2831561641518765e-07
5.183692151260982e-07,3.8248825921542045e-07,3.798349156162874e-07,7.113318814462426e-07,6.740852526019233e-07,2.2751041329436353e-07,-3.142681612554749e-08,1.4398119713386053e-07,-3.8861012872686525e-07,1.704703718994584e-07,1.6638283351261734e-07,5.286987661468157e-07,9.392267084757002e-07,-3.172512084661657e-07,6.578871264158502e-07,1.132783186397598e-06,2.0549002704537006e-07,2.5090340461429144e-07
5.310261300872848e-07,3.932822462317299e-07,3.934762768808032e-07,7.636697059135875e-07,7.088783021319796e-07,1.9069688216410355e-07,-4.0976855756501127e-08,1.8801864522101148e-07,-3.478801758028657e-07,2.264334758528943e-07,3.073639658383268e-07,5.217408651265782e-07,1.0013906792454786e-06,-2.79123475346499e-07,7.168290195175714e-07,1.219404660057346e-06,2.0647191539587502e-07,2.745748238465632e-07
5.414878089356672e-07,4.051542808525825e-07,3.975920682129006e-07,8.058265404978311e-07,7.378712599242796e-07,1.9465790828474673e-07,-1.3984623351094353e-07,2.2267934683837705e-07,-3.1622658249275624e-07,2.897542195305005e-07,4.1296876563453815e-07,4.7059133006179485e-07,1.088173844345631e-06,-2.2075016259573507e-07,7.517218375424073e-07,1.276594930442514e-06,2.1501319053918856e-07,2.9318438823450866e-07
5.714755172753727e-07,4.1906832153076557e-07,3.958973463832943e-07,8.404619934356396e-07,7.583788266651137e-07,1.5851886061664251e-07,-2.3673837147633084e-07,2.463448705698397e-07,-3.023789203628983e-07,3.658289131092547e-07,5.046931018505502e-07,3.8722527335051633e-07,1.20312749340642e-06,-1.2839693632618128e-07,7.627414802079623e-07,1.3502024322261255e-06,2.2406008018443802e-07,3.1731914020320134e-07
5.822497353090204e-07,4.3562513805479004e-07,4.000646396760507e-07,8.689885472447581e-07,7.706395086342145e-07,8.478971835788046e-08,-2.8930710316394986e-07,2.612014310318311e-07,-3.134917914864219e-07,3.8984096125139366e-07,5.871535428927578e-07,2.9320458845427084e-07,1.3021339992212187e-06,-7.150912777062924e-10,7.518109164484446e-07,1.405305737198132e-06,2.364136480446238e-07,3.2902473875823054e-07
5.758997551202794e-07,4.5306547328015896e-07,3.9844843812585234e-07,8.937076683586451e-07,7.758581666727635e-07,1.816516692340739e-08,-3.3001348758264995e-07,2.712156098545889e-07,-3.5284384592479327e-07,3.928681301606666e-07,6.327886433458611e-07,2.1154927659531723e-07,1.3618489616076234e-06,1.0058998588380988e-07,7.306008905376282e-07,1.4063931499862856e-06,2.50455115370216e-07,3.4846996194791697e-07
5.721979232340744e-07,4.679678378449839e-07,4.0031519640461564e-07,9.037411490808216e-07,7.694865732398616e-07,-7.943360165801596e-08,-3.7544309405176227e-07,2.803138567383551e-07,-4.1817460862070244e-07,3.9390722198932664e-07,6.540024365602388e-07,1.5855277981646329e-07,1.404908859720058e-06,1.7720205101174117e-07,7.079972818846637e-07,1.456215548395991e-06,2.5914449461022045e-07,3.521604296192462e-07
5.428219889974288e-07,4.768755336006464e-07,4.0174600704930047e-07,9.051187013776628e-07,7.612602699397928e-07,-1.621796555982779e-07,-3.9657226422250255e-07,2.91579078111317e-07,-5.017650909999037e-07,3.822716166522362e-07,6.609076138114187e-07,1.3998885702854274e-07,1.3883693760030925e-06,2.3142754346555992e-07,6.873575454549418e-07,1.466690170344817e-06,2.646166099025033e-07,3.541143323564547e-07
5.087537047770285e-07,4.77379133484786e-07,3.8631421725548893e-07,8.950124829955141e-07,7.33874290299425e-07,-2.3169029558821673e-07,-4.1172526930055216e-07,3.0849910695461315e-07,-5.916928624645855e-07,3.366652667578952e-07,6.295753087525336e-07,1.5241874709144715e-07,1.320093527479278e-06,2.793953427147394e-07,6.695557398251066e-07,1.4823486518063973e-06,2.632287126548082e-07,3.7195036344382153e-07
4.994982691031918e-07,4.702852844703373e-07,3.559821162130474e-07,8.589112801051276e-07,6.850008332649991e-07,-3.219152195767892e-07,-4.3797463287296716e-07,3.3027864559614764e-07,-6.761444566153044e-07,3.0071044647525634e-07,6.038507941314455e-07,1.8638803938186564e-07,1.2479284376958726e-06,3.3815908417632665e-07,6.487554162542437e-07,1.4152133635551262e-06,2.6931341960152085e-07,3.9321373900854844e-07
5.084803783590833e-07,4.552247513257416e-07,3.2837490750395616e-07,8.578774498671723e-07,6.761586045738362e-07,-4.2377439458424325e-07,-4.7126868539121197e-07,3.54079927775814e-07,-7.417562204273326e-07,2.9971162853596243e-07,6.349957445662433e-07,2.2965035996117802e-07,1.1956683802784614e-06,3.827744781351187e-07,6.179605304898469e-07,1.3573038274502663e-06,2.7806525025933245e-07,4.1135184246601275e-07
5.105626752569587e-07,4.3230015546155556e-07,2.9601522371148476e-07,8.53943324118354e-07,6.695629459250906e-07,-5.144991496480337e-07,-5.104278510203971e-07,3.7517291680183536e-07,-7.80929227999341e-07,3.1389237564359204e-07,6.532712845328695e-07,2.7035755364592754e-07,1.1583658955184907e-06,4.213312242956801e-07,5.718083490226079e-07,1.374875204826151e-06,2.8718703548408003e-07,4.286767130069471e-07
5.061449939712174e-07,4.0236555732817545e-07,2.3500362105005603e-07,8.61180301874014e-07,6.606997911359491e-07,-5.371118858029235e-07,-5.420595313096494e-07,3.866983128112123e-07,-7.910601552622144e-07,3.0795269741335376e-07,6.963292028799e-07,2.9955206365633123e-07,1.1368359463729198e-06,3.7926786384509166e-07,5.105303782377704e-07,1.3908559678196276e-06,2.888552941808544e-07,4.4100981036560743e-07
4.95225055320723e-07,3.671090323203275e-07,1.6110049334808525e-07,8.570858006945594e-07,6.604807213978888e-07,-4.898332845134494e-07,-5.584702004933037e-07,3.858642420559117e-07,-7.580737523565437e-07,2.8713648715732904e-07,6.899972694992087e-07,3.1243132041017313e-07,1.1524589656971628e-06,3.190907600968437e-07,4.3881350991496575e-07,1.3386838435829877e-06,2.76040271944223e-07,4.4311371688735704e-07
4.709542575990433e-07,3.305631555271385e-07,7.890214492015302e-08,8.146643204444886e-07,6.479042746804889e-07,-4.514416785478803e-07,-5.619299197067852e-07,3.746386897528072e-07,-6.925086803133373e-07,2.814090137701384e-07,6.225692872483844e-07,3.085334271206271e-07,1.0724925802245904e-06,3.6443162401661604e-07,3.671164201856822e-07,1.2561653428023708e-06,2.836282287780027e-07,4.351999988109746e-07
4.652252062970292e-07,2.9774409252126194e-07,6.602714392809191e-10,7.503733754695891e-07,6.025371048687747e-07,-4.989072379865059e-07,-5.583083521156742e-07,3.589892285568217e-07,-6.55525617912417e-07,2.6909428814532716e-07,5.446204469444865e-07,2.9116865601009004e-07,9.447558303063853e-07,4.4624372418039596e-07,3.083461913377703e-07,1.1674183836214426e-06,3.205406513939692e-07,4.368855824538414e-07
4.5183905045521324e-07,2.725763434633341e-07,-2.6266584834442907e-08,7.149815291223985e-07,5.766654094574854e-07,-5.636771835890778e-07,-5.542757705515552e-07,3.4425874278962797e-07,-5.846976689951861e-07,2.510124875218344e-07,5.335679866060222e-07,2.6646337930287065e-07,8.528223689027905e-07,4.992762575309966e-07,2.72050295944545e-07,1.0833950494873745e-06,3.42900099161753e-07,4.5833362855714384e-07
4.24429027655999e-07,2.5581798968277656e-07,-4.317063222033234e-08,6.809278742168843e-07,5.626728229700711e-07,-5.622514382830678e-07,-5.547117559911111e-07,3.3353568633474687e-07,-4.977644340187269e-07,2.1797160755423334e-07,4.660157903979784e-07,2.418704103951542e-07,7.472953471161199e-07,5.109590262355594e-07,2.613085567587893e-07,1.0211019272480601e-06,3.600079911258515e-07,4.4845693389368654e-07
4.02522206285622e-07,2.4542395943975044e-07,-8.626704446059402e-08,6.358710304596455e-07,5.464651854914546e-07,-5.386637126149066e-07,-5.620026632777173e-07,3.2609983563652596e-07,-4.246366582232223e-07,1.6721384766453706e-07,4.333336738275713e-07,2.2406401286668433e-07,5.627122254383653e-07,5.206656143347973e-07,2.713020320662547e-07,9.91127478239597e-07,3.6320956230759274e-07,4.2645918272112226e-07
3.8635596151534007e-07,2.3829144408888922e-07,-1.0506057789890464e-07,6.216560266188183e-07,5.077253886689237e-07,-5.013159570913227e-07,-5.766910940730259e-07,3.1883484847323743e-07,-3.883710208203626e-07,1.4191228157815858e-07,4.45081814723672e-07,2.1695862934620477e-07,4.5646433149820417e-07,5.052130845825595e-07,2.916314606958516e-07,9.858663290773624e-07,3.6072351522314803e-07,4.1157983257276236e-07
3.6816712383529676e-07,2.3220038898161145e-07,-9.102944026311945e-08,6.319382840168166e-07,4.669256301732601e-07,-4.48359126636961e-07,-5.987862513285454e-07,3.101389356713279e-07,-3.803559052803091e-07,1.325300589813336e-07,4.6159947422517646e-07,2.201873823646461e-07,4.2007263753499063e-07,4.7649850057893375e-07,3.182447257222394e-07,9.975641631272255e-07,3.519582821904119e-07,3.7987351321352923e-07
3.3840968865757513e-07,2.2694211502521822e-07,-7.676297960989158e-08,6.36345772884678e-07,4.408808965910452e-07,-4.1359104609691007e-07,-6.285290630405788e-07,3.0007898224513174e-07,-3.420669684802135e-07,1.3592184861695105e-07,4.4637544805559327e-07,2.2830169948361915e-07,4.247457756391552e-07,4.5412138149415074e-07,3.403415541477504e-07,1.0133702573379593e-06,3.47672110792841e-07,3.5816128240013325e-07
3.284004804362615e-07,2.2444559842036715e-07,-7.142538457970969e-08,6.286914017801666e-07,4.1530631160051374e-07,-3.8180240366601716e-07,-6.675131085680626e-07,2.8979108695352783e-07,-3.426871915549759e-07,1.485478186129426e-07,4.0404863986448093e-07,2.3246829571693565e-07,4.1082307303357676e-07,4.352514483828128e-07,3.5254648517029e-07,1.0160612654809424e-06,3.4718270685605447e-07,3.444668716314115e-07
3.1751938943675296e-07,2.260685490492892e-07,-6.830393181198948e-08,6.214181985940514e-07,4.1434232066616154e-07,-3.3377211256794283e-07,-7.13033643970095e-07,2.8005219804017245e-07,-3.6975582440515787e-07,1.4627574562866344e-07,3.8125343342347763e-07,2.2546803649183698e-07,3.778309736685282e-07,4.224742375158021e-07,3.5683530030809686e-07,1.0301226897271862e-06,3.44014990973003e-07,3.3275161118066485e-07
2.9965352158062597e-07,2.3114074306068762e-07,-7.542071380861895e-08,6.143502393866295e-07,4.09889012773646e-07,-2.789002242665589e-07,-7.603279831211815e-07,2.7049885271884993e-07,-3.9937408405723963e-07,1.438680687789117e-07,3.6304619920496714e-07,2.070896178391112e-07,3.707614384625103e-07,4.067270872605184e-07,3.5598984992564426e-07,1.041016009759464e-06,3.5299644461852894e-07,3.257221902318947e-07
2.7706770301355693e-07,2.37641568665085e-07,-9.227754124883864e-08,6.013271435915373e-07,4.0658070289230753e-07,-2.3973051005661567e-07,-8.043076885158623e-07,2.619606633586634e-07,-4.3251490649774987e-07,1.6029322543929184e-07,3.530532495035607e-07,1.8601602270909563e-07,3.911666725890443e-07,3.91521144942042e-07,3.5019353609385295e-07,1.0416340191348393e-06,3.553179991465643e-07,3.333740570158804e-07
2.6312109567300446e-07,2.436016513336852e-07,-1.1044315290161746e-07,5.857319730891612e-07,4.0995999127745794e-07,-2.1696406861397288e-07,-8.38707793508831e-07,2.559540297194451e-07,-4.778478282175199e-07,1.765407923624576e-07,3.665163615079834e-07,1.7656769028042157e-07,4.2761808822131426e-07,3.8773388141330495e-07,3.4734045361336307e-07,1.0447528237505078e-06,3.598645469223779e-07,3.5848449134928796e-07
2.45586862285722e-07,2.4832373912156066e-07,-1.2885892566600961e-07,5.696808369902165e-07,3.9911878515893454e-07,-2.1315084812347052e-07,-8.562254332242439e-07,2.533620197624152e-07,-5.348154044039754e-07,1.860845425962077e-07,3.936566314853936e-07,1.9131933012842174e-07,4.829992080275228e-07,4.1061666846452233e-07,3.5235904258335877e-07,1.0486424165455114e-06,3.604610508767274e-07,3.9066565958119607e-07
2.2352035813888286e-07,2.522104507285314e-07,-1.488114094510631e-07,5.58228978756172e-07,3.840271218496116e-07,-2.2443596031009524e-07,-8.539257867124002e-07,2.5351744582699147e-07,-6.036383889905628e-07,1.8802939234524305e-07,4.2293527899400965e-07,2.335100702979158e-07,5.440084614268214e-07,4.3272479629475503e-07,3.6177871050728383e-07,1.0629481326774137e-06,3.4249208695715823e-07,4.1332450874937295e-07
2.1000798100242876e-07,2.5563906047098024e-07,-1.6216848032711927e-07,5.544506937448529e-07,3.695042046770109e-07,-2.3806949627996147e-07,-8.335867394032349e-07,2.511783937469674e-07,-6.788121271309366e-07,1.7589948835772994e-07,4.574612640329545e-07,2.945423654490969e-07,6.129473114705701e-07,4.5184194614038287e-07,3.7303054667761314e-07,1.0933951248962423e-06,3.2747411177803035e-07,4.295189869555133e-07
2.0662402893005608e-07,2.577151286916779e-07,-1.7025836537823615e-07,5.535106619319456e-07,3.5587971535766205e-07,-2.510176775537801e-07,-8.017921633751762e-07,2.422488304221004e-07,-7.553695680451397e-07,1.5439077615958853e-07,4.90857333764226e-07,3.585947822622007e-07,6.843321361073759e-07,4.574849601002789e-07,3.759185620787199e-07,1.1370952793817713e-06,3.185567425765335e-07,4.403951164772941e-07
2.0754900315895877e-07,2.5718467200248396e-07,-1.7840906486874395e-07,5.439451570236241e-07,3.458019667094742e-07,-2.681961445529692e-07,-7.694634125238558e-07,2.2823851646846235e-07,-8.151815994772519e-07,1.2954016403858732e-07,5.244457299861064e-07,4.110250479348496e-07,7.450723732671846e-07,4.325444292682406e-07,3.6269435194576277e-07,1.1789846605288284e-06,3.102893248298129e-07,4.42488793944554e-07
2.2013098520622203e-07,2.532557142727967e-07,-1.8817163917146238e-07,5.33711449600524e-07,3.376125746300772e-07,-2.8894031812527806e-07,-7.453131705738583e-07,2.061585913358901e-07,-8.393645360375971e-07,1.008378729863703e-07,5.578290035412083e-07,4.451949552792297e-07,7.885176202315379e-07,3.8561753409684904e-07,3.310855357061619e-07,1.2183534575219928e-06,2.962055096275776e-07,4.3722636922945293e-07
2.4158863596500617e-07,2.4635634347998055e-07,-2.01939434100161e-07,5.160078670574384e-07,3.2934174484503944e-07,-3.0959507198466424e-07,-7.331496385579233e-07,1.771889716906186e-07,-8.588356380191601e-07,7.731505871349235e-08,5.855151234569166e-07,4.641497228549927e-07,8.151967564410709e-07,3.359076530041953e-07,2.8432230519340197e-07,1.252966039414441e-06,2.7550643745183813e-07,4.1830779878668005e-07
2.6742545446942543e-07,2.38355942983412e-07,-2.1880867364475999e-07,4.982259036128343e-07,3.2802560771841693e-07,-3.3619099506865933e-07,-7.354608615425253e-07,1.4669629224587345e-07,-8.866657599637193e-07,6.72937480762669e-08,6.056227054363147e-07,4.765621454361484e-07,8.086625951888174e-07,2.945255090639654e-07,2.2742956667601195e-07,1.2786257396440163e-06,2.554914955092023e-07,3.8237277809018335e-07
3.0129358865195185e-07,2.3149986423431627e-07,-2.360316769578569e-07,4.845228359929495e-07,3.3295835271678134e-07,-3.710080515045772e-07,-7.506336847675756e-07,1.191621523104499e-07,-9.013582202954402e-07,6.875190433506368e-08,6.162399142323532e-07,4.895483657504686e-07,7.831821426200279e-07,2.4349373763426867e-07,1.6661995561647396e-07,1.3007950321543888e-06,2.395723911672246e-07,3.4614377299100666e-07
3.3746883440129406e-07,2.2746181565510404e-07,-2.522020062479649e-07,4.6976385247092394e-07,3.402737423581181e-07,-4.122215672555215e-07,-7.765336112517782e-07,9.909632391382103e-08,-8.904698443649326e-07,8.268293114497412e-08,6.112901987506086e-07,5.035771795844439e-07,7.476875914568655e-07,1.919788511437319e-07,1.0733594784016613e-07,1.3137833501133597e-06,2.503550392271643e-07,3.3290478709889694e-07
3.829570259486884e-07,2.2721915680986525e-07,-2.6863050753975277e-07,4.5646463081257217e-07,3.4270118040188866e-07,-4.5609842988991873e-07,-8.119998460904207e-07,8.854771716314297e-08,-8.854942449408524e-07,9.325306005054415e-08,5.897666979742028e-07,5.134840518589062e-07,7.153936396362694e-07,1.431526487226124e-07,4.760746152929018e-08,1.3186478413077057e-06,2.7276051117533716e-07,3.348737835704021e-07
4.255221471199197e-07,2.3117552566908414e-07,-2.8271753009914994e-07,4.4434802052764197e-07,3.4252238902843004e-07,-4.950292220924937e-07,-8.370595698158875e-07,8.557751334386901e-08,-9.017379422617561e-07,1.0129139284634727e-07,5.541258144804143e-07,5.13866907600349e-07,6.945812981284947e-07,9.223658444638685e-08,-6.271311731312848e-09,1.3044952995387697e-06,3.059954995937576e-07,3.441406226572418e-07
4.605177498282413e-07,2.393389395974448e-07,-2.944661947706684e-07,4.357006797989161e-07,3.398557901392068e-07,-5.227119950858292e-07,-8.514561768238942e-07,8.532692733532705e-08,-9.194811067402178e-07,1.206457510709281e-07,5.149280193205847e-07,5.03360247187174e-07,6.863799254791729e-07,5.5460007241520374e-08,-5.266641662377272e-08,1.250155771066143e-06,3.2314761070448656e-07,3.5160894670929305e-07
4.838771213020622e-07,2.508439004360787e-07,-3.0505566695971354e-07,4.289322601669625e-07,3.336905681499902e-07,-5.359311006810292e-07,-8.613985228779076e-07,7.970284066363709e-08,-9.598263578495655e-07,1.3986589502256901e-07,4.931179260733316e-07,4.849753492035958e-07,6.815378597153099e-07,6.224639456228089e-08,-8.92444748659528e-08,1.1953233965878165e-06,3.3646915825620884e-07,3.5037265469467144e-07
4.806888283143657e-07,2.631814035275896e-07,-3.1535754769795825e-07,4.2485380263792314e-07,3.247493979897979e-07,-5.341551289845077e-07,-8.711226658988046e-07,6.76307777191165e-08,-1.0179608922391647e-06,1.3898058885021393e-07,4.880936072873451e-07,4.6366814777977855e-07,6.677284412177234e-07,7.736412197054443e-08,-1.0325371142007629e-07,1.1543095716728004e-06,3.2038223152280584e-07,3.199971697991671e-07
4.4444683061697274e-07,2.724870763722865e-07,-3.2848771429574136e-07,4.1932837633370845e-07,3.0927567204804974e-07,-5.193192675748664e-07,-8.60353450303886e-07,4.9169150515933866e-08,-1.0799605303039184e-06,1.2280565461042666e-07,4.815693078988632e-07,4.42879858970572e-07,6.349812590445087e-07,7.664410574263631e-08,-1.1074442378551289e-07,1.132730748687394e-06,2.9098468874959805e-07,2.9990537371134096e-07
4.208680469083176e-07,2.750606614367041e-07,-3.4691633832731337e-07,4.0862704381691266e-07,2.892763318348748e-07,-4.952601227428345e-07,-8.337452939802632e-07,2.479925025269067e-08,-1.1409519644387904e-06,7.990153457348855e-08,4.681712904789158e-07,4.217097526385572e-07,5.832320585050313e-07,6.046018407486327e-08,-1.2032111868761742e-07,1.1074232203659412e-06,2.7533946951141844e-07,2.8579952070930823e-07
4.03036436707436e-07,2.691196641453441e-07,-3.6989824399705823e-07,3.910346176092374e-07,2.6536438060602396e-07,-4.6728560084714404e-07,-7.759018953135361e-07,-9.697253382334607e-10,-1.1869607079904637e-06,4.655806171061609e-09,4.4274834524952923e-07,3.9504568693811334e-07,5.319641295413462e-07,-2.9491117663486132e-08,-1.7612087613569883e-07,1.0583761983267294e-06,2.603287992722858e-07,2.620200976281923e-07
3.790008520457804e-07,2.5524700039912376e-07,-3.987294023875465e-07,3.6536507882182136e-07,2.450802192869843e-07,-4.416768437117497e-07,-6.444624434388429e-07,-2.7186077432607987e-08,-1.212470415372948e-06,-4.3403203754887995e-09,3.699562067056742e-07,3.5732297524472075e-07,5.150728585126601e-07,-2.7738907560523194e-08,-2.5858089035241153e-07,9.248058177019458e-07,2.510179560601358e-07,2.454972303136022e-07
3.5239504231034707e-07,2.352175883763398e-07,-4.331766200826101e-07,3.331205685464573e-07,2.1977676576895413e-07,-4.2431186271554373e-07,-5.194503462885025e-07,-5.483923511768235e-08,-1.217017964029818e-06,1.7415288158935475e-08,3.353331705240904e-07,3.0714107798383303e-07,4.917197258309448e-07,4.164253405555017e-08,-3.1447474937034007e-07,7.621078300666838e-07,2.510986777600957e-07,2.3378994431593383e-07
3.230911803134989e-07,2.1009892061048757e-07,-4.731091769205007e-07,2.9650760908002403e-07,1.8727511067249407e-07,-4.186828137008207e-07,-4.6487179990648584e-07,-8.75250824878742e-08,-1.202121541909085e-06,4.860923094597293e-08,3.188686965165738e-07,2.4921893294023267e-07,4.6166061709189067e-07,2.3662787586645768e-08,-3.794828107791278e-07,6.981880830307266e-07,2.5942309626617813e-07,2.3008427827557e-07
2.890234027497025e-07,1.7989565215854045e-07,-5.189606844228895e-07,2.525476634021811e-07,1.3997519619870173e-07,-4.247695069305926e-07,-5.046408748507628e-07,-1.2816494132300284e-07,-1.1725793087208893e-06,1.030571195926896e-07,2.803453139774134e-07,1.9232577771772803e-07,4.2690453700543e-07,8.743286453639287e-09,-4.5250094438321644e-07,6.958803815245773e-07,2.6985609288923167e-07,2.2365926674550254e-07
2.3291958958084958e-07,1.4489657668672497e-07,-5.69796613211622e-07,2.0345142385913193e-07,8.275615631782255e-08,-4.39205418484505e-07,-4.6970885953258444e-07,-1.8066747112875438e-07,-1.1344135514340949e-06,1.4484866518551843e-07,2.583411002355101e-07,1.442194859701029e-07,4.0698392120461763e-07,2.0181766315612086e-08,-4.882530920786463e-07,6.226085621286994e-07,2.809240316845428e-07,2.3297351031980187e-07
1.85391349064014e-07,1.0742828467034845e-07,-6.23294582864769e-07,1.500043604221502e-07,2.0809487209231383e-08,-4.560080454669263e-07,-3.8827816745443376e-07,-2.4622965769507696e-07,-1.0920260060886458e-06,1.4025458412565655e-07,2.807729407914336e-07,1.0671265474861521e-07,3.765790887828688e-07,-9.015017277866234e-10,-4.943463457166925e-07,4.5466335590858415e-07,2.86676544175345e-07,2.1291875777355617e-07
1.397155835116439e-07,7.162376250707188e-08,-6.751749125686975e-07,9.603482319027779e-08,-5.185710515772693e-08,-4.681437750894091e-07,-2.521264988169729e-07,-3.209610909640376e-07,-1.0462112006659695e-06,1.0703373990564475e-07,2.760483311650045e-07,7.418648413332453e-08,4.223307606843133e-07,3.3712946582757233e-10,-5.275673364987955e-07,2.0714048595071574e-07,2.898229420998537e-07,1.9443089238424065e-07
1.1214797273114445e-07,4.1755848738084127e-08,-7.211612884705356e-07,4.776196482900094e-08,-1.167558072983974e-07,-4.7063587330740075e-07,-1.0402449808554219e-07,-3.9904096491620807e-07,-9.947751880730426e-07,8.05487385689119e-08,2.516722218285009e-07,3.584170050176724e-08,4.542859727781276e-07,2.4463211895187296e-08,-5.826406996879867e-07,7.627566155213906e-08,2.97908708743073e-07,1.7201786076753382e-07
9.019378053609598e-08,1.9751028745105236e-08,-7.572316847870551e-07,7.298483576715427e-09,-1.8189870732202507e-07,-4.635591284082869e-07,4.2710413815617825e-09,-4.729909771971258e-07,-9.358531603323771e-07,7.080713460202037e-08,2.390754516853118e-07,-2.055828697467165e-08,4.7458837905608445e-07,1.9343954867004194e-08,-6.030331428589951e-07,-2.1364211029390756e-08,3.081450809696396e-07,1.3925620561476512e-07
5.7485585226185636e-08,4.024059786135724e-09,-7.817741545297383e-07,-2.5007362704369726e-08,-2.4201351382170737e-07,-4.5165391626663206e-07,1.1188209051508378e-07,-5.367648154504666e-07,-8.709454533216036e-07,8.209905701775169e-08,2.855275259126196e-07,-1.0456903122709644e-07,4.431493288155253e-07,-3.080332694727025e-08,-6.103284675155681e-07,-1.1838543165827326e-07,3.1623984558119584e-07,1.0613437161922109e-07
2.534947468312614e-08,-9.050514197735014e-09,-7.947463348169888e-07,-5.0923870684455235e-08,-2.879457962893994e-07,-4.400800782140488e-07,2.208124749190228e-07,-5.870717721276679e-07,-8.048944533956835e-07,9.412339559354524e-08,3.0276633351171737e-07,-2.1818273377788914e-07,4.3729678035003763e-07,-1.2410302131083476e-07,-6.352132859093792e-07,-2.396887743986563e-07,3.184155337648946e-07,6.425425378831589e-08
-1.0145889438566752e-08,-2.2758535507547217e-08,-7.97041674980779e-07,-7.131554043618332e-08,-3.230247062871166e-07,-4.3021320520354156e-07,2.869147156078449e-07,-6.222169722600172e-07,-7.429344097182753e-07,6.587782630646076e-08,2.9833887163008064e-07,-3.5160446763897143e-07,4.201145404333237e-07,-2.2052397054242854e-07,-7.325999217665058e-07,-2.8354877449670205e-07,3.2044058745381314e-07,2.2096333750169626e-08
-4.9018149184610414e-08,-3.8483144594879545e-08,-7.907614824581385e-07,-8.769909772417403e-08,-3.432806723424651e-07,-4.196302266612864e-07,3.112357800092402e-07,-6.441503059219539e-07,-6.877217201429255e-07,5.469229589253279e-08,2.6982874217721514e-07,-4.836052544854384e-07,3.5441553445799576e-07,-2.768007463067841e-07,-8.098416241375542e-07,-2.6999086960330094e-07,3.2454450396073505e-07,-1.6759150395814883e-08
-9.40837189103847e-08,-5.6049489328907196e-08,-7.791734335817316e-07,-1.0117213610521972e-07,-3.5400475593439117e-07,-4.058629004852138e-07,3.4264933207553107e-07,-6.560375492683952e-07,-6.392235943138985e-07,4.861521372430769e-08,2.3008195503912657e-07,-5.886499837363704e-07,3.5932852515018447e-07,-3.3947719464760794e-07,-8.471795791136634e-07,-2.958206807937011e-07,3.2497820466039483e-07,-4.0752329180944365e-08
-1.2720489295906156e-07,-7.516537643851658e-08,-7.667943543636194e-07,-1.143257223222767e-07,-3.556979705020828e-07,-3.8951486700849074e-07,3.72515785198e-07,-6.611470436587197e-07,-5.967664011607863e-07,-1.7553697308542457e-09,2.087394133418878e-07,-6.473715234635826e-07,3.6863457796826646e-07,-3.8468228053324174e-07,-9.642673974921497e-07,-3.5559769514787727e-07,3.2595099860467845e-07,-6.71335174295295e-08
-1.3644985981572867e-07,-9.66199297064688e-08,-7.585284670250001e-07,-1.3075667380619107e-07,-3.5731915850066274e-07,-3.7349090431430305e-07,3.976539164614439e-07,-6.631890433311477e-07,-5.605164325672018e-07,-6.029207776338086e-08,2.159036834091928e-07,-6.532681271419218e-07,3.587313831731031e-07,-4.3524191614859815e-07,-1.0668242806245143e-06,-4.0027274890762713e-07,3.238838529798606e-07,-9.880353414080765e-08
-1.3722173872143147e-07,-1.2206439152557856e-07,-7.568661621586592e-07,-1.5250464378017e-07,-3.6420732083247576e-07,-3.5971921702240843e-07,4.2891786859084455e-07,-6.62363806281741e-07,-5.31366703245132e-07,-1.1527052280535182e-07,2.297262339237551e-07,-6.115528404283138e-07,3.482118093259268e-07,-4.6806172809281754e-07,-1.151436728192424e-06,-4.852160193488646e-07,3.137026028102898e-07,-1.2819008434065555e-07
-1.3668098580113224e-07,-1.527673677578906e-07,-7.616759078416831e-07,-1.798436431268466e-07,-3.7747290498917244e-07,-3.4729301321465467e-07,4.6190915339157193e-07,-6.594621756622709e-07,-5.1026898465366e-07,-1.409094264856513e-07,2.4384940180132276e-07,-5.332341287559931e-07,3.2547235484651084e-07,-5.020068118722856e-07,-1.212976760414475e-06,-6.001822933810836e-07,2.931552990549897e-07,-1.5815949777930865e-07
-1.3238163477321468e-07,-1.9003883340833217e-07,-7.709303376479729e-07,-2.1143997013746698e-07,-3.9770247405622943e-07,-3.337870025514547e-07,5.048621032283487e-07,-6.589069310740074e-07,-4.981910916083004e-07,-1.4085669866805684e-07,2.6611225493071055e-07,-4.3103097351594873e-07,3.0141102115183637e-07,-5.493457427620783e-07,-1.255469060425611e-06,-7.136383887225925e-07,2.73120806574364e-07,-1.9783420915670648e-07
-1.2822174049377672e-07,-2.3228186174025623e-07,-7.820206380243735e-07,-2.45189754583759e-07,-4.2019232109035714e-07,-3.1779954476810693e-07,5.522451926642024e-07,-6.605193450902407e-07,-4.966582589894889e-07,-1.401722306359209e-07,2.8256667476637924e-07,-3.198295788462785e-07,2.437198756387987e-07,-5.787567465771282e-07,-1.310405773100453e-06,-8.374517257319009e-07,2.6493740662150074e-07,-2.212988346057804e-07
-1.1183964919594363e-07,-2.750790472578079e-07,-7.922609472465286e-07,-2.7871750681270795e-07,-4.380932412638368e-07,-2.9986812704180476e-07,5.917612485838657e-07,-6.651555121780828e-07,-5.073119081440058e-07,-1.4041859980886256e-07,2.5710312066101893e-07,-2.17661929591605e-07,1.7228296613269382e-07,-6.010187869988002e-07,-1.3575670609690267e-06,-9.425465839636983e-07,2.608017090676316e-07,-2.3913123336543153e-07
-9.74951649006513e-08,-3.1523838088280554e-07,-7.983615569708485e-07,-3.0871560235015004e-07,-4.4823081123284074e-07,-2.813875426244819e-07,6.151133059671428e-07,-6.746967796277946e-07,-5.293832379350287e-07,-1.4611143445985847e-07,2.1144194183490216e-07,-1.420849126286291e-07,1.0110718751361992e-07,-6.200691092338917e-07,-1.3920633343666394e-06,-1.01262613748635e-06,2.562893379224017e-07,-2.546914648131499e-07
-8.542047303864254e-08,-3.3667622547716477e-07,-7.964047686190384e-07,-3.3050577523942025e-07,-4.476475929354072e-07,-2.6368742762707335e-07,6.21488199269023e-07,-6.889346682144422e-07,-5.572646353373965e-07,-1.4280333154662747e-07,1.610346982090027e-07,-1.0313291653207739e-07,2.312329467025828e-08,-6.319698801869115e-07,-1.4191120471664564e-06,-1.0474879372181592e-06,2.504733404957715e-07,-2.643850814550727e-07
-7.327387163713155e-08,-3.2865393000333687e-07,-7.828640738209409e-07,-3.389949460973593e-07,-4.319104567862152e-07,-2.485731693928516e-07,6.090612010516794e-07,-7.074603128059092e-07,-5.817762108176326e-07,-1.384608925265551e-07,1.0685436097968653e-07,-9.915641047435401e-08,-1.6441675904725574e-08,-6.522507310645127e-07,-1.4324916896338264e-06,-1.0436637575360878e-06,2.3864608802863536e-07,-2.665413574215423e-07
-6.714322211436405e-08,-3.31677235041064e-07,-7.579150133882022e-07,-3.3171160889041226e-07,-4.0917197941915037e-07,-2.3881831683849146e-07,5.849159006018246e-07,-7.292974318892427e-07,-5.948353537766212e-07,-1.3157321718328393e-07,6.952088448507214e-08,-1.1887293281362046e-07,-3.515557368224659e-08,-6.694012469323591e-07,-1.4282463015806935e-06,-1.0113376341547863e-06,2.2253958505043667e-07,-2.652676821384709e-07
-5.349907538076744e-08,-3.453396069304262e-07,-7.243486895881982e-07,-3.102105592266782e-07,-3.741463486522368e-07,-2.3677784734825548e-07,5.629306088501424e-07,-7.522315201017233e-07,-5.93157045516871e-07,-1.1639706056402938e-07,3.123882362088783e-08,-1.4673098573539249e-07,-4.850333862351088e-08,-6.869334530314005e-07,-1.405422677103728e-06,-9.63756731176771e-07,2.127611257721302e-07,-2.631713189281541e-07
-3.8228231183572085e-08,-3.127650277947052e-07,-6.875252415249038e-07,-2.7952033233822247e-07,-3.3321333239950396e-07,-2.419333414306003e-07,5.538455160059623e-07,-7.726417443664826e-07,-5.780879696090612e-07,-9.573056809030866e-08,2.1747368340809875e-08,-1.6757007718337445e-07,-5.961269977656736e-08,-7.050932755564475e-07,-1.3691064814774118e-06,-9.158958403307347e-07,2.0826604476578364e-07,-2.5282664733884577e-07
-3.008866801752952e-08,-2.6646154677426923e-07,-6.529345045221563e-07,-2.4586008053790635e-07,-2.957932675974634e-07,-2.4997938079110426e-07,5.644904422511531e-07,-7.840334812999149e-07,-5.530133856961555e-07,-6.47604882735327e-08,2.678344940208749e-08,-1.6989908515131886e-07,-5.740946570499272e-08,-6.904463696941968e-07,-1.3286486670217714e-06,-8.789759766070948e-07,2.0579082344538577e-07,-2.516404350444555e-07
-2.4112717264868134e-08,-2.314868231018775e-07,-6.233146263076714e-07,-2.1422729719239032e-07,-2.638211865035416e-07,-2.548653197973032e-07,5.934306114159839e-07,-7.848907376437122e-07,-5.214854197819034e-07,-1.9726247502340642e-08,3.288847616056939e-08,-1.4878151544711135e-07,-3.499533803990479e-08,-6.530768108248729e-07,-1.2928385727339336e-06,-8.555428040033744e-07,1.9996513597991017e-07,-2.533195773483462e-07
-1.611543721011439e-08,-2.0561615436512735e-07,-5.990188856262205e-07,-1.8652087925514095e-07,-2.4004894669092475e-07,-2.525584704853462e-07,6.327224455892381e-07,-7.754156290273102e-07,-4.875832846220345e-07,1.8944017438187133e-08,4.403992107755375e-08,-1.0786745570871602e-07,3.0115127406341252e-09,-6.302688642516153e-07,-1.2663551485680129e-06,-8.429462679040537e-07,1.8558127869505613e-07,-2.55720472685878e-07
-5.615877104166781e-09,-1.8592800071084977e-07,-5.789275004860841e-07,-1.6375092281921472e-07,-2.2356119655964867e-07,-2.43802020695739e-07,6.731687897280347e-07,-7.580808091216363e-07,-4.572043055151285e-07,5.2277352846417384e-08,6.142460122572061e-08,-5.908667224318997e-08,4.893299504241381e-08,-6.190415615760659e-07,-1.2766437831280537e-06,-8.371651749656665e-07,1.7330512301191333e-07,-2.5522243049350184e-07
1.205800035561981e-08,-1.7540757526824263e-07,-5.631506466244251e-07,-1.468887249067054e-07,-2.122752343498061e-07,-2.3390362731033469e-07,7.077219423762133e-07,-7.400903508848812e-07,-4.37547162233469e-07,8.224434832422904e-08,8.085296832852788e-08,-1.9653986567773226e-08,6.827201731789673e-08,-6.506528181277975e-07,-1.3121941974421558e-06,-8.348141990393168e-07,1.5877243532611883e-07,-2.5231073010938797e-07
3.3747492348353155e-08,-1.7527600143271596e-07,-5.5118417697497e-07,-1.3626873803717497e-07,-2.0262837983212522e-07,-2.29718346023259e-07,7.324415611203139e-07,-7.261114119613024e-07,-4.3389634148920325e-07,1.0334445418050763e-07,1.0173853062367594e-07,-7.118979984313829e-09,8.944419282388136e-08,-6.973813432882936e-07,-1.3627467242051456e-06,-8.343307778968131e-07,1.4471935559631165e-07,-2.496346457794616e-07
5.0034002957917386e-08,-1.8481067285449512e-07,-5.424205189689751e-07,-1.3124061279260579e-07,-1.954970800491086e-07,-2.358210767711856e-07,7.457877183460485e-07,-7.178447502610659e-07,-4.460724242734854e-07,1.1848789798436774e-07,1.2294105343901593e-07,-3.323758009111651e-08,1.1581263663843775e-07,-7.400325922916963e-07,-1.4250502681950396e-06,-8.361368938203853e-07,1.2532381624528495e-07,-2.4637837183472083e-07
6.161151412176148e-08,-2.0008513712041328e-07,-5.355724101372815e-07,-1.2967679185940951e-07,-1.8888809762513792e-07,-2.521155929173893e-07,7.481949239564552e-07,-7.132314029646929e-07,-4.6762826883631685e-07,1.2945080646839603e-07,1.1822079166024727e-07,-9.845096353684078e-08,1.3018701295764363e-07,-7.597530573324732e-07,-1.4826155668458805e-06,-8.397037337798103e-07,1.0174707621670576e-07,-2.449740566343214e-07
6.939886172558607e-08,-2.155334134980088e-07,-5.293712529259982e-07,-1.290122693635387e-07,-1.811082535425467e-07,-2.739956988402335e-07,7.420907810696695e-07,-7.099149354939695e-07,-4.885562762688468e-07,1.3552116628975412e-07,9.969529635982426e-08,-1.899751528235505e-07,1.5273059164129118e-07,-7.530084028558473e-07,-1.5309843412474512e-06,-8.443166181046666e-07,7.999660598709823e-08,-2.4029602701921535e-07
