0,1,2,3,4,5,6,7,8,9,10,11,12,13,14,15,16,17
7.613186566079314e-08,1.4840839669710298e-08,3.9637516844123773e-07,3.1020930212006796e-07,9.239358652327322e-08,-1.576506162919712e-07,7.097154142152831e-08,1.6194763978884433e-08,3.220706825077146e-08,-1.1003975339421814e-07,-2.5717293150142123e-07,8.712843509622411e-08,3.056057093806088e-07,-3.4435274358382183e-07,-4.2215015027540786e-07,4.7044470174607575e-07,-1.8137195409205076e-07,-6.808731943264204e-07
8.443264978129138e-08,-9.60275763973053e-09,3.270133317572055e-07,2.8623585176244404e-07,7.006228727217929e-08,-1.7229631843793055e-07,6.007648642186487e-08,-9.921348956733923e-09,1.651456118034317e-08,-1.2610208492186364e-07,-2.2287062177886724e-07,2.4692338560841798e-08,2.437692750738936e-07,-2.99736463724372e-07,-3.862491489401101e-07,4.255503074555475e-07,-1.6962617876698402e-07,-6.373585362303414e-07
9.487064174512858e-08,-2.7503972816455068e-08,2.720903388683517e-07,2.566984631213567e-07,8.24116625763244e-08,-1.699892965174233e-07,4.56113186020272e-08,-2.7710317617210793e-08,4.94224908855279e-09,-1.2720389894040687e-07,-1.8559739948216674e-07,-2.320571156914485e-08,1.836044435055383e-07,-2.584718534361593e-07,-3.4917219707484894e-07,3.5281633820229255e-07,-1.5205439925095517e-07,-5.60830434437333e-07
8.463033043779344e-08,-3.5301979201581597e-08,2.174685133392196e-07,2.1943130028716598e-07,1.19433597972338e-07,-1.464488825013434e-07,3.001899349373159e-08,-3.519295291747046e-08,-5.906364343789944e-10,-1.1374626404557447e-07,-1.4624866189533123e-07,-5.4014554344244666e-08,1.285135070693455e-07,-2.1883690378893608e-07,-3.037028491453209e-07,2.522542691951078e-07,-1.274617946184638e-07,-4.476292257629895e-07
6.067464749858482e-08,-3.27396398497879e-08,1.6722810549297683e-07,1.7198544400290165e-07,1.388574389904416e-07,-1.0231667519893785e-07,1.4098703671164615e-08,-3.384424127247956e-08,-9.962379028993003e-10,-9.121523922213818e-08,-1.1581986948893499e-07,-6.634291889563818e-08,9.384130418844746e-08,-1.748877159090309e-07,-2.4736961325898344e-07,1.2549815983068733e-07,-9.645692274787107e-08,-3.060354562825019e-07
3.678760260749884e-08,-2.1796506014694302e-08,1.187750306266321e-07,1.1358850999564614e-07,1.4576960313910918e-07,-4.2545461290025e-08,-1.96901744744144e-09,-2.633851665051413e-08,1.1021379370861016e-09,-5.395451996829081e-08,-9.115355663993096e-08,-5.938260254461128e-08,7.003205131327207e-08,-1.395469134086073e-07,-1.7808023434309908e-07,-1.3681257234593247e-08,-6.197821332394792e-08,-1.4905039340848656e-07
7.584759936207435e-09,-6.037223500708232e-09,6.6918131639927e-08,4.5817277604735935e-08,1.3509390820693154e-07,2.4263375388027852e-08,-1.8731242456794454e-08,-1.6276086278449826e-08,1.9258007260702658e-09,-1.3978302241890539e-08,-6.504259411015133e-08,-3.364430973196785e-08,5.236149684682159e-08,-1.0480630646056447e-07,-1.0103406868756797e-07,-1.4904749087690386e-07,-2.8824931192186862e-08,3.866629821957379e-09
-2.1106484268127127e-08,9.74949849925805e-09,-2.005118288353178e-09,-2.75493091626121e-08,1.0516701172361595e-07,8.72736984160362e-08,-3.7131299229060965e-08,-8.012109796935135e-09,-2.2299513437445204e-09,2.3206435609559736e-08,-4.1109699356419866e-08,4.11737815892247e-10,3.749297436083208e-08,-6.871730081388362e-08,-3.116809304042327e-08,-2.645823713721764e-07,5.510906759160113e-10,1.394831981467738e-07
-4.617709349978374e-08,2.106018159636072e-08,-7.34995203394516e-08,-1.0019858920272715e-07,6.647109061318671e-08,1.365187261360997e-07,-5.616916943951741e-08,-3.8607770614921525e-09,-1.2005443696472788e-08,5.059401646720409e-08,-1.5919623900210425e-08,3.325236735694971e-08,1.5561908506646697e-08,-3.033038667643432e-08,3.329447805788114e-08,-3.4459527452085714e-07,2.5997943601489263e-08,2.418341205813376e-07
-7.39270287633238e-08,2.6030190918520308e-08,-1.3929427454993346e-07,-1.6335532467370008e-07,2.1803744046041084e-08,1.656052137731808e-07,-7.106246800233088e-08,-2.4694469544503804e-09,-2.340270036722098e-08,6.543634975862619e-08,1.3359066916814389e-08,5.7989731209225643e-08,-1.0302868786228456e-08,1.8894449678235452e-08,9.664644070426159e-08,-3.7886640252921155e-07,4.9466779019621354e-08,3.102461923695816e-07
-9.688519274327855e-08,2.5694470683517925e-08,-1.9187884197619978e-07,-2.0795590432273637e-07,-3.3047065312473726e-08,1.7154955448992168e-07,-7.512959247601146e-08,3.5666678472950555e-10,-3.02512741330547e-08,7.55193528811119e-08,5.1174772312245144e-08,6.593586418423067e-08,-4.2040937013357745e-08,8.137589510161652e-08,1.5398085483577522e-07,-3.610235836700303e-07,7.35340603528607e-08,3.554624551756742e-07
-1.0213303632253165e-07,2.1788009095064535e-08,-2.213892983379609e-07,-2.2802917780255931e-07,-9.13996279340532e-08,1.5319194330754768e-07,-6.379581757639713e-08,6.938939903826504e-09,-2.828698891642345e-08,8.296669219946411e-08,9.554081455391662e-08,5.667248152319853e-08,-8.343346302460984e-08,1.5453077473400005e-07,2.1280406562939866e-07,-2.903135723392243e-07,9.808515689171098e-08,3.779464553391486e-07
-8.913499082637328e-08,1.5741639021031878e-08,-2.3253866966484217e-07,-2.2256530618964277e-07,-1.4350948627804522e-07,1.1141934936955105e-07,-3.673031328195033e-08,1.7306348388747017e-08,-1.698687972390496e-08,8.863771277735797e-08,1.514456223186425e-07,3.2276256766215886e-08,-1.390026754280741e-07,2.335131140720173e-07,2.742624398270489e-07,-1.754686303213268e-07,1.209553391976457e-07,3.792506009159241e-07
-5.801549307227986e-08,8.035592901723015e-09,-2.3495561757092934e-07,-1.9515802452089777e-07,-1.9070029917957951e-07,5.09203694228542e-08,2.6085564030416734e-09,2.9777498991874968e-08,1.0360299328710108e-09,8.901246495059047e-08,2.1521608647305285e-07,-2.5686185702025346e-09,-2.0730344558890065e-07,3.150138010856436e-07,3.44087482515449e-07,-3.1410161913244814e-08,1.3960996157618583e-07,3.6111557566463677e-07
-8.495793664252544e-09,-5.210850431332991e-10,-2.3481736108921273e-07,-1.530497911188249e-07,-2.3684140061936345e-07,-1.9663771170183715e-08,4.767329968567148e-08,4.193160891390997e-08,2.0833161198601526e-08,8.475572291555105e-08,2.7775274668588023e-07,-4.172609685821745e-08,-2.8390106675998146e-07,3.8895318345895904e-07,4.164091985101424e-07,1.2174706909231886e-07,1.5204363725777604e-07,3.2681996871703975e-07
5.076261549265397e-08,-9.437258319094745e-09,-2.3548991834866414e-07,-1.0610472190061795e-07,-2.819660517399265e-07,-8.983120889540286e-08,8.96600202104754e-08,5.111997054376481e-08,3.618910420380448e-08,7.61113151749182e-08,3.364458488928827e-07,-7.747439999875104e-08,-3.6479821364425343e-07,4.474053696713377e-07,4.874413946858062e-07,2.606778992555369e-07,1.575304254192528e-07,2.857520437159989e-07
1.0928580760123302e-07,-1.7827181929864444e-08,-2.433594916338538e-07,-6.449642345727288e-08,-3.256381741605179e-07,-1.4906544889364665e-07,1.204090875801915e-07,5.548641493860059e-08,4.220468594059382e-08,6.591068235044561e-08,3.868261868829141e-07,-1.03599519924258e-07,-4.439766098683051e-07,4.855770220710446e-07,5.523473831639767e-07,3.659298728147643e-07,1.5762707075155495e-07,2.4491374750881155e-07
1.595890655788842e-07,-2.359525013353837e-08,-2.5955943331710895e-07,-3.5539910289549164e-08,-3.6447904218861397e-07,-1.876082424810289e-07,1.3609378908683663e-07,5.6039673262604985e-08,3.787515651151819e-08,5.824990722459165e-08,4.2827968043877537e-07,-1.202918706764912e-07,-5.170540301095819e-07,5.035086848455371e-07,6.059496080025377e-07,4.265616114844396e-07,1.5627788577971625e-07,2.1874333283174657e-07
1.9325629658988114e-07,-2.3499137249797916e-08,-2.7870442009615764e-07,-2.2287424988103422e-08,-3.933507840845145e-07,-1.9803608170007502e-07,1.3783600172741116e-07,5.5953997382320565e-08,2.5671315910780643e-08,5.650000214008921e-08,4.629162174927939e-07,-1.2130589609188413e-07,-5.797007966449801e-07,5.034247622436323e-07,6.534296100321329e-07,4.4076664150527007e-07,1.5796561879616562e-07,2.1781202537732518e-07
2.0861163979910896e-07,-1.468601848030944e-08,-2.9529696985116315e-07,-2.4706029708570916e-08,-4.1074987356569615e-07,-1.7785862709483717e-07,1.2899524009427143e-07,5.838155264704883e-08,8.781369372309407e-09,6.397441299938784e-08,4.93596716554786e-07,-1.0765726266311268e-07,-6.294101027879176e-07,4.920232634064247e-07,6.960304862027251e-07,4.114919810524069e-07,1.654485519012621e-07,2.461516673363e-07
2.0516150475272194e-07,3.029416625083151e-09,-3.066097503049729e-07,-4.1162277618982436e-08,-4.1973819107876996e-07,-1.3062379952164937e-07,1.1304439486483664e-07,6.274708311200746e-08,-1.0506914445849856e-08,8.103964458715241e-08,5.244963283961667e-07,-8.433413283009167e-08,-6.703359283836761e-07,4.7281081382645057e-07,7.361160631394868e-07,3.4933534233867476e-07,1.7913911850132114e-07,3.043354071082024e-07
1.841919773404058e-07,2.7590634623740843e-08,-3.1402649352896397e-07,-6.871660242271026e-08,-4.250014023447303e-07,-6.447492569899866e-08,9.360685194492456e-08,6.925609804189214e-08,-3.053325861914139e-08,1.0348136393340108e-07,5.520470739251645e-07,-5.36011775497655e-08,-7.019337873790866e-07,4.51304446470953e-07,7.738190043686159e-07,2.677567716992023e-07,1.9767189474995989e-07,3.823968314282596e-07
1.534739032014942e-07,5.548176582186576e-08,-3.1811138026699575e-07,-1.0345496454738535e-07,-4.314742104681554e-07,1.002617423420544e-08,7.42213961585819e-08,7.709086123404617e-08,-5.0307428217363126e-08,1.3067994915877334e-07,5.711450827392467e-07,-1.949981729448038e-08,-7.245817111298991e-07,4.327681397020286e-07,8.10869592329809e-07,1.8476883713446653e-07,2.1822214716347594e-07,4.6590337492802096e-07
1.1985968012761226e-07,8.225215351474559e-08,-3.2127262912934884e-07,-1.4165162473340826e-07,-4.425302867182187e-07,8.170740654620493e-08,5.680941635560168e-08,8.349826403236002e-08,-7.02310494673399e-08,1.589934803398726e-07,5.80041819462475e-07,1.4031733042580148e-08,-7.417562037110589e-07,4.162797533979455e-07,8.484491700821715e-07,1.0891864691183691e-07,2.3701730888109253e-07,5.413691888368574e-07
8.885006033469714e-08,1.0324146132918659e-07,-3.277216909227985e-07,-1.8032912948226423e-07,-4.6274713301322643e-07,1.4106013790609967e-07,4.186914018947941e-08,8.596476859523292e-08,-9.12595424126859e-08,1.841659857862463e-07,5.768591806284346e-07,4.2242060571311436e-08,-7.566601233318943e-07,4.005501512187822e-07,8.814374159152151e-07,4.32856522406011e-08,2.5097203320368537e-07,6.029385762005503e-07
6.465076139258886e-08,1.1550563795028855e-07,-3.385560893361845e-07,-2.1653174323805863e-07,-4.94175244552173e-07,1.8253294451066687e-07,3.013291219619347e-08,8.30070449253723e-08,-1.1318915046343095e-07,2.0515994090457096e-07,5.636005636850474e-07,6.100437900274685e-08,-7.7414897473149e-07,3.8397011552600625e-07,9.074725677816108e-07,-1.0148480794585104e-08,2.59206341625946e-07,6.466897298013223e-07
4.9011776356576225e-08,1.1885917413520045e-07,-3.521321288355227e-07,-2.4696719855154714e-07,-5.375674238839831e-07,2.0464484895848128e-07,2.3336394927160932e-08,7.523239267438965e-08,-1.344033203650279e-07,2.2123701508821505e-07,5.454118110150122e-07,6.547686065151452e-08,-7.980893011755725e-07,3.6736546916898055e-07,9.279402725241856e-07,-5.048445599493488e-08,2.6275322106383164e-07,6.726972758703793e-07
4.26777839317317e-08,1.147123737632889e-07,-3.650523446394087e-07,-2.688828361518697e-07,-5.900762442441614e-07,2.0799381850727996e-07,2.322765552657825e-08,6.447772049417823e-08,-1.5332712922034945e-07,2.3261770643462628e-07,5.27241115998266e-07,5.536321726887622e-08,-8.300354702176003e-07,3.535772588995314e-07,9.45890586688908e-07,-7.160996138506214e-08,2.6340273117171554e-07,6.816595280296196e-07
4.7005389161255483e-08,1.0484016442375752e-07,-3.735903945031691e-07,-2.800048596600123e-07,-6.472475964186971e-07,1.9416122528454477e-07,3.114016967761675e-08,5.311069687042272e-08,-1.6882722410986044e-07,2.4028725958782096e-07,5.1274102686167e-07,3.6730454296307945e-08,-8.670291807947833e-07,3.470902340725176e-07,9.696956572202049e-07,-6.187015883334527e-08,2.6364111476730334e-07,6.715387275082762e-07
6.319000598650893e-08,9.214074305892985e-08,-3.7284915875167744e-07,-2.8027791969987764e-07,-7.051837118904611e-07,1.665945414676738e-07,4.937594906408567e-08,4.602120759200088e-08,-1.7903633491735562e-07,2.466027939516526e-07,5.075629838247029e-07,2.0361889375030377e-08,-9.037242802596944e-07,3.5332142868691236e-07,1.0069730487781257e-06,-9.682740928964914e-09,2.669911949183187e-07,6.442524463646395e-07
9.097169663476732e-08,8.099763248489437e-08,-3.585424728034937e-07,-2.677158083610198e-07,-7.566662603211795e-07,1.3084388662174107e-07,8.147685812378677e-08,4.644507274142955e-08,-1.811075435738772e-07,2.5373698446923514e-07,5.172277675028461e-07,1.769250893356762e-08,-9.341680455072277e-07,3.7678073775586413e-07,1.0585965803790993e-06,9.300814321454349e-08,2.766326940061855e-07,6.014832908685781e-07
1.3043867027428985e-07,7.570632841000146e-08,-3.3048343139617826e-07,-2.411005918801816e-07,-7.971209931137906e-07,9.248360305394762e-08,1.2868685639432698e-07,5.6380472323227876e-08,-1.734546378824045e-07,2.6465081962126673e-07,5.432340281908566e-07,3.333586170710112e-08,-9.55807587322834e-07,4.1777816743887736e-07,1.1302162996105531e-06,2.434428997102036e-07,2.9292967605281934e-07,5.464351750379537e-07
1.7941267903663224e-07,7.770327485543462e-08,-2.9177385274354894e-07,-2.0245216863740848e-07,-8.249165595383305e-07,5.499379878154656e-08,1.8792336939585248e-07,7.498133219648397e-08,-1.5763057397343623e-07,2.803803983795478e-07,5.828527340821639e-07,6.262751195651778e-08,-9.718055725798517e-07,4.6971749789397924e-07,1.215168838538287e-06,4.2399098539320434e-07,3.128082870542446e-07,4.822483693884714e-07
2.3387613437708788e-07,8.514911930408914e-08,-2.4943168410854796e-07,-1.556094051945342e-07,-8.409380530730046e-07,2.0041387206260055e-08,2.532244864993908e-07,9.814287552579046e-08,-1.3739021208989705e-07,2.996251360239133e-07,6.291022625712132e-07,9.529896339925862e-08,-9.875729182285093e-07,5.213250602713082e-07,1.299796367050907e-06,6.116563766542088e-07,3.3174981016913495e-07,4.1297831906113156e-07
2.898189490037296e-07,9.469737944070461e-08,-2.1057451965576734e-07,-1.0571544713061727e-07,-8.487399677430591e-07,-1.1169820771510427e-08,3.182583893155487e-07,1.2183209420515635e-07,-1.1687434277810722e-07,3.2076451119691163e-07,6.730249521220211e-07,1.20764603229829e-07,-1.0075294937787837e-06,5.616804742025509e-07,1.3723520686423838e-06,7.812759899230116e-07,3.460714806069856e-07,3.441776144867832e-07
3.446142014562684e-07,1.0288412534126654e-07,-1.8025012099457455e-07,-5.7432022904278804e-08,-8.528607400335978e-07,-3.8037611250455206e-08,3.7881906632672263e-07,1.4214411522439165e-07,-9.989195320259622e-08,3.4172052632270417e-07,7.061316058422251e-07,1.3100964028188634e-07,-1.0340873527556813e-06,5.812782487098548e-07,1.4216334757237501e-06,9.147260026582459e-07,3.539210870468114e-07,2.8143900737004144e-07
3.970051215086023e-07,1.0673458148362391e-07,-1.6043202675128382e-07,-1.3637742157313364e-08,-8.571086448728376e-07,-6.166399539670399e-08,4.3329541705490133e-07,1.5421257790027493e-07,-8.926867529444328e-08,3.6068508838859913e-07,7.219930015703799e-07,1.211991190182242e-07,-1.0672544662052837e-06,5.763619944470033e-07,1.443250178675446e-06,1.0078172496348441e-06,3.5575694326287284e-07,2.2657288312505285e-07
4.4917799643945974e-07,1.04404624841061e-07,-1.4894108113154042e-07,2.7576448099469903e-08,-8.619110322012368e-07,-8.472576897554827e-08,4.835798382008863e-07,1.5695419263288036e-07,-8.521649433074752e-08,3.77535441471414e-07,7.18015094312223e-07,8.998585000277033e-08,-1.1043089171839463e-06,5.504689797992667e-07,1.4418781599998633e-06,1.067961083446489e-06,3.5455194183919944e-07,1.7995229377424013e-07
5.077663553164264e-07,9.60046308326694e-08,-1.385645278835225e-07,7.062095638039594e-08,-8.665851773127087e-07,-1.1023269257527135e-07,5.354245229475787e-07,1.526644718351998e-07,-8.478650343954591e-08,3.940300156253166e-07,6.955631650322758e-07,3.952168431507391e-08,-1.1400268075029733e-06,5.108223283537584e-07,1.4277652360093205e-06,1.111219156229098e-06,3.546269758005513e-07,1.412905310636436e-07
5.853009161158928e-07,8.307389279675056e-08,-1.2323756925434235e-07,1.2175933037001756e-07,-8.690260935346567e-07,-1.4080592518380212e-07,5.9518968507164e-07,1.4437227266118296e-07,-8.382312267743553e-08,4.121608220668873e-07,6.578798727723534e-07,-2.6059927445807902e-08,-1.1684429056212061e-06,4.6629187345423316e-07,1.4077055485396666e-06,1.1547187885353751e-06,3.584463738297454e-07,1.0705060592692157e-07
6.886293720777655e-07,6.535935403339045e-08,-1.0051133938666025e-07,1.860364897847448e-07,-8.656266312996044e-07,-1.7835154023394312e-07,6.65560050011541e-07,1.35016061538676e-07,-7.956200094213469e-08,4.325703990485325e-07,6.083346369777594e-07,-1.0245226496530291e-07,-1.185284454737777e-06,4.2302918943989885e-07,1.3859726679326532e-06,1.206889501010855e-06,3.6556565837237213e-07,7.330943834301974e-08
8.182690030473334e-07,4.233344610956812e-08,-7.158906877766754e-08,2.6437163713284863e-07,-8.531120667783168e-07,-2.2315808615728643e-07,7.447036376401026e-07,1.2596281580778943e-07,-7.115845687251198e-08,4.5414038310497245e-07,5.515858225066646e-07,-1.8550361921397033e-07,-1.189436860445732e-06,3.84328602834521e-07,1.3635380303225796e-06,1.267707841164163e-06,3.740350744755431e-07,3.916864868841059e-08
9.701677531467445e-07,1.4445829617619325e-08,-3.924581288014827e-08,3.5469424156984866e-07,-8.262367899464579e-07,-2.733151629564666e-07,8.282656128621791e-07,1.19785728051188e-07,-5.89554775455114e-08,4.7456228252451393e-07,4.939072213516837e-07,-2.709843076456684e-07,-1.18331940987644e-06,3.528367342730708e-07,1.3399345828518915e-06,1.333980285547696e-06,3.8213161979023504e-07,6.642190765025059e-09
1.1297417900351554e-06,-1.8721191596096926e-08,-4.897925202692378e-09,4.5240128986451657e-07,-7.793338459338311e-07,-3.253419835566362e-07,9.11030572217723e-07,1.1645373011683405e-07,-4.433177319550643e-08,4.916321272785666e-07,4.4214277943742553e-07,-3.5316182668305793e-07,-1.1726743509615915e-06,3.31626623675243e-07,1.3183607449767614e-06,1.4016568414713727e-06,3.8896544191933775e-07,-2.131075319911463e-08
1.2846698255076517e-06,-5.436227535294276e-08,3.152796430825439e-08,5.507703010602098e-07,-7.07950333708657e-07,-3.7574133662172883e-07,9.885112700078426e-07,1.1598298572150186e-07,-2.947377416203591e-08,5.017694198073141e-07,4.051306400253867e-07,-4.2468437096867004e-07,-1.1628042673820917e-06,3.2221109845888686e-07,1.2971410850508475e-06,1.468186945880645e-06,3.9404407187292934e-07,-4.2746172239170784e-08
1.4367729968341168e-06,-8.951147779188885e-08,7.197554534551133e-08,6.427188980827297e-07,-6.111165795158516e-07,-4.200284152966634e-07,1.0589001170122094e-06,1.1863680639698911e-07,-1.6029183783014005e-08,5.033600240277133e-07,3.8899611301935215e-07,-4.763570323063521e-07,-1.155565675317155e-06,3.2427100521572746e-07,1.2739986030592314e-06,1.5350778201488859e-06,3.979907381905094e-07,-5.839963754548097e-08
1.5061050645058161e-06,-1.200330556655535e-07,1.1980759193778957e-07,7.218694314240411e-07,-4.900014885141656e-07,-4.5182821838867476e-07,1.12390634842642e-06,1.2640734813381505e-07,-3.9972281335020135e-09,4.976642629621434e-07,3.9504334988662305e-07,-4.983494394946366e-07,-1.1490094106444891e-06,3.35669625336642e-07,1.2541153982466077e-06,1.6044467069012215e-06,4.016543540336343e-07,-7.049873667081953e-08
1.545103910758671e-06,-1.405734254028192e-07,1.7884287404312285e-07,7.839719164488464e-07,-3.5056565983820615e-07,-4.644413307208218e-07,1.1879896992241983e-06,1.4274512740945904e-07,8.057492053767946e-09,4.874823083600369e-07,4.202042845104564e-07,-4.841512781191363e-07,-1.1366596353701505e-06,3.5182288609381734e-07,1.239253473930505e-06,1.6772999280179154e-06,4.0688367146500375e-07,-8.098726659335518e-08
1.5898500738478498e-06,-1.4719256481106032e-07,2.5087644655540766e-07,8.283615830731364e-07,-2.0317632566803922e-07,-4.5437906889098795e-07,1.256772260539039e-06,1.699099044212967e-07,2.2594158598899292e-08,4.775217617683116e-07,4.5800643508600597e-07,-4.3383539374724414e-07,-1.114638031279377e-06,3.680339029246031e-07,1.2329811379063549e-06,1.7555032800580328e-06,4.1647316811174305e-07,-8.912216544235504e-08
1.600746523666393e-06,-1.379530236192301e-07,3.3454672160234557e-07,8.587213951943295e-07,-5.9395444504280224e-08,-4.21681672185109e-07,1.336051434704903e-06,2.0908610218584032e-07,4.305740310166483e-08,4.7285254458220303e-07,5.017877620738715e-07,-3.5507127237901503e-07,-1.083285164282207e-06,3.813777309428215e-07,1.2395069601380143e-06,1.835897439248569e-06,4.3341222641065406e-07,-9.051434553683125e-08
1.5768025659412655e-06,-1.1343634074906946e-07,4.21968012615067e-07,8.820785966130336e-07,6.951740657625405e-08,-3.710718396177106e-07,1.4301937496432016e-06,2.593125966156471e-07,7.387727466239462e-08,4.78073046535999e-07,5.492485907727526e-07,-2.618321110951833e-07,-1.046519525562976e-06,3.903753086823827e-07,1.2586851673234645e-06,1.911754631994957e-06,4.597982023978865e-07,-7.859945214990105e-08
1.5608642616367795e-06,-7.629880770444213e-08,5.113377063372353e-07,9.051767413912519e-07,1.7478195010841615e-07,-3.1058682825434527e-07,1.5392404144375392e-06,3.1829788752494734e-07,1.1665053178427678e-07,4.951395419130663e-07,5.966511569666526e-07,-1.7088868848797014e-07,-1.0112225639948327e-06,3.938415608958109e-07,1.2879711247921235e-06,1.973376715468123e-06,4.948742930182872e-07,-4.797372280707609e-08
1.568202000164949e-06,-3.051530257973152e-08,5.880019174206634e-07,9.309767476493168e-07,2.510180538786482e-07,-2.475560406603411e-07,1.6582171990170028e-06,3.8437753675634855e-07,1.7015269156915084e-07,5.230466142443039e-07,6.409238008191929e-07,-9.573029228839796e-08,-9.82908411461622e-07,3.910689598569517e-07,1.3253538440125826e-06,2.0081132833403365e-06,5.360515117813206e-07,6.799824860033955e-09
1.5911062644772694e-06,1.8079221982009494e-08,6.421328507162142e-07,9.595392196755388e-07,2.975753237157337e-07,-1.8297085350433424e-07,1.7793086680206546e-06,4.5303186633431207e-07,2.3113476714637848e-07,5.595121631028017e-07,6.823074732101331e-07,-4.120624478926913e-08,-9.62675722382914e-07,3.8244523424441047e-07,1.367793626802715e-06,2.0133979300405585e-06,5.79688680203675e-07,8.304939772369841e-08
1.626178964736815e-06,6.5433724750225e-08,6.707283427584032e-07,9.817651753076594e-07,3.197010004804212e-07,-1.1637284284080928e-07,1.8950592785503797e-06,5.205043842131448e-07,2.946133173515445e-07,6.01572354942113e-07,7.187892198906358e-07,-2.195229027903288e-09,-9.467626893996371e-07,3.6899231701967193e-07,1.4158430420470664e-06,1.9866619763076433e-06,6.221633571046362e-07,1.7561823547781783e-07
1.6547427856318172e-06,1.0954599860077792e-07,6.768133156240298e-07,9.917454566036358e-07,3.2723153955607096e-07,-4.618475093279951e-08,1.9992342998876866e-06,5.83847783201362e-07,3.5465188890715983e-07,6.451577492496851e-07,7.49669567896737e-07,3.365405805782058e-08,-9.289464917968808e-07,3.528969532460378e-07,1.471513305516139e-06,1.9353566665815507e-06,6.606531492854622e-07,2.7853838036765857e-07
1.6658777352317353e-06,1.5036310509265722e-07,6.651285109885776e-07,9.856447639714708e-07,3.328682098595806e-07,3.5243055497484904e-08,2.08859934886502e-06,6.421736948389867e-07,4.0769654051302157e-07,6.855573155791627e-07,7.757048950305621e-07,8.056087007271106e-08,-9.020225860664325e-07,3.3619213558146505e-07,1.5343276836043106e-06,1.8633119979157767e-06,6.932889644928656e-07,3.7212491144743684e-07
1.652244898314329e-06,1.8948303015353097e-07,6.455791633157041e-07,9.606707940270901e-07,3.4798603534096205e-07,1.3357663085580102e-07,2.1629667478254243e-06,6.965520443789723e-07,4.519651581695125e-07,7.216420634575073e-07,7.974164943147529e-07,1.4848092207620636e-07,-8.595047869872642e-07,3.1986795130409547e-07,1.6017357606428251e-06,1.7786365159017202e-06,7.192266288820184e-07,4.5826054038772565e-07
1.615910709614036e-06,2.2736200193488514e-07,6.286898279013182e-07,9.211681050765334e-07,3.8098631057850744e-07,2.494396442164021e-07,2.2231698855468005e-06,7.473588628552152e-07,4.864714142978221e-07,7.53459921544083e-07,8.153409457903458e-07,2.401547579179809e-07,-8.016935641857953e-07,3.036801464900408e-07,1.6671517317233033e-06,1.6885737476358653e-06,7.384353638359447e-07,5.342517872318377e-07
1.5575284628378825e-06,2.653161481641688e-07,6.142972666815638e-07,8.683196692228067e-07,4.311062610182232e-07,3.794968543409573e-07,2.2706037416155768e-06,7.952850354212361e-07,5.12356824868575e-07,7.816020016669121e-07,8.310096104708282e-07,3.4553727728735093e-07,-7.329838799085341e-07,2.8642005513929555e-07,1.720862131707019e-06,1.594284754277115e-06,7.518260404194599e-07,5.972850532882405e-07
1.4812625137336076e-06,3.0294375838101295e-07,6.085606307771789e-07,8.012382627247726e-07,4.952674101064833e-07,5.16235641315416e-07,2.307263944527558e-06,8.408949375942584e-07,5.32156875125378e-07,8.052507052082031e-07,8.448159847845599e-07,4.5415896750327023e-07,-6.608928028964787e-07,2.6771665928272665e-07,1.7554833068938815e-06,1.5004832680871654e-06,7.614492235006504e-07,6.511045138175644e-07
1.397045356013936e-06,3.3990806970865303e-07,6.145908736147307e-07,7.384826585780428e-07,5.6731274262106e-07,6.509069873771865e-07,2.3373253578993457e-06,8.836516167630189e-07,5.502028094557079e-07,8.273526523577479e-07,8.584579562267915e-07,5.565087003358817e-07,-5.908882272447948e-07,2.483946231176798e-07,1.768086190590901e-06,1.4242460200052503e-06,7.696681202027486e-07,6.9138331205474e-07
1.3157587097145208e-06,3.7441359977290037e-07,6.284550221059508e-07,6.835977594027838e-07,6.355634469666042e-07,7.743320089222019e-07,2.3625984837522544e-06,9.253109826368766e-07,5.704120244516556e-07,8.521643464202727e-07,8.739357259361375e-07,6.45975474402454e-07,-5.262825225082815e-07,2.3034726728483246e-07,1.7580591418036812e-06,1.3630533110612657e-06,7.773461120333756e-07,7.284439031659587e-07
1.2505334519896407e-06,4.0451455056723965e-07,6.542696604791454e-07,6.371989002236772e-07,6.902302426552992e-07,8.812900382956787e-07,2.387494051907596e-06,9.673587873898274e-07,5.970844130897697e-07,8.786245117195867e-07,8.891039197552444e-07,7.18230491745737e-07,-4.6991262082354227e-07,2.164978063855993e-07,1.7282855235640061e-06,1.3162118653149314e-06,7.861936311194657e-07,7.590549053257571e-07
1.2092906027269942e-06,4.288256327574562e-07,6.866244608384367e-07,6.047635970322873e-07,7.255789478627622e-07,9.662489257268797e-07,2.4154884067023755e-06,1.0100027459527771e-06,6.324270196205475e-07,9.064361102487733e-07,9.04519527535973e-07,7.712158815354447e-07,-4.2273126690018746e-07,2.1027999394294718e-07,1.6867979845438055e-06,1.2907295746550632e-06,7.976299991124958e-07,7.817030888458648e-07
1.1957136499589098e-06,4.45895950050167e-07,7.184700949386636e-07,5.863048613001552e-07,7.337755115984399e-07,1.028957584514642e-06,2.4464108570953944e-06,1.0527299552781068e-06,6.7504301538863e-07,9.326004472536531e-07,9.195657390576279e-07,8.055748982300183e-07,-3.8624145462107656e-07,2.138673519953997e-07,1.642067370191513e-06,1.2685319902060094e-06,8.121916274043971e-07,7.93933949735006e-07
1.2056542378666867e-06,4.546766760021312e-07,7.491014149899166e-07,5.833885196836004e-07,7.179679547813109e-07,1.0675658604737246e-06,2.4802179331023158e-06,1.0928305613909817e-06,7.123170284510733e-07,9.548505557590862e-07,9.346691644961069e-07,8.238959030298503e-07,-3.586678766930538e-07,2.2703691669993637e-07,1.600645266835309e-06,1.2563137831914414e-06,8.300782527028156e-07,7.944819777599909e-07
1.2335050611445298e-06,4.5527320562887385e-07,7.759507052406178e-07,5.955311821853363e-07,6.915345299716224e-07,1.0848141897196992e-06,2.5106134772294348e-06,1.1274270820755568e-06,7.397131786255309e-07,9.722471504274085e-07,9.480872603973466e-07,8.309237998896719e-07,-3.389784873130502e-07,2.482910184993244e-07,1.5669839595676505e-06,1.2552345767099088e-06,8.493862206221714e-07,7.81843574047933e-07
1.278226264370802e-06,4.3683026347651355e-07,8.023420498623362e-07,6.222374894776671e-07,6.587105904391574e-07,1.0849656393476437e-06,2.533165691059482e-06,1.1456435561348325e-06,7.537920440373744e-07,9.819823012665665e-07,9.602365182786358e-07,8.339259410095528e-07,-3.241035975526294e-07,2.759699528470283e-07,1.5448790903227526e-06,1.2610815886203815e-06,8.684348521927367e-07,7.312862555911872e-07
1.332966607043598e-06,4.060354900413496e-07,8.29261402254218e-07,6.408543699842435e-07,6.366442935826757e-07,1.0497339022655283e-06,2.544965448218479e-06,1.1474293526191681e-06,7.510995855576085e-07,9.834277571747348e-07,9.556411982884191e-07,8.439664591817888e-07,-3.099267831875463e-07,3.0787842875075187e-07,1.5300862972126016e-06,1.2604908655718229e-06,8.85286685502967e-07,6.605408091941973e-07
1.3890371497153724e-06,3.666140881383407e-07,8.481721066548638e-07,6.698218770740474e-07,6.327911004610696e-07,9.906878308695566e-07,2.5362997401981075e-06,1.1362152185504458e-06,7.333893416754175e-07,9.689097944822994e-07,9.364130047845937e-07,8.650290878171352e-07,-2.969386186209305e-07,3.4092933421445375e-07,1.5166972997830939e-06,1.2787161601418972e-06,8.961704089330482e-07,5.71265103556145e-07
1.4454029755482171e-06,3.1816912850640385e-07,8.603882941768615e-07,7.075048098232129e-07,6.445296463829053e-07,9.473847842516307e-07,2.509259078206554e-06,1.1234975909950501e-06,7.096617241886778e-07,9.400979207482221e-07,9.085132077813519e-07,8.948207983498777e-07,-2.822286618293956e-07,3.7163242981527776e-07,1.5002427180990658e-06,1.3032220380822856e-06,9.003804257549043e-07,4.642198918938637e-07
1.488088978369971e-06,2.740243101755058e-07,8.74279470429899e-07,7.409156384237301e-07,6.689615683888864e-07,9.151244439780564e-07,2.464135921363357e-06,1.110379170882241e-06,6.805554769538514e-07,9.156250469646644e-07,8.71942931051995e-07,9.284173984676542e-07,-2.6400775271200477e-07,3.9724360488493976e-07,1.4766958814331523e-06,1.3326685632273802e-06,8.98292708572086e-07,3.8673052234006743e-07
1.511190570726996e-06,2.3758065956861665e-07,8.85613618791223e-07,7.699895060723053e-07,6.98852790111814e-07,8.988738968022679e-07,2.40169067931302e-06,1.0952534460249051e-06,6.446363753788428e-07,8.974407885547086e-07,8.351059304119678e-07,9.603842093908743e-07,-2.571853154519818e-07,4.167165284036024e-07,1.4417939977541916e-06,1.3602798639320613e-06,8.885548792514154e-07,3.2735129188267864e-07
1.5154105882658961e-06,2.0967012798292102e-07,8.898854548978537e-07,7.661750751358443e-07,7.167797321687767e-07,8.943702004856474e-07,2.326238909323201e-06,1.0798357289940197e-06,6.196650126132924e-07,8.816616907201505e-07,7.665815514561491e-07,9.692973032906096e-07,-2.652773155097226e-07,4.2879292991300893e-07,1.39494212256548e-06,1.366494444898183e-06,8.729527047159467e-07,2.5889784905194197e-07
1.5152509393488625e-06,1.8053974437646252e-07,8.935955361154902e-07,7.691706092394331e-07,7.375883966962989e-07,8.536658622527535e-07,2.2402880357080114e-06,1.0568120622433944e-06,5.97344403888742e-07,8.463190461737685e-07,6.875925532998069e-07,9.711337015063883e-07,-2.91114974442111e-07,4.335272998316485e-07,1.3335541608092646e-06,1.394272696049499e-06,8.524376105974968e-07,1.8878657788345294e-07
1.5304826612459827e-06,1.5668594649184863e-07,8.955087394267791e-07,8.041431595948789e-07,7.602296316882212e-07,7.66847810129099e-07,2.1455590190688485e-06,1.0380030509172686e-06,5.728320607791645e-07,8.181973391274002e-07,5.926315889558528e-07,9.53190932084633e-07,-3.2871836147560554e-07,4.326243004670583e-07,1.229597962271985e-06,1.443831616431755e-06,8.275586593653372e-07,1.1930031985559842e-07
1.60846515012039e-06,9.543720093132871e-08,9.213283008271276e-07,8.834234599460959e-07,7.672304207036591e-07,6.179144085667802e-07,2.0474947165682848e-06,1.0286278137708188e-06,5.462412531300968e-07,7.832784878424345e-07,4.302418638694256e-07,8.917819993955666e-07,-3.759607172787941e-07,4.253026457604823e-07,1.1115883491478043e-06,1.5579316774017187e-06,7.997979294806348e-07,-1.7573325970440204e-08
1.679335884794554e-06,1.9122451452592573e-08,9.846239149815968e-07,1.0298880709893595e-06,7.751860061269867e-07,4.711590036842751e-07,1.9823569204777065e-06,1.0028288351833198e-06,5.182233761108256e-07,7.616423140786126e-07,2.952267127980094e-07,7.771547618788632e-07,-3.908487048307694e-07,4.069115000721207e-07,9.857313753404125e-07,1.7983284401908472e-06,7.784597316711495e-07,-1.0737245897877332e-07
1.715218908479309e-06,-4.59199118644485e-08,1.0943415017235435e-06,1.0944560240809683e-06,7.941139904291514e-07,3.4052528762928417e-07,1.9239106032868023e-06,9.525503579297557e-07,4.6887924034178155e-07,8.46555591566347e-07,1.728575092367359e-07,6.471364828456097e-07,-3.6895767954876267e-07,3.7456007111730155e-07,8.342386761711296e-07,1.951850146540647e-06,7.574000492602198e-07,-1.7040551408833917e-07
1.7640564940915275e-06,-8.7144510612296e-08,1.24747545858024e-06,1.1301279780263108e-06,8.075108856399947e-07,3.0010484245510994e-07,1.928074967551429e-06,9.113805162266026e-07,3.978171610405592e-07,8.907006973468967e-07,9.54544253232897e-08,5.571679507042195e-07,-2.8244051178252316e-07,3.268991247211493e-07,7.091773237809061e-07,2.0502056783732297e-06,7.34717850972374e-07,-2.5884181190465656e-07
1.790119854572553e-06,-1.207098126743237e-07,1.3431969262349294e-06,1.1396719959159416e-06,8.693667917259638e-07,2.306886503326725e-07,1.999965639957879e-06,8.589194874054474e-07,3.3153008390620057e-07,9.079024895074508e-07,2.2499021087634762e-08,5.797130052741496e-07,-1.1098422234797143e-09,2.6474747133840075e-07,5.749091518398737e-07,2.1736284725187575e-06,7.272582287948113e-07,-3.009276876020649e-07
1.845418024203051e-06,-1.4328860403797765e-07,1.423966053234368e-06,1.2152756520777058e-06,1.0658668482541519e-06,1.3131975198512736e-07,2.0689319591651627e-06,8.0668608425485e-07,2.6490701386191756e-07,9.08454409529127e-07,-5.307125768625068e-08,7.055179867950492e-07,2.0983380786786285e-07,1.9004712338742387e-07,4.3398955420949804e-07,2.2980240470265117e-06,7.29372644389505e-07,-4.146415671766205e-07
1.9654041737819262e-06,-1.8302334792681707e-07,1.4981379480847284e-06,1.3678021753160994e-06,1.2150143906647052e-06,1.2801482403027843e-07,2.1506033149871773e-06,8.147497915825201e-07,2.330464171656639e-07,8.815831497927247e-07,-1.4809813299214765e-07,8.456599410954495e-07,3.929821629913149e-07,1.1382601456772624e-07,3.5035726640710876e-07,2.4805325136392264e-06,7.665697185129719e-07,-4.979274788308302e-07
1.9990896940348365e-06,-2.0450597927052305e-07,1.5417645520240131e-06,1.5592323171493788e-06,1.3496298260719772e-06,1.1783748626384789e-07,2.218011472249595e-06,8.384542278790648e-07,2.2200110816508894e-07,9.242510431116266e-07,-1.9679908481977212e-07,9.79000162245573e-07,5.566044555602087e-07,4.734487426270658e-08,3.3877286678878723e-07,2.744063975700614e-06,8.622190515367315e-07,-5.920414761487246e-07
1.9964026737392005e-06,-2.1524574624852672e-07,1.5957937668399006e-06,1.6906857017163585e-06,1.43638511585313e-06,8.424092977224184e-08,2.2881672891581197e-06,8.52551331801258e-07,2.1268021111830964e-07,1.0331804982273016e-06,-2.561503692091054e-07,1.102230346766236e-06,7.759406244760596e-07,2.242511760893669e-09,3.2492876367673157e-07,2.950849138741257e-06,9.213188658500368e-07,-6.653899306234602e-07
2.0337102886690944e-06,-2.112905595957565e-07,1.6689070772278093e-06,1.84339699878922e-06,1.4938367053017005e-06,5.156612470266317e-08,2.3666340397719374e-06,8.582550431663714e-07,1.843420168626848e-07,1.0702339404884875e-06,-2.6842007784951897e-07,1.2094150176236026e-06,1.0195374208811433e-06,1.4379893450945024e-08,3.2060747372875544e-07,3.1049703884266997e-06,9.376958484009187e-07,-7.112011369820548e-07
2.0202750911525946e-06,-2.0218005772217507e-07,1.7893630272600988e-06,1.9030798444823082e-06,1.5647012994337187e-06,6.049590739634204e-08,2.3948726581550446e-06,8.614390681950323e-07,1.487227756961348e-07,1.0475594074857064e-06,-2.6677905235365575e-07,1.335095028827724e-06,1.1484167606432848e-06,6.96422466622422e-08,3.313096830042825e-07,3.2698033496667917e-06,9.393041788742198e-07,-7.536750102157075e-07
2.0044753293256247e-06,-1.9761653864632556e-07,1.879582197791841e-06,2.0056101425027776e-06,1.7474537740384469e-06,1.0392166235198929e-07,2.385399404357082e-06,8.757422168273882e-07,1.165980490761474e-07,1.0136179537320714e-06,-2.4310896577233524e-07,1.455350255464203e-06,1.2146601078660186e-06,1.2954811056557683e-07,3.2282380248630015e-07,3.386362658162041e-06,9.759879895979612e-07,-8.455125420756526e-07
1.964046897095772e-06,-2.0428766214804683e-07,1.9644115444761733e-06,2.143587101749026e-06,1.9067916751270982e-06,2.078148943460593e-07,2.368845842736816e-06,9.386465800880992e-07,1.216617568036191e-07,9.737949978506844e-07,-2.7889381523592785e-07,1.476119283541016e-06,1.2226814801204753e-06,2.3419274083965004e-07,3.226344941392547e-07,3.5018701593907644e-06,1.0556523777031143e-06,-8.782144657286536e-07
1.9352150365792524e-06,-1.4681806666460218e-07,2.102873575201617e-06,2.262889182577336e-06,2.037791767947554e-06,3.04519326698384e-07,2.3631639191900426e-06,9.875532092527738e-07,1.6781549796928844e-07,9.06974276883988e-07,-2.895458795619226e-07,1.476183135496048e-06,1.17876746857328e-06,3.883771557882928e-07,3.887843383417935e-07,3.5727880904961924e-06,1.1482666196944008e-06,-8.972178056319073e-07
1.870716153210861e-06,-1.0736018705657144e-07,2.161796113063119e-06,2.40722069033507e-06,2.167637245559602e-06,3.767552187921062e-07,2.377937943224739e-06,1.0035350941179826e-06,2.0746908883909947e-07,8.938288172014567e-07,-2.202775414814832e-07,1.4963847217057285e-06,1.1010549212426434e-06,5.254757120408424e-07,4.6572000675805244e-07,3.6064381284834527e-06,1.2321524891621428e-06,-8.76327226827174e-07
1.7917959692333644e-06,-2.7815215638668984e-08,2.1876291560947257e-06,2.5338793378372996e-06,2.192764578923771e-06,4.237342118314332e-07,2.397190747468244e-06,1.0140539022336337e-06,2.2185843369161467e-07,9.074281328499273e-07,-1.6429255167683426e-07,1.4749293163800883e-06,1.1062658783301648e-06,6.248869508716902e-07,5.548557180148928e-07,3.5304268310296213e-06,1.308510317517675e-06,-8.526926109806039e-07
1.7076117283465484e-06,4.6018356639074e-08,2.1580605742129255e-06,2.638421256486286e-06,2.1707311853240318e-06,4.835757205627312e-07,2.4297442086985566e-06,1.0695336255513013e-06,2.224190801307065e-07,9.318697350406451e-07,-9.407047752078622e-08,1.472835755994755e-06,1.0969691541614705e-06,6.953570494250531e-07,6.636275831698906e-07,3.474544415515082e-06,1.3446565300971524e-06,-7.98484684907732e-07
1.6252191008524327e-06,1.0610242682875039e-07,2.156671878224785e-06,2.653435856007866e-06,2.2663929885012758e-06,5.123037844652317e-07,2.4584538021965516e-06,1.0994630201254063e-06,2.337687839691967e-07,9.248994719730917e-07,-2.549074893648038e-08,1.4260581781840932e-06,1.0155011287714212e-06,7.527920101964755e-07,7.761491103856078e-07,3.435908716999047e-06,1.366722606700438e-06,-7.947126977179966e-07
1.6345663212058471e-06,1.5204899135839384e-07,2.1929440537047575e-06,2.624917677978987e-06,2.419192819122504e-06,4.886646225770601e-07,2.4815799293637155e-06,1.1000590998293988e-06,2.496250430672663e-07,8.942219195422339e-07,5.979093324033668e-08,1.3017011410443542e-06,8.99394283697646e-07,7.667703041419207e-07,8.750900105062974e-07,3.372372716034569e-06,1.3728726354759497e-06,-8.222939936763756e-07
1.5853705077588555e-06,1.7321706286658294e-07,2.1769476466883554e-06,2.63776474383339e-06,2.54131106048562e-06,4.881748687237702e-07,2.5084390853004974e-06,1.0922510093662346e-06,2.7255532600405484e-07,8.644775931902928e-07,1.5942211471640085e-07,1.1907824996610167e-06,7.374385301565838e-07,7.393025133139655e-07,9.108933042740553e-07,3.3991660908987647e-06,1.377253602073514e-06,-8.184647197697288e-07
1.4967068294056615e-06,2.0210894294061286e-07,2.186373455813989e-06,2.690003172999136e-06,2.60357859098924e-06,4.690737394043657e-07,2.5346192848986794e-06,1.0748703337710496e-06,2.9806470466703837e-07,8.273277192738176e-07,2.4195659409304886e-07,1.0949496209612353e-06,5.931205397738233e-07,6.996166886857098e-07,8.781253346034067e-07,3.4273097714478684e-06,1.3663459533486524e-06,-7.84080934514618e-07
1.4092724142325748e-06,2.0610204479198483e-07,2.163602757279583e-06,2.7617700434020673e-06,2.6454096514606018e-06,4.246033180014108e-07,2.5635295166030587e-06,1.0691639634477879e-06,3.143381850437296e-07,7.677650851055609e-07,3.1385608835589575e-07,1.0116640149435313e-06,3.8384642631307946e-07,6.167276242698996e-07,9.009046087836476e-07,3.4141699147385833e-06,1.320616882454062e-06,-7.510640332528402e-07
1.2735274478538938e-06,1.675843735364573e-07,2.1244235716244755e-06,2.8653818673919324e-06,2.6455273834749304e-06,3.9792720842785747e-07,2.563619614830435e-06,1.0563063755959373e-06,3.1686267956879196e-07,6.895520090799379e-07,3.167221021520924e-07,9.713617275734814e-07,1.6436699996129788e-07,5.315626872578777e-07,9.544754867160981e-07,3.3698723290022243e-06,1.3042287186858908e-06,-7.227198613877583e-07
1.2087040679527033e-06,1.9400664020305216e-07,2.175529334584548e-06,2.8989595294434105e-06,2.6113002323212143e-06,3.5644512673770444e-07,2.5207537821323895e-06,1.0424816359033178e-06,2.985712223340396e-07,6.319729275465112e-07,3.641655667026982e-07,9.334605690669281e-07,1.2653975159283742e-08,5.475505806932011e-07,1.0095679546592096e-06,3.2348963401848446e-06,1.2994700699368082e-06,-7.209118085688882e-07
1.1841782496208542e-06,2.2614062659210833e-07,2.23813681064537e-06,2.904787522620159e-06,2.5482482374622606e-06,3.0371375059018536e-07,2.410472799977446e-06,1.0209630873142286e-06,2.5234670546673677e-07,5.666008590956466e-07,4.293460622667365e-07,8.132088172262257e-07,-1.0751073043897664e-07,6.207668680094997e-07,9.954645809553813e-07,3.0410875907490986e-06,1.3049512437583944e-06,-7.805184432056646e-07
1.2134870236724683e-06,2.542120806182346e-07,2.2801709713108844e-06,2.9023325559844274e-06,2.490884395807163e-06,2.2517319006386197e-07,2.3305344739816434e-06,9.88272294659685e-07,2.382525086161487e-07,4.901045043309719e-07,4.861944574279543e-07,6.205359804252097e-07,-1.485643543665636e-07,5.984340084260469e-07,9.02089241624651e-07,2.818823974745024e-06,1.3132232851922467e-06,-9.014190853185198e-07
1.2386300215372512e-06,2.773361393793272e-07,2.250118223543852e-06,2.845395517301584e-06,2.3760283124908607e-06,1.0682377581187243e-07,2.299237409626526e-06,9.545465328766731e-07,1.7325733051400885e-07,4.271376199882793e-07,5.746321443099267e-07,3.9074285445676373e-07,-1.8232446825943485e-07,4.887379032626882e-07,7.897280564263457e-07,2.584676452163282e-06,1.2782973591320687e-06,-1.0640012734110536e-06
1.2727488020515e-06,2.744509309814321e-07,2.1934076455500765e-06,2.748409615963764e-06,2.2493915132507e-06,-4.078907199065379e-08,2.176524848719085e-06,8.952357009088802e-07,1.0362643403159278e-07,4.044704674339913e-07,5.171724104087095e-07,1.8630507543763128e-07,-2.400104555561389e-07,4.147193430340339e-07,7.207268069765769e-07,2.3644046251484534e-06,1.2156474987661256e-06,-1.1977031542138532e-06
1.4479039427751536e-06,2.2141718732561735e-07,2.1003220941127553e-06,2.674575775357981e-06,2.183779482692987e-06,-1.8960663941857382e-07,2.0380330165065995e-06,8.435460070325066e-07,7.723578896597648e-08,3.7439966141744844e-07,4.274605881078168e-07,1.2825997433951788e-08,-3.296568119765855e-07,3.7229378511656695e-07,7.056143087785824e-07,2.1842954559829065e-06,1.186930683137429e-06,-1.2316518301219863e-06
1.6106604462158625e-06,1.5532676667206468e-07,2.056995784631833e-06,2.6153333886160815e-06,2.1624999228656905e-06,-3.2666624023363743e-07,1.9864024567540035e-06,8.103090942252859e-07,8.443794159217913e-08,2.9402912677621506e-07,4.112815305072833e-07,-1.3775025205523654e-07,-4.2219951152690106e-07,3.6132951056503317e-07,6.661436737686429e-07,2.0540518948148556e-06,1.1643106732817127e-06,-1.2425450581982785e-06
1.6906441322867875e-06,1.3963913735538092e-07,2.0196014438270306e-06,2.570244216846573e-06,2.154422700555837e-06,-4.466707029478173e-07,1.960527868860687e-06,8.092882799269899e-07,1.237175552427304e-07,2.4579715044229633e-07,3.586535282194205e-07,-1.7290807709584839e-07,-4.823630264184919e-07,3.8423528572661287e-07,6.720266038796115e-07,1.9745920988114496e-06,1.1276033033518145e-06,-1.1996452641514912e-06
1.7710527027543904e-06,9.581865655200462e-08,1.9282756011444493e-06,2.540542665346642e-06,2.128765451720051e-06,-5.39256722338248e-07,1.991616774135663e-06,8.194382272371783e-07,1.6714983947353182e-07,2.1288737546143534e-07,3.6811437101556064e-07,-2.0209772381295442e-07,-5.193741338282207e-07,4.0135815763584384e-07,6.845489715971155e-07,1.955164850631773e-06,1.1079045174580549e-06,-1.236042050179053e-06
1.8230444154978115e-06,4.983494710567129e-08,1.8505872361016041e-06,2.4864484166463818e-06,2.080264941104406e-06,-6.030220652530425e-07,2.0280897096709746e-06,8.332927695214937e-07,2.1360873647848427e-07,1.9430875641865258e-07,3.759467145924854e-07,-2.5730043779262946e-07,-5.252550200780451e-07,3.7214147548352394e-07,7.619310564257558e-07,1.976156040880726e-06,1.0684609574481143e-06,-1.2674227785711841e-06
1.8074429356709177e-06,-1.0332249114381125e-08,1.7714858985982058e-06,2.42603055221589e-06,2.0094465871521605e-06,-6.365510722065288e-07,2.033977290408382e-06,8.33662999318555e-07,2.5467386416347067e-07,2.0878441918538924e-07,4.065199721851912e-07,-1.964018869848557e-07,-4.866120234291107e-07,3.8610086297545823e-07,8.505548311018624e-07,2.0308591764393937e-06,1.0309701487453806e-06,-1.1956687817574088e-06
1.763004662821655e-06,-7.892655671513222e-08,1.7312771706737548e-06,2.4016060427911496e-06,2.026472757311237e-06,-6.422000019130349e-07,2.0601509960404885e-06,7.933667163005656e-07,2.686031787299269e-07,2.3662028747477964e-07,4.6879009670939595e-07,-1.0324796525689022e-07,-4.2155397303908244e-07,4.4723545742633276e-07,9.327892576297538e-07,2.1167002797298483e-06,1.0362812117038605e-06,-1.0768620476570887e-06
1.7424104517898903e-06,-1.3391217977705794e-07,1.7563279410458262e-06,2.395597307932159e-06,2.1239824864753495e-06,-6.171691581799747e-07,2.0706949111811463e-06,7.598303072351637e-07,3.187955476638792e-07,2.765639628216012e-07,5.723735810457222e-07,-5.4613675907471105e-08,-3.2396390042158006e-07,5.652765210851926e-07,1.0553278310943766e-06,2.198920115397242e-06,1.1032645285966646e-06,-9.545990154118343e-07
1.7515196605767437e-06,-1.4828327858841926e-07,1.8063287503856654e-06,2.400710987172765e-06,2.2173070069670776e-06,-5.665854177127007e-07,2.1451695971031753e-06,7.432593200292855e-07,3.8902553502741595e-07,3.236029811470562e-07,6.887855782621589e-07,-3.749911159593047e-08,-1.868004581524789e-07,6.599829849605368e-07,1.1565531399053868e-06,2.2861442787907365e-06,1.159526336742038e-06,-8.364284627997184e-07
1.7703250150660106e-06,-1.5830418509147418e-07,1.8571487293761684e-06,2.410414747084467e-06,2.32807743481023e-06,-4.95680732537771e-07,2.2549581790239664e-06,7.811213117742395e-07,4.814512045319626e-07,3.6390056393466904e-07,7.799548968557169e-07,2.023639128392175e-08,-3.566664674278922e-08,7.132181977854573e-07,1.2313050949669e-06,2.37416226682134e-06,1.2138057905835762e-06,-7.733392319390119e-07
1.8060072555297402e-06,-1.4058812531061825e-07,1.9315172194671572e-06,2.408545853662739e-06,2.4040163501125796e-06,-4.0684067758428494e-07,2.379976269030287e-06,8.552019514186931e-07,5.344345242581673e-07,3.918505501792732e-07,8.196526265474785e-07,1.1317223837010408e-07,1.2649678359881866e-07,7.872317846622848e-07,1.289679869240002e-06,2.447832714343932e-06,1.2507769388414423e-06,-7.452707512552214e-07
1.8347394887739989e-06,-8.811523444001095e-08,1.971231739520772e-06,2.3935751298081543e-06,2.4484130176359263e-06,-3.0593526936810955e-07,2.5223624979264724e-06,9.441642211486401e-07,5.716487993176183e-07,4.136246742241176e-07,8.228116929988207e-07,2.2274588325172877e-07,2.907300392208244e-07,8.039182641148647e-07,1.3150843945375469e-06,2.526362992912718e-06,1.258408173456923e-06,-7.398335171986297e-07
1.837874772470225e-06,-4.11689479427395e-08,1.9805616183799053e-06,2.353527333526163e-06,2.4834216603612736e-06,-1.9800094405078585e-07,2.646025829908465e-06,1.0244624421243508e-06,6.198650601417017e-07,4.252370236140703e-07,7.9582352925874e-07,3.411273720348599e-07,4.3990125557527917e-07,8.157545497181224e-07,1.320871575018554e-06,2.5857915376211386e-06,1.265085274139797e-06,-7.444295978881838e-07
1.8032919690816118e-06,6.6398604753982014e-09,1.9839026836013416e-06,2.3073825465996046e-06,2.5081074626026258e-06,-9.006605451044206e-08,2.726197892754274e-06,1.0741464079425303e-06,6.988503015761596e-07,4.249070540831134e-07,7.599842823267788e-07,4.4675769043187695e-07,5.635306070169401e-07,7.99972526740864e-07,1.3083418514473638e-06,2.609604245556453e-06,1.2730643521645745e-06,-7.274121072548137e-07
1.7289610763386998e-06,5.8220404218701536e-08,1.9767277001822452e-06,2.248963331610373e-06,2.530139768198259e-06,1.1457300681884946e-08,2.774213279015285e-06,1.1145220717786856e-06,7.364091773021534e-07,4.1562310760401174e-07,7.463758820072306e-07,5.763551172151636e-07,6.557197632878032e-07,7.757441526927298e-07,1.2780929777071378e-06,2.5992995980613784e-06,1.2846026683740217e-06,-6.855853375928288e-07
1.6257800689760158e-06,1.0777649733792728e-07,1.9801557424564977e-06,2.1855227926610658e-06,2.5493330286864646e-06,9.571863080197865e-08,2.8265677019457417e-06,1.1549384347186482e-06,7.830076017228885e-07,3.998155937113338e-07,7.408028078369768e-07,7.150154208853387e-07,7.165527104072974e-07,7.699207814507252e-07,1.237490820549648e-06,2.560595349279058e-06,1.307314247277246e-06,-6.215565926535216e-07
1.5096383516568997e-06,1.605388225431244e-07,1.9903475454924766e-06,2.137044534676343e-06,2.564185868838819e-06,1.4882376641946743e-07,2.8607269588949227e-06,1.203214740716073e-06,8.354407284222543e-07,3.8289047747534006e-07,7.403810748126487e-07,8.398379950341533e-07,7.513786077626712e-07,7.420074766677338e-07,1.1933580966376296e-06,2.502249088665799e-06,1.3335832860476418e-06,-5.383120701532214e-07
1.4074551830455113e-06,2.1198798479395365e-07,2.0040105063762465e-06,2.110197122135193e-06,2.5762754730986117e-06,1.678148749084646e-07,2.889863330427166e-06,1.2612659751534335e-06,8.647516395058176e-07,3.7047666553042716e-07,7.513846106318656e-07,9.052995421691278e-07,7.695953800685347e-07,7.277599502123878e-07,1.1528213132735234e-06,2.436153344779726e-06,1.3644167680153697e-06,-4.4226503237178074e-07
1.3327649950197799e-06,2.445602057659858e-07,2.0403489642195797e-06,2.116091228712114e-06,2.5952470369487655e-06,1.5520661829483924e-07,2.9255113524883737e-06,1.3119791672680053e-06,8.858464808748478e-07,3.672097026149778e-07,7.596794967145096e-07,9.135269562808485e-07,7.771421267793709e-07,7.427359770657639e-07,1.1229292504424893e-06,2.3678947378419055e-06,1.3991715687895659e-06,-3.3762884062150864e-07
1.2896251714429007e-06,2.6368929729732857e-07,2.09299636939207e-06,2.1563843621120354e-06,2.630194066441072e-06,1.2132331255032152e-07,2.962439099740778e-06,1.3621772127688067e-06,8.979203853034938e-07,3.6850187087283474e-07,7.71072972434056e-07,8.883656509688087e-07,7.800457713430962e-07,7.802259514995444e-07,1.1084993779247573e-06,2.29869181782155e-06,1.4381147741895813e-06,-2.2628643697264517e-07
1.2743750899231568e-06,2.750216752994237e-07,2.155720043039374e-06,2.226978729250424e-06,2.6887015249804807e-06,7.967148310186043e-08,3.0116918132605924e-06,1.4099550283836921e-06,9.210480444945693e-07,3.7380639817695026e-07,7.910137656801162e-07,8.45082058920579e-07,7.82367683429388e-07,8.413065241285028e-07,1.1111982473558527e-06,2.2382702900289307e-06,1.4829742027919756e-06,-1.0928322109296093e-07
1.272451147643109e-06,2.831826192884228e-07,2.2282628938324685e-06,2.309595706849897e-06,2.774536664143587e-06,4.408316072702673e-08,3.0733653649992916e-06,1.4512600635050189e-06,9.590434562144752e-07,3.8380476051391145e-07,8.226224985549309e-07,8.113576650352619e-07,7.804801640122624e-07,9.130006908026205e-07,1.130480738152916e-06,2.1912213070226003e-06,1.5309556710037232e-06,1.1889452920733185e-08
1.2717574178454607e-06,2.9777822239238083e-07,2.3068016207847574e-06,2.392093961898985e-06,2.8839015389616457e-06,2.2740141251653527e-08,3.1442866211126852e-06,1.494236148877395e-06,1.0006273398744124e-06,3.964155645205033e-07,8.763536375787823e-07,7.876762865684117e-07,7.823808389253485e-07,9.958612412669869e-07,1.1633401340841712e-06,2.160733604341869e-06,1.5805213330283313e-06,1.3372516999864122e-07
1.2642930184240628e-06,3.229003876982386e-07,2.3925737452909585e-06,2.4677646705912996e-06,3.0098764210200117e-06,1.447899490077397e-08,3.2148402038341313e-06,1.5383376157677955e-06,1.0427007355226632e-06,4.128425806332493e-07,9.436027394677878e-07,7.789700547491052e-07,7.893099167748973e-07,1.0824373949836068e-06,1.2041499822473123e-06,2.154943558488029e-06,1.629361028208026e-06,2.495810586653252e-07
1.247119426136949e-06,3.5793237403768186e-07,2.481775303948866e-06,2.5335438728264156e-06,3.141570540827619e-06,2.0829233159198604e-08,3.2864229396582986e-06,1.5814173963066734e-06,1.0767046641699245e-06,4.2943878027443193e-07,1.014395119834699e-06,7.828569008526931e-07,7.986086395436754e-07,1.1647654570378503e-06,1.2469957054137592e-06,2.1674276743133806e-06,1.6730891715505544e-06,3.51196903159084e-07
1.2190346646261823e-06,3.9782262524780975e-07,2.56655230818691e-06,2.5914749175047622e-06,3.2692506875964634e-06,4.945529259195452e-08,3.3514796250711975e-06,1.6202075563110301e-06,1.1035494446790654e-06,4.441314522790447e-07,1.087837646472647e-06,8.078735082266462e-07,8.146268532903376e-07,1.2384804210726472e-06,1.285128657068579e-06,2.19468224780885e-06,1.708358668322767e-06,4.323511431469147e-07
1.184647039106559e-06,4.379210115194067e-07,2.6398412224981286e-06,2.644136032168223e-06,3.3874075508435263e-06,8.761508350039212e-08,3.4011031312814673e-06,1.6540659812534866e-06,1.1207531279007063e-06,4.4999094507984133e-07,1.146571207156218e-06,8.447935260443011e-07,8.337844755210368e-07,1.300437747223051e-06,1.3140244913062918e-06,2.2291238822409927e-06,1.7311846004035893e-06,4.910506145467148e-07
1.1492573715613467e-06,4.727019308072182e-07,2.6995016382495685e-06,2.6940877135858444e-06,3.496150469098626e-06,1.2330915893228186e-07,3.4352878966804776e-06,1.678602007994761e-06,1.1250426554109152e-06,4.50178930914459e-07,1.1885816829573859e-06,8.822923724218598e-07,8.524473367046947e-07,1.352086574739353e-06,1.3315020189510041e-06,2.2513522089973877e-06,1.739842244833661e-06,5.285673331709182e-07
1.1133788371363626e-06,4.989652273333317e-07,2.748554203951762e-06,2.7466003115325695e-06,3.590791482564112e-06,1.5194846662332639e-07,3.4486489252079667e-06,1.690776383665537e-06,1.1151273113925642e-06,4.445644149564193e-07,1.2170176698471013e-06,9.124721885020054e-07,8.678153745013391e-07,1.396522419368139e-06,1.3340014917643654e-06,2.254101716563766e-06,1.7339982700408432e-06,5.48403648334468e-07
1.0782558142100986e-06,5.162736741576418e-07,2.7896579711331653e-06,2.7928824024316373e-06,3.6713199078103897e-06,1.6818582907746464e-07,3.441531058005497e-06,1.6906494216830012e-06,1.0883383145398409e-06,4.2639773079374407e-07,1.2304281773674829e-06,9.251937499050641e-07,8.786803489785186e-07,1.435231034517305e-06,1.3239330271361893e-06,2.2310042461439734e-06,1.7150865720154256e-06,5.561212163379992e-07
1.049875965245126e-06,5.254779818079908e-07,2.826860823625579e-06,2.8310073769141486e-06,3.738405543487681e-06,1.7357564157391635e-07,3.4194876237592292e-06,1.6791572671688023e-06,1.0477899571913234e-06,3.9804824831659195e-07,1.2320820893228989e-06,9.209167595555006e-07,8.833737503279836e-07,1.4691602714789754e-06,1.3045686543197403e-06,2.1778574683559993e-06,1.6864899757492883e-06,5.581010978381617e-07
1.013324111776693e-06,5.281603958974154e-07,2.8623576600671884e-06,2.8595451037535054e-06,3.7902763186378148e-06,1.7408327666178425e-07,3.386885657168865e-06,1.659240960087811e-06,9.967560976472139e-07,3.5940735863293035e-07,1.2267270130168232e-06,9.030247710420098e-07,8.81327207263414e-07,1.4978582922083095e-06,1.2784084040456071e-06,2.0938928146031636e-06,1.650184521497709e-06,5.572441608527294e-07
9.673440864735358e-07,5.272986371837482e-07,2.893626429677731e-06,2.871730600590567e-06,3.8260488901395e-06,1.7300421115126473e-07,3.3456908961230756e-06,1.6321622774772782e-06,9.361640359365515e-07,3.107057906581561e-07,1.215088802780524e-06,8.748310526177478e-07,8.712847492893106e-07,1.5177075347968245e-06,1.248037641879068e-06,1.9791441931309364e-06,1.6070220272430896e-06,5.554515922191128e-07
9.122936058043627e-07,5.238897804142687e-07,2.921119393865712e-06,2.865771845259497e-06,3.842956854824383e-06,1.677216035700625e-07,3.29426873951054e-06,1.5980112030422177e-06,8.677419830491412e-07,2.547182370658821e-07,1.1980719138011956e-06,8.328814492350897e-07,8.495592015305294e-07,1.5287772586674484e-06,1.2165678300007618e-06,1.8357969484153225e-06,1.558321150656166e-06,5.539418637565351e-07
8.437636737324687e-07,5.207912200323785e-07,2.939754008748243e-06,2.841897412523325e-06,3.839925150996907e-06,1.685790706036849e-07,3.228959761068623e-06,1.5587907246435373e-06,7.959433633059408e-07,1.979321814458457e-07,1.1862076799291377e-06,7.884417266787649e-07,8.087942488420026e-07,1.5371458928129726e-06,1.1905828837049622e-06,1.6769266651896022e-06,1.508743471545669e-06,5.566377240722062e-07
7.704122007463795e-07,5.203105283355404e-07,2.9625029951054132e-06,2.809136163524034e-06,3.8230218376989055e-06,1.8189580746691213e-07,3.1470615648821978e-06,1.519436626704382e-06,7.284943262497618e-07,1.4621039456095968e-07,1.1897261214885875e-06,7.477716734347514e-07,7.537142316136276e-07,1.5508728059361135e-06,1.1779502031128505e-06,1.5185775212124446e-06,1.458841289067664e-06,5.678666545656391e-07
6.942569710367732e-07,5.264125800527876e-07,2.9782949842403307e-06,2.773590366799944e-06,3.806405990857679e-06,2.115509110579876e-07,3.0470711957187954e-06,1.4853204786902822e-06,6.734877694841761e-07,1.0652350528245964e-07,1.2189533738542986e-06,7.140793840646714e-07,6.872089598037524e-07,1.5780405252869056e-06,1.1851616553218704e-06,1.3714462996800163e-06,1.4198806952325545e-06,5.910726391529662e-07
6.231864136371752e-07,5.41725476984349e-07,2.993853823478285e-06,2.7503542131089545e-06,3.7958830442970225e-06,2.3932803100381527e-07,2.9335846347098336e-06,1.459786444670602e-06,6.371475079745859e-07,8.532894847852304e-08,1.2637053623056296e-06,6.911212216315327e-07,6.393047359080888e-07,1.6223681419693249e-06,1.2134099747565112e-06,1.2445286399961388e-06,1.3923530390217535e-06,6.280121680674332e-07
5.629642977444274e-07,5.668335188175069e-07,3.020970740091215e-06,2.7497637819702073e-06,3.8053965093373334e-06,3.0304752508000345e-07,2.8146853054488524e-06,1.4440665190324666e-06,6.186550536425058e-07,8.066543835826975e-08,1.321657361032156e-06,6.830876947804393e-07,6.096540407116382e-07,1.6798544546483723e-06,1.2597266876790103e-06,1.1402889256096876e-06,1.373402242152621e-06,6.769464219573158e-07
5.223858587223567e-07,6.012649855628475e-07,3.0631530682189387e-06,2.774745351863427e-06,3.830768049500563e-06,3.9533281852971046e-07,2.7035785939849727e-06,1.4380799935681319e-06,6.141791176538598e-07,8.411491486391507e-08,1.3866353698113886e-06,7.028403995618475e-07,5.90028257468127e-07,1.7451546078313446e-06,1.3179810800047691e-06,1.0565353647882365e-06,1.363180801379306e-06,7.330756077422863e-07
5.001719938286241e-07,6.44765172431849e-07,3.1376615001224057e-06,2.808758933208376e-06,3.879778886233048e-06,5.07414827947437e-07,2.6101888738751085e-06,1.4408961918243938e-06,6.183509109350444e-07,1.0848114146246547e-07,1.4187175367476209e-06,7.607836152975373e-07,6.03328688495336e-07,1.8110079044568442e-06,1.3706763092471646e-06,9.896756205103955e-07,1.3620134163488283e-06,7.876260218195947e-07
4.976911006097009e-07,6.971249669501651e-07,3.2012107150826822e-06,2.852897694230851e-06,3.9556335989738244e-06,6.191502901395365e-07,2.540110808764203e-06,1.4513214601252324e-06,6.250404566002047e-07,1.492728843827207e-07,1.4117048934848015e-06,8.296623313484812e-07,6.611052336472452e-07,1.8685497430666379e-06,1.4084826850753357e-06,9.335208695225242e-07,1.3678006906435773e-06,8.308666146886083e-07
4.966396854616575e-07,7.537054173237438e-07,3.2525807768578145e-06,2.904104669838314e-06,4.046484531452497e-06,7.206854677004e-07,2.4960632426544447e-06,1.468738380637554e-06,6.307726551617233e-07,2.079498650692976e-07,1.3388644868579115e-06,8.976317329848948e-07,7.710361060197273e-07,1.9122224240566353e-06,1.4287216153203622e-06,8.832931267082122e-07,1.361354786064046e-06,8.512560199113308e-07
5.021812697358999e-07,8.164409647425439e-07,3.220672773029282e-06,2.9210171690379e-06,4.132022617803652e-06,8.274046814334015e-07,2.471913518516116e-06,1.4923259764720289e-06,6.335936593743915e-07,2.718553633902618e-07,1.2093797307903291e-06,9.796949949720173e-07,9.934083400144108e-07,1.9453543098319704e-06,1.4287664887352868e-06,8.343699430126228e-07,1.3278847276802414e-06,8.419832949717951e-07
5.158655555881958e-07,8.595557471994867e-07,3.091049327430084e-06,2.9128098406048938e-06,4.174061727509615e-06,9.438392433777566e-07,2.4567985278351124e-06,1.5191785692111135e-06,6.307269950232607e-07,3.283310487873006e-07,1.0827077611207135e-06,1.073894860298267e-06,1.1870358735829995e-06,1.962403020287262e-06,1.427360723402032e-06,7.797534922802821e-07,1.2650339873032974e-06,7.97605333443447e-07
5.284263722431305e-07,8.395291591994116e-07,2.985276941135268e-06,2.84467150032215e-06,4.110429616222097e-06,1.0911800914404947e-06,2.429236589002207e-06,1.544261541413631e-06,6.215189391464462e-07,3.776612153663402e-07,9.952661250579128e-07,1.1764157893096798e-06,1.255667708874051e-06,1.9566235194338303e-06,1.411197224080666e-06,7.111681032720771e-07,1.1677545833375716e-06,7.143489887955919e-07
5.287297562366003e-07,8.288775013471955e-07,2.926628015633443e-06,2.6796053378023358e-06,4.036397575866341e-06,1.1976250512288229e-06,2.3772861441779945e-06,1.5622746891343918e-06,6.036375207875617e-07,4.15505265924665e-07,9.055073232852001e-07,1.2664063914684919e-06,1.3063653302726871e-06,1.9269057632008234e-06,1.372992441318117e-06,6.215224105535104e-07,1.061210370192838e-06,5.940521222738347e-07
5.053683443152352e-07,7.797307467910926e-07,2.8735762828756754e-06,2.5896829466536627e-06,3.997476076766617e-06,1.2777922940403845e-06,2.2936985554752152e-06,1.5690550186913775e-06,5.746952737761828e-07,4.510562015952696e-07,8.543890511446313e-07,1.3519244591095138e-06,1.4054743183718436e-06,1.8721043093116117e-06,1.3144846722768842e-06,5.069440923956268e-07,9.596747146671582e-07,4.541798667924949e-07
4.340690298768436e-07,7.205343553947105e-07,2.841844410439885e-06,2.516608045874634e-06,3.982560359125206e-06,1.3612396872426775e-06,2.181654450547263e-06,1.5620454816949382e-06,5.345993730142549e-07,4.671670235596877e-07,8.10646467259911e-07,1.4148523803874585e-06,1.4183127511261038e-06,1.7956034278905392e-06,1.2284801547290827e-06,3.6935654237441114e-07,8.429152613574579e-07,3.003976330363457e-07
2.741712128740424e-07,6.907485283824482e-07,2.8194792570028938e-06,2.4429238736083704e-06,3.973317543186336e-06,1.4365823655375904e-06,2.0471122305721436e-06,1.5412898719254802e-06,4.84974667610238e-07,4.694673222252875e-07,7.466665109531285e-07,1.4857195481583386e-06,1.4960753230238301e-06,1.7086017904037077e-06,1.1442921295906254e-06,2.1997173071675796e-07,7.398022272237438e-07,1.4027191974635392e-07
1.2050305634472708e-07,6.595684032825482e-07,2.738254593734876e-06,2.3896074799967914e-06,3.9157063470710016e-06,1.5130076738364016e-06,1.8917584700972662e-06,1.5105717862828632e-06,4.312401152957678e-07,4.777547032784542e-07,6.780550750821056e-07,1.6697114415356615e-06,1.6348725597308686e-06,1.618459894305977e-06,1.0551468149929082e-06,6.981353643383368e-08,6.356499841030956e-07,4.360843474415327e-09
1.3746661698799573e-08,6.764823725671656e-07,2.7252662737550654e-06,2.256152639767669e-06,3.7699889492967423e-06,1.5788122436783415e-06,1.7258431860421075e-06,1.476125776458818e-06,3.7984391979061115e-07,5.260809337467323e-07,6.432052174619957e-07,1.747557546188479e-06,1.7219775240740635e-06,1.5376251241380579e-06,9.49241401218651e-07,-5.7100037522480075e-08,5.37644778586103e-07,-5.683037785406269e-08
-8.31761123122955e-08,7.23422511665504e-07,2.7075316886853467e-06,2.0879937370667002e-06,3.6647759112497506e-06,1.62795856164246e-06,1.5646187222017835e-06,1.4434996687031285e-06,3.3686787321011185e-07,5.610515180246924e-07,6.274625616390638e-07,1.7652905046708767e-06,1.879530965022632e-06,1.4733784394271189e-06,8.33582246518674e-07,-1.2936851750031062e-07,5.127478814787234e-07,-2.104142843459744e-08
-1.667344197926897e-07,7.777687153819984e-07,2.7025984260584954e-06,1.9212926387616634e-06,3.5897665983157943e-06,1.6901482939211438e-06,1.4626050615278335e-06,1.4153152129277678e-06,3.0106149479646417e-07,5.903426137854461e-07,5.845468635958994e-07,1.7654495201078429e-06,1.8546883364063999e-06,1.4215130097744438e-06,6.767515289356448e-07,-1.4310143193303406e-07,5.192994972074486e-07,2.2772258910897878e-08
-2.1144366252557123e-07,8.198584387608276e-07,2.688468945685301e-06,1.8045812866089908e-06,3.4581399834122144e-06,1.7980476531602158e-06,1.4325404013934692e-06,1.3909250076597282e-06,2.72478628835088e-07,6.123975624133346e-07,4.827313894230808e-07,1.7135012909614902e-06,1.7236672892534487e-06,1.3773176726563265e-06,5.1689872970041e-07,-1.0159978936855567e-07,5.152985733560452e-07,7.535953780893221e-08
-2.534044727355092e-07,8.457035165148716e-07,2.663085221041407e-06,1.742359341162793e-06,3.361272949256226e-06,1.9229755323235867e-06,1.4482335206056087e-06,1.367167152272835e-06,2.4907409795700094e-07,6.113911193876947e-07,3.685277970422926e-07,1.6772526269994486e-06,1.7956917172281468e-06,1.3264414930784164e-06,4.001322686096562e-07,-1.5854133774402503e-08,5.026084420193138e-07,1.2944551366277804e-07
-2.85114024221706e-07,8.821610121731624e-07,2.616229787303548e-06,1.727832242585252e-06,3.3364622906353268e-06,2.0134587102208e-06,1.4551491821216148e-06,1.3401451120747998e-06,2.257971817339864e-07,6.499145047685295e-07,2.6739711369696045e-07,1.7015302869358722e-06,1.9251819412026143e-06,1.2783840333799484e-06,3.108928118312184e-07,9.360365326966803e-08,4.95739410781266e-07,1.622128691952504e-07
-3.685814942359701e-07,9.377726894972076e-07,2.6059905069788044e-06,1.7638112545306754e-06,3.3454660478240006e-06,2.0653660002874153e-06,1.4496524442442194e-06,1.3079782711523326e-06,2.0018990268770376e-07,6.650901702860028e-07,2.458643726151319e-07,1.818029079510442e-06,1.9641815789742773e-06,1.2400252562880136e-06,2.2658342571203632e-07,2.081258231402906e-07,4.761849070885268e-07,1.8150062417209017e-07
-5.066119359486536e-07,1.0468488794681113e-06,2.6258893524970805e-06,1.7402868213234654e-06,3.327319439308998e-06,2.0061149437907915e-06,1.4309459716451042e-06,1.2724430254217974e-06,1.714069581163505e-07,6.867464547154024e-07,2.391447080285979e-07,1.9877870973784305e-06,1.985930314425756e-06,1.2665491318131034e-06,1.334830159416554e-07,3.4627355651019036e-07,4.788979263790814e-07,2.8801642856961237e-07
-6.285895848524222e-07,1.1499564169028116e-06,2.7050603219642133e-06,1.7077493703877991e-06,3.3085671315608026e-06,1.9737777067981294e-06,1.3984613762710314e-06,1.238303764339362e-06,1.410288777621364e-07,7.049922182929805e-07,1.9087647923880523e-07,2.0492297424732245e-06,1.989868238721513e-06,1.3687287019536985e-06,2.095445401046334e-08,5.05210377171531e-07,5.033785332866242e-07,3.902399007231099e-07
-7.031886876222515e-07,1.2456886012298121e-06,2.776433283600303e-06,1.6383743895873043e-06,3.3008836285703678e-06,2.053710363359975e-06,1.3553832796985927e-06,1.2118349727208176e-06,1.1200881429816787e-07,6.931893301838464e-07,1.0906375702089527e-07,2.0753287131594613e-06,2.0074798870936825e-06,1.4339878974591115e-06,-2.2756723914571064e-08,6.643249764327411e-07,4.991083364019282e-07,4.335162211800172e-07
-7.86044337822994e-07,1.3124770271171632e-06,2.829906794366078e-06,1.5608874523625898e-06,3.3004225424585383e-06,2.097604326892754e-06,1.3112945656500109e-06,1.1995851967856629e-06,8.65797882112957e-08,7.250252413198673e-07,5.525842854931447e-08,2.126493574402552e-06,2.0569862007767985e-06,1.4832021030669772e-06,-2.4001639726772076e-08,8.438683772426273e-07,4.934370005202451e-07,4.419586942131305e-07
-8.347713645556708e-07,1.3316212518950188e-06,2.9127617479475246e-06,1.5680020297169405e-06,3.3098860064044507e-06,2.1308681415672484e-06,1.2733547347993186e-06,1.206363428717968e-06,6.84313076125663e-08,7.635964608222127e-07,-1.2771308663228658e-08,2.1433164502349e-06,2.1255200278215065e-06,1.5099499257828752e-06,1.392569540283862e-08,1.0437647635320439e-06,4.951078768467472e-07,4.692765083507316e-07
-8.363125289352829e-07,1.340871323503568e-06,2.9765841502455933e-06,1.599646207558173e-06,3.330039038315124e-06,2.200616349717793e-06,1.2465713679692408e-06,1.232765868068324e-06,5.936870347484528e-08,7.47250384099846e-07,-5.293030580841696e-08,2.155794362229282e-06,2.223280145677982e-06,1.5225100816302652e-06,1.7625783344186632e-08,1.2497655084413445e-06,4.917233875359789e-07,5.080358549273228e-07
-8.596842859052546e-07,1.3288069745676901e-06,3.0465914156073426e-06,1.650301702025656e-06,3.358178849350502e-06,2.2522979166349453e-06,1.2385220820391295e-06,1.2746212224310972e-06,5.817032802395173e-08,7.718560391833951e-07,-1.0962291777761081e-07,2.204887374867964e-06,2.3168732338441717e-06,1.5366624209641769e-06,-2.8275583182117223e-08,1.4478585276695081e-06,4.7124015186723965e-07,4.947060533673626e-07
-9.687224983371456e-07,1.3272818904721264e-06,3.1295798328301043e-06,1.711207095243405e-06,3.3902375628152813e-06,2.295825033650028e-06,1.2413184316273532e-06,1.3247696581871497e-06,6.217338404982653e-08,8.282345284796995e-07,-1.8226751432330897e-07,2.262170329995998e-06,2.3010861324072903e-06,1.61379124552441e-06,-8.688605756358184e-08,1.6151751083012711e-06,4.370414335485224e-07,4.943973551960008e-07
-1.0683546522389658e-06,1.3283760682979746e-06,3.202309067081216e-06,1.773614602937069e-06,3.420782384310107e-06,2.333040754457158e-06,1.247802179559059e-06,1.3753244098168535e-06,6.778762517729709e-08,8.555084237714307e-07,-2.3679414168295618e-07,2.3583854757147155e-06,2.276629999287749e-06,1.7017827954296802e-06,-1.4692255465298214e-07,1.715333922621177e-06,3.8509673594271124e-07,4.320729421640298e-07
-1.1249696411486243e-06,1.3376176130898568e-06,3.2684110408594184e-06,1.8271700633945534e-06,3.4394553846701007e-06,2.3544567509210222e-06,1.254235106526744e-06,1.41983247587408e-06,7.220712685567095e-08,8.599555830611763e-07,-3.041139928481946e-07,2.4658898421183527e-06,2.2485835118610454e-06,1.736109038986475e-06,-2.0350867033705023e-07,1.7513268745079628e-06,3.731763927591165e-07,3.677622880833981e-07
-1.151997406834714e-06,1.3685822330425597e-06,3.319349832428464e-06,1.907814928168548e-06,3.4512041509238623e-06,2.419982923878315e-06,1.2526463360428309e-06,1.4554996002257416e-06,7.502753420695146e-08,8.402204276110519e-07,-3.863926876555956e-07,2.505064648918721e-06,2.180183034902569e-06,1.7646964584911032e-06,-2.5495457447697215e-07,1.7549163081399288e-06,3.3525394040586604e-07,3.130969485266526e-07
-1.1755854963260705e-06,1.3658674182849547e-06,3.356025971703437e-06,1.9991095437623403e-06,3.4600593090693896e-06,2.4467439239782494e-06,1.2497644599063738e-06,1.483714717475267e-06,8.18211656272375e-08,8.15777986630857e-07,-4.6596754452997297e-07,2.5243041264888554e-06,2.2354360756852195e-06,1.7830993331159774e-06,-2.7865875314095757e-07,1.732010308306192e-06,3.0459569870156973e-07,2.5563414111188046e-07
-1.205610884494563e-06,1.3447608662052534e-06,3.3701490949026336e-06,2.097409446813892e-06,3.4686856981902677e-06,2.4333023479331286e-06,1.2522078400615635e-06,1.5075910513019664e-06,9.496767541679486e-08,8.09640720403726e-07,-5.181486318207248e-07,2.5839420823278355e-06,2.254057477005597e-06,1.8055331415731082e-06,-2.775768589615767e-07,1.6951057321982018e-06,3.315034789180886e-07,2.3000147024801327e-07
-1.255962709217912e-06,1.3148480083712518e-06,3.3744642661301985e-06,2.214978953185123e-06,3.4826249053314147e-06,2.3911901889897326e-06,1.2669858276262153e-06,1.528897223189021e-06,1.1485573927117862e-07,8.356266331934707e-07,-5.445166806580065e-07,2.604325772355473e-06,2.2222813640037126e-06,1.787595043562556e-06,-2.6113813676811455e-07,1.6514802860159994e-06,3.643947958503806e-07,2.1222748698666074e-07
-1.291142477508762e-06,1.251142158844488e-06,3.377824892004038e-06,2.3371979526602804e-06,3.501962694406892e-06,2.318971250559286e-06,1.2922075791429499e-06,1.5472040074513887e-06,1.4057305832818172e-07,8.581329923016865e-07,-5.163059203550304e-07,2.6081755746195567e-06,2.237581299196991e-06,1.7733186257954954e-06,-2.34540193580376e-07,1.5980372952837318e-06,3.75271437973127e-07,1.8900030516340298e-07
-1.3041247397045578e-06,1.2053884394925291e-06,3.379365058373376e-06,2.462089394768172e-06,3.5246912317021687e-06,2.246781540112356e-06,1.3237678476675118e-06,1.5605675875889655e-06,1.685675364815233e-07,8.475661557165748e-07,-4.946370919335562e-07,2.614850414685077e-06,2.212126209334236e-06,1.7773908165513857e-06,-2.071789796672559e-07,1.5393037602710382e-06,3.699232860865376e-07,1.621371349845978e-07
-1.2921164343536108e-06,1.1628488016903033e-06,3.3831310252916725e-06,2.5526453791388265e-06,3.547864863388381e-06,2.1964013255880123e-06,1.3576129704771518e-06,1.5662626592979217e-06,1.9524868258222892e-07,8.402229132022345e-07,-4.785551866002849e-07,2.564904266589698e-06,2.17558614592657e-06,1.7735093362989239e-06,-1.8640505488427565e-07,1.4829063020978114e-06,3.5561466510283205e-07,1.2999600374040794e-07
-1.2706795842277896e-06,1.116108554253369e-06,3.3833299905383183e-06,2.622603524068235e-06,3.567759924440404e-06,2.140284878726351e-06,1.3885300760915354e-06,1.5622442798836754e-06,2.1750392049023672e-07,8.365259361032819e-07,-4.6574823635591335e-07,2.5592210547718557e-06,2.161830254357418e-06,1.744522050449809e-06,-1.7611034414130546e-07,1.4285835451792081e-06,3.278863689783652e-07,9.633616383061907e-08
-1.2500620519117147e-06,1.0750360223691781e-06,3.37693188016368e-06,2.666786228499099e-06,3.5808119461538818e-06,2.091025773475574e-06,1.4167885347792951e-06,1.5492260639958862e-06,2.3485409232876513e-07,8.246213635987253e-07,-4.721190494525206e-07,2.5525809642646892e-06,2.1390127047310196e-06,1.6936442730837565e-06,-1.7640418198464705e-07,1.3737509295774483e-06,2.9057283889085034e-07,6.499442268150087e-08
-1.2191828752106837e-06,1.0271625999991586e-06,3.3665191028922754e-06,2.6873247732861663e-06,3.58827480906009e-06,2.066265221830004e-06,1.4442844071400298e-06,1.5307127840406188e-06,2.499482150642278e-07,8.132604452629581e-07,-4.827038050531365e-07,2.52736970688324e-06,2.137137479392866e-06,1.6416711799426465e-06,-1.8440767201717653e-07,1.3238744914938999e-06,2.5037956319802296e-07,4.022441678810434e-08
-1.1899636198016806e-06,9.793282004498396e-07,3.3585897109707053e-06,2.6991118950623393e-06,3.59244562126174e-06,2.0306495709617133e-06,1.4732031891029585e-06,1.5102080551062762e-06,2.6540413970115043e-07,7.973888317906618e-07,-5.005701945695064e-07,2.5223783953227156e-06,2.165770679649952e-06,1.6107795566833217e-06,-1.97445707729422e-07,1.2791711328747465e-06,2.1047165204689695e-07,2.347276976333595e-08
-1.1566041809530696e-06,9.337923876048036e-07,3.3521968844828393e-06,2.698431017783075e-06,3.594541266454135e-06,2.017703466477379e-06,1.5032089692657383e-06,1.488778276339766e-06,2.819183799498392e-07,7.751654084660906e-07,-4.974831517453393e-07,2.505549732473873e-06,2.2123489332663333e-06,1.6097484132547733e-06,-2.1445929670953426e-07,1.2350721163270099e-06,1.74005709266e-07,1.4605152369251718e-08
-1.11298261556654e-06,9.074473497506286e-07,3.345138948283313e-06,2.687543233466785e-06,3.59331361976547e-06,2.010160277020222e-06,1.531627350164916e-06,1.4651741553191552e-06,2.9797639154498916e-07,7.593774983476033e-07,-5.313381316829458e-07,2.4600039343375115e-06,2.275035727763707e-06,1.6545922780089006e-06,-2.3496641356460421e-07,1.1861046494019574e-06,1.412179491667896e-07,1.0702841317909483e-08
-1.0945687930868567e-06,8.938616988606721e-07,3.3359881594415496e-06,2.664842510787111e-06,3.5844510873499037e-06,2.0000320479853604e-06,1.552889269600887e-06,1.4367536623301747e-06,3.10753973666104e-07,7.670733436648357e-07,-5.678696304648653e-07,2.4087214888005066e-06,2.3279835365703598e-06,1.6940875639117813e-06,-2.5805218160872624e-07,1.12472823561528e-06,1.094363637646565e-07,6.5488985981903e-09
-1.0973375242102448e-06,8.874256492337978e-07,3.3207079410221e-06,2.633734956115925e-06,3.5599113628269336e-06,2.0013753486907994e-06,1.5591507706984068e-06,1.399763350046168e-06,3.1658780243195035e-07,7.747657947599225e-07,-5.786073889789771e-07,2.405097547145416e-06,2.395460716095804e-06,1.716687440302662e-06,-2.822093344518117e-07,1.04548007399768e-06,7.663917186948995e-08,-3.409989808183267e-09
-1.1165677609442842e-06,8.926679685667445e-07,3.2976513014668253e-06,2.5838273193731674e-06,3.5108877475816963e-06,2.021930941064357e-06,1.5433017416688521e-06,1.3505712536830445e-06,3.126569350547204e-07,7.890872465276578e-07,-5.906085953099235e-07,2.427865235428099e-06,2.4620114658639582e-06,1.6996376346185993e-06,-3.0461323098832073e-07,9.506733067723464e-07,4.35314940935858e-08,-2.2327178568202826e-08
-1.1549406279319652e-06,9.074030386900775e-07,3.2684688110517043e-06,2.5112201688436678e-06,3.4332011321535784e-06,2.062140686418863e-06,1.504315577563991e-06,1.2884001908869043e-06,2.9935267869980794e-07,8.131140149402578e-07,-5.66761235254322e-07,2.484078413889919e-06,2.5133762844820573e-06,1.6781895386582774e-06,-3.206220448386959e-07,8.50482575923548e-07,1.5334065292175328e-08,-4.8457126011640776e-08
-1.1830207219096e-06,9.368457611059477e-07,3.238245880307635e-06,2.4209547952194643e-06,3.330031804081204e-06,2.1253946209352883e-06,1.4478897565002518e-06,1.2165478353604825e-06,2.808107935605844e-07,8.283832533032413e-07,-5.123516169754277e-07,2.5752862823122982e-06,2.5717722633885293e-06,1.5958372573790786e-06,-3.262149274264308e-07,7.599021416102196e-07,-2.6368534059068127e-09,-7.635026575449272e-08
-1.2030101227412329e-06,9.8401892887163e-07,3.2117567765408265e-06,2.3200509563777e-06,3.2138661870344087e-06,2.193880466570458e-06,1.3862165979173917e-06,1.1401340964653115e-06,2.639596842790953e-07,8.432967944027494e-07,-4.349361437850238e-07,2.6700919053766847e-06,2.5880184048979056e-06,1.4945469956255306e-06,-3.2244817315444145e-07,6.915757001548526e-07,-7.93616283463816e-09,-1.0110882156078836e-07
-1.21269765064091e-06,1.0385047774734996e-06,3.189092604982843e-06,2.2224099199157402e-06,3.0998023749421673e-06,2.237616178416527e-06,1.3321040110207682e-06,1.0630893839495002e-06,2.531680822115282e-07,8.419435352815532e-07,-3.543161302643922e-07,2.753309997624798e-06,2.579038119939927e-06,1.3807264554048408e-06,-3.1696787616080935e-07,6.490182054666981e-07,-2.3622724260050157e-09,-1.2134511959892e-07
-1.208484591967136e-06,1.0898829119715856e-06,3.1661425466953937e-06,2.1403197948348214e-06,2.9864262672764012e-06,2.2560110694924517e-06,1.2969274750205552e-06,9.875870478941655e-07,2.498889335017601e-07,8.422729090851042e-07,-2.799633187740464e-07,2.7842924122590953e-06,2.5622113568691218e-06,1.3006219479911734e-06,-3.204127228521215e-07,6.270549891291236e-07,7.570300646507887e-09,-1.3879041955636033e-07
-1.1871747308010715e-06,1.100763903576005e-06,3.1393697833786925e-06,2.0819567674358134e-06,2.9278009160432343e-06,2.2138871835319874e-06,1.287947373768634e-06,9.148989342715131e-07,2.545016655617633e-07,8.500529235628992e-07,-2.2246625115283366e-07,2.733390930125365e-06,2.534752401944476e-06,1.2422057076154107e-06,-3.415032871104191e-07,6.163274242039627e-07,1.479491315816278e-08,-1.5676898167127097e-07
-1.1546289738862051e-06,1.0760812955275478e-06,3.106669574777107e-06,2.0499475512492253e-06,2.8846505189498034e-06,2.1173343101109166e-06,1.3042522051063434e-06,8.450222156742416e-07,2.644585173502393e-07,8.53704420852761e-07,-2.0473440589873208e-07,2.6398818756900306e-06,2.5113626928127594e-06,1.16118192666817e-06,-3.847367984476449e-07,6.036203497189669e-07,1.2062296923425718e-08,-1.7924526091160307e-07
-1.1131918147605296e-06,1.0571574127367367e-06,3.0664161236967516e-06,2.0392294900072776e-06,2.9298827960335514e-06,1.9454316877180547e-06,1.3381968132343708e-06,7.759016761703291e-07,2.746252717612645e-07,8.550515789177143e-07,-2.020523863526329e-07,2.50755756281544e-06,2.4945418418402483e-06,1.1490379042939045e-06,-4.498466312575327e-07,5.751934535522537e-07,-4.871079075670601e-09,-2.0900906763247531e-07
-1.068379299534226e-06,1.0336145243174717e-06,3.0162790848180663e-06,2.038600538414545e-06,2.9438303887675916e-06,1.7864812825311848e-06,1.3767163000678297e-06,7.049771317594876e-07,2.8145992584952966e-07,8.641569611643514e-07,-2.1442452427937337e-07,2.3693332284389657e-06,2.485311191437614e-06,1.137919907356138e-06,-5.310144800935686e-07,5.218547023971103e-07,-3.606763551408079e-08,-2.4443923665384947e-07
-1.0339964556358517e-06,9.791085721207507e-07,2.955687134967085e-06,2.0350769831608103e-06,2.9478273922725026e-06,1.6357020243345475e-06,1.40847523289482e-06,6.321544008735906e-07,2.841618139586357e-07,8.743351408089177e-07,-2.3633032719845592e-07,2.2380244868535726e-06,2.4779294559722145e-06,1.1102602900882512e-06,-6.172186297270426e-07,4.415203849564105e-07,-7.866803898370614e-08,-2.7804674485442905e-07
-1.0091657543744712e-06,9.096829109566585e-07,2.8866986456677947e-06,2.0181118186911133e-06,2.951953752603038e-06,1.5002665231532186e-06,1.4273074197066713e-06,5.602948311371752e-07,2.8561210671626963e-07,8.909707077125713e-07,-2.4692027246121296e-07,2.12728715602537e-06,2.4886460098587196e-06,1.088165315508244e-06,-6.957383459396433e-07,3.382623170573943e-07,-1.2306308408838583e-07,-2.99442382070859e-07
-9.875962600361019e-07,8.595354936926835e-07,2.811717634840969e-06,1.9818070225747827e-06,2.9444959802916544e-06,1.3902615575105244e-06,1.4317669742563167e-06,4.925064148106503e-07,2.8896309839471045e-07,9.356965172795817e-07,-2.5600491421822634e-07,2.0450433824373214e-06,2.5100641454695906e-06,1.048719093260781e-06,-7.567202209907827e-07,2.180546792136735e-07,-1.661792640075395e-07,-3.0019155555334393e-07
-9.789945749762388e-07,8.266638246713508e-07,2.732374276750216e-06,1.9261067461754436e-06,2.9188094353862673e-06,1.3146294647249567e-06,1.4224475282678184e-06,4.299436269889963e-07,2.9511602432103024e-07,9.701057299820104e-07,-2.2057941642963563e-07,2.0530232962651072e-06,2.544048248605007e-06,1.0003421712223751e-06,-7.948350661642089e-07,8.686082173594589e-08,-2.0699635968111202e-07,-2.760607831094205e-07
-9.70273343279923e-07,8.061735450567943e-07,2.6520778035254794e-06,1.857678932775314e-06,2.879490762092102e-06,1.262617470576228e-06,1.4016412436955416e-06,3.723831952448061e-07,3.059416197685597e-07,9.883976514401486e-07,-1.5502909700192587e-07,2.0927449635693265e-06,2.544700728655011e-06,9.644495935215189e-07,-8.080846763508796e-07,-4.881059173200275e-08,-2.090974514916787e-07,-2.264680639800372e-07
-9.467365311831187e-07,7.96693468130673e-07,2.5778676932207537e-06,1.788739404654355e-06,2.8341547458128263e-06,1.2159766070736676e-06,1.3739317633398345e-06,3.192742084096226e-07,3.2277569141086256e-07,9.69321834834853e-07,-3.793321323867115e-08,2.0546201435939765e-06,2.43636317297913e-06,9.37799451707503e-07,-7.973852651098602e-07,-1.8203570899534402e-07,-1.9280054638214649e-07,-1.5439780860578107e-07
-9.06845370137669e-07,7.952720358551025e-07,2.5167689839172706e-06,1.7324785899222074e-06,2.792318952852685e-06,1.153368477124266e-06,1.3431342145694394e-06,2.6897552252380774e-07,3.4593678435317004e-07,9.234594716242021e-07,4.568861695318332e-08,1.9584304874356035e-06,2.2300213535802884e-06,9.229090287474425e-07,-7.677413328977665e-07,-3.1010446531893903e-07,-1.6940434874838168e-07,-6.732537063475003e-08
-8.390941419384912e-07,7.969339137935818e-07,2.4711298962103284e-06,1.6973540861283938e-06,2.7583898109084723e-06,1.0674708428865687e-06,1.3102752626576826e-06,2.180833230377597e-07,3.7014809409380454e-07,8.830616117736241e-07,1.780029836692654e-07,1.7818448700848625e-06,2.0031767449761437e-06,9.159455705020425e-07,-7.276938041901394e-07,-4.353527910734308e-07,-1.1330752133838141e-07,2.3976685287934953e-08
-7.542158612580463e-07,7.972698601726729e-07,2.438137042810008e-06,1.6840196214684914e-06,2.736972061376368e-06,9.589126606667674e-07,1.273942501671289e-06,1.6349085224051295e-07,3.8886386392580467e-07,8.210281862949403e-07,3.726741151749661e-07,1.5644526975787709e-06,1.816117791372469e-06,8.924334420573642e-07,-6.856035556483943e-07,-5.614137612063233e-07,-5.3063161810161343e-08,1.0968766357005436e-07
-6.645563319293681e-07,7.935674796317248e-07,2.4128669106316204e-06,1.6858650061748055e-06,2.7221375971630573e-06,8.396184513962811e-07,1.2337144875099173e-06,1.0540992473704411e-07,3.991266790704979e-07,7.313861034848395e-07,5.406118884847636e-07,1.352806372249938e-06,1.5653572953642604e-06,8.337907844223508e-07,-6.463687644310215e-07,-6.898341400331765e-07,-6.994592602797316e-09,1.844695844774668e-07
-5.832332399127818e-07,7.868936920733899e-07,2.3898856236926754e-06,1.6914258474097576e-06,2.709604722006457e-06,7.282173321919355e-07,1.1873362490803298e-06,4.7412267144459024e-08,4.0173535916577403e-07,6.345703297076622e-07,6.843896735429753e-07,1.2161456596915035e-06,1.2646404646806631e-06,7.503390885294775e-07,-6.117726129998976e-07,-8.194198634917182e-07,-6.392078943304396e-10,2.4716466844423627e-07
-5.20970532888867e-07,7.793734443435067e-07,2.3628105333963687e-06,1.6875517978120046e-06,2.6930491536616337e-06,6.426762811000888e-07,1.1353011421456093e-06,-6.434503296331368e-09,3.9944974288012934e-07,5.484035469813392e-07,8.348565825885004e-07,1.1320434837128644e-06,1.0525221065911437e-06,6.409584381021975e-07,-5.824159477319998e-07,-9.473247041633601e-07,-1.73060044354806e-08,2.9844176737537384e-07
-4.781904125255517e-07,7.718349400192298e-07,2.3253371190027174e-06,1.663373966318935e-06,2.661577628906874e-06,5.953196965799317e-07,1.0734945004210306e-06,-5.354084728713638e-08,3.950501792183411e-07,4.814207622909616e-07,9.305748052007693e-07,1.0499738485875773e-06,9.130968055145995e-07,5.196001692990908e-07,-5.579213384611594e-07,-1.0684388072594856e-06,-3.961684552331244e-09,3.3941210660673993e-07
-4.5699812877803376e-07,7.640897507652865e-07,2.2732429923381523e-06,1.6138859596947217e-06,2.6078547670760894e-06,5.769899678925411e-07,1.0029935242062142e-06,-9.252532093252474e-08,3.91268673728715e-07,4.092596172427782e-07,9.666159470797824e-07,1.035154372217497e-06,7.019101778339147e-07,3.9825408402828164e-07,-5.362572362929382e-07,-1.1735380541062586e-06,-5.4545888828203916e-08,3.7080876067090084e-07
-4.4685724292992393e-07,7.559973383847727e-07,2.206359893093664e-06,1.5407331720857917e-06,2.527385824988628e-06,5.78659269048483e-07,9.297189211248466e-07,-1.231641265630131e-07,3.8712417148409757e-07,3.616062080522933e-07,9.860661733088248e-07,1.0147995481282976e-06,5.582704698647962e-07,2.797217219577881e-07,-5.147114515001397e-07,-1.251681121776511e-06,-1.0505668491139523e-07,3.912010158255983e-07
-4.380484707161012e-07,7.452512916077124e-07,2.1256169797056122e-06,1.4497852042203996e-06,2.4197460831809774e-06,5.933062730342297e-07,8.528157957991001e-07,-1.4753755204174848e-07,3.8256449244525366e-07,3.3279501750295974e-07,9.65630765196101e-07,9.97098394976556e-07,6.002157348650117e-07,1.7552441485595427e-07,-4.926275859750427e-07,-1.2947070836724328e-06,-1.6180404304809605e-07,3.9585626385685085e-07
-4.2089752788453236e-07,7.289196200626721e-07,2.031895243077554e-06,1.3481396654946254e-06,2.2877227776760747e-06,6.05974419320333e-07,7.715407601163526e-07,-1.6977524746239247e-07,3.7496003718711995e-07,3.4833429250643073e-07,9.351105201306525e-07,1.0282747567654917e-06,7.121060627588495e-07,8.773731578338109e-08,-4.681129072053818e-07,-1.2984968780666905e-06,-2.2337620252529555e-07,3.78849370544051e-07
-3.870442810356719e-07,7.062955620977882e-07,1.9285406390518147e-06,1.2428468962987975e-06,2.138783134739878e-06,6.078194154256538e-07,6.779801065522001e-07,-1.9314343177201907e-07,3.611939103608777e-07,3.6607224552753433e-07,8.944082932017317e-07,1.0319088590690197e-06,7.394627923985982e-07,2.0289304987511662e-08,-4.36825112999861e-07,-1.2611725835810706e-06,-2.866775578297994e-07,3.370393745953242e-07
-3.403350102374591e-07,6.797502774931354e-07,1.8234125717705918e-06,1.1404695660393795e-06,1.9838299451331257e-06,5.99759694027081e-07,5.944178364426772e-07,-2.1753955439844191e-07,3.451286971221614e-07,3.375487064247071e-07,8.574381440301426e-07,9.791707700094744e-07,6.988891954853492e-07,-2.8217605276536793e-08,-3.9132099632326345e-07,-1.1823649833584953e-06,-3.601689296969582e-07,2.7190238626843805e-07
-2.789671859186328e-07,6.554028688383624e-07,1.7260687841093305e-06,1.0457334340253408e-06,1.8352713452757886e-06,5.891050519169385e-07,5.291456447513209e-07,-2.4027929232513625e-07,3.319781963581947e-07,3.098497775510045e-07,8.403539737912224e-07,9.117336057020972e-07,6.274304680452373e-07,-6.163750541464303e-08,-3.2609648191896286e-07,-1.065475240024158e-06,-4.16362613619924e-07,1.884253837378298e-07
-2.0649761481911853e-07,6.397162673749349e-07,1.6434891791304683e-06,9.601661351100586e-07,1.7047466211307635e-06,5.835865925727844e-07,4.896799375623439e-07,-2.584741476975133e-07,3.238304553924917e-07,2.6176417354095953e-07,8.410419728929392e-07,8.456856239170566e-07,5.246373824511783e-07,-8.577536445291808e-08,-2.4057542948485467e-07,-9.190504522037725e-07,-4.4266857579816735e-07,9.40380467366092e-08
-1.3718280053826456e-07,6.367791403629821e-07,1.5795976488877914e-06,8.829463196645364e-07,1.5987499331763309e-06,5.92335071662876e-07,5.397795876018589e-07,-2.6982030494689973e-07,3.245542121769293e-07,2.0663787510015156e-07,8.466111442098012e-07,7.544477260077101e-07,4.262285319783835e-07,-1.0542973123124268e-07,-1.33499679605014e-07,-7.548942058293374e-07,-4.2317849957133745e-07,-1.235590129702999e-09
-7.806899002047681e-08,6.480669198897181e-07,1.5369596172879436e-06,8.135428471719323e-07,1.516938334549481e-06,6.200402325206017e-07,6.111179177343861e-07,-2.7211591014823375e-07,3.4170302497065344e-07,1.7290595246079647e-07,8.668414923323855e-07,6.503409570175659e-07,3.433273942788893e-07,-1.2633718131888413e-07,-1.4107498785052888e-08,-5.851646188157733e-07,-4.190278880679267e-07,-8.609002148381161e-08
-3.687401089596633e-08,6.730715842349771e-07,1.5167679115878777e-06,7.531971749066748e-07,1.4600256745386996e-06,6.618875360675572e-07,6.616712754722488e-07,-2.637910223645428e-07,3.7898821969425153e-07,1.447635916906868e-07,8.925466944852909e-07,5.533994325400582e-07,2.7835739168352877e-07,-1.4971038629376363e-07,1.1714468667609016e-07,-4.216705166203804e-07,-4.4600206667729954e-07,-1.5223395869903998e-07
-1.5684094127108325e-08,7.110240264610239e-07,1.5160885967683035e-06,7.039095335058271e-07,1.4236495666749534e-06,7.113447588923131e-07,6.748878078719337e-07,-2.451397552536164e-07,4.3779310466169477e-07,1.3352168515308804e-07,9.137375389004473e-07,4.526117129165615e-07,2.4181226443892726e-07,-1.7568911374424134e-07,2.596155386209445e-07,-2.7579002550638456e-07,-4.549155261419808e-07,-1.9844097388182785e-07
-8.78025383919426e-09,7.556952833296557e-07,1.5267927402396524e-06,6.666113908946887e-07,1.398709341457831e-06,7.693269087564924e-07,7.364798717192643e-07,-2.1814587457953935e-07,5.163718163318322e-07,1.3733990590040318e-07,9.273756709123166e-07,4.0052265098757617e-07,2.2485362109473215e-07,-2.0568328991893773e-07,3.7430881229231774e-07,-1.566776116974678e-07,-4.1314064212029134e-07,-2.3038944457251527e-07
-5.893374700074761e-09,8.009190488933103e-07,1.5378520926876787e-06,6.401153103129585e-07,1.3778726441898242e-06,8.341586342157987e-07,8.782208059323814e-07,-1.8516890031224302e-07,6.060350929562262e-07,1.5082084189376423e-07,9.272455488870113e-07,4.125465703102733e-07,2.3034161696561652e-07,-2.410099271385313e-07,4.145025659137593e-07,-6.947499356710545e-08,-3.307694107020019e-07,-2.5653744986732193e-07
7.865557507152884e-09,8.369670863738649e-07,1.5385872154489398e-06,6.206676537979366e-07,1.3519205803113899e-06,9.091640751988438e-07,1.0238118618691464e-06,-1.4859857981664138e-07,7.04718140499886e-07,1.7650459891073854e-07,9.134865182553811e-07,4.6654691169071315e-07,2.6368509738022796e-07,-2.8294934311615747e-07,4.860621591457298e-07,-1.5481364172256275e-08,-2.987520971645027e-07,-2.8306535585838964e-07
3.6927041152811586e-08,8.630618557217918e-07,1.5212648423390236e-06,6.023163030502212e-07,1.259116270689726e-06,1.0039745370768093e-06,1.0797537725512385e-06,-1.1145959669624751e-07,7.986565095879991e-07,2.1036320800547e-07,8.899988493479331e-07,5.520861088769441e-07,3.226477475723497e-07,-3.3414514701066455e-07,4.525509402459463e-07,6.950502646149463e-09,-2.7790447771703145e-07,-3.136105084947195e-07
8.410407081156038e-08,8.811120919899556e-07,1.4846468117396027e-06,5.792783104952875e-07,1.1144489804557864e-06,1.1204329888718658e-06,1.172268676601193e-06,-7.710110263013549e-08,8.812985717909716e-07,2.4681321370992815e-07,8.64965379981562e-07,6.497397414335818e-07,3.939422936169798e-07,-3.8561725719556867e-07,3.6825046106702954e-07,2.225059177444837e-09,-2.6548812226655136e-07,-3.362923588578163e-07
1.4393574652609447e-07,8.990224859091651e-07,1.4362030657553157e-06,5.496558340081661e-07,1.0070981175096929e-06,1.2300641174340362e-06,1.228687361989116e-06,-4.799715895151665e-08,9.538456963297138e-07,2.8011231609342643e-07,8.307437596322764e-07,7.360852713967869e-07,4.633634816758465e-07,-4.309922185380704e-07,3.0978085436074084e-07,-2.350868473721684e-08,-2.898316606211956e-07,-3.4135256668409336e-07
2.0521827577120145e-07,9.188552730463491e-07,1.3914553986949945e-06,5.175296593487391e-07,9.533948518605059e-07,1.3158896360383325e-06,1.1845890575320062e-06,-2.53213748385871e-08,1.0063048592215698e-06,3.0580309947340684e-07,7.980416102760855e-07,7.32493307861702e-07,5.140297824728167e-07,-4.6504613605088144e-07,2.9120065667010196e-07,-6.48418430577495e-08,-3.299440861514682e-07,-3.131830510651735e-07
2.571848225534281e-07,9.370239351550669e-07,1.364818617906665e-06,4.916377931462441e-07,9.699041642268908e-07,1.3201122822571035e-06,1.1381543869885585e-06,-9.171668274637606e-09,1.0406653549740294e-06,3.2225985123809023e-07,7.783342724348166e-07,6.245035010557072e-07,5.274412008690205e-07,-4.803419288564996e-07,2.8053732060042964e-07,-1.1784552530412467e-07,-3.4035857363333873e-07,-1.8527581850420944e-07
2.9080721161752507e-07,9.546527572118145e-07,1.3585997696943897e-06,4.816817294972352e-07,9.8007410056323e-07,1.2724654762031526e-06,1.1474137364967171e-06,1.8396683992958133e-09,1.0605046227395499e-06,3.27026492018745e-07,7.782052538605441e-07,5.509462401110903e-07,4.964075900027626e-07,-4.735142480522612e-07,2.832537949862304e-07,-1.77458882299169e-07,-3.199164708082771e-07,-7.197291621516447e-08
3.034272244654293e-07,9.70880508506636e-07,1.4035902486243342e-06,4.940265731221735e-07,9.905424804687273e-07,1.2405380669803808e-06,1.198955772278058e-06,1.080583508996936e-08,1.0775703359407386e-06,3.237560443381662e-07,8.053166143025552e-07,5.453836570350983e-07,4.202336735643363e-07,-4.418864437891947e-07,2.876434985373307e-07,-2.3554343626341107e-07,-2.772273857260599e-07,5.8399681873554185e-08
2.99994426668902e-07,9.88545849932511e-07,1.4590651029849826e-06,5.281321432821763e-07,1.009353505280742e-06,1.264090992124816e-06,1.2801911431838445e-06,2.0925524897452933e-08,1.0884250381989697e-06,3.1412119571025174e-07,8.567779042449917e-07,5.478406048256307e-07,3.05173158537259e-07,-3.8780485853314314e-07,2.935884589067064e-07,-2.830988746112192e-07,-2.1422504936482897e-07,2.2545395533489798e-07
2.909071036350754e-07,1.0103121539571248e-06,1.5266277803449674e-06,5.755576444591528e-07,1.039554319716154e-06,1.216140332540605e-06,1.3743900373461712e-06,3.3572634010589e-08,1.1025036613097236e-06,3.0106643548423293e-07,9.282481592963719e-07,5.13919494807869e-07,1.650341508262357e-07,-3.1919759676779726e-07,3.04856559751033e-07,-3.1405533033320333e-07,-1.4948135125272066e-07,4.508002112716765e-07
2.8710925904311164e-07,1.0323473825461433e-06,1.583172492495397e-06,6.229482128885273e-07,1.1530199402726592e-06,1.1134893646390378e-06,1.4643038492481216e-06,4.702502288913362e-08,1.120046975470355e-06,2.895960112557154e-07,1.0137264787165065e-06,3.5284889013926803e-07,1.7495530719494034e-08,-2.507420660064204e-07,3.182576345266327e-07,-3.26627482484042e-07,-9.227397760496839e-08,6.477569858019927e-07
2.9682803878950996e-07,1.0504718818274674e-06,1.6137193346305903e-06,6.575282084214259e-07,1.248759254385413e-06,9.653698035429368e-07,1.5381170221890504e-06,5.799165271153416e-08,1.1352735451977835e-06,2.790239943797477e-07,1.1047415718117272e-06,1.4361603346943484e-07,-1.2227356322071156e-07,-1.9328555936832438e-07,3.3414575315518947e-07,-3.2204844735317286e-07,-5.051680289868147e-08,7.967005305988931e-07
3.209634557244964e-07,1.0645875150449915e-06,1.6110352234191846e-06,6.716225779738479e-07,1.3036716081417461e-06,8.206227273483288e-07,1.5853153047536085e-06,6.281065003539702e-08,1.1478786084254472e-06,2.7199234563899295e-07,1.190256374049009e-06,-5.0072285236031344e-08,-2.433474123852435e-07,-1.5536909195055713e-07,3.481702952209e-07,-3.021884604273581e-07,-3.039635624585446e-08,9.04126258435962e-07
3.582916039373923e-07,1.0709574550644706e-06,1.5758023436380802e-06,6.642650003445774e-07,1.3791818616640008e-06,7.253087520651985e-07,1.6044479910316589e-06,5.944061453682668e-08,1.151592645851313e-06,2.6917812386130895e-07,1.2628170543219223e-06,-1.7660390178785605e-07,-3.3946587883565887e-07,-1.3981072607851166e-07,3.5844506766612416e-07,-2.6720676348099997e-07,-2.964732602056431e-08,9.672904769645342e-07
4.0669634688684454e-07,1.0702451921580315e-06,1.5151030220521993e-06,6.401814647090369e-07,1.3830416189492492e-06,7.180351979143435e-07,1.5964704873544749e-06,4.816743053142893e-08,1.144814987519102e-06,2.7024919784715516e-07,1.319619547697513e-06,-1.8691363149029916e-07,-4.0841852135150664e-07,-1.4206893779343462e-07,3.6665618856005296e-07,-2.1532293698854574e-07,-4.285177157949834e-08,9.961103347046525e-07
4.6414913694433583e-07,1.0631310341317286e-06,1.4390805662590963e-06,6.069504500237645e-07,1.3470988585472003e-06,7.361567592915802e-07,1.5708613513762742e-06,3.0752771314642856e-08,1.1228103981381582e-06,2.8064539498474e-07,1.3583694886064727e-06,-2.1060691510439166e-07,-4.5466882608297615e-07,-1.5612330624316699e-07,3.7374727906780583e-07,-1.457028638762819e-07,-6.172960484867492e-08,1.0044654864411375e-06
5.284568775737924e-07,1.0588356575728628e-06,1.356943961488642e-06,5.71628938299413e-07,1.2857667225776123e-06,7.525773881621298e-07,1.5401776482754144e-06,9.029694957886449e-09,1.0938507533650684e-06,2.9884752418518895e-07,1.3778331503868954e-06,-2.4206423041075585e-07,-4.657222712675387e-07,-1.7562961035581843e-07,3.7827247882477695e-07,-6.153085165862673e-08,-7.781063803275875e-08,1.0053017108777927e-06
5.972577580009785e-07,1.0350144709257213e-06,1.2751962775713932e-06,5.386553523612632e-07,1.2357266604987402e-06,7.687554750778311e-07,1.5149216365794025e-06,-1.6254310006425295e-08,1.0676761319821312e-06,3.2107567357548667e-07,1.3737271154343099e-06,-2.50388388213588e-07,-4.4140664287248976e-07,-1.9588874020712901e-07,3.7681989894542414e-07,2.993061570966931e-08,-8.496314823525787e-08,1.0081705890223577e-06
6.688704666949297e-07,1.004094556049977e-06,1.1979046055455592e-06,5.096193403056394e-07,1.2044996546047416e-06,7.64861701228392e-07,1.502815755890394e-06,-4.536613782865583e-08,1.0457255774597724e-06,3.474334061142329e-07,1.3395166265116649e-06,-2.3396774745843742e-07,-3.924014650297664e-07,-2.1557991122264989e-07,3.6560249150303627e-07,1.196940907998378e-07,-7.997862330063893e-08,1.0183149627212447e-06
7.400482739389503e-07,9.496291727360038e-07,1.1269486841489945e-06,4.841580029971566e-07,1.1768463426239311e-06,7.074488626664066e-07,1.505993931304304e-06,-8.021843773934516e-08,1.014734213152096e-06,3.758564847421199e-07,1.273560965966582e-06,-2.2860430518612455e-07,-3.23608722062247e-07,-2.3384134240936788e-07,3.4161948613049374e-07,1.999250924176037e-07,-6.275186785388084e-08,1.0362096405829248e-06
8.070970426255816e-07,8.647704282921563e-07,1.0625490425900574e-06,4.61539946292241e-07,1.1501794586202422e-06,5.693862842723567e-07,1.5216658827508474e-06,-1.2430342393042932e-07,9.852597629187246e-07,4.023365128429581e-07,1.173952719378812e-06,-2.441415011470875e-07,-2.4654172179350304e-07,-2.5089673223409715e-07,3.035903228051416e-07,2.665823910780112e-07,-3.580396241726443e-08,1.0579888975563305e-06
8.662673141836989e-07,7.953893440275973e-07,1.00477850074138e-06,4.423952388575912e-07,1.1211050094792707e-06,4.808242650434203e-07,1.5442843802304146e-06,-1.811299106710694e-07,9.534258232883485e-07,4.2399569924239277e-07,1.0439795705212053e-06,-2.7598387906633205e-07,-1.7189333220860894e-07,-2.681300059206091e-07,2.528157854716659e-07,3.2064339152730714e-07,-3.1625317544446817e-09,1.0770414976000747e-06
9.127386714938683e-07,7.032787446614699e-07,9.544277184151413e-07,4.291454496394807e-07,1.0836563373180094e-06,3.0541773551083613e-07,1.567804706284743e-06,-2.5181943346930575e-07,9.134401319344851e-07,4.3903819697058823e-07,8.950821393737192e-07,-3.46640468632835e-07,-1.1109561669105785e-07,-2.861885668592452e-07,1.935411663849764e-07,3.6712456572945007e-07,3.078334192989851e-08,1.0866485292752574e-06
9.496290614077664e-07,5.985660217763048e-07,9.126463002462334e-07,4.2468473780350895e-07,1.0330618657577262e-06,8.06713065224979e-08,1.5876734326373197e-06,-3.3342449016978496e-07,8.638349862933926e-07,4.4816557485762367e-07,7.420512190697426e-07,-4.3059109164379346e-07,-6.600905342840886e-08,-3.0448670357277496e-07,1.3306192522172924e-07,4.136320301918465e-07,6.275725343257142e-08,1.0836067426848337e-06
9.808160697965442e-07,4.936438918490202e-07,8.810235137953169e-07,4.3085442836922086e-07,9.683735722354792e-07,-1.3327194366027344e-07,1.6026984770852583e-06,-4.185472348463599e-07,8.107886858898773e-07,4.5525475553976115e-07,6.008361740900762e-07,-5.106317749771354e-07,-3.784776266072524e-08,-3.1991229256213004e-07,8.13171473144376e-08,4.697330878047342e-07,9.239796567099397e-08,1.070893148945354e-06
1.0079459276756563e-06,3.6851158164041326e-07,8.616976800783133e-07,4.476973076498528e-07,8.953845045181359e-07,-3.137723408464376e-07,1.615543941840708e-06,-4.999895912969966e-07,7.561911488867696e-07,4.663791888793987e-07,4.89460805535447e-07,-5.762344601893133e-07,-2.1379366679985133e-08,-3.2785970237817194e-07,4.836768482660941e-08,5.452967614433803e-07,1.2212537885286912e-07,1.0552252006228231e-06
1.036540555131614e-06,2.626138169615581e-07,8.553804286079588e-07,4.726963869800226e-07,8.24194753196721e-07,-3.881079763691027e-07,1.6298910382083603e-06,-5.684666943965349e-07,7.225809221994048e-07,4.857271670242688e-07,4.2067004335875394e-07,-6.184774935971573e-07,-5.205778452044744e-09,-3.2493422965945223e-07,3.9907702744544575e-08,6.470860949212757e-07,1.5445015595772008e-07,1.0382496262962202e-06
1.0687020941288687e-06,1.926845772516563e-07,8.585861924302762e-07,4.997916765987718e-07,7.666184580840653e-07,-4.266066793770015e-07,1.6457264053254963e-06,-6.203130290505642e-07,7.179523070660443e-07,5.134699723390021e-07,3.868199707986856e-07,-6.245071009349319e-07,1.674509084885967e-08,-3.1124922042541405e-07,5.408102157799894e-08,7.767052867322895e-07,1.8906178244035901e-07,1.0194817396348125e-06
1.1039533766222243e-06,1.4411561595335633e-07,8.635916261110097e-07,5.195542533971837e-07,7.314767011968155e-07,-5.085410425451831e-07,1.6570335022211334e-06,-6.56324335904396e-07,7.084049434164432e-07,5.449786377104321e-07,3.7633421000918333e-07,-5.917925980792321e-07,4.785873163035322e-08,-2.9247428557963656e-07,8.214220526052205e-08,9.315654078640016e-07,2.2203126170383605e-07,9.627315867538252e-07
1.1396657206991097e-06,1.0450003512708661e-07,8.615890004739379e-07,5.215778024973701e-07,7.202571685370724e-07,-5.395515552476532e-07,1.6539479812018008e-06,-6.84039309888291e-07,6.820455775524322e-07,5.715568505366579e-07,3.731214343570241e-07,-5.250481779003973e-07,8.689330242496394e-08,-2.7523494120530103e-07,1.1230223318862621e-07,1.1063324467364258e-06,2.4748198462731185e-07,8.274571254437438e-07
1.1717662321915525e-06,6.23011140881353e-08,8.467814744975908e-07,4.986870157221104e-07,7.28471117906223e-07,-4.850597973620113e-07,1.6281115091141375e-06,-7.111511110467404e-07,6.375253524433672e-07,5.842632924112825e-07,3.615512253392816e-07,-4.334419205012891e-07,1.2806607716090952e-07,-2.637972863755415e-07,1.3477356797464095e-07,1.2925833859324438e-06,2.6081185773746334e-07,7.02269054771075e-07
1.1961026818072946e-06,1.2935385513797715e-08,8.191170134359133e-07,4.510594148572099e-07,7.488068995372186e-07,-3.9532148979997304e-07,1.5780632520338947e-06,-7.400757031846944e-07,5.794976462219637e-07,5.758466650549316e-07,3.382456397871519e-07,-3.379607000275712e-07,1.6092577420543391e-07,-2.588377637086604e-07,1.4568484559817341e-07,1.4768622926975973e-06,2.615881831067827e-07,5.663705209559354e-07
1.2096671383239228e-06,-4.182006133333377e-08,7.83509512845695e-07,3.871751834492798e-07,7.721015808799669e-07,-3.2725058307694407e-07,1.510630945831446e-06,-7.694379652650414e-07,5.091187880357849e-07,5.466541053827848e-07,3.094731952034731e-07,-2.552481807032297e-07,1.6709942243199178e-07,-2.5771728658637794e-07,1.4764526418665705e-07,1.6389555484171777e-06,2.5396710189832144e-07,3.5711943080077003e-07
1.2134488487878921e-06,-9.282953890411205e-08,7.45690874768078e-07,3.197999172864494e-07,7.903536093279421e-07,-2.7016151300648935e-07,1.4368011253887776e-06,-7.885947734486932e-07,4.2075276272925325e-07,5.026779378740755e-07,2.866280847445565e-07,-1.9850338419924373e-07,1.332423364717887e-07,-2.577284350937492e-07,1.4730288939110455e-07,1.7543841161953182e-06,2.4470745634300807e-07,1.9389648113305543e-07
1.2063509273725486e-06,-1.280887056749765e-07,7.086743778724314e-07,2.591216796297952e-07,7.950255844574703e-07,-2.208285763332456e-07,1.3656611062435523e-06,-7.947570319496845e-07,3.2008860251359204e-07,4.522656674955151e-07,2.800396828918026e-07,-1.7170118592936947e-07,5.7410891459710415e-08,-2.598325235565602e-07,1.523068291461395e-07,1.8031632435662662e-06,2.405821615747405e-07,1.2069085495078192e-07
1.1864029437694663e-06,-1.5956367043936833e-07,6.724990763961051e-07,2.0754599196318996e-07,7.747542448313627e-07,-1.7565444439199604e-07,1.3011703298367095e-06,-7.86965342976963e-07,2.310759766663849e-07,4.0621785369081444e-07,2.9798933491472216e-07,-1.6475656654556152e-07,-5.081046961536075e-08,-2.6554340751288507e-07,1.6856605274200907e-07,1.7788464451175612e-06,2.461287087299408e-07,8.660502220725028e-08
1.1518210329073002e-06,-1.7049710760390446e-07,6.35374943542022e-07,1.592017679023379e-07,7.240808909488449e-07,-1.2357729426941765e-07,1.2426498009032001e-06,-7.702303159276665e-07,1.8196514328436653e-07,3.740047256907479e-07,3.3458423345332173e-07,-1.6022351868250563e-07,-1.7144157214303858e-07,-2.770539743633162e-07,1.976145685103537e-07,1.6899859813747915e-06,2.620263546985821e-07,4.064759646257835e-08
1.1003514737887125e-06,-1.3961175034035326e-07,5.94680790960308e-07,1.0409032719641778e-07,6.435873001593548e-07,-4.7784275595642586e-08,1.1871054687264425e-06,-7.456317101837944e-07,1.4702214409623927e-07,3.604812877516306e-07,3.7968795804627493e-07,-1.413851318596442e-07,-2.8295167004204597e-07,-2.966543421480871e-07,2.355033712774212e-07,1.554826682604671e-06,2.850740446271513e-07,-1.0554351105203986e-08
1.0316734400922074e-06,-9.442954991612721e-08,5.485567393845644e-07,3.41754024076174e-08,5.253200447641037e-07,7.243413791873174e-08,1.1316726367187824e-06,-7.146005605140923e-07,1.578130593111327e-07,3.653685920726461e-07,4.2474357135828203e-07,-9.76112020274948e-08,-3.726778478270571e-07,-3.2406202126097856e-07,2.744684742234404e-07,1.3951957744188228e-06,3.100976996465193e-07,-2.6324007413191582e-08
9.478178496844159e-07,-4.0782905638322575e-08,4.970833627219146e-07,-5.2407990549103606e-08,3.78922351394541e-07,2.2801669382340334e-07,1.0747906695401692e-06,-6.819908565027889e-07,1.584611682364881e-07,3.834374217236458e-07,4.6140232145891355e-07,-2.8663182944954292e-08,-4.386474670036765e-07,-3.565212611788434e-07,3.0607664712591125e-07,1.232032974195151e-06,3.321751701468944e-07,5.304108037213705e-09
8.542143907826368e-07,-1.0073635987146055e-08,4.4127686436422094e-07,-1.511266732506741e-07,2.1736179072611636e-07,3.899849673390071e-07,1.0157032793702356e-06,-6.51318060535542e-07,1.5269690023300054e-07,4.061293087913254e-07,4.8750753495905e-07,5.476819326496844e-08,-4.864896919217809e-07,-3.911972040726575e-07,3.2411201160582957e-07,1.0826852427611168e-06,3.4792078865968075e-07,6.804354724058814e-08
7.599195517619433e-07,-1.9326080907947635e-08,3.8149070948408985e-07,-2.535040574064879e-07,4.1944983586002156e-08,5.138375247641722e-07,9.538294743141781e-07,-6.322113084263691e-07,1.480583165816338e-07,4.2395840101779665e-07,5.033722342646847e-07,1.368723020366297e-07,-5.246998994532113e-07,-4.216519071422155e-07,3.2665543840334895e-07,9.604831057337232e-07,3.5615568058229675e-07,1.0733804114050995e-07
6.74296900707471e-07,-5.977755172444285e-08,3.1748824137559235e-07,-3.497753996328338e-07,-1.2613117510758298e-07,5.584599693549781e-07,8.890776871252922e-07,-6.267499063904081e-07,1.4329112759267736e-07,4.2946763910996463e-07,5.10506385137487e-07,2.0174756114908099e-07,-5.632468336189353e-07,-4.408751004628789e-07,3.165963336128947e-07,8.753232836811613e-07,3.5793965603713775e-07,1.21096920016604e-07
6.102025133600925e-07,-1.3811204013532744e-07,2.4947182497864214e-07,-4.307073683133571e-07,-2.6925757455806443e-07,5.00304313916767e-07,8.224548077281818e-07,-6.33644110126201e-07,1.0296210829026823e-07,4.18845962707508e-07,5.124432226308758e-07,2.377441287910651e-07,-6.101358786820518e-07,-4.4267189358428493e-07,3.000212069663109e-07,8.333163397265725e-07,3.558065686713387e-07,8.61120676416691e-08
5.719988098991345e-07,-1.6238669598230854e-07,1.7898072514089796e-07,-4.884762357238292e-07,-3.708767012371127e-07,4.623303878653361e-07,7.567022227491109e-07,-6.461416821301257e-07,3.9942978511814763e-08,3.9222514627094835e-07,5.141814966037906e-07,2.4251011788747196e-07,-6.699683735611755e-07,-4.242044516788434e-07,2.837304810795206e-07,8.362027417047217e-07,3.5297130092044484e-07,7.736955978739007e-09
5.616754015415163e-07,-2.0910118536196608e-07,1.0968132167540807e-07,-5.167548898899845e-07,-4.2872562516021746e-07,4.5864246010976225e-07,6.969847117940205e-07,-6.606414301663757e-07,-3.0943780155597344e-08,3.5322725478500704e-07,5.197779645498398e-07,2.1625641344214e-07,-7.42356467192057e-07,-3.85574802927881e-07,2.7329676592533734e-07,8.81576667190579e-07,3.5285528411737255e-07,-9.553596970322481e-08
5.796513047920924e-07,-2.883788441328541e-07,4.7037071310371764e-08,-5.110613889431487e-07,-3.984958506332817e-07,4.3506510746426985e-07,6.500973664378399e-07,-6.746230478400218e-07,-1.003118163205142e-07,3.071601099082953e-07,5.320081146965092e-07,1.6390046603337757e-07,-8.269481345896019e-07,-3.2904684654172844e-07,2.7174520492609696e-07,9.628969127649408e-07,3.583343483481928e-07,-2.126988625366535e-07
6.215502481446895e-07,-3.849108580094412e-07,-3.678032028453741e-09,-4.702024365989295e-07,-3.597311768499998e-07,3.244203480236724e-07,6.215302053055752e-07,-6.852177109450125e-07,-1.4943313494221983e-07,2.5784585011038573e-07,5.509364839584267e-07,9.118559262055636e-08,-9.206619294510572e-07,-2.596594044882906e-07,2.792563809062104e-07,1.0692303486612785e-06,3.710330051425636e-07,-3.2718747477408684e-07
6.820136608010791e-07,-4.673941937042014e-07,-3.893281055265572e-08,-3.9774386159902825e-07,-3.446920128157233e-07,1.4359126887011393e-07,6.129881432857877e-07,-6.925097262528991e-07,-1.9026592488409229e-07,2.0951935305405465e-07,5.775844716182962e-07,6.435082049607064e-09,-1.0255437364163042e-06,-1.8315765870572036e-07,2.945391327644761e-07,1.1862392521803611e-06,3.9159185099767216e-07,-4.344080298127376e-07
7.482671286044568e-07,-5.554963937082834e-07,-5.702991291273065e-08,-3.0208851230462955e-07,-2.787615216538068e-07,-5.4294384343807086e-08,6.223337801345185e-07,-6.942013990451112e-07,-2.1257428108264455e-07,1.6586515727922001e-07,6.106495800637555e-07,-7.781640126558666e-08,-1.1299806509855198e-06,-1.0591408861648962e-07,3.165609939108819e-07,1.2961663132975524e-06,4.202208862629515e-07,-5.288162047222128e-07
8.118349665437359e-07,-6.419723543494039e-07,-5.875244747835291e-08,-1.9536598535312595e-07,-2.1671102771707295e-07,-2.409207656026952e-07,6.445409730630275e-07,-6.891385884467994e-07,-2.1560117141241686e-07,1.284333095564013e-07,6.483683032031247e-07,-1.5025930479773313e-07,-1.228857976034754e-06,-3.293387498536718e-08,3.4485347461483043e-07,1.3835755038451372e-06,4.564074861205186e-07,-6.025910312260341e-07
8.642171964976565e-07,-7.196101087513312e-07,-4.8721841636764837e-08,-9.163954819716322e-08,-1.2735508977687815e-07,-4.1121694034544864e-07,6.725492728859678e-07,-6.767423377391004e-07,-2.1458197696609823e-07,9.812450158696297e-08,6.885245986938851e-07,-2.0298536073377622e-07,-1.3202014014508142e-06,3.138415591363636e-08,3.7907039473171594e-07,1.4354398621386824e-06,4.984231008526798e-07,-6.507393542289062e-07
8.992864715185558e-07,-7.748358590213771e-07,-3.499212583884108e-08,-4.209714450987212e-09,-2.096320853402022e-08,-5.00963161480168e-07,6.990182879994029e-07,-6.577011861109759e-07,-2.0655919891599537e-07,7.484486192779437e-08,7.367268560477344e-07,-2.3371984388582871e-07,-1.398754548265943e-06,8.441932377312794e-08,4.1910441760662003e-07,1.4445832981383392e-06,5.435206547198625e-07,-6.721445818281092e-07
9.156952147977762e-07,-7.986246080899894e-07,-2.6371199141857795e-08,5.72806178579825e-08,4.378916646171193e-08,-5.360152226276825e-07,7.186354990591215e-07,-6.318055520698792e-07,-1.9426137513569908e-07,5.8396407112837954e-08,7.880864889202293e-07,-2.4330487768316603e-07,-1.4639046793264412e-06,1.2499374522623097e-07,4.6507860292202664e-07,1.4121529978783506e-06,5.884713067514154e-07,-6.700913259381304e-07
9.191032857599518e-07,-7.998781360176014e-07,-2.995074305638367e-08,8.832430165502077e-08,8.561020968545713e-08,-5.175392664613685e-07,7.292415999535989e-07,-5.988697453425403e-07,-1.79619312948223e-07,4.95161840030605e-08,8.280077983855911e-07,-2.3445777119336625e-07,-1.5085160582433749e-06,1.5192130041510883e-07,5.167331931694365e-07,1.342768622744204e-06,6.298801153188685e-07,-6.518408948782371e-07
9.117377230767449e-07,-7.834818660243764e-07,-4.958101592018099e-08,8.939304345009722e-08,9.877603275506073e-08,-4.5199274144128183e-07,7.318949556119126e-07,-5.593125454078266e-07,-1.6247963723375226e-07,5.003559144301759e-08,8.557301077421059e-07,-2.111592682845344e-07,-1.5276803245979421e-06,1.6470872684642884e-07,5.734978179986176e-07,1.2451409701221675e-06,6.650128018551399e-07,-6.257144635773447e-07
8.977669331786722e-07,-7.591558525832273e-07,-8.447396868231004e-08,6.514323393152791e-08,8.426223416667765e-08,-3.8435455844540295e-07,7.307325062848288e-07,-5.125345591601554e-07,-1.4148847983408993e-07,6.19382505890943e-08,8.66426676322273e-07,-1.6882188689833579e-07,-1.5063777696903617e-06,1.6535194854558378e-07,6.353528438591474e-07,1.1319881521643936e-06,6.930966258849721e-07,-5.996113894143148e-07
8.850499424501559e-07,-7.297613014302418e-07,-1.2912295272303685e-07,2.3209884734382763e-08,6.37746467439491e-08,-3.043715013521451e-07,7.316886289508852e-07,-4.5772674804325365e-07,-1.1392098440314483e-07,8.666981223247616e-08,8.604508755459035e-07,-1.0870379691184359e-07,-1.4439360608142502e-06,1.5801358307644313e-07,7.025461739462894e-07,1.0194694648258702e-06,7.153542859329614e-07,-5.768693794967224e-07
8.776068335425066e-07,-6.94576398744909e-07,-1.7542982605663308e-07,-2.756377699611673e-08,5.0554476036653045e-08,-2.1221555630945264e-07,7.398021638119416e-07,-3.950353899895822e-07,-7.815390587754236e-08,1.2378291326382402e-07,8.433401803547191e-07,-3.349608021544383e-08,-1.3457860558942337e-06,1.4810230103706766e-07,7.738269483488334e-07,9.24636777478452e-07,7.339000082376113e-07,-5.598035952623432e-07
8.774222708394755e-07,-6.543925270706728e-07,-2.1466547092714017e-07,-7.883012473197347e-08,4.3814478759724085e-08,-1.1249897765081944e-07,7.57545523791529e-07,-3.2652714254997527e-07,-3.412692072370638e-08,1.699347828117154e-07,8.156223867831429e-07,5.569033710773089e-08,-1.2179349657972864e-06,1.395828134976233e-07,8.451739429722492e-07,8.626506726887344e-07,7.509482456301413e-07,-5.50095576838408e-07
8.846065303053205e-07,-6.10693447885613e-07,-2.3812236797467046e-07,-1.2395464471687808e-07,4.45545464143207e-08,3.8077283043263874e-10,7.852780469335852e-07,-2.5550090833707956e-07,1.2924896943316676e-08,2.2059275371976903e-07,7.575553128667286e-07,1.3870939327014027e-07,-1.0726361742866673e-06,1.3354467016350962e-07,9.099325148948927e-07,8.433192029053309e-07,7.684818924561555e-07,-5.469373468100504e-07
8.94061706042288e-07,-5.657765841512368e-07,-2.384658542783102e-07,-1.591199660516058e-07,5.5007044859638106e-08,1.2699235812063933e-07,8.21686463588668e-07,-1.8513943254476673e-07,5.74700198539322e-08,2.717313434437166e-07,6.680565201263445e-07,2.2588227758136404e-07,-9.278814884973813e-07,1.27229245364173e-07,9.598155812873913e-07,8.676199711177364e-07,7.877863393304621e-07,-5.475845729252609e-07
8.962461828657691e-07,-5.209979673354317e-07,-2.1221201044990854e-07,-1.8383803856739705e-07,7.29820236662237e-08,2.646128257567056e-07,8.632937764643672e-07,-1.1781509536122067e-07,9.440617102157048e-08,3.2017559833337435e-07,5.563520829030789e-07,3.264859787480295e-07,-7.742076787009921e-07,1.1563934189071567e-07,9.870453681690278e-07,9.279725198113161e-07,8.093938356116369e-07,-5.467516754174357e-07
8.834690132606928e-07,-4.772119296089873e-07,-1.6067050518849008e-07,-1.9943473474209758e-07,9.492303010276758e-08,4.173833016870609e-07,9.050180543825146e-07,-5.43389107883763e-08,1.207394454396858e-07,3.6379828332896693e-07,4.2417767654773297e-07,4.5448215448697693e-07,-5.877250115594824e-07,9.598397305983142e-08,9.876773166083265e-07,1.0109459133522288e-06,8.33845326691738e-07,-5.364276237283196e-07
8.475404975483742e-07,-4.342189746054121e-07,-8.888610471451157e-08,-2.0578462630558104e-07,1.1450466185478117e-07,5.818895665669269e-07,9.423502486444488e-07,6.5616424023218576e-09,1.3720342803671692e-07,4.002890034331731e-07,2.80200848583177e-07,5.69571562460228e-07,-4.193710353759305e-07,7.080080099824386e-08,9.639326910428174e-07,1.1012618882617655e-06,8.619031064903096e-07,-5.088303000467173e-07
7.920279774909016e-07,-3.910497746416802e-07,-4.43945109599104e-09,-1.9889271476517754e-07,1.240245711694124e-07,7.451520770841573e-07,9.731775425634905e-07,6.725026085968176e-08,1.4811333463412385e-07,4.271134067630828e-07,1.4621647189215477e-07,6.157632809757164e-07,-3.3216555479999166e-07,4.819575941205738e-08,9.235362479879627e-07,1.186250252446861e-06,8.934745845806234e-07,-4.588765447389073e-07
7.260634570044879e-07,-3.470628046905893e-07,8.383152887107552e-08,-1.7145203782604405e-07,1.1417686151168596e-07,8.870456411169803e-07,9.983467757372924e-07,1.2945555967701007e-07,1.5970803552141864e-07,4.423692332777588e-07,8.945289647070592e-08,5.455187558237503e-07,-3.8859755779667727e-07,3.822636200132765e-08,8.770106117656363e-07,1.2502092344715963e-06,9.267163566370506e-07,-3.859579119033447e-07
6.605710527069015e-07,-3.018806658270593e-07,1.6822740968228095e-07,-1.1624543855482894e-07,8.459136971585818e-08,9.436473613737608e-07,1.0213644158970789e-06,1.9373600533995964e-07,1.7780210753452362e-07,4.453976553415711e-07,1.0720882422730742e-07,4.069067840201971e-07,-5.341835390769417e-07,4.86020721748511e-08,8.349555888161149e-07,1.2810256644428468e-06,9.585588192676694e-07,-2.9370734063795005e-07
6.0637589879609e-07,-2.5476413806937387e-07,2.440881314757415e-07,-3.064393498098961e-08,3.9861342342268e-08,9.7069372533252e-07,1.0466974856604671e-06,2.5988314222943686e-07,2.062150846749428e-07,4.372538292204309e-07,1.5019964945131554e-07,3.2667179676119177e-07,-6.499849133161038e-07,8.091364537000918e-08,8.05954867372976e-07,1.2719792298937938e-06,9.858453142858819e-07,-1.883736668247718e-07
