0,1,2,3,4,5,6,7,8,9,10,11,12,13,14,15,16,17
-2.374171119180435e-08,4.25316741677115e-08,-3.3151618745059453e-08,7.10075760573815e-08,7.458985235980451e-08,-1.7424819231073337e-07,-3.363098650294572e-07,3.8606699008923535e-08,-1.1218886353768821e-07,-6.366455060389274e-08,-1.0800789863188374e-07,2.147418554953865e-08,5.415621634864825e-08,-3.0912269789985836e-08,-1.4200356802466864e-07,-9.891254474084635e-08,-2.3063963106239503e-08,-1.9050138961405932e-07
-3.9254040581089564e-08,1.2694791114039915e-08,-4.6842073630619924e-08,3.960645760438462e-08,5.4305300294363205e-08,-1.6873027903880423e-07,-3.2951372225273133e-07,1.0281028864545466e-08,-1.2135894073693512e-07,-6.880251091537832e-08,-9.951140352568509e-08,3.267524512970055e-08,4.736376923052495e-08,-3.654691966754999e-08,-1.5153734832833309e-07,-1.0258751852808705e-07,-3.7396499409056784e-08,-1.9163516085285323e-07
-5.0766761601677864e-08,-1.688479004541096e-08,-6.038028363222129e-08,1.0471847140234447e-08,3.572758373435817e-08,-1.6600283285030952e-07,-3.215521769602446e-07,-1.5711003169258715e-08,-1.2809731965599018e-07,-7.29904676500841e-08,-9.322497783601235e-08,4.068541275312781e-08,3.728798037020659e-08,-3.8925303899034576e-08,-1.5415207995643708e-07,-1.0505825413501772e-07,-4.750136218297096e-08,-1.9104100329828719e-07
-5.72035042892723e-08,-4.4151161936492396e-08,-7.176446611638952e-08,-1.4834061444501975e-08,1.940902720589447e-08,-1.6316457564976963e-07,-3.075540516646673e-07,-3.6634181848474045e-08,-1.2969239348742256e-07,-7.518620108410165e-08,-8.857066153124691e-08,4.508812098326708e-08,2.401126154883305e-08,-3.624942182560501e-08,-1.483923906609209e-07,-1.0463866848674505e-07,-5.125481400503379e-08,-1.907925928516074e-07
-5.7632433963762775e-08,-6.640111444451747e-08,-7.837440195828622e-08,-3.43139599877904e-08,6.335116292060832e-09,-1.5512737773143e-07,-2.8218667559116766e-07,-4.997761293739381e-08,-1.2394695888193195e-07,-7.427118725270673e-08,-8.410581119700332e-08,4.5708995998045645e-08,8.853189750199642e-09,-2.6877422250481465e-08,-1.3273988919544248e-07,-9.895927617644162e-08,-4.715363638068419e-08,-1.8020433412045384e-07
-5.142156748710963e-08,-8.06159502662535e-08,-7.757404108594529e-08,-4.57763876256602e-08,-2.1974992809919968e-09,-1.405666787120503e-07,-2.4203022314305097e-07,-5.377651171826543e-08,-1.0908135448461482e-07,-6.880909481458591e-08,-7.767956935535654e-08,4.2729949111715956e-08,-6.437749386802529e-09,-1.0604013056487464e-08,-1.0615337856417967e-07,-8.772707418654512e-08,-3.510027368174625e-08,-1.559441921739952e-07
-3.906463270279933e-08,-8.442051410321406e-08,-6.788537216317146e-08,-4.810520645512356e-08,-5.421299073076449e-09,-1.1568037983941955e-07,-1.859116690050018e-07,-4.7703324959771336e-08,-8.444330938267823e-08,-5.7691590889204104e-08,-6.745480092403733e-08,3.6008550629849726e-08,-2.0825812729535168e-08,9.552160504943845e-09,-6.952283934633701e-08,-6.246073618267559e-08,-1.702118659624263e-08,-1.2357226397439038e-07
-2.2826730976124047e-08,-7.729408024938657e-08,-4.948855891391485e-08,-4.2174376621361035e-08,-4.3206058492056654e-09,-8.013629239253531e-08,-1.1519844707609951e-07,-3.38053263828735e-08,-5.160727130866878e-08,-4.069294819875599e-08,-5.226101893578795e-08,2.5119565583571303e-08,-3.3439213150710816e-08,2.837096070794169e-08,-2.6098443065759316e-08,-2.842328289570598e-08,3.485264759197496e-09,-8.014047068969021e-08
-5.9477544376551764e-09,-6.06127970081583e-08,-2.423204883205389e-08,-3.032996207041745e-08,-1.5296898516521335e-09,-3.5826264780194865e-08,-3.3906391661714634e-08,-1.5681755687238414e-08,-1.3445010824802947e-08,-1.815755930976724e-08,-3.166963339258607e-08,1.0689047104364765e-08,-4.2415104875219537e-08,4.1351324938966484e-08,1.9655933972517804e-08,8.766008871356838e-09,2.2672310406246947e-08,-2.7692146219121555e-08
9.43381184729458e-09,-3.658352462549296e-08,5.43863546051925e-09,-1.5849964777327537e-08,-7.080679629110649e-11,1.5377363419436447e-08,5.378771132773104e-08,2.958079701317063e-09,2.6770197101801125e-08,8.778824080114149e-09,-4.924955773858613e-09,-5.403819086480759e-09,-4.6247249455313065e-08,4.639238609988351e-08,6.304393385249193e-08,3.930364966674833e-08,3.764739736872091e-08,2.796583312183124e-08
2.2753431817958985e-08,-7.552627608540854e-09,3.6186846427055525e-08,-1.2636261749403323e-09,-2.4548711545006225e-09,7.01194115712919e-08,1.4435486449104512e-07,1.8922649166239732e-08,6.58716739443565e-08,3.7514036410102594e-08,2.8152351776926124e-08,-2.164880339204373e-08,-4.347901336254536e-08,4.275640320014581e-08,9.9480296305987e-08,6.40460352529817e-08,4.620430350575323e-08,8.915924499195406e-08
3.4375827085834425e-08,2.3949832808651263e-08,6.401810244365108e-08,1.1191402509731285e-08,-1.0084447073961997e-08,1.2413731469648496e-07,2.3344245851880866e-07,2.9918587037360614e-08,1.0115838360757615e-07,6.449791429392872e-08,6.533567599939817e-08,-3.7070051302317944e-08,-3.3960256651996064e-08,3.072193062389145e-08,1.2568530363301302e-07,8.280685333049728e-08,4.7176495040773434e-08,1.504767646534672e-07
4.5588562360803793e-08,5.5568554684553456e-08,8.558370333579968e-08,1.9875026430827585e-08,-2.2436876195481047e-08,1.7591485045400877e-07,3.180178161688794e-07,3.5465243458493205e-08,1.3147260764186836e-07,8.673457128346211e-08,1.0359529636384915e-07,-5.045241395059887e-08,-1.8338570646159896e-08,1.3228664761368844e-08,1.416430029992611e-07,9.520482168193455e-08,4.130640768039439e-08,2.0437298084109316e-07
5.876863224020907e-08,8.580703097881822e-08,9.972540190990793e-08,2.4803028912464637e-08,-3.6719557675727503e-08,2.253611904986063e-07,3.965245205293587e-07,3.729487810692208e-08,1.5787821130481913e-07,1.0324865189311943e-07,1.399145876100849e-07,-5.9092572791037446e-08,1.753677070084588e-09,-4.130158425159203e-09,1.5094981287643173e-07,1.0647631096411703e-07,3.1043858969621866e-08,2.509590935408076e-07
7.650055666827915e-08,1.1403397432271377e-07,1.0751967214276758e-07,2.7124619918695714e-08,-4.902512363777515e-08,2.7145681733830117e-07,4.6957134814337315e-07,3.834822055756936e-08,1.8271824466166515e-07,1.1506761147384812e-07,1.7179458077406947e-07,-6.225711289660924e-08,2.5115023945125134e-08,-1.4782800261839189e-08,1.5897330017452834e-07,1.2868273089530574e-07,1.9485020872341562e-08,2.8800537478917334e-07
1.0043831521091612e-07,1.399307022109785e-07,1.1122050335796086e-07,2.8567586583402494e-08,-5.610610329781757e-08,3.171159253271172e-07,5.384645032049399e-07,4.1494330801904005e-08,2.0799210403864583e-07,1.244245012839011e-07,1.9861823857912964e-07,-6.425429942409149e-08,4.6601851994660756e-08,-1.334552166099942e-08,1.7116835332784675e-07,1.634809446691247e-07,9.470676758923689e-09,3.2058426185613074e-07
1.308698045234288e-07,1.6338418881725283e-07,1.1406195661901315e-07,3.1115721368019265e-08,-5.689586630034208e-08,3.6401417789572236e-07,6.071716120137315e-07,4.909000739267812e-08,2.3514940751681364e-07,1.3447879323588193e-07,2.213384029926761e-07,-6.240381720302554e-08,6.4389758854676e-08,3.0306411100240647e-09,1.921616136276057e-07,2.1100710271010002e-07,3.4986970585557415e-09,3.532688967886376e-07
1.667662805539827e-07,1.8483214196275192e-07,1.1980892952448547e-07,3.688298313058174e-08,-5.239923025130256e-08,4.07079936388399e-07,6.813915483751396e-07,6.263413291305332e-08,2.6505805313875813e-07,1.4864131564873459e-07,2.426090958422865e-07,-4.9303450885038276e-08,8.14330053688604e-08,3.409569887834435e-08,2.2455152668150538e-07,2.7190178726867516e-07,3.4065097388784247e-09,3.8919197481557506e-07
2.0565688832813545e-07,2.05072794946875e-07,1.3150560409265403e-07,4.6747583158743754e-08,-4.5330298552417966e-08,4.4971466399395557e-07,7.660211773111409e-07,8.202336521022544e-08,2.9755264738552263e-07,1.6921413102957735e-07,2.616025574911539e-07,-2.7239401116580978e-08,9.615419408953434e-08,7.562073554478735e-08,2.6783412321333066e-07,3.4117944664535386e-07,9.775343980437003e-09,4.3268506136704026e-07
2.4383077696940876e-07,2.2481359965848732e-07,1.5091202149847705e-07,6.021052250541653e-08,-3.951652395287219e-08,4.976693407606207e-07,8.641737660954992e-07,1.0538669389634677e-07,3.3218919495173707e-07,1.9688108440767848e-07,2.76950109080544e-07,3.2837792172734376e-09,1.1314441788347374e-07,1.2056278343627623e-07,3.187554615955704e-07,4.308077441362633e-07,2.208043861620842e-08,4.870135857572095e-07
2.7744893000048537e-07,2.4436695124674897e-07,1.7863722739263322e-07,7.596156713461312e-08,-3.8629982143956224e-08,5.514916690302516e-07,9.75379344839359e-07,1.302252295927746e-07,3.6711532267781624e-07,2.3158512795377668e-07,2.8838035272038315e-07,4.1454479183052594e-08,1.2778676699534117e-07,1.621161752442145e-07,3.725483045732804e-07,5.356828801047506e-07,3.9484598709037446e-08,5.501934711606372e-07
3.0321398625286917e-07,2.6349548677322645e-07,2.1457659510874968e-07,9.223743730566831e-08,-4.54917198099912e-08,6.110072865950212e-07,1.0964353826281842e-06,1.5432019424202255e-07,4.0054933959915543e-07,2.732757128161282e-07,3.205497424995562e-07,7.870603191415453e-08,1.4985054183199198e-07,1.961321535623731e-07,4.23558916243153e-07,6.794362426800376e-07,6.103552766784085e-08,6.214557600614441e-07
3.1804390048671346e-07,2.811059499723022e-07,2.5719753457541076e-07,1.0663558303689053e-07,-6.236060956675067e-08,6.745297843008752e-07,1.2209974647707453e-06,1.7546709065662375e-07,4.308400546896946e-07,3.21929814742656e-07,3.781655777362566e-07,1.2658218670105968e-07,1.8821230262930112e-07,2.2237799276000267e-07,4.659194507311388e-07,8.419047300332119e-07,8.588246488574893e-08,7.018827208494913e-07
3.1907118216638047e-07,2.9537464456130723e-07,3.0330325436724587e-07,1.1642858245294704e-07,-9.098211807824418e-08,7.157825440732672e-07,1.3363390526626303e-06,1.913382335822116e-07,4.557509263567228e-07,3.7763202224844117e-07,4.575820165585251e-07,1.8565080248636856e-07,2.722541358535292e-07,2.44911195960472e-07,4.954142280233495e-07,9.585576842138138e-07,1.1412099983489617e-07,7.821034206960169e-07
3.050679806902924e-07,3.0478229570803576e-07,3.493495475268534e-07,1.194589993985872e-07,-1.3157319088883427e-07,7.306798781745498e-07,1.432113558971519e-06,2.0013489925897753e-07,4.7359675976183287e-07,4.404785338358914e-07,5.412777019047683e-07,2.740904736227435e-07,3.5471281096550645e-07,2.7085285097330087e-07,5.114471429041288e-07,1.0486792522570323e-06,1.4688781256139567e-07,8.60609865184853e-07
2.7714415851299894e-07,3.0890182230690705e-07,3.9215337323586695e-07,1.1498836338420476e-07,-1.8222803014600536e-07,7.07081433966667e-07,1.5000816706935714e-06,2.0090177706835688e-07,4.82553469064122e-07,5.095611881027862e-07,6.161321787385697e-07,4.033339799570795e-07,4.1575330994572355e-07,3.068059289158814e-07,5.171149202202395e-07,1.1425348388294564e-06,1.8511192914838572e-07,9.35041361587682e-07
2.3854723658167447e-07,3.081545225315011e-07,4.28056535777415e-07,1.0336938926662963e-07,-2.393432124588876e-07,6.632082661517538e-07,1.5344986029758678e-06,1.931357545972333e-07,4.82271913489723e-07,5.817939927103727e-07,6.76497463353446e-07,5.254783284939727e-07,5.321832470477123e-07,3.5568566584152255e-07,5.179395688635535e-07,1.2264341694639237e-06,2.2840906412378736e-07,1.0002703443463022e-06
1.9413135013217981e-07,3.035105938884818e-07,4.536857611557114e-07,8.595308230099505e-08,-2.9826950551253004e-07,6.685137128487902e-07,1.5351214487111335e-06,1.7713177234742662e-07,4.729352248023178e-07,6.525249640546132e-07,7.384061903629509e-07,6.369314561886816e-07,6.696785182242085e-07,4.168140915286134e-07,5.207139105832379e-07,1.3808028640099766e-06,2.754839744696469e-07,1.0544852313896959e-06
1.503093729947904e-07,2.9692689949251623e-07,4.680821500317129e-07,6.540750969706758e-08,-3.535016528522534e-07,6.859356441459134e-07,1.5095069507374723e-06,1.5519938596829895e-07,4.5643201237934965e-07,7.176251324661995e-07,7.848430142343097e-07,7.471147041469327e-07,7.875594380202092e-07,4.878960386775441e-07,5.319385434669157e-07,1.5573903651780042e-06,3.248450850850529e-07,1.0974666232574777e-06
1.1405933884492234e-07,2.9150367008872676e-07,4.733617924341955e-07,4.532705577017578e-08,-3.991612966552903e-07,6.50398198334148e-07,1.4675077330572767e-06,1.3176927479160802e-07,4.370920596821456e-07,7.745887377918715e-07,8.161688926449754e-07,8.420387952201988e-07,9.178292764075327e-07,5.656361702088299e-07,5.552559909481003e-07,1.6640584759723516e-06,3.745911439053945e-07,1.130263071378247e-06
9.042934592420075e-08,2.904729258949548e-07,4.7324994365367e-07,2.9241844203606267e-08,-4.304550656160653e-07,5.906523905619647e-07,1.4207014894395216e-06,1.1163690454652409e-07,4.194169539786423e-07,8.221034487687452e-07,8.520210076867868e-07,9.417042574058602e-07,1.00406947274325e-06,6.451081042149165e-07,5.896715067942803e-07,1.7708404102590548e-06,4.220873300495097e-07,1.1529655549557293e-06
8.085667376561132e-08,2.9599568746834196e-07,4.7128182092966557e-07,1.959997177732721e-08,-4.450364765566617e-07,5.265415250953013e-07,1.3800717166855165e-06,9.827026384575604e-08,4.0742022935511577e-07,8.59756091043577e-07,8.901148219247114e-07,1.0085189499489566e-06,1.0309850392822077e-06,7.206733666067766e-07,6.306347216459994e-07,1.8384780194326702e-06,4.649627103114467e-07,1.1688760595733505e-06
8.404367113463505e-08,3.089229279289196e-07,4.703822717878084e-07,1.7945701190937526e-08,-4.4287131800735575e-07,4.5587576309912833e-07,1.351279283912812e-06,9.357881310604228e-08,4.039492643947471e-07,8.885404183791363e-07,9.232647412381163e-07,1.0505482882741947e-06,1.0749017359128683e-06,7.881480701115789e-07,6.727958684249347e-07,1.8918533817324258e-06,5.022914372375783e-07,1.1802555571648387e-06
9.706094599053818e-08,3.291045394022355e-07,4.72668420488977e-07,2.5082565136803812e-08,-4.2574392570687414e-07,4.0855934749035856e-07,1.3374949722970704e-06,9.812722268437914e-08,4.1047006241797276e-07,9.104738794115673e-07,9.502442950035753e-07,1.0934659102682617e-06,1.1245231313605245e-06,8.45611452228992e-07,7.116950951683363e-07,1.937977845047576e-06,5.343463494091798e-07,1.1874793688077679e-06
1.1573656401612143e-07,3.5549080676169933e-07,4.787821818003039e-07,4.0751882236394814e-08,-3.96832764863895e-07,3.7556621879167454e-07,1.3383768450381871e-06,1.1084350645656454e-07,4.2606332273440284e-07,9.275236867097455e-07,9.747925378206393e-07,1.1424460232531684e-06,1.1372440565981196e-06,8.928121609110303e-07,7.441324860135901e-07,2.0238385324720472e-06,5.618056688577976e-07,1.1865913098332472e-06
1.3556345250544532e-07,3.8644174747985025e-07,4.878709938241813e-07,6.34191674969597e-08,-3.603513170721068e-07,3.463599630280756e-07,1.349434498006899e-06,1.293645507269577e-07,4.4563933217215984e-07,9.412993300552061e-07,9.981834489358606e-07,1.1836852215383994e-06,1.1460736435960672e-06,9.31113542399921e-07,7.684647024316803e-07,2.1349565142263233e-06,5.855806139589946e-07,1.1799089306305691e-06
1.5325804802391057e-07,4.207099377815146e-07,4.989658155166579e-07,9.101156243086043e-08,-3.20488550352253e-07,3.2052549327219015e-07,1.3632407733513888e-06,1.51202058068108e-07,4.664049067058099e-07,9.534581210125256e-07,1.022280195401063e-06,1.2187059494774373e-06,1.1591264029803668e-06,9.636211404550026e-07,7.845197304807558e-07,2.2035874430517218e-06,6.0659393748034e-07,1.1630764195452923e-06
1.6756810188504996e-07,4.57863186463956e-07,5.115833532621352e-07,1.2176810724777882e-07,-2.805816043851374e-07,2.894197785780492e-07,1.3777567938771598e-06,1.7407003474540169e-07,4.856251359863666e-07,9.654306890566014e-07,1.0489267646521463e-06,1.2482710161355976e-06,1.138854342724651e-06,9.93476221601033e-07,7.923578656397481e-07,2.226855695019679e-06,6.25730498379145e-07,1.1368662662904873e-06
1.7830179802149024e-07,4.973015574166034e-07,5.24673934782805e-07,1.5391068422236709e-07,-2.4352106858444814e-07,2.493207933312716e-07,1.3841089253929984e-06,1.9508848865585497e-07,4.998159042060217e-07,9.773928327950967e-07,1.0783973271024106e-06,1.27123580765399e-06,1.108452021889994e-06,1.0217382069715305e-06,7.912465198724602e-07,2.25312681527452e-06,6.424092778053478e-07,1.1148912892627333e-06
1.854401208793444e-07,5.371392448793446e-07,5.3610329512576e-07,1.8511279296183406e-07,-2.1202024776044104e-07,2.0837540750996188e-07,1.3838167699198434e-06,2.1083473840105022e-07,5.064161541642288e-07,9.882197429548623e-07,1.1087244979590102e-06,1.2891915646362524e-06,1.07321358128376e-06,1.04710705743225e-06,7.805530316813175e-07,2.2756570351169305e-06,6.551582990707602e-07,1.0998900678676005e-06
1.8952203240144402e-07,5.744552809899494e-07,5.437343620375481e-07,2.1303626475729013e-07,-1.8792977257217106e-07,1.6544678603848143e-07,1.374686421990058e-06,2.189863528895733e-07,5.035919763921382e-07,9.965906305314897e-07,1.1370597740190287e-06,1.3011646896106191e-06,1.041697119548298e-06,1.0677519049852139e-06,7.612710272399469e-07,2.281185179433914e-06,6.627983920399967e-07,1.0857676265453873e-06
1.92128821392471e-07,6.064033072242002e-07,5.463250932347297e-07,2.3616870693295435e-07,-1.7138926669047324e-07,1.1763049299515648e-07,1.3543485602131786e-06,2.1944400054866233e-07,4.93213934196628e-07,1.0018128905644702e-06,1.160504539925088e-06,1.3054706704901337e-06,1.0185058625107193e-06,1.0820323281378086e-06,7.359403249496488e-07,2.2970401494313274e-06,6.645532339819074e-07,1.0727290993811717e-06
1.9493164955907508e-07,6.308187012685481e-07,5.432462259388796e-07,2.539575089142011e-07,-1.6148289466285538e-07,6.743021934539624e-08,1.3230599669006579e-06,2.1361373751934064e-07,4.765114310849232e-07,1.0034828573658951e-06,1.176721309199897e-06,1.3056374720364637e-06,1.001567669249996e-06,1.0880661357105225e-06,7.075294967684352e-07,2.2877762627205718e-06,6.601766587500645e-07,1.0574998743606522e-06
1.9819510621466808e-07,6.463551767677172e-07,5.336650385081546e-07,2.656335309847225e-07,-1.5463468575266856e-07,1.4382826224837519e-08,1.2813612676412284e-06,2.03295355287392e-07,4.555294937879945e-07,1.0017706954466493e-06,1.1847123436774712e-06,1.305379483837511e-06,9.850806092159044e-07,1.0848778905148788e-06,6.791608096828829e-07,2.254970744268158e-06,6.507060896725274e-07,1.0394212150859357e-06
2.0123633692807845e-07,6.53034658509933e-07,5.188523888790453e-07,2.714333099877093e-07,-1.4801412621744474e-07,-3.956424190195542e-08,1.2310093116656537e-06,1.9049434523753874e-07,4.324140105459429e-07,9.979797098986215e-07,1.1855297764170269e-06,1.309100003104236e-06,9.651133963172968e-07,1.0745754332839356e-06,6.543915140492036e-07,2.2225289226614857e-06,6.393155111127058e-07,1.0245826241447168e-06
2.0240603897698098e-07,6.531528959118532e-07,5.019642172703836e-07,2.731544105177534e-07,-1.389143839550733e-07,-9.42734342635281e-08,1.1733729569634358e-06,1.7722611728994864e-07,4.08925449284255e-07,9.947163582322994e-07,1.1819696845301406e-06,1.3210755580626815e-06,9.449971293074711e-07,1.06263347142928e-06,6.363058711354507e-07,2.1851507238668467e-06,6.303073318349184e-07,1.0155358415459906e-06
2.0003163837434924e-07,6.495203253617603e-07,4.866068379022439e-07,2.734394881871192e-07,-1.2520801699489313e-07,-1.439932062780588e-07,1.1118612477852976e-06,1.6467374617469376e-07,3.8745767130147043e-07,9.939832866744494e-07,1.1767976408547433e-06,1.3416048235956016e-06,9.204224927758321e-07,1.0554678706623182e-06,6.25950404128593e-07,2.149398227465438e-06,6.26131197303198e-07,1.0112970388043508e-06
1.9362650927249638e-07,6.449532606373964e-07,4.7634906481150404e-07,2.7517044262464017e-07,-1.073119979038928e-07,-1.9103720197676746e-07,1.0474980012090081e-06,1.5302626742206397e-07,3.685194875498598e-07,9.960982098979429e-07,1.1715429690407322e-06,1.3676925618021394e-06,8.98230460931018e-07,1.0578871022175203e-06,6.223217402130353e-07,2.118405288477148e-06,6.272007911312845e-07,1.0131527661050703e-06
1.8220761830508827e-07,6.421194644080849e-07,4.727995913885471e-07,2.803033944306697e-07,-8.673037203820924e-08,-2.3154559585664374e-07,9.806706415768522e-07,1.4250170997828776e-07,3.52115321653756e-07,1.0003080237608528e-06,1.1670880649457662e-06,1.3947840561015367e-06,8.842532733011061e-07,1.0716839454705617e-06,6.23546246553142e-07,2.1059950187005858e-06,6.32035896651652e-07,1.0209351016806835e-06
1.6711481034150216e-07,6.431310953282482e-07,4.7577334553091193e-07,2.902618802169712e-07,-6.579355308574637e-08,-2.6972597123988663e-07,9.140580058368047e-07,1.335181771223441e-07,3.3789867441067454e-07,1.0049632310407593e-06,1.164441671853198e-06,1.418484672405981e-06,8.767133414403803e-07,1.0948900916397748e-06,6.2738867842312e-07,2.1034077410075675e-06,6.383478054717346e-07,1.0328440295588868e-06
1.5125815246004772e-07,6.484788266241995e-07,4.825107311296418e-07,3.044489286680956e-07,-4.664462548287426e-08,-3.049615099071072e-07,8.514057474349702e-07,1.2664743765426954e-07,3.253741013182403e-07,1.0073865447217479e-06,1.1642239073223331e-06,1.4357406741586696e-06,8.73480787690288e-07,1.1221474425637599e-06,6.313330015371912e-07,2.104750389638138e-06,6.437018464664219e-07,1.0419318587252843e-06
1.3620137193789503e-07,6.5808287392737e-07,4.877435814188705e-07,3.2018461821776123e-07,-3.162015973193674e-08,-3.294829148226675e-07,7.948115311854489e-07,1.2116088105103326e-07,3.1512970582641816e-07,1.0044648030532023e-06,1.1660726332662346e-06,1.4463588907018856e-06,8.68718874017236e-07,1.1472913232994096e-06,6.336866941040264e-07,2.1043245171255246e-06,6.459037252580553e-07,1.0475981105726056e-06
1.2573891850202672e-07,6.70142728996983e-07,4.861809199993506e-07,3.342536665610477e-07,-2.140687468527302e-08,-3.4800839274925114e-07,7.641484427150936e-07,1.1638601108767607e-07,3.060542780337756e-07,9.942671998241411e-07,1.169142213288336e-06,1.4534064592120233e-06,8.552911611960973e-07,1.1666792426579528e-06,6.348444795691677e-07,2.092864423304994e-06,6.45064578267036e-07,1.0523597409640695e-06
1.2314529869292343e-07,6.825953197737914e-07,4.7463593362886493e-07,3.4429565250177944e-07,-1.3960265354635816e-08,-3.605249074860932e-07,7.412239608684967e-07,1.1286152763076347e-07,2.9837610487266396e-07,9.765988908510772e-07,1.1720971909536167e-06,1.4623755288305403e-06,8.287988205193892e-07,1.1800188896080076e-06,6.366811760011881e-07,2.0711412318516113e-06,6.431702140779838e-07,1.0537823274845695e-06
1.29937142157588e-07,6.947954786411275e-07,4.5202682715397813e-07,3.4974519998525016e-07,-5.049147796204973e-09,-3.6165319896343266e-07,7.328290029859978e-07,1.1125283644592556e-07,2.930879795093563e-07,9.525328906095862e-07,1.1724526959382836e-06,1.4782125903634193e-06,7.910140487942791e-07,1.1884308664827386e-06,6.407233770923746e-07,2.034291305816078e-06,6.422516777290577e-07,1.0436675546491124e-06
1.4577691925903852e-07,7.068278683752992e-07,4.1862595871012054e-07,3.5153514115238455e-07,7.902435225710779e-09,-3.5249950497656796e-07,7.412401217122188e-07,1.1187226185932928e-07,2.9085941466417536e-07,9.230390245490429e-07,1.1669031414852868e-06,1.5029820110183109e-06,7.397399641733382e-07,1.1928943712229485e-06,6.47231807147801e-07,1.9806649725574497e-06,6.433238577049526e-07,1.0174720758210848e-06
1.6905910060729406e-07,7.200669227739064e-07,3.771153270736386e-07,3.522608583274786e-07,3.055509315881229e-08,-3.3622859558019457e-07,7.601571079913778e-07,1.1514034561139782e-07,2.932790945633508e-07,8.895811249966606e-07,1.1526270835029773e-06,1.5355723530423797e-06,6.746477094338412e-07,1.1942160001576444e-06,6.554120391259011e-07,1.9076409043091076e-06,6.462093901989399e-07,9.781132374471547e-07
1.9796095050777543e-07,7.379768428957708e-07,3.3118521399458163e-07,3.552614240801148e-07,6.597557828969899e-08,-3.1226790469755376e-07,7.965894083294571e-07,1.2212823369533379e-07,2.996287615089083e-07,8.54446951285455e-07,1.1283971271133876e-06,1.5723798487868827e-06,5.986845222965022e-07,1.192388445137454e-06,6.634269960543581e-07,1.8151230152889153e-06,6.4918306748236e-07,9.26564184468609e-07
2.3162241090140774e-07,7.630059182023458e-07,2.844551231002491e-07,3.6330610534385323e-07,1.1733486593483872e-07,-2.775463667753185e-07,8.550521720432095e-07,1.3369697951878906e-07,3.1015928058397284e-07,8.202609868643213e-07,1.094537588244371e-06,1.6079226706385033e-06,5.132151373777878e-07,1.1887681197414886e-06,6.68433916477075e-07,1.7112540446242575e-06,6.49419320231873e-07,8.797031629931701e-07
2.693748792577565e-07,7.960209794223082e-07,2.463623745749202e-07,3.7767483971551424e-07,1.7191623207483066e-07,-2.37479165182384e-07,9.33012406635569e-07,1.5006140519308897e-07,3.2403089125583023e-07,7.900916343851977e-07,1.0527075673577193e-06,1.639736216676409e-06,4.218927065378289e-07,1.1855235605606367e-06,6.662146299216227e-07,1.6013264639710684e-06,6.447270510011843e-07,8.391380005712906e-07
3.1113436737222844e-07,8.373280287563251e-07,2.1910872706611153e-07,3.977612421871947e-07,2.2563579174874148e-07,-1.9565902774261997e-07,9.964008886732463e-07,1.705404835531543e-07,3.3995958142574263e-07,7.671400901369689e-07,1.005948908591921e-06,1.6671476605984141e-06,3.3030895896229394e-07,1.184051025481498e-06,6.573134119070412e-07,1.4944471535197872e-06,6.34871917457379e-07,8.03093382480758e-07
3.6242185964246587e-07,8.821459271183041e-07,2.036051133143031e-07,4.218726147484324e-07,2.762608029911952e-07,-1.514611704834554e-07,1.0861223078832108e-06,1.94448155591397e-07,3.5755369951564766e-07,7.545019859691004e-07,9.58281314030142e-07,1.6915047542103286e-06,2.4468977247455235e-07,1.18523520659772e-06,6.412863443176062e-07,1.4002272830339077e-06,6.208327548376608e-07,7.730708263439732e-07
4.2504352473163426e-07,9.31126654692716e-07,2.0046902528934193e-07,4.474015330428551e-07,3.228028246331423e-07,-1.2025778754648367e-07,1.1994385476355683e-06,2.2029653162643692e-07,3.755174773702127e-07,7.533403346490139e-07,9.136243842671452e-07,1.7152856479013998e-06,1.7020396858233893e-07,1.1866843943006517e-06,6.172428419546875e-07,1.3237043595573413e-06,6.039465401768799e-07,7.439895642807163e-07
4.861040001540354e-07,9.855899476037958e-07,2.0234499669494118e-07,4.7113393150222545e-07,3.741935062878553e-07,-9.310412331346588e-08,1.320923645386496e-06,2.460931457665789e-07,3.9195627907434723e-07,7.62527528813242e-07,8.748190698184821e-07,1.7385612950558886e-06,1.1058936764385147e-07,1.1877285952195795e-06,5.858772669243251e-07,1.2650717737485441e-06,5.852158320423867e-07,7.07178007795507e-07
5.50447964232437e-07,1.0439595835390447e-06,2.0573627903855153e-07,4.909169812949328e-07,4.118210004008738e-07,-6.714150005931005e-08,1.458600063103228e-06,2.6986880947303835e-07,4.068659955994189e-07,7.792294903221302e-07,8.435426191032903e-07,1.7609864626129022e-06,6.711718999656314e-08,1.1874810883821606e-06,5.468079081748861e-07,1.2200770302029062e-06,5.666753614994933e-07,6.776831825635695e-07
6.193453873236864e-07,1.096312263858081e-06,2.1242643242284677e-07,5.054722383986691e-07,4.4434223804748947e-07,-3.698467730238621e-08,1.596950551023589e-06,2.9330065129305973e-07,4.205659492154894e-07,7.990603884634247e-07,8.200484477678716e-07,1.779674180238394e-06,3.947120230867968e-08,1.1926834733979828e-06,5.041033925149489e-07,1.1835159140267695e-06,5.519587794330282e-07,6.636517699658229e-07
6.805011162228832e-07,1.1326407568245262e-06,2.2790890119809553e-07,5.157194029856644e-07,4.5065184708425644e-07,2.667719891176315e-09,1.7270965508156907e-06,3.13332938017028e-07,4.3252107030877255e-07,8.166074049859911e-07,8.028934125072884e-07,1.7955184726745485e-06,2.5968465295102762e-08,1.2085348513255921e-06,4.6369962062399403e-07,1.1496715960521985e-06,5.418201809131602e-07,6.570155688818157e-07
7.464017733354328e-07,1.1363026567660832e-06,2.4062176838023394e-07,5.22640059050226e-07,3.9706186976666497e-07,8.148702883548617e-08,1.8541719875251277e-06,3.316925014370379e-07,4.447173565477687e-07,8.270904444711091e-07,7.89861881739262e-07,1.8072298633080164e-06,2.5554826389812844e-08,1.2305629120231903e-06,4.455678405354141e-07,1.115525997129787e-06,5.401027926662884e-07,6.774865927871595e-07
7.763974952103427e-07,1.1304223919600759e-06,2.622431208957277e-07,5.282362076042604e-07,3.7726634471190373e-07,1.4605729035186775e-07,1.9846304428271668e-06,3.562140420915629e-07,4.601564642157231e-07,8.287369222763054e-07,7.799701390231812e-07,1.7983805825867902e-06,3.876785576856328e-08,1.2314040031776033e-06,4.6640533778726723e-07,1.0828271478109986e-06,5.512459592384123e-07,6.778166818516702e-07
7.567137147381283e-07,1.1307564113761966e-06,2.984975423575985e-07,5.365153972951814e-07,3.755706959522635e-07,1.9658444023412223e-07,2.110634487058489e-06,3.902918335463238e-07,4.839213853330761e-07,8.235129362258819e-07,7.742515242773888e-07,1.754994946535794e-06,6.590657322543466e-08,1.204231678996185e-06,5.07468551624748e-07,1.0561304301637721e-06,5.785222909622059e-07,6.735550975477081e-07
7.311626048750348e-07,1.1343241041386691e-06,3.391177829832632e-07,5.500416815821348e-07,3.656770252628005e-07,2.421868374414796e-07,2.2356203755644866e-06,4.372876924168338e-07,5.205525152897673e-07,8.154674006696455e-07,7.745755601033257e-07,1.6692193587675395e-06,1.044790629985809e-07,1.1664902910419173e-06,5.430250891657929e-07,1.039982492834324e-06,6.222468010718856e-07,6.82985584534033e-07
7.361858816366567e-07,1.1454518002928152e-06,3.97635296489421e-07,5.699066479765209e-07,3.732264120539441e-07,2.69770290835139e-07,2.3430668649436118e-06,4.941162425194581e-07,5.710306934879244e-07,8.086362995336917e-07,7.821321008807251e-07,1.6150789891280827e-06,1.4941221904241937e-07,1.1664284711111917e-06,5.432518167695086e-07,1.0362843201469191e-06,6.81064358000795e-07,6.79485312984188e-07
7.47709382125845e-07,1.1596535726223467e-06,4.519163231670031e-07,6.059592918308786e-07,3.576478687547848e-07,3.3410575175125974e-07,2.429951383563915e-06,5.339805661364874e-07,6.199338671131662e-07,8.052506608571962e-07,7.964312117638023e-07,1.5859669891922222e-06,1.9266905493824648e-07,1.1832118000200992e-06,6.044667292247549e-07,1.0414999286204858e-06,7.4716693106327e-07,7.246991160714234e-07
7.624637619695123e-07,1.1369754674252016e-06,4.833059782017732e-07,6.486694199967555e-07,3.403984712229354e-07,3.8259384560489864e-07,2.4804464445627635e-06,5.275852453947997e-07,6.467434763189918e-07,8.045641419360774e-07,8.147749666775123e-07,1.5556878349793307e-06,2.2448996121148492e-07,1.204876371431953e-06,6.842782963338921e-07,1.048929698911721e-06,7.965709689488451e-07,7.463643408603722e-07
7.482943537331149e-07,1.1013524596543753e-06,4.864330322568528e-07,6.952918916625236e-07,3.4477868862699825e-07,4.112526253044783e-07,2.480530730052487e-06,5.178147009520285e-07,6.566177610070856e-07,8.034252678683734e-07,8.320983571327979e-07,1.5571432115992132e-06,2.3657443723342545e-07,1.224328906969059e-06,7.364595243430439e-07,1.0470532569334946e-06,8.168601047058057e-07,7.519896176180341e-07
6.809479028971537e-07,1.103894500284812e-06,4.945943610898688e-07,7.40274677265589e-07,3.5848971446424923e-07,4.404800852676497e-07,2.506509846741729e-06,5.24867474609883e-07,6.524965940896699e-07,7.984611701368596e-07,8.431340022911544e-07,1.5940224297159597e-06,2.2419136568737536e-07,1.2632786900260285e-06,7.759241539166882e-07,1.027916611934725e-06,8.326738318138563e-07,7.738501864513081e-07
6.283745873558451e-07,1.101091903598656e-06,5.241220178360606e-07,7.861488115346226e-07,3.63291828550442e-07,4.5239624030490673e-07,2.565707826726838e-06,5.148031606434801e-07,6.694385146745845e-07,7.878499719990417e-07,8.443549823545747e-07,1.6396875459710648e-06,1.8762032234692914e-07,1.3117078319575189e-06,8.130776076303372e-07,9.90115749867307e-07,8.447920944764552e-07,7.803285641172029e-07
6.172597874916591e-07,1.107478890879553e-06,5.577148132791173e-07,8.194563527146824e-07,3.807607716964863e-07,4.678294942379051e-07,2.554887128441649e-06,4.906764037656261e-07,6.730698592523919e-07,7.711093235473307e-07,8.34283971027713e-07,1.6733302101752785e-06,1.3143028230253258e-07,1.3300209819934004e-06,8.129089921369055e-07,9.362360749301324e-07,8.466377894996902e-07,7.79695326795835e-07
5.993519982533616e-07,1.121769655808125e-06,5.566499141861562e-07,8.35796250801902e-07,4.035385725531837e-07,5.092755787054306e-07,2.4921668616326947e-06,4.7402615665748613e-07,6.481900305495331e-07,7.486229700751381e-07,8.135280800463995e-07,1.6877975500269953e-06,6.29019155722572e-08,1.3344628737704396e-06,8.078897861645263e-07,8.723809303044278e-07,8.192177879700773e-07,7.712891513021471e-07
6.007304408475485e-07,1.1300252612165252e-06,5.41402560478461e-07,8.492183816179776e-07,4.2203470512797773e-07,5.416707136150369e-07,2.428513774586107e-06,4.655998608006628e-07,6.217727348498645e-07,7.216028835606194e-07,7.844723455152125e-07,1.6957526613122422e-06,-9.266247148132504e-09,1.3445283634958765e-06,7.917795064256441e-07,8.065174241090851e-07,7.915168377708747e-07,7.032540925575717e-07
6.029300461742075e-07,1.1400828816649911e-06,5.337858582185044e-07,8.646390576814442e-07,4.5146607673003505e-07,5.563723343195501e-07,2.363573400805811e-06,4.6339515743212396e-07,5.997003781677365e-07,6.921585561992296e-07,7.511328530013267e-07,1.6909513952117396e-06,-7.574421115830746e-08,1.3598598377259583e-06,7.766231693897123e-07,7.476630184907975e-07,7.893718864828938e-07,6.522708999841986e-07
6.392032991921431e-07,1.1541814810292154e-06,5.334867435221013e-07,8.777586879504638e-07,5.109013802153806e-07,5.544668655063547e-07,2.3035837941638582e-06,4.7397763029363095e-07,5.772249761373607e-07,6.628643918586813e-07,7.180567038528206e-07,1.6716041175740516e-06,-1.2648226556005542e-07,1.3811198556020127e-06,7.653769007098159e-07,7.024142846632208e-07,7.819191906577891e-07,6.27091703458634e-07
6.852626773158406e-07,1.198384155691758e-06,5.409846145737729e-07,8.830021013171911e-07,5.659338797996194e-07,5.583287177896625e-07,2.272803483382381e-06,4.899533499617587e-07,5.697260825690649e-07,6.354827118248017e-07,6.888334610658651e-07,1.642405415674469e-06,-1.5621453951766246e-07,1.4117739597095903e-06,7.565202830753431e-07,6.762721421276946e-07,7.877391160850594e-07,5.884195182912408e-07
7.190506658138723e-07,1.244578175659492e-06,5.676560743179481e-07,8.843175748072584e-07,6.19102683455669e-07,5.716453627081946e-07,2.2668290976677085e-06,5.095622998490173e-07,5.642314879660106e-07,6.113963671311346e-07,6.655329147501334e-07,1.6065536148489342e-06,-1.6290377471202692e-07,1.4519534554892226e-06,7.493177618662232e-07,6.678142816890008e-07,7.98987092458977e-07,5.737834842541289e-07
7.600963566035234e-07,1.2845645810530953e-06,6.08111516670846e-07,8.814506546780385e-07,6.66221414828112e-07,5.836514805262004e-07,2.247932800516955e-06,5.307176364468913e-07,5.585219640126895e-07,5.919837880460997e-07,6.487980901421409e-07,1.5679741816379728e-06,-1.4757933713406372e-07,1.4995553341164225e-06,7.420802681859224e-07,6.725461970723606e-07,8.08518069909081e-07,5.991615243696356e-07
7.760733203264145e-07,1.322803717960439e-06,6.537526161196444e-07,8.734986355521399e-07,6.888081373834913e-07,5.881041431447093e-07,2.2392883983036752e-06,5.492277631572461e-07,5.527165925969391e-07,5.779525693262255e-07,6.377880394549612e-07,1.5289596821597773e-06,-1.1554722673235413e-07,1.5494164511385454e-06,7.327861868208726e-07,6.844185239825699e-07,8.214871150539878e-07,6.472986302322769e-07
7.748652170528551e-07,1.341126873048233e-06,6.986942742991453e-07,8.674776207637156e-07,6.896517019812762e-07,5.788607598938577e-07,2.2301693763035937e-06,5.64331917303397e-07,5.432313291522872e-07,5.689982533264521e-07,6.302842242534422e-07,1.49139922378545e-06,-7.562141499067195e-08,1.5944996221866745e-06,7.196745110742069e-07,6.954853815409631e-07,8.29251907533542e-07,6.822995749102531e-07
7.651473707598409e-07,1.3457276106646272e-06,7.380198534224239e-07,8.585059270855423e-07,6.894573470279856e-07,5.515449081938095e-07,2.201565918610768e-06,5.7458709135223e-07,5.307946743959105e-07,5.642808536337311e-07,6.237230088085741e-07,1.4579949023156508e-06,-3.428121229824924e-08,1.628745807413073e-06,7.021291998374305e-07,7.004526001754162e-07,8.322244858130911e-07,6.949100486220705e-07
7.397535762782836e-07,1.3409049437197919e-06,7.691408860343486e-07,8.412617975699068e-07,6.864698592667997e-07,5.140232674908634e-07,2.167330160384664e-06,5.793000471028633e-07,5.121444908639655e-07,5.622435999707134e-07,6.159571927807573e-07,1.42974076743288e-06,3.3262438818963676e-09,1.6482501999733834e-06,6.801661850137349e-07,6.941004869508605e-07,8.306760272453269e-07,7.134092767770395e-07
7.093334770456527e-07,1.3257030622311997e-06,7.90299671924253e-07,8.15466986018068e-07,6.718458853395969e-07,4.6739311110326307e-07,2.1235596348618808e-06,5.774586160653097e-07,4.878511967434876e-07,5.601681947112613e-07,6.05121843080526e-07,1.4048765187260568e-06,3.242955810577048e-08,1.6509025899917427e-06,6.530578397611406e-07,6.779106674638274e-07,8.228058681977963e-07,7.143110120901288e-07
6.736490168385439e-07,1.300748258602197e-06,7.99542802497383e-07,8.026976966711339e-07,6.504284584637118e-07,4.1269283831387345e-07,2.071348242190125e-06,5.697306464643781e-07,4.5762366550740974e-07,5.539245997469617e-07,5.897915141920607e-07,1.3793501631129351e-06,5.0966661662261045e-08,1.635692385444589e-06,6.196481790418268e-07,6.479891746962137e-07,8.078014527368453e-07,7.015584483078446e-07
6.284202599783841e-07,1.2679654593173855e-06,7.954104261141997e-07,7.973194936107864e-07,6.196143566591845e-07,3.5244888089013477e-07,2.012685921316856e-06,5.556385541994048e-07,4.212882981929592e-07,5.399714585659608e-07,5.694776593112363e-07,1.3487325371817217e-06,5.8525344855383375e-08,1.6045741107742755e-06,5.800059819273363e-07,6.055435589449243e-07,7.858901339344417e-07,6.831315939117762e-07
5.806433950461343e-07,1.2280648649706023e-06,7.790286945733608e-07,7.939274663623915e-07,5.799844514332224e-07,2.9619419210743667e-07,1.953519867659474e-06,5.35296485773743e-07,3.808219824336846e-07,5.169533468403539e-07,5.449189039473908e-07,1.309665533765613e-06,5.656601602986401e-08,1.5624462030744504e-06,5.357562919195582e-07,5.555213969237205e-07,7.585550158800723e-07,6.525135065319672e-07
5.336028802621772e-07,1.1818277227234894e-06,7.528053920536633e-07,7.943734450146392e-07,5.360235431858714e-07,2.470389755016794e-07,1.8872083777900284e-06,5.098983006925768e-07,3.3737392874161786e-07,4.8502202536169e-07,5.172847577997566e-07,1.2612295167961178e-06,4.754594923756767e-08,1.5147051061578846e-06,4.889264792998543e-07,5.006168693317083e-07,7.278322844821098e-07,6.180833939225026e-07
4.88114580339579e-07,1.1309365839810817e-06,7.193663838638466e-07,7.789899581181577e-07,4.896682773950917e-07,2.0031223388820354e-07,1.8142922440686638e-06,4.798498148109171e-07,2.90774134216251e-07,4.4545735670263295e-07,4.875579900740209e-07,1.2048005129622265e-06,3.4110554324241145e-08,1.4660575292253199e-06,4.4166098011402827e-07,4.453346048741424e-07,6.959535816409124e-07,5.821528351379507e-07
4.4668155420144116e-07,1.076097628105998e-06,6.819877821177416e-07,7.557140602023377e-07,4.3807489056323584e-07,1.561199075413507e-07,1.740461557465812e-06,4.465852186367953e-07,2.4294850903822716e-07,4.007294832258595e-07,4.5692496394130914e-07,1.1439364411484134e-06,1.8511854829670466e-08,1.4205691753823525e-06,3.97055112256443e-07,3.9407259845879495e-07,6.659968856347689e-07,5.480803188736053e-07
4.107141289745739e-07,1.0197529695743113e-06,6.44851042162714e-07,7.249834125325977e-07,3.851649836675147e-07,1.1457947239079388e-07,1.6670898354928897e-06,4.1301616058988774e-07,1.973070329883605e-07,3.539229863776006e-07,4.2707095311432837e-07,1.084510417960407e-06,2.9769073376310593e-09,1.382963257068712e-06,3.588907983073556e-07,3.5189092333809767e-07,6.416184700904102e-07,5.19386869791295e-07
3.8236273971728754e-07,9.65756754300618e-07,6.120252313721815e-07,6.916501709355578e-07,3.3725320001732637e-07,7.614496609843404e-08,1.6002206431766068e-06,3.8257328868251335e-07,1.5600572966603365e-07,3.0831810624941685e-07,3.996643718171961e-07,1.0315319662726444e-06,-1.1816338310860178e-08,1.3568553616922888e-06,3.29870414957661e-07,3.2066204555811035e-07,6.255674663536744e-07,4.975237767771349e-07
3.626742961100462e-07,9.169259181335911e-07,5.863498479019084e-07,6.514296007739503e-07,2.950771076529066e-07,4.25328677180629e-08,1.5430069277152657e-06,3.580108893278059e-07,1.2110227107067712e-07,2.662993025641094e-07,3.758440517256605e-07,9.878402791540893e-07,-2.625711631227089e-08,1.3438864892903447e-06,3.1062809611133856e-07,2.9992375224261084e-07,6.187850018652744e-07,4.825228838399509e-07
3.5076236770186506e-07,8.75934340440786e-07,5.694076950233328e-07,6.080034670954137e-07,2.602635631702363e-07,1.3146204524474267e-08,1.4965565217521468e-06,3.411442135991999e-07,9.397109260097234e-08,2.2922220227645237e-07,3.569446765924848e-07,9.545056352847049e-07,-4.058414749437035e-08,1.3445048061483602e-06,3.00211681842112e-07,2.8745784454406924e-07,6.205831095646995e-07,4.736918607962647e-07
3.4461807479282673e-07,8.440189254933154e-07,5.616522768820922e-07,5.677724470699461e-07,2.3328906990032781e-07,-1.3394674997692623e-08,1.4620576750163022e-06,3.325097054946903e-07,7.498003795789596e-08,1.977144043807354e-07,3.4343750012076577e-07,9.30548443510586e-07,-5.387653000425061e-08,1.3575855089296973e-06,2.9637040263228757e-07,2.797368464011485e-07,6.290104689458528e-07,4.698758476795913e-07
3.4126466330194623e-07,8.203231233293448e-07,5.617194957107818e-07,5.299892469392103e-07,2.1302151245722684e-07,-3.626331441311008e-08,1.4383453138995712e-06,3.306897748876985e-07,6.352076425002453e-08,1.7109043445857476e-07,3.352007054742388e-07,9.133793286129549e-07,-6.396890396265382e-08,1.3792332382847847e-06,2.9544216678727803e-07,2.730612735390266e-07,6.395328449195209e-07,4.683099707239655e-07
3.370644367130859e-07,8.023849945422196e-07,5.6629101401706e-07,5.071849789228622e-07,1.981732667342389e-07,-5.563848584465493e-08,1.4222323177081711e-06,3.3254621784181833e-07,5.7603870348055284e-08,1.4759141803389394e-07,3.2970300695289544e-07,8.999124120469142e-07,-6.803008680019782e-08,1.4039641384399186e-06,2.93320218798526e-07,2.634982525452191e-07,6.484612885144654e-07,4.6560248858573627e-07
3.2889015887052574e-07,7.872804433134289e-07,5.714775470681404e-07,4.923948637624157e-07,1.865090438815916e-07,-7.22489917030798e-08,1.4101000806621093e-06,3.346900673448818e-07,5.4557864754417505e-08,1.2551335653401485e-07,3.2593671610735546e-07,8.875462509226978e-07,-6.439991184253937e-08,1.4259917711459022e-06,2.870958883209723e-07,2.482258197684345e-07,6.529805722522339e-07,4.5857896308027804e-07
3.1498121451923987e-07,7.719039311101057e-07,5.744221975583839e-07,4.807630932932756e-07,1.7558724997700118e-07,-8.724563389515326e-08,1.3983522148533555e-06,3.3459844180072126e-07,5.2005082643000314e-08,1.037613274340718e-07,3.2359993701651814e-07,8.747681294514184e-07,-5.341358991531251e-08,1.4411740543289312e-06,2.7533830844013355e-07,2.2622550156651932e-07,6.509902439769306e-07,4.450526448536823e-07
2.947443992524831e-07,7.54420564098619e-07,5.730008254312666e-07,4.6946948236303934e-07,1.6323212723964018e-07,-1.0234582708583161e-07,1.383947331009225e-06,3.302545506498956e-07,4.7695933551033155e-08,8.034563219639061e-08,3.211753621168765e-07,8.601438371635162e-07,-3.8381202333594764e-08,1.4470215849024152e-06,2.573316880901505e-07,1.9495845760861129e-07,6.414930190556947e-07,4.2317672352994847e-07
2.68327020402256e-07,7.344997418918449e-07,5.656806845199629e-07,4.482929984768447e-07,1.4779049475590953e-07,-1.195447379736422e-07,1.36428997248266e-06,3.2009792342205396e-07,3.951841286350346e-08,5.4172253899441346e-08,3.164689769888035e-07,8.42243883429887e-07,-2.5199906590143303e-08,1.4421874504711256e-06,2.333882310138754e-07,1.5417277637633395e-07,6.243230104388192e-07,3.925558576055806e-07
2.374755817725499e-07,7.127643278963058e-07,5.525566315075023e-07,4.179085901007236e-07,1.2913475218513784e-07,-1.3973309204595428e-07,1.338579905365245e-06,3.0404847388275613e-07,2.7000010326515584e-08,2.5506660893896503e-08,3.07750672211098e-07,8.210635240085617e-07,-1.911850737429585e-08,1.4288592156400248e-06,2.0599645250760425e-07,1.0514520870127885e-07,6.013047588543582e-07,3.5416435363787256e-07
2.0597985159579354e-07,6.915627488715918e-07,5.356402096099378e-07,3.801897808970151e-07,1.0930535324898845e-07,-1.6366502612124728e-07,1.3091845063358897e-06,2.840914626722698e-07,1.2404123341978812e-08,-1.4548203149025151e-09,2.9394617875853115e-07,7.983573728171128e-07,-2.30210799943198e-08,1.41247846361451e-06,1.7944847819336594e-07,5.0951556447160706e-08,5.753340365131906e-07,3.105763899772336e-07
1.7839376352642234e-07,6.735623190301766e-07,5.17371838740338e-07,3.367897897509788e-07,9.121672616857425e-08,-1.9158640419239998e-07,1.280673427791043e-06,2.631041752280296e-07,-1.293326937505147e-09,-2.532804692329321e-08,2.7428256923585695e-07,7.75802182167637e-07,-3.7536718453449225e-08,1.3984510365101206e-06,1.5854998235558468e-07,-4.289179012362903e-09,5.496705818693733e-07,2.6549823099106283e-07
1.5827413929654002e-07,6.601390919394048e-07,4.989948225418207e-07,2.8844975286587596e-07,7.669953380585377e-08,-2.2044239130515508e-07,1.2579579000734702e-06,2.4348348460264424e-07,-1.1183859678324784e-08,-4.5878584747569346e-08,2.486465912412827e-07,7.542182691056078e-07,-6.10615853257866e-08,1.3898914884587302e-06,1.4605690447122986e-07,-5.791365549815076e-08,5.263341677133078e-07,2.2261774112541961e-07
1.4794053169219337e-07,6.486024400975726e-07,4.806031829677437e-07,2.3847626922068074e-07,6.580473175782736e-08,-2.455203679027816e-07,1.2438737789355795e-06,2.2717307240583311e-07,-1.44466354308189e-08,-6.318661119460964e-08,2.191538731993788e-07,7.331888329106783e-07,-8.890171853800994e-08,1.3882834590132795e-06,1.436918221019151e-07,-1.079039616596479e-07,5.0635870670786e-07,1.867212553123628e-07
1.4877700497274637e-07,6.370084849606079e-07,4.6165790371158304e-07,1.962716726832061e-07,5.719064309538613e-08,-2.6241951934156163e-07,1.2432156719473121e-06,2.1593404300105628e-07,-8.69009812188835e-09,-7.930840787648077e-08,1.8728842778923983e-07,7.110074936622453e-07,-1.1391160521434382e-07,1.3932695784811262e-06,1.5172357281498035e-07,-1.5357520220315444e-07,4.899769390638852e-07,1.6018983388635426e-07
1.602630041243028e-07,6.240312461434757e-07,4.4164809526767344e-07,1.6179368341743746e-07,4.855547442762125e-08,-2.490411836770083e-07,1.2600987115445923e-06,2.1078705518344437e-07,7.509793647525913e-09,-9.673226393122283e-08,1.5459541340296068e-07,6.843083250199069e-07,-1.2925156474013274e-07,1.401786091894896e-06,1.6960649841702995e-07,-1.96027386206185e-07,4.756731296801385e-07,1.4295020730972422e-07
1.7969860882795102e-07,6.138051428551302e-07,4.1924239994984e-07,1.3582209340276052e-07,3.741500171321492e-08,-2.0449915414613495e-07,1.2941966247005414e-06,2.1163700736587827e-07,3.4336872662529594e-08,-1.1850018713282466e-07,1.242887835539324e-07,6.506877686439788e-07,-1.2948340526331587e-07,1.410281195486897e-06,1.9610485400452802e-07,-2.3878278350162695e-07,4.6136602568073745e-07,1.3210010436379475e-07
2.0226228114691548e-07,6.049511188126157e-07,3.9461272167930013e-07,1.179948488620825e-07,2.2251130498276846e-08,-1.8821962343429326e-07,1.3458377298294192e-06,2.1779405218715243e-07,7.024370262432544e-08,-1.462572901261474e-07,9.823803027755762e-08,6.075566038385977e-07,-1.1223916166250481e-07,1.4170188571201265e-06,2.2950894869469867e-07,-2.836210054107702e-07,4.4600110232244895e-07,1.256243144568656e-07
2.2246980341898964e-07,5.969348504742649e-07,3.702101565698317e-07,1.0516205737032984e-07,3.4504836038512964e-09,-1.4285161567869324e-07,1.411949280742335e-06,2.2819860508705674e-07,1.1206021849803055e-07,-1.7956517316190391e-07,7.961335738959501e-08,5.608666272934278e-07,-7.890896441328748e-08,1.4230717720565783e-06,2.672194959234195e-07,-3.301907133071111e-07,4.2969492497291e-07,1.2222541779190699e-07
2.3487175927039117e-07,5.931878458684536e-07,3.483293630500112e-07,9.638145160772204e-08,-1.6711369517352833e-08,-6.98761716236744e-08,1.4851944729932222e-06,2.407577979645985e-07,1.5549502193894224e-07,-2.1502012546828863e-07,6.957265974855196e-08,5.165976500231011e-07,-3.422737862834556e-08,1.431212349661273e-06,3.042079950164287e-07,-3.7636900635473086e-07,4.133102358694508e-07,1.2029387605981038e-07
2.3510627899286152e-07,5.918334919266186e-07,3.3170301845756447e-07,8.985130042496504e-08,-3.4544628652716756e-08,1.7171888491821072e-08,1.5559008977003726e-06,2.525621130823588e-07,1.955140499630055e-07,-2.508484820150292e-07,6.720974103624024e-08,4.721074641834316e-07,1.589004765541983e-08,1.4443551056328511e-06,3.3476871256199875e-07,-4.171967898371013e-07,3.9791508751207686e-07,1.1911110115013776e-07
2.2213695953995733e-07,5.983515040836102e-07,3.2281306264906865e-07,8.406044669509377e-08,-4.541883433780955e-08,6.749077880776128e-08,1.6154584611392076e-06,2.6166762722086316e-07,2.2802074726749696e-07,-2.8190455989249217e-07,6.973235268497883e-08,4.80489870557368e-07,6.626532346635974e-08,1.465686883760732e-06,3.5497846325825463e-07,-4.462309959741553e-07,3.852983319167027e-07,1.1886963773814256e-07
1.9901585464834452e-07,6.246228785292832e-07,3.2368929707763676e-07,7.70495686409622e-08,-4.495169485876842e-08,8.870467194684653e-08,1.6573974815596079e-06,2.6837336168885143e-07,2.516565057719071e-07,-3.0347373325659375e-07,7.426966753844111e-08,4.947315565049997e-07,1.1413712261103324e-07,1.49758831735952e-06,3.6422674152462284e-07,-4.572174536587291e-07,3.773659837149514e-07,1.2118118289932895e-07
1.7192308674778667e-07,6.658266543326355e-07,3.353879208994419e-07,6.996395384358102e-08,-3.087891016137522e-08,1.113131842202242e-07,1.6793197945092258e-06,2.747038984945514e-07,2.6780233622839937e-07,-3.133229993055068e-07,7.927209214424075e-08,5.329432465370875e-07,1.5865492793807249e-07,1.5408750729045445e-06,3.6498646738897747e-07,-4.485115353331708e-07,3.753420136398584e-07,1.2779189904094723e-07
1.4825357536939066e-07,7.044668965910572e-07,3.5765152767536474e-07,6.68495341710785e-08,-3.372953580134905e-09,1.2041368403247538e-07,1.6883321253727618e-06,2.8342940451098263e-07,2.794956590109797e-07,-3.0993694049624934e-07,8.417411884731752e-08,5.676928065435402e-07,1.9982780697086624e-07,1.5926000384054045e-06,3.624451469878925e-07,-4.194524923929097e-07,3.79944275032269e-07,1.4080268657822976e-07
1.35523904162343e-07,7.189487594063081e-07,3.900055502687037e-07,6.955639076178965e-08,3.5802424671054515e-08,6.77268086811473e-08,1.6917336519946967e-06,2.9742508504800755e-07,2.911798761660353e-07,-2.9380343866269764e-07,9.039310356885789e-08,6.301314265961479e-07,2.3925394318315365e-07,1.6540671619849949e-06,3.632446519109895e-07,-3.7223033791992304e-07,3.913264550338427e-07,1.6141112713931783e-07
1.40028587138689e-07,7.228761209228382e-07,4.319916489213359e-07,8.09496957019154e-08,8.301345270851711e-08,1.5611528673754057e-08,1.6987162056338428e-06,3.1874650971066033e-07,3.0654347339915325e-07,-2.6613440522571634e-07,1.0011300140645597e-07,6.890866455957781e-07,2.796411390960538e-07,1.72572232908291e-06,3.72940364350029e-07,-3.109174338675722e-07,4.088084760144837e-07,1.897884214690196e-07
1.6475611767636152e-07,7.398732372253926e-07,4.825615137329138e-07,1.0183636697267429e-07,1.3560232757759647e-07,-9.15639294776348e-09,1.7166641308508612e-06,3.4756726977465507e-07,3.275745536164646e-07,-2.2902602140749283e-07,1.1568028614113624e-07,7.353882122792021e-07,3.2364823204661414e-07,1.808357952194391e-06,3.9434886945924867e-07,-2.4097309853322273e-07,4.306295781122722e-07,2.2502695283601745e-07
2.084628122896379e-07,7.587381842416934e-07,5.394097697320532e-07,1.3181588538578007e-07,1.9000579504433755e-07,-1.212694491536587e-08,1.7517840923007257e-06,3.8216844407695676e-07,3.5448907509135523e-07,-1.847284357290558e-07,1.3894875007353366e-07,7.736710496214626e-07,3.7288121116682514e-07,1.8984284369068959e-06,4.28195369822557e-07,-1.6789729097502633e-07,4.5522683687239856e-07,2.6571141118027376e-07
2.664474745347227e-07,8.041014428119495e-07,5.998000924709796e-07,1.7003873403035482e-07,2.42631572516724e-07,3.0375712751972684e-09,1.804038631563187e-06,4.1983892098746596e-07,3.8589251991008047e-07,-1.3649603544440325e-07,1.7042445024605265e-07,8.043991346676732e-07,4.2723378640913964e-07,1.9903263938753198e-06,4.732999026148819e-07,-9.502014536646993e-08,4.815237718704899e-07,3.102125338793655e-07
3.3156516026837256e-07,8.683531459109331e-07,6.60772834983073e-07,2.1183343828047367e-07,2.905252626676418e-07,2.675603962269847e-08,1.8705923173748533e-06,4.573204011179529e-07,4.1951462579727746e-07,-8.749892105545976e-08,2.09313018990948e-07,8.296743220254026e-07,4.842596538861796e-07,2.079395563678297e-06,5.263067208632124e-07,-2.5170629999231598e-08,5.082902826920994e-07,3.5610857072804e-07
3.9511268523561904e-07,9.227087431624323e-07,7.185328026504025e-07,2.539797129609249e-07,3.3131641325164204e-07,5.66911644961678e-08,1.9464769605377005e-06,4.90993927439368e-07,4.522294002411611e-07,-4.177662052876224e-08,2.5278332391450346e-07,8.52550901175315e-07,5.402515733744935e-07,2.160254591491549e-06,5.820724033181246e-07,3.9308546821493176e-08,5.335619454219532e-07,3.997403424203615e-07
4.4822443992307176e-07,9.816565257611205e-07,7.696687244926915e-07,2.925641059351922e-07,3.6414263116021384e-07,8.712774550798133e-08,2.0230373453234893e-06,5.177249094891353e-07,4.809030515998021e-07,-2.786838341647674e-09,2.9683834875319196e-07,8.75264885789687e-07,5.920280404173906e-07,2.2311922025691013e-06,6.359965494853952e-07,9.642824292490185e-08,5.559671631808323e-07,4.379206254322722e-07
4.841458721145327e-07,1.035958385587883e-06,8.120901595037547e-07,3.248752373590081e-07,3.8790830603373397e-07,1.144555679855608e-07,2.0927964929273034e-06,5.361122130045241e-07,5.034408623516137e-07,2.835851544445633e-08,3.386194391789931e-07,8.992436305977673e-07,6.38190881002287e-07,2.2924210423145725e-06,6.863742082235868e-07,1.4523888210918616e-07,5.753583487467317e-07,4.688478850127864e-07
4.993193262116075e-07,1.0754379237274037e-06,8.451387502790592e-07,3.4987452664334916e-07,4.039262556267103e-07,1.382863677223633e-07,2.1504243658561906e-06,5.465057339989982e-07,5.203621859279619e-07,5.2605528194084176e-08,3.7647919703356203e-07,9.252053765778753e-07,6.785289087407809e-07,2.3452176395984243e-06,7.326345589273706e-07,1.8547281246639901e-07,5.921643146130855e-07,4.931070999319143e-07
4.950009191116583e-07,1.1141296386120952e-06,8.704890227644909e-07,3.679293901041861e-07,4.146123105196256e-07,1.562869204329795e-07,2.1942226708658133e-06,5.514520505190402e-07,5.327591567266292e-07,7.123465992003495e-08,4.100472841520818e-07,9.497518763477499e-07,7.135667375361703e-07,2.390694294404275e-06,7.759031974678128e-07,2.1788898072212715e-07,6.081756740701126e-07,5.119827149424075e-07
4.7572463735489575e-07,1.1480418923988407e-06,8.894727233665915e-07,3.811575257968594e-07,4.2402662837874026e-07,1.6985519782622665e-07,2.225592178491139e-06,5.53609470117494e-07,5.427808397963329e-07,8.745843033552895e-08,4.413278523235078e-07,9.723871422645461e-07,7.451182606907801e-07,2.433272110839506e-06,8.192301036067072e-07,2.45425792662631e-07,6.252575706495752e-07,5.284737153133323e-07
4.4908395598448257e-07,1.1688596161690822e-06,9.051306769499321e-07,3.9366409078696376e-07,4.354888012428965e-07,1.8254051953321526e-07,2.2501229113641772e-06,5.56873323954803e-07,5.539617252561869e-07,1.0447811337786619e-07,4.7294431433011233e-07,9.932207853854798e-07,7.762279839990696e-07,2.4775154018023544e-06,8.659245092528045e-07,2.7265440845209584e-07,6.452628797991145e-07,5.466070382207371e-07
4.2498619958202543e-07,1.190109515882216e-06,9.206256925330704e-07,4.0941420272970767e-07,4.524998413837858e-07,1.9682338884286999e-07,2.275860611877184e-06,5.64954910427887e-07,5.691890707494121e-07,1.2445816836519425e-07,5.076437143888053e-07,1.0127884598279455e-06,8.096841325137077e-07,2.5250656748013164e-06,9.176636227014533e-07,3.033556308306281e-07,6.695360972841478e-07,5.687015283962295e-07
4.087182425084403e-07,1.2103408147297328e-06,9.374554795868501e-07,4.3218350486234037e-07,4.7679101301114345e-07,2.152382417074699e-07,2.3094797368811597e-06,5.797581217641149e-07,5.899942302059557e-07,1.5001892560254963e-07,5.421492662577665e-07,1.0306077960965345e-06,8.465760313770814e-07,2.577070122785168e-06,9.72771166834833e-07,3.395309485379878e-07,6.977206675290403e-07,5.954054578347716e-07
4.026730550815578e-07,1.2262007356695484e-06,9.566016255103583e-07,4.605762048094858e-07,5.060699183041382e-07,2.38012240723159e-07,2.353970604572778e-06,6.016375088502968e-07,6.169264377205019e-07,1.8048207195191064e-07,5.769519150354714e-07,1.045165843394594e-06,8.881130956788663e-07,2.631665323773403e-06,1.0283908962518104e-06,3.805462426356524e-07,7.284181373066176e-07,6.252045111957215e-07
4.092750563199533e-07,1.2430354378261632e-06,9.77768224528928e-07,4.928990733183785e-07,5.385986359708132e-07,2.6469155255603916e-07,2.4103475997176597e-06,6.285134361824484e-07,6.482014194930158e-07,2.130752351248505e-07,6.114801381022994e-07,1.0567843503184924e-06,9.34857653471081e-07,2.683292920314476e-06,1.0800657452705813e-06,4.2404060708246883e-07,7.595390833608984e-07,6.566567841515009e-07
4.2673800524371995e-07,1.2589386184354362e-06,9.987856039046113e-07,5.27376359838524e-07,5.806770867060978e-07,2.938218214427354e-07,2.477526994208241e-06,6.580352891882212e-07,6.767341446327202e-07,2.399846161367136e-07,6.449400417008563e-07,1.0643808399870352e-06,9.852249204969096e-07,2.7256033074678125e-06,1.125020798638612e-06,4.658025260810078e-07,7.855944340927051e-07,6.853708080087818e-07
4.5040278023134406e-07,1.2733856226831682e-06,1.0172133375843557e-06,5.661965350788124e-07,6.22391024049135e-07,3.2346297712833027e-07,2.5497316780852592e-06,6.883027085705399e-07,7.01922542234702e-07,2.5993084645316794e-07,6.76126863619138e-07,1.0680220829257204e-06,1.0363409812768367e-06,2.7524483424231738e-06,1.1534931971772281e-06,5.012860166256761e-07,8.053224188053743e-07,7.079015021811856e-07
4.7361099174494744e-07,1.2853060675891335e-06,1.0311080553698032e-06,6.063477255201494e-07,6.603955302533907e-07,3.506339587113412e-07,2.6194403270121983e-06,7.157859195918466e-07,7.214473964150112e-07,2.7141888388391695e-07,7.038903865859036e-07,1.0693843410225935e-06,1.084279999708366e-06,2.762430748958484e-06,1.1647416460578764e-06,5.276875017857305e-07,8.176358938270968e-07,7.220370597769464e-07
4.897104715040142e-07,1.299114039149459e-06,1.0392837457213457e-06,6.443912919654916e-07,6.917117235636847e-07,3.7399431814858395e-07,2.682626035341121e-06,7.37838273913416e-07,7.324999029399961e-07,2.7377002031695853e-07,7.273655020476809e-07,1.0671795789014853e-06,1.1242911846113208e-06,2.7588122944742733e-06,1.1601020121966408e-06,5.437032430361967e-07,8.221964600302216e-07,7.258243868733099e-07
4.883518249075717e-07,1.3106051310509783e-06,1.0396037321308568e-06,6.713139790500665e-07,7.163564064884495e-07,3.9150729038772595e-07,2.732483902012586e-06,7.525858060355504e-07,7.349496092558097e-07,2.6731966775719626e-07,7.449103338886328e-07,1.065686799455254e-06,1.1512716625472303e-06,2.7463798169681397e-06,1.1464655716426317e-06,5.52912372819307e-07,8.209879931817299e-07,7.210757289091935e-07
4.656556699920362e-07,1.3082693991349108e-06,1.0294677009533063e-06,6.842123821999353e-07,7.363978850678788e-07,4.050534791156021e-07,2.7639374512378578e-06,7.589208587013695e-07,7.282677768077918e-07,2.51797110526385e-07,7.56541094746527e-07,1.0656259858461272e-06,1.1619835031477014e-06,2.733072830822126e-06,1.1380398778180166e-06,5.610754786086535e-07,8.168070945042659e-07,7.086048223825288e-07
4.401408585194584e-07,1.3028731854735957e-06,1.015027014761514e-06,6.913294592841818e-07,7.605438957599237e-07,4.098022006959076e-07,2.7769546243649852e-06,7.596865454154217e-07,7.151998043204959e-07,2.3408675422341482e-07,7.614420965943036e-07,1.0691946631012845e-06,1.1548538090128622e-06,2.7257725136508503e-06,1.1380910068983815e-06,5.783047589913546e-07,8.145293529408028e-07,6.94144789033865e-07
4.137660854300203e-07,1.2999791354332072e-06,1.001879281717029e-06,6.937001182155373e-07,8.157319005582627e-07,4.0836065999796834e-07,2.780788253407728e-06,7.715252512990428e-07,7.094055559410957e-07,2.1935199179209602e-07,7.614028197967862e-07,1.0819028320316287e-06,1.1390105767800505e-06,2.731776081499669e-06,1.1711871481534418e-06,6.157734631595026e-07,8.198712584280789e-07,6.864304150503578e-07
4.175936142364687e-07,1.3152479898995272e-06,1.009931749519666e-06,7.294109626376891e-07,8.973496832124831e-07,4.049862922599035e-07,2.781847204203317e-06,8.09249183265228e-07,7.256259420936136e-07,2.2430096390479468e-07,7.599491520438077e-07,1.09548415414774e-06,1.121332605126433e-06,2.756815406277937e-06,1.2298820415245392e-06,6.787666133741028e-07,8.381803891106629e-07,6.857082282483055e-07
4.857892799706547e-07,1.3677393209824576e-06,1.0519545111195374e-06,7.98779841754233e-07,9.786595326359754e-07,4.0589237725353913e-07,2.7936671670998627e-06,8.68306910302024e-07,7.631744278052113e-07,2.6028908544250793e-07,7.625262981878516e-07,1.1182134328478151e-06,1.1121859935254465e-06,2.8016587228385526e-06,1.2779493163984323e-06,7.729338531801384e-07,8.707972266159701e-07,6.973337506527887e-07
5.459688269452881e-07,1.4220228027081905e-06,1.072498108159907e-06,8.605563648274325e-07,1.0399551369407327e-06,4.181435060994414e-07,2.83229027739739e-06,9.191017112888649e-07,8.003269959786828e-07,2.861298758235077e-07,7.737700605099706e-07,1.155697825161821e-06,1.1485403471387963e-06,2.857594851583842e-06,1.3021908964299948e-06,8.987968190798669e-07,9.174428092739316e-07,7.23895776150387e-07
6.086287380166313e-07,1.4656447192160115e-06,1.0875229006511803e-06,8.944167899870265e-07,1.101688414942367e-06,4.4448108734975493e-07,2.9030301993150026e-06,9.460416963722279e-07,8.269592478329461e-07,3.140612677355527e-07,7.960463980500828e-07,1.2076861142045336e-06,1.1934202853063687e-06,2.923651983359379e-06,1.3214020507972672e-06,1.0486442751518135e-06,9.748689133069262e-07,7.60404872553283e-07
6.706478465741154e-07,1.4942190597457011e-06,1.1529610043648533e-06,9.261419751444015e-07,1.1574660283814591e-06,4.814878401378549e-07,3.0056826195251825e-06,9.569719983419872e-07,8.340039927178912e-07,3.8599081238753336e-07,8.292864566933784e-07,1.2714567162192159e-06,1.2308371259815988e-06,3.0065083632142658e-06,1.3747473262855224e-06,1.1983016652247623e-06,1.0362254246812856e-06,7.868543539651239e-07
7.361966765421606e-07,1.5294231786907231e-06,1.2173399575814057e-06,9.433709076262709e-07,1.1830535890549882e-06,5.185009362791955e-07,3.1259327202498642e-06,1.0042569178876598e-06,8.636643641424581e-07,4.7313027748113843e-07,8.678303290409992e-07,1.3457020029764724e-06,1.307972678585351e-06,3.0690003607603834e-06,1.397109572532359e-06,1.3190150924110101e-06,1.0941129459491086e-06,7.845434083976532e-07
8.167537618991525e-07,1.59293075484242e-06,1.23087015450837e-06,9.659457716959496e-07,1.2442906062904483e-06,5.458770246924572e-07,3.241997924268082e-06,1.0281903268645985e-06,8.630198630638073e-07,5.460560169722209e-07,9.054381330640952e-07,1.4164913547094368e-06,1.410595445768593e-06,3.0755226971964694e-06,1.3800839088594695e-06,1.3535508372014637e-06,1.1416693661935674e-06,7.470896388634729e-07
8.839334262396672e-07,1.6510196251889774e-06,1.201970742596681e-06,9.878581284748526e-07,1.2915767507171766e-06,5.54890473028158e-07,3.3125358688969254e-06,1.0220261144507666e-06,8.396337572610319e-07,5.845353284459338e-07,9.350414728573298e-07,1.469379775244618e-06,1.4844823471822313e-06,3.049262215935861e-06,1.366568075147363e-06,1.3657003059310163e-06,1.1734018845789003e-06,7.046567018708062e-07
9.190292096717559e-07,1.680475786805137e-06,1.1452078566927867e-06,9.994520786912057e-07,1.304000339527876e-06,5.41261679804909e-07,3.2893037162715206e-06,1.020778819432661e-06,8.335144520759636e-07,6.183532025605013e-07,9.29145739929709e-07,1.5009708836802476e-06,1.4902403994732655e-06,3.0036872932441413e-06,1.3422025809629999e-06,1.372198380623019e-06,1.187434056239111e-06,6.741139397860618e-07
9.457606615566805e-07,1.6899002588233643e-06,1.1041243933128605e-06,1.0016992318879401e-06,1.3293480491298915e-06,5.054308379000802e-07,3.2421880343641323e-06,1.0193134639153455e-06,8.249504001490129e-07,6.580519394214655e-07,9.184646300632278e-07,1.5093755119929379e-06,1.4573510494561717e-06,3.0045883889885415e-06,1.3267159410848613e-06,1.412938862081575e-06,1.1846686954075225e-06,6.520038409314387e-07
9.715794547103696e-07,1.7052297018324587e-06,1.0659472676290269e-06,9.914396288176055e-07,1.3445796732509262e-06,4.5150154845831353e-07,3.2272484036799177e-06,1.0007134924580219e-06,8.094181666110814e-07,6.745238750629427e-07,9.18739057926397e-07,1.483300714955324e-06,1.4146355530852993e-06,3.0380338322363725e-06,1.339443497624758e-06,1.4459585509282922e-06,1.16730091737161e-06,6.520827741143148e-07
9.616875533010384e-07,1.7105657840685192e-06,1.0495163082042727e-06,9.670103013623992e-07,1.3557339635496954e-06,3.839015895018804e-07,3.239745737160496e-06,9.946477230504262e-07,8.035503426287198e-07,6.729871978629896e-07,8.875366167109425e-07,1.4387057934788735e-06,1.3947077750175049e-06,3.0289841201583246e-06,1.3263521279094705e-06,1.458542831027505e-06,1.137357501360434e-06,6.668512820474826e-07
9.772251557873616e-07,1.7421236677528662e-06,1.0475788445422964e-06,9.495237198619714e-07,1.4037016260456023e-06,3.062655021722452e-07,3.2168162358171907e-06,9.880923068028904e-07,8.074987774402499e-07,6.645713891045263e-07,8.299140589824834e-07,1.382093371097261e-06,1.387451580829462e-06,2.9935614667779445e-06,1.2773559517501421e-06,1.3757581587103098e-06,1.0964309660715687e-06,6.493340588160211e-07
9.4939846806776e-07,1.7733782944439313e-06,1.0405111416509238e-06,9.457018806617295e-07,1.4336499970021668e-06,2.2153393461875363e-07,3.121590241670295e-06,9.577499810325872e-07,7.968406986977789e-07,6.529037845734397e-07,7.658656877399411e-07,1.3106273933053795e-06,1.3612068553805647e-06,2.910313447638687e-06,1.182382592461728e-06,1.2653749492750073e-06,1.0476827545466808e-06,6.00703431213284e-07
8.802028583105474e-07,1.7638625979985817e-06,9.99239493885669e-07,9.393053812850871e-07,1.4492522114029183e-06,1.3860736154195344e-07,3.0269240422456022e-06,9.161354313863391e-07,7.666088434585072e-07,6.376951946426414e-07,6.994092709809422e-07,1.2354437864484123e-06,1.2963796574199843e-06,2.797993555749196e-06,1.1137159360977965e-06,1.138331702598921e-06,9.980469171654993e-07,5.428054483477303e-07
8.266901019216339e-07,1.716943967599685e-06,9.631834911484363e-07,9.224730819131911e-07,1.4228217126222062e-06,6.800444443787658e-08,2.9137983960335197e-06,8.802782929340112e-07,7.369373284432252e-07,6.44961015901254e-07,6.262756676712473e-07,1.1615046641643915e-06,1.1953224247790298e-06,2.6801553234206467e-06,1.0376603356128193e-06,1.000576877363901e-06,9.54416203570607e-07,4.76738722016774e-07
7.896512190938555e-07,1.6807206236822715e-06,9.227975072767343e-07,9.058421087671412e-07,1.3879754964973567e-06,1.4397510224236412e-08,2.792948860652527e-06,8.556562746016077e-07,6.986054138929737e-07,7.09173996667778e-07,5.493031649193409e-07,1.1108437266126662e-06,1.101577957264091e-06,2.5740009295238057e-06,9.41815988420494e-07,9.140616177980767e-07,9.191408866782806e-07,4.028785889574755e-07
7.96196040030155e-07,1.641912295046886e-06,8.53565762494582e-07,8.915156949247521e-07,1.3769672068330996e-06,-2.186684478389569e-08,2.7129021967646842e-06,7.972824324229109e-07,6.39340411325918e-07,7.886178994305597e-07,4.72577500060542e-07,1.060701270036504e-06,1.0166419857158503e-06,2.5110330781381923e-06,8.718541221852643e-07,8.672691736874844e-07,8.883421824498284e-07,3.5497813609281145e-07
8.185477102772053e-07,1.6406573271241955e-06,7.951696264634175e-07,8.86149431027798e-07,1.3448847731055678e-06,-4.5573251667656414e-08,2.6546310691642574e-06,7.485604601686188e-07,5.767229993797943e-07,8.513237914857629e-07,3.987472786754344e-07,1.0374286281263482e-06,9.582607868826592e-07,2.4560707183243894e-06,8.263783026517117e-07,8.483872121029287e-07,8.572708323997774e-07,3.3385683545516714e-07
8.330258079700449e-07,1.649898950301255e-06,7.448537184394934e-07,8.828033428786276e-07,1.3248915237941284e-06,-6.249062390802551e-08,2.6135036481291286e-06,7.25655987981342e-07,5.404390992378922e-07,8.87794078722583e-07,3.3034151717233163e-07,1.0023625023048085e-06,9.233582644239505e-07,2.3998771987033624e-06,8.092589002972195e-07,8.54572072559675e-07,8.232539168014748e-07,3.179785253263323e-07
8.370490989194128e-07,1.649973414044285e-06,6.961620056488133e-07,8.644324226111915e-07,1.2973354240367022e-06,-7.382186229536632e-08,2.581789336930879e-06,6.949111530137261e-07,5.195495987421225e-07,9.076104397197682e-07,2.661931498464967e-07,9.354966039159868e-07,8.994324124145847e-07,2.3635592445370025e-06,7.909765539734939e-07,8.703094702306492e-07,7.860340599952679e-07,3.2153560117619284e-07
8.360684899699347e-07,1.650574915250466e-06,6.543894975349236e-07,8.496169093094375e-07,1.2674322437544915e-06,-8.065478024443223e-08,2.545186201982255e-06,6.666468790118137e-07,4.945329520607284e-07,9.449171642412956e-07,2.126870165739507e-07,9.483575071535828e-07,8.710718134779132e-07,2.3294243784446514e-06,7.58246190705596e-07,8.930876493718692e-07,7.479097245024258e-07,3.1448696013736713e-07
8.715614485426949e-07,1.657755957565407e-06,6.069584346656891e-07,8.340064972959773e-07,1.2407223187264524e-06,-7.946262509424393e-08,2.5071119372468183e-06,6.395400121119901e-07,4.6553203399587324e-07,1.0026376346050738e-06,1.626993420008936e-07,9.556102483239398e-07,8.227748137017029e-07,2.292738139788711e-06,7.278849938989286e-07,9.204874592781636e-07,7.139810718582752e-07,3.0083638875960116e-07
9.013191950283046e-07,1.6504578752071814e-06,5.536914979953418e-07,8.188798246996269e-07,1.1967336607352992e-06,-7.714340176848483e-08,2.476553842194299e-06,6.099698230985045e-07,4.3465972026722015e-07,1.0504187416676964e-06,1.153789600979326e-07,9.58656529034862e-07,7.287228579679146e-07,2.250396693529741e-06,7.202951212662319e-07,9.476569363018075e-07,6.859154128456634e-07,2.99369181094718e-07
9.174134146746561e-07,1.6314693068959582e-06,5.069232931787526e-07,8.103033698728908e-07,1.1524037919019138e-06,-7.16924695901534e-08,2.4488340499761554e-06,6.098514824994361e-07,4.128562816618469e-07,1.0651461219657494e-06,7.193467698363263e-08,9.299675637111553e-07,6.341736160876033e-07,2.1902343509726163e-06,7.230970011274742e-07,9.703053297668073e-07,6.708863757981486e-07,3.0519704847892555e-07
9.390057489067869e-07,1.5889052492318014e-06,4.6566796569995546e-07,7.939340275269144e-07,1.1217285383520038e-06,-5.6865325577222316e-08,2.430136101473589e-06,6.17177613814779e-07,3.9681663667646534e-07,1.045809781090107e-06,3.0528511368701975e-08,8.57700740021952e-07,5.545195460009092e-07,2.1101481719255324e-06,7.245467806769252e-07,9.843989799164721e-07,6.608450830077517e-07,3.227166445443659e-07
9.408734044791214e-07,1.539307199881603e-06,4.2144968014710406e-07,7.702333827894203e-07,1.0992733485972689e-06,-3.18171386086605e-08,2.427375502580199e-06,6.234798190058797e-07,3.8464705219190727e-07,1.0158066824150118e-06,-4.815424035403287e-09,7.804153097176849e-07,4.94195477222648e-07,2.0140288606049075e-06,7.11402804463696e-07,9.874342363496539e-07,6.515155318244575e-07,3.463864668466896e-07
9.405517901869441e-07,1.4962460059575213e-06,3.729267250276385e-07,7.464830633657586e-07,1.0792960036580233e-06,7.034438296742901e-09,2.4381312936553756e-06,6.292748060006255e-07,3.7617125925600737e-07,9.816403240280919e-07,-3.475608810952644e-08,7.45370227935506e-07,4.2198247253250695e-07,1.9031281620381986e-06,6.764739080999811e-07,9.788804122883835e-07,6.42537471296689e-07,3.676174546875616e-07
9.434116681406061e-07,1.4574613440472964e-06,3.1911875010323524e-07,7.365929219575981e-07,1.0586557125132052e-06,6.361474084411783e-08,2.470717059812398e-06,6.240118790943229e-07,3.6728203250444645e-07,9.578678568947713e-07,-5.712523825829888e-08,7.104109890367824e-07,3.3963863558609393e-07,1.7796689245599184e-06,6.027543051195825e-07,9.598799859144867e-07,6.301908554122703e-07,3.8005919852668507e-07
9.406733851335279e-07,1.4260138375312577e-06,2.5418669759223645e-07,7.353942171984178e-07,1.031825199597586e-06,1.2080931359138938e-07,2.51675085327091e-06,6.125190845052594e-07,3.5735466127908447e-07,9.462132655933143e-07,-7.120152708600231e-08,6.819220762913431e-07,2.618239940209883e-07,1.6551041682566933e-06,5.447345268964443e-07,9.320466097789174e-07,6.205839013304318e-07,3.924898454562549e-07
9.118135707209177e-07,1.4018345408603326e-06,1.8656420267510177e-07,7.297756481524666e-07,9.990618443589706e-07,1.6506893441989682e-07,2.582139290438755e-06,5.938957079175861e-07,3.4105036083924356e-07,9.435937384989053e-07,-7.66697081443034e-08,6.77530013700275e-07,2.2088796729057457e-07,1.5402212261193618e-06,5.068565602701205e-07,8.966789960530959e-07,6.021639359149295e-07,4.0161535384237416e-07
8.360820338552801e-07,1.3801294595933317e-06,1.2399501530116666e-07,7.155499039462522e-07,9.598149874510816e-07,1.6966035739513994e-07,2.611896051589633e-06,5.688707340081386e-07,3.1497356990341013e-07,9.519038148809421e-07,-7.112343181169147e-08,6.716069873343226e-07,2.098295024858558e-07,1.444196271891386e-06,4.254832023850968e-07,8.52453025090952e-07,5.705228194839128e-07,3.9694637355272716e-07
7.810118517951651e-07,1.3575118923553935e-06,6.7487772757801e-08,6.872357053953941e-07,9.12284872042291e-07,1.6051927960687961e-07,2.593604041987825e-06,5.405739416511048e-07,2.861051051000157e-07,9.483692819900125e-07,-5.659384465025809e-08,6.877846400896461e-07,1.940951121009422e-07,1.3750393613171358e-06,3.424744480650362e-07,8.033339638274515e-07,5.353387252128664e-07,3.843455725307234e-07
7.545334780940398e-07,1.3348637407710144e-06,3.277977409861721e-08,6.486283276222183e-07,8.572948313447227e-07,1.3884309682215686e-07,2.5961689465681554e-06,5.251418269909103e-07,2.4960938649614973e-07,9.425150500897241e-07,-3.943284668739138e-08,6.848218744259133e-07,1.7690174330448733e-07,1.33243436459533e-06,2.9880760887295614e-07,7.637405428555453e-07,5.026502295548063e-07,3.6628544219285205e-07
7.244961060737899e-07,1.3082756564938431e-06,2.1656987097683713e-08,6.037093721931264e-07,8.023942182719288e-07,1.312329941053665e-07,2.586614560144806e-06,5.308285000830902e-07,2.0517710448165622e-07,9.236703190121601e-07,-3.43109044937401e-08,6.843971748787635e-07,1.6165027558640013e-07,1.312463087189922e-06,2.6755173702768235e-07,7.342829916911245e-07,4.849944666942409e-07,3.4869802641385456e-07
6.993504395368891e-07,1.2611214653721894e-06,2.6636113953044385e-08,5.571976814974905e-07,7.596170228835954e-07,1.3066939830356288e-07,2.5813070935049887e-06,5.630320819910228e-07,1.5864904243912774e-07,9.08490231811859e-07,-3.984902852189596e-08,6.859354624221298e-07,1.0738963032109578e-07,1.3107451536197185e-06,2.9410882638970547e-07,7.172295713197098e-07,4.789856223498013e-07,3.3764109633547587e-07
6.200036989788448e-07,1.2053177399083027e-06,4.016779216774015e-08,5.105007209167602e-07,7.229742578162096e-07,6.951904360122977e-08,2.5119951222765094e-06,5.882562925497967e-07,1.1351582556477327e-07,8.882806489281815e-07,-7.881814706116278e-08,6.600771927395215e-07,1.1693620389028785e-07,1.32227015086285e-06,3.54941377467999e-07,7.170299642860351e-07,4.631168550968026e-07,3.4695766750855984e-07
5.772944746327444e-07,1.161355936369833e-06,6.362437622969331e-08,4.6680171306130813e-07,7.268127053289027e-07,9.063619587228476e-09,2.3889782620413865e-06,5.981907053755599e-07,8.74083165429051e-08,8.621767426782906e-07,-1.384315610564313e-07,6.271795963433751e-07,1.72175484407809e-07,1.3427297863897581e-06,3.884334230430036e-07,7.31702225656908e-07,4.4036492055416237e-07,3.7524208620795677e-07
5.39879025329238e-07,1.1238422848361848e-06,9.789458569311145e-08,4.5470832725802163e-07,7.133552222835513e-07,-4.261020732657271e-08,2.2922532734050057e-06,6.15450621003611e-07,9.574693921823206e-08,8.495048322103536e-07,-1.8811632886671353e-07,5.482284006067479e-07,2.238390830279085e-07,1.3623731157218036e-06,3.7665663963627174e-07,7.583260094546927e-07,4.055611600548595e-07,4.1886282956776515e-07
5.043094765367723e-07,1.0886933653924886e-06,1.3698297309837646e-07,4.48400702482682e-07,6.879826004530258e-07,-7.549481788967408e-08,2.178744316301782e-06,6.521290919277894e-07,9.199132271593543e-08,8.300119082315156e-07,-2.533458196674551e-07,4.5193143927305693e-07,2.781110451163122e-07,1.3785100508690224e-06,3.520600303482454e-07,7.833406292668993e-07,3.808096857637139e-07,4.811043649984656e-07
4.879725259639701e-07,1.0594073654656747e-06,1.7539574057831733e-07,4.3294495274562174e-07,7.310183982613932e-07,-6.862002661105948e-08,2.0641720682183557e-06,7.044195366788811e-07,8.988175879233829e-08,8.068091456971923e-07,-3.4554893889959693e-07,3.73630595373054e-07,2.833844214636959e-07,1.3891435401289823e-06,3.509704139356482e-07,7.987560179428299e-07,3.8458080804317124e-07,5.390624191320264e-07
4.846129015260749e-07,1.0383930017704281e-06,2.0070493395959324e-07,4.5414829206088343e-07,7.861520305333782e-07,-4.2718666544278166e-08,1.9916198560690435e-06,7.628520155490558e-07,1.2985631934085377e-07,7.753483522101278e-07,-4.0033880000426e-07,3.0530707140998543e-07,2.8535967862663583e-07,1.3958162390915285e-06,3.8721881561768664e-07,8.003166192758991e-07,3.952089656895699e-07,5.800526987522721e-07
5.032773980232141e-07,1.028814350165509e-06,2.0799357849803884e-07,4.998788289007679e-07,8.187074572995481e-07,-2.1162760558558227e-08,1.9067675725946948e-06,8.093477272799198e-07,1.7589102857043004e-07,7.285523736280059e-07,-4.434686093475511e-07,2.2002047410392655e-07,2.6492196229865073e-07,1.3982016376671447e-06,4.4727878384906143e-07,7.944321112861708e-07,4.161463253641985e-07,6.010393003941933e-07
5.168043012193276e-07,1.0284825087475905e-06,2.0398824919173408e-07,5.476340034301736e-07,8.656697042185953e-07,-3.298327247040543e-08,1.8344532481001769e-06,8.498654260206905e-07,2.0659815260945882e-07,6.821534947083027e-07,-4.5508460596867487e-07,2.547253789431509e-07,2.686533235830971e-07,1.3939474805557764e-06,5.056485596970364e-07,7.920336536329964e-07,4.2889561372010697e-07,6.120322107070177e-07
5.1868311836581e-07,1.0310539221231428e-06,2.1083457250271152e-07,5.911977634167604e-07,8.865342141215295e-07,-7.435394270489483e-08,1.7476492651170488e-06,8.801113356880026e-07,2.369287128831981e-07,6.205528085259922e-07,-4.5100889280096957e-07,2.8010207422369143e-07,2.813849142048587e-07,1.3896985301560001e-06,5.61112786022948e-07,8.023168796465675e-07,4.310260152553868e-07,6.127622667438787e-07
4.747316900948589e-07,1.0358787847589727e-06,2.682102677780045e-07,6.276067428079722e-07,8.829891835173926e-07,-1.1434871242114681e-07,1.6690943835741383e-06,9.043094760207588e-07,2.7301341473585493e-07,5.487480371800356e-07,-4.719529130771687e-07,2.5410081098464944e-07,3.009687948185188e-07,1.3898977398137505e-06,5.868589022808208e-07,8.526780587393669e-07,4.270732782298159e-07,6.51641781858313e-07
4.2597499701381454e-07,1.0422650927335443e-06,3.057667215505004e-07,6.578608848671163e-07,8.893026341460062e-07,-1.4006088680598402e-07,1.5439309670350927e-06,9.314563921490383e-07,3.023619474505457e-07,4.872487510989545e-07,-4.800076192925241e-07,2.53765249718205e-07,3.131813521787888e-07,1.3964128709271654e-06,5.995963450389307e-07,9.366047645341549e-07,3.939655043731935e-07,6.938760959080784e-07
3.9525790877060595e-07,1.0492848709166112e-06,3.2449643131162517e-07,6.8030171019441e-07,9.01748436903696e-07,-1.68011155970148e-07,1.3322941167711902e-06,9.496207532435931e-07,3.2802523686221065e-07,4.31212867227462e-07,-4.814028133705375e-07,2.778556708794954e-07,3.282546415900298e-07,1.4083439276369204e-06,5.92605475795176e-07,1.001433083158466e-06,3.507257124849095e-07,7.071258927819091e-07
3.669728560918295e-07,1.05901570450696e-06,3.3322313049459767e-07,6.818570423327504e-07,9.175937407135093e-07,-1.9347142832057057e-07,1.1761612478619945e-06,9.529280047365713e-07,3.1808835700991106e-07,3.8768582233935945e-07,-4.773734134276155e-07,3.1504046378267303e-07,3.3681140066086395e-07,1.4157747570021812e-06,5.628955616986729e-07,1.1218576278942677e-06,3.12453944269898e-07,7.081763347055746e-07
3.491917506937255e-07,1.066486723193471e-06,3.3327533760953915e-07,6.614649623077261e-07,9.272021364882623e-07,-2.1031051958377972e-07,1.076093745500199e-06,9.318871238185934e-07,2.69851293445612e-07,3.786596782792555e-07,-4.63687652165497e-07,3.6697211627541934e-07,3.3035219941656924e-07,1.4116787978832485e-06,5.601573845426394e-07,1.248447430473223e-06,2.7944755087239056e-07,7.041652268839957e-07
3.554402804804547e-07,1.069265028849076e-06,3.840516327347924e-07,6.039121602138335e-07,9.087403081476342e-07,-2.2474425148872388e-07,9.71187509286922e-07,9.121519787045606e-07,2.454828468743075e-07,3.5743843430247005e-07,-4.600379294622826e-07,4.0575773067010034e-07,3.382299389109939e-07,1.3917042222519953e-06,5.59876192065454e-07,1.346588195655496e-06,2.543160383722215e-07,7.079931568132145e-07
3.5460044954823916e-07,1.064286268914308e-06,4.541299411633315e-07,5.335604968250405e-07,8.400486413267008e-07,-2.3985704787888606e-07,8.387971933098879e-07,9.083555234402545e-07,2.433151338155458e-07,3.3299003990565626e-07,-4.713947190120343e-07,4.102318401185104e-07,3.39845454084227e-07,1.3554067088802224e-06,5.633410462494769e-07,1.411514574506988e-06,2.400846092965875e-07,7.288158253303643e-07
3.1115000905679283e-07,1.0495812214525215e-06,4.800784106314253e-07,4.902998120419205e-07,7.814039670258383e-07,-2.787162838854687e-07,6.677219845604312e-07,9.103962088250643e-07,2.3515144869824147e-07,3.1229353703783767e-07,-4.886006638001612e-07,4.316192987036481e-07,3.2978436515839864e-07,1.3036331142194581e-06,5.287070693845491e-07,1.4343198500748644e-06,2.0589837018665832e-07,7.465488907330334e-07
2.850578592456089e-07,1.023022631604776e-06,5.14024351514807e-07,4.874968611424889e-07,7.288042391735229e-07,-3.0730747247573193e-07,5.008595946585231e-07,9.222528598211506e-07,2.2511803382329567e-07,2.74235846298246e-07,-5.021985310784032e-07,4.5694313989608094e-07,3.2448993100639926e-07,1.2437630744708927e-06,4.6640076510763705e-07,1.424376807008514e-06,1.9506173531824978e-07,7.420836059201043e-07
2.9947740500104703e-07,9.87461924903188e-07,5.477815009795735e-07,4.6986198117809454e-07,6.299773102107166e-07,-3.2082815378517473e-07,4.2922103103287754e-07,8.935593174264265e-07,1.929596428860449e-07,2.3444592852272167e-07,-5.292757064638418e-07,4.598063472006949e-07,3.3421958160536524e-07,1.190930158680199e-06,4.49850465293601e-07,1.4068030061230626e-06,1.9647165586376469e-07,7.358669853706907e-07
3.137868331176293e-07,9.487681292904654e-07,5.627833414328179e-07,4.5174800081476645e-07,5.536452433877492e-07,-3.3970870579751273e-07,3.638454771173735e-07,8.715428181588215e-07,1.8448474623333908e-07,2.3087104106475884e-07,-5.623430317194917e-07,4.7040258988807725e-07,3.3248177820140957e-07,1.1507274388854553e-06,4.656844591817688e-07,1.4045928009865905e-06,1.8035260774634964e-07,7.17633214663027e-07
2.9814612461363723e-07,9.136392593784249e-07,5.835953044111425e-07,4.4400628822702235e-07,5.513750259234943e-07,-3.4998784210447837e-07,2.757748414572649e-07,8.819895394930662e-07,2.0992223676011125e-07,2.2492198774919245e-07,-5.995380907959409e-07,4.824762752446578e-07,3.193913258095375e-07,1.1514136203114192e-06,4.824517779442739e-07,1.4348850944768858e-06,1.4031737828152953e-07,7.252692481071443e-07
2.9786915932537693e-07,9.115587175372579e-07,6.202825378021611e-07,4.3167013174083153e-07,5.604474063508313e-07,-3.4380365622156563e-07,1.7450301903002809e-07,8.963980137503141e-07,2.328282994361247e-07,2.1555757124848255e-07,-6.182079856560384e-07,4.99108478107812e-07,3.22856199164841e-07,1.1909819442635702e-06,4.958646377546699e-07,1.547315371855831e-06,1.0944901004017956e-07,7.661308038263577e-07
3.0849280685689733e-07,9.252044099301172e-07,6.448491467769952e-07,4.0953829080247387e-07,5.609245734555346e-07,-3.724588289636026e-07,5.6833853496255336e-08,9.050999815325213e-07,2.652084706526568e-07,2.1191860767449163e-07,-6.501692025360907e-07,4.592675338490549e-07,3.145831856548309e-07,1.2464175722774518e-06,5.204562241301069e-07,1.6559311682145972e-06,6.652433578930542e-08,7.786006344768338e-07
3.325219827081042e-07,9.345854072732315e-07,6.513758767147758e-07,3.791378294575795e-07,5.699697664841404e-07,-3.847864301439035e-07,-6.450895374997795e-08,9.137975639568625e-07,2.962674997776687e-07,2.0860443059018247e-07,-6.900870064595074e-07,4.3929578342201143e-07,2.962814938350702e-07,1.3233375656676198e-06,5.283406404048053e-07,1.7351875087394089e-06,1.7344933182730123e-08,7.913912924776361e-07
3.6131574004874554e-07,9.399262726553457e-07,6.453564529735093e-07,3.462780715395869e-07,5.967935478622096e-07,-3.885581898583818e-07,-1.2806533868807613e-07,9.28904158301171e-07,3.106573502140298e-07,2.2413580347986139e-07,-7.197031217110121e-07,4.3973629701206064e-07,2.765980668950553e-07,1.4014726367650832e-06,5.518768954962893e-07,1.8980764021444041e-06,-1.1793490293110281e-08,7.965506192817452e-07
4.017443832047783e-07,9.848289323604244e-07,6.570400341987322e-07,2.8671274416225187e-07,6.663854015569193e-07,-3.632094507378285e-07,-1.3335186229899706e-07,9.765436893619519e-07,3.6077732550284536e-07,2.2417948522494828e-07,-7.4005549849242e-07,4.163707134009148e-07,2.4587264438719615e-07,1.4823503728903955e-06,6.168764481995079e-07,2.0734903346319175e-06,-2.728300347322789e-09,8.119250397121937e-07
4.36109130538487e-07,1.0414391366365524e-06,6.665207687362268e-07,2.0453777193523488e-07,7.164206515002664e-07,-3.464496201931566e-07,-1.4242286401996312e-07,1.024172649290659e-06,4.1524824517735737e-07,2.0938591884616195e-07,-7.572217392850323e-07,3.963822874442341e-07,2.5310605699219746e-07,1.5763396994982753e-06,6.552222766018601e-07,2.1860780501408988e-06,1.1309556057156027e-08,8.307803909984904e-07
4.7060791345712373e-07,1.084756739023235e-06,6.665629424057542e-07,1.4128832458050596e-07,7.615831455933682e-07,-3.529369110943363e-07,-1.324740422833813e-07,1.0735967750461834e-06,4.4926344223245345e-07,2.114161772368208e-07,-7.555205659256893e-07,3.7977343905373953e-07,2.290219743705297e-07,1.650741944264411e-06,6.750160644380407e-07,2.169172136372081e-06,2.1670677456904582e-09,8.018255084797951e-07
5.034852426889812e-07,1.1043013799153578e-06,6.59465830925871e-07,1.2431466810130712e-07,8.057634722189561e-07,-3.580021671377898e-07,-1.5850829339312468e-07,1.0944159042131731e-06,4.926776899544199e-07,2.0595090103394794e-07,-7.424578887401956e-07,3.58012230772666e-07,2.0608381783099703e-07,1.6936009257333129e-06,6.781334743602571e-07,2.1055731039517577e-06,-1.8475666601039007e-08,7.79748345633996e-07
5.442729194329759e-07,1.1036208078473359e-06,6.611904723456288e-07,1.1941097006040981e-07,8.111424592800951e-07,-3.8122358539419087e-07,-1.9923643539494421e-07,1.1193243091396181e-06,5.328580081839583e-07,1.944577519559919e-07,-7.432001743519818e-07,3.5940815781139335e-07,1.682621735925931e-07,1.668183941833372e-06,6.812774645576169e-07,2.0399712306175666e-06,-4.18865345856022e-08,7.830709670248924e-07
6.093886341205589e-07,1.0965975831475606e-06,7.013508180571646e-07,1.1079028144460231e-07,7.721662286059035e-07,-4.0463689047609e-07,-2.4657062172011135e-07,1.1501657951119986e-06,5.881939568704803e-07,1.8697854170850087e-07,-7.521822322908462e-07,4.129716965446795e-07,1.169141235861351e-07,1.6133351796288285e-06,6.728639409729224e-07,1.9221511038119177e-06,-6.078424701347459e-08,7.753525949702847e-07
6.817662592748004e-07,1.0778769064286361e-06,7.366160568988663e-07,9.924289379325e-08,7.198118669519565e-07,-4.062524707669162e-07,-2.951249042005525e-07,1.172444494073756e-06,6.411697543682622e-07,1.6964177549713744e-07,-7.656193506254095e-07,4.299602654079251e-07,3.150898903890661e-08,1.6102957687088196e-06,6.572142214726791e-07,1.8676879344224636e-06,-9.701682353544158e-08,7.709615052735541e-07
7.062450082248923e-07,1.065972968386089e-06,7.441016789027627e-07,8.136456639497784e-08,6.657234676108445e-07,-3.860769708630255e-07,-3.469651557089932e-07,1.193031360158364e-06,6.704818192547348e-07,9.519348628813661e-08,-7.853097810909568e-07,4.3294659619593286e-07,-3.723270558610796e-08,1.620532838253782e-06,6.171580650406137e-07,1.8603820417117042e-06,-1.0238493161685586e-07,7.858500946236845e-07
7.512994158121235e-07,1.054930655650259e-06,7.409930741799907e-07,2.8478238680168054e-08,6.265906240988944e-07,-3.8264074602491595e-07,-3.8439008231781343e-07,1.1827488086777904e-06,6.903354525342804e-07,2.5466557269959704e-08,-8.044660404053286e-07,4.4057261459579677e-07,-6.683501615936706e-08,1.5987148174368614e-06,5.306915687829454e-07,1.8459492050514654e-06,-1.0274589388496406e-07,7.740558654873461e-07
7.714136258008583e-07,1.0229307549998141e-06,7.314695547888373e-07,2.5982803967442944e-09,5.919614949657879e-07,-4.101141063786133e-07,-4.175147125215502e-07,1.166119725712395e-06,7.109447190713985e-07,-4.103624056967939e-08,-8.007149573966686e-07,4.2314086891320415e-07,-1.150553775121733e-07,1.5352831434785904e-06,4.570800574534127e-07,1.8445235931723147e-06,-1.1838352375294236e-07,7.608641184194252e-07
7.933206747622183e-07,9.884976581636266e-07,6.822165428573811e-07,-3.0155217613720065e-08,5.606046601523475e-07,-4.52555038702384e-07,-4.595172385482807e-07,1.1491864434074288e-06,7.424458468711103e-07,-1.1303478960503903e-07,-8.103906664266446e-07,4.135079040632449e-07,-1.4832181717315815e-07,1.4588371704730917e-06,4.051384848060804e-07,1.8241718629973021e-06,-1.6200441734094217e-07,7.470849166749929e-07
8.135431406916582e-07,9.460219065355806e-07,6.259726499918718e-07,-8.626708888611067e-08,5.363176046678573e-07,-5.002575451341879e-07,-5.014191677057431e-07,1.1277490291243085e-06,7.699988223377295e-07,-1.76257534132851e-07,-7.978398947569762e-07,4.190101962535991e-07,-1.5732436567976312e-07,1.3846944184823793e-06,3.7299497177580165e-07,1.8003614344603033e-06,-2.3371798918932527e-07,7.368874811520732e-07
8.085272461573728e-07,9.142851824522439e-07,5.810620379176573e-07,-1.2743844627461365e-07,5.194835938412164e-07,-5.308466978796322e-07,-5.31427429407364e-07,1.1290770415477808e-06,8.026446607695376e-07,-2.4393776148371826e-07,-7.870931290583041e-07,4.0329186561834776e-07,-1.3771475209560105e-07,1.3166089458563325e-06,3.6061085056639977e-07,1.7851180634059203e-06,-2.9197795323124067e-07,7.380495276897467e-07
8.356761912882606e-07,9.244965174915709e-07,5.618702112192385e-07,-1.6297496074354752e-07,5.103138821464092e-07,-5.257721233325907e-07,-5.336628794416902e-07,1.1311484433590557e-06,8.400193983417436e-07,-3.1698563490716855e-07,-7.98987433692484e-07,3.883297294665937e-07,-8.128665453564566e-08,1.2790677999750115e-06,3.6158731753394046e-07,1.7797234292039963e-06,-3.0958184840710185e-07,7.412691244647784e-07
8.879497203014895e-07,9.360303376864551e-07,5.533843684691002e-07,-1.8389179430368348e-07,5.072990064688508e-07,-5.036843924181815e-07,-5.126171509400521e-07,1.1255223491397618e-06,8.792395017438513e-07,-3.9568870267323954e-07,-8.425801546330992e-07,3.8074269568457953e-07,-5.0807373107517375e-08,1.2666085710798423e-06,3.629242533661979e-07,1.7892089735331395e-06,-3.0905216926446297e-07,7.357497661154308e-07
9.430132875511833e-07,9.43352329500758e-07,5.678920101369759e-07,-1.8934990655950509e-07,5.083960137867676e-07,-4.84387956690001e-07,-4.5660439382595935e-07,1.117342946458339e-06,9.112314675407296e-07,-4.7555467476166903e-07,-8.617721750498015e-07,3.715476063881223e-07,-9.274881779860421e-08,1.2584838695043964e-06,3.2920972785869266e-07,1.8012091005556538e-06,-3.157566354085893e-07,7.407336015617537e-07
9.803592122471539e-07,9.522765836678478e-07,5.907455572905199e-07,-1.911322292568319e-07,5.116833551015205e-07,-4.859044122919307e-07,-3.8063875439990414e-07,1.0966829382269065e-06,9.307064433088969e-07,-5.496760530674031e-07,-8.492154388838921e-07,3.6979090253088623e-07,-1.9603766708055933e-07,1.2437209420185697e-06,2.7285929223894344e-07,1.7972722778652207e-06,-3.3960617658974754e-07,7.52024698582293e-07
9.885608162514387e-07,9.768990785795852e-07,6.220951511131264e-07,-1.9324678516853584e-07,5.146162442605189e-07,-5.220921363580445e-07,-3.082924329967682e-07,1.0668752667197986e-06,9.178283509234779e-07,-6.180761393928469e-07,-8.362904021629898e-07,3.549747007933497e-07,-2.662930640600411e-07,1.2053827362340653e-06,1.883346701328232e-07,1.7845644655175274e-06,-3.315813543454179e-07,7.596277940826943e-07
9.69830900435581e-07,1.0183666117799286e-06,6.400173851532947e-07,-1.8287769865413662e-07,5.147543015311052e-07,-5.613031805236172e-07,-2.413851181161087e-07,1.0327753712775577e-06,8.839102159539562e-07,-6.788587198883532e-07,-8.462405873651787e-07,3.209451103075817e-07,-2.705913148298864e-07,1.1363398543217895e-06,7.918779297351415e-08,1.7714399771919268e-06,-3.1576607601424893e-07,7.668894181050778e-07
9.624414006426614e-07,1.0464209587106474e-06,6.318393927576912e-07,-1.7068668704271788e-07,5.088036185696118e-07,-5.753585284363211e-07,-1.901970544670273e-07,9.919537135495934e-07,8.81389976775794e-07,-7.33415330908489e-07,-8.831748875556907e-07,2.987809343629661e-07,-2.4759432083193534e-07,1.04304539714806e-06,-3.597537418884431e-08,1.751498048683812e-06,-2.7365366015988097e-07,7.678025514796916e-07
9.917339451995023e-07,1.0672782251039778e-06,6.07599207310527e-07,-1.6596759065665175e-07,4.936311124608872e-07,-6.42520955997449e-07,-1.4430922031831967e-07,9.410086691154577e-07,8.9238879713568e-07,-7.908461470971694e-07,-8.99214276413274e-07,2.6773788052596116e-07,-2.254195188932146e-07,9.358492910359866e-07,-1.3709749034047061e-07,1.7214289715112855e-06,-2.469109462915993e-07,7.62691826828082e-07
9.9939176268485e-07,1.080213978961767e-06,5.552892945389625e-07,-1.5603684722143835e-07,4.6815857321673836e-07,-7.111598591819604e-07,-1.0420759946640782e-07,8.869442987896302e-07,9.060980001446936e-07,-8.239136358565641e-07,-9.16732333319335e-07,2.7727893312649844e-07,-1.8100832187751504e-07,8.282648811567346e-07,-2.2306141065878442e-07,1.6740328747813396e-06,-2.4465863174793897e-07,7.543719340394101e-07
9.590296189512298e-07,1.0744771878059855e-06,4.5739302833939453e-07,-1.5139089161044435e-07,4.3316970119518565e-07,-7.529944392591575e-07,-6.959171169737857e-08,8.316238028281649e-07,8.974292581547709e-07,-8.516935592943129e-07,-9.272097685784493e-07,2.674715427095886e-07,-1.4267459106639568e-07,7.227620673068682e-07,-2.960923992687394e-07,1.614973221100813e-06,-2.5715692466257164e-07,7.439541849582033e-07
9.072893541662422e-07,1.0755341074651347e-06,3.872044012841121e-07,-1.495976029899156e-07,3.929103915641981e-07,-7.530035304283718e-07,-3.5625045135586186e-08,7.770160239823434e-07,8.784325866228375e-07,-8.671616261398486e-07,-9.216803410862473e-07,2.51219552717732e-07,-1.0661376320752306e-07,6.269139188461706e-07,-3.516862857421101e-07,1.535690221600099e-06,-2.928481665636832e-07,7.144697246000642e-07
8.806935689356469e-07,1.0726054806382096e-06,3.2387973426826243e-07,-1.353277103855128e-07,3.537880445962999e-07,-7.284651281028689e-07,6.704312240865199e-09,7.297194065579053e-07,8.522866877582875e-07,-8.760011906476313e-07,-9.09945905717927e-07,2.409612513560695e-07,-6.671862721184069e-08,5.382079822694831e-07,-3.896460534330379e-07,1.4308482305371266e-06,-3.26527847525289e-07,6.749195930762618e-07
8.561105442575101e-07,1.0385961668722283e-06,2.731412355493679e-07,-1.1610664797736851e-07,3.192795367461548e-07,-6.969621385495572e-07,1.0028425618411159e-07,6.915456712983285e-07,8.212972829053085e-07,-8.837037470584125e-07,-8.669013928365153e-07,2.2176264919247338e-07,-4.0237579869367116e-08,4.5762228630347245e-07,-4.269417140011126e-07,1.3081187316010166e-06,-3.515532533270348e-07,6.307086569451209e-07
8.318815204205674e-07,9.912646047949619e-07,2.3155600986153216e-07,-1.0395681985807962e-07,2.9521787268313173e-07,-6.50042359207425e-07,2.6113570612052914e-07,6.591048874131352e-07,8.083130800023003e-07,-8.79458114407525e-07,-8.072117168375952e-07,2.2966936964070796e-07,-1.1941277474667933e-08,4.36289272035889e-07,-4.5021295890698683e-07,1.1812946621825914e-06,-3.693233685906473e-07,5.690423969252768e-07
8.048366379398865e-07,9.586864297315229e-07,1.80076243643117e-07,-9.356306711692915e-08,2.814910106279898e-07,-5.962023356825515e-07,4.40602263137343e-07,6.379605452071639e-07,7.936023951668574e-07,-8.85693944137741e-07,-7.498200730502782e-07,2.988781694595963e-07,1.327008314628121e-08,4.62539233851378e-07,-4.587451638143379e-07,1.0545894393455178e-06,-3.8025136998397046e-07,5.030781449770381e-07
7.880534398578147e-07,9.219505873038346e-07,9.405268397021963e-08,-8.152260298044246e-08,2.746558669741068e-07,-5.349255239547531e-07,6.179715055948214e-07,6.263425624560496e-07,7.792634428556411e-07,-8.96471760108232e-07,-6.822839138921052e-07,3.6549908341863195e-07,4.952651800912947e-08,5.127344415186362e-07,-4.7268294705373536e-07,9.381362007528376e-07,-3.789376100311603e-07,4.4302321700974874e-07
8.029410879294576e-07,8.964895380408691e-07,-1.81462900913278e-08,-7.108340600228105e-08,2.7071321275647345e-07,-4.634982901764977e-07,7.883037697921911e-07,6.17608447486907e-07,7.643177828285792e-07,-9.029544098043941e-07,-6.589142936862117e-07,3.885226263280674e-07,7.008411212743705e-08,5.266569786650441e-07,-4.7082492931759343e-07,8.372262027488247e-07,-3.731758095669767e-07,3.84739144290341e-07
8.39458458949949e-07,8.829030006739488e-07,-1.3387304062071338e-07,-5.969956815182262e-08,2.6329083592179566e-07,-4.1350786573838407e-07,9.270503140791475e-07,6.094038958573011e-07,7.548008896590694e-07,-8.948865481053758e-07,-6.630749552295127e-07,3.7913448468761853e-07,6.733285151002252e-08,5.067939371624371e-07,-4.648951948427201e-07,7.429616283266331e-07,-3.436432194093023e-07,3.385061509105505e-07
8.681035182498853e-07,8.700030826491791e-07,-2.2965619939311051e-07,-4.740974758504852e-08,2.4851014087636424e-07,-3.797116489499339e-07,1.0262696756388416e-06,5.978687209369034e-07,7.497184816087557e-07,-8.880220090595199e-07,-6.750415637058e-07,3.231809890939262e-07,3.6293022790861474e-08,4.753996596421351e-07,-4.61112378593676e-07,6.647003358649598e-07,-3.092627021947623e-07,3.092419373312025e-07
8.907783652869377e-07,8.601029119974897e-07,-3.378718629537908e-07,-3.8299841499343734e-08,2.2602465305583376e-07,-3.615854660679101e-07,1.101934569296364e-06,5.807211506566651e-07,7.459290455539935e-07,-8.819994724712808e-07,-6.580248140121698e-07,2.9831843627430233e-07,-6.416546931095321e-09,4.3816903260437187e-07,-4.5528839933768235e-07,6.070488510342518e-07,-2.8976092308295495e-07,2.900847815037589e-07
8.912291886248947e-07,8.471744664483339e-07,-4.0012442325568453e-07,-3.273060671382572e-08,1.953877393642914e-07,-3.591015909416797e-07,1.1453099390816595e-06,5.56905447223921e-07,7.389746828058916e-07,-8.879768489390886e-07,-6.315832515132855e-07,2.8559327302534886e-07,9.990411760285664e-09,3.669181658825947e-07,-4.594615592392995e-07,5.626177667912677e-07,-2.775576280202895e-07,2.944480778361337e-07
8.713910239627779e-07,8.291588711313484e-07,-4.450202544436178e-07,-2.7806709518844588e-08,1.5921796009278495e-07,-3.6553734607288023e-07,1.1592680117480556e-06,5.260720292950334e-07,7.229930844907781e-07,-8.692920171998585e-07,-6.008052525170358e-07,2.718499947798629e-07,1.2433660102573441e-08,2.892093879342879e-07,-4.764687306495856e-07,5.254007875527177e-07,-2.7007233134169597e-07,3.0221380184413236e-07
8.405979964789068e-07,8.07716371135115e-07,-4.92931139660587e-07,-2.3237405309302814e-08,1.2173694426493966e-07,-3.5002297873507685e-07,1.1497821744930002e-06,4.881613239804579e-07,7.025457242780505e-07,-8.345572690810085e-07,-5.646359549330226e-07,2.7935941936659924e-07,3.782754971797733e-09,2.243811297532913e-07,-5.026700584312284e-07,4.909775001154387e-07,-2.627623204810371e-07,3.036646367628798e-07
8.021157177052353e-07,7.827804440775373e-07,-5.376608584426757e-07,-1.997995264300482e-08,8.533993327131859e-08,-3.27337645659374e-07,1.1122053435823795e-06,4.4376016372551745e-07,6.78084903227053e-07,-8.003656963047886e-07,-5.26698390429595e-07,2.769796178508404e-07,-3.3929908661609174e-08,1.7335401613456263e-07,-5.339879295180956e-07,4.5413632044328025e-07,-2.537850887405214e-07,3.1717520180008106e-07
7.61000125664272e-07,7.546345466575668e-07,-5.934541157987418e-07,-2.4272471882959752e-08,5.004475892179048e-08,-3.2285729446544206e-07,1.0534768502210913e-06,3.9387319145425784e-07,6.436876337040739e-07,-7.68211675588103e-07,-4.754745046444052e-07,2.560263062193072e-07,-7.767754424936094e-08,1.234568751564327e-07,-5.715234336851003e-07,4.1004087981061143e-07,-2.416521244642617e-07,3.2401849934839833e-07
7.204791046600883e-07,7.226166731803929e-07,-6.550309428871324e-07,-3.185513212650849e-08,1.3490541806580216e-08,-3.281724657534007e-07,1.0125094038689183e-06,3.401657920325333e-07,5.998389623538149e-07,-7.480196905159724e-07,-4.4633518341295483e-07,2.3215421536415737e-07,-1.429425803663209e-07,7.787339070740323e-08,-6.12921224554202e-07,3.5898477616151697e-07,-2.442816891275717e-07,3.213441364209739e-07
6.800530675549342e-07,6.858329210784508e-07,-7.157276159816807e-07,-4.050888678561911e-08,-2.6767532323254893e-08,-3.3236176883374226e-07,9.920177369836754e-07,2.865355337557245e-07,5.513205115151541e-07,-7.469342658049137e-07,-4.2363676837224825e-07,2.6279861535962584e-07,-2.1464312979735125e-07,3.852922490759311e-08,-6.552400739486928e-07,3.025768788489905e-07,-2.4210491901261685e-07,3.0435395000697064e-07
6.405398229075495e-07,6.447880397720283e-07,-7.788290652564216e-07,-5.085800363016734e-08,-7.074773088186341e-08,-3.5565089321753807e-07,9.537846314965522e-07,2.3792117988220688e-07,5.070823618777189e-07,-7.438360166233544e-07,-4.0822316559792345e-07,2.8536372263055235e-07,-2.5933911371654255e-07,4.05816209016057e-09,-6.946008150026383e-07,2.585285201296966e-07,-2.274377677216946e-07,2.682702577329479e-07
6.028075131273832e-07,5.998408874348948e-07,-8.400578007052976e-07,-5.844084250650656e-08,-1.1914281748310492e-07,-3.770446629143589e-07,9.131019282495632e-07,1.9656685253972938e-07,4.704880789412653e-07,-7.418385310554656e-07,-4.1962277602997354e-07,2.9651153086920916e-07,-3.005868062287868e-07,-2.989759274591698e-08,-7.277415978014453e-07,2.1742271479855074e-07,-2.0980397473588788e-07,2.3327382603981275e-07
5.622526132504551e-07,5.510563992546981e-07,-8.927670540287142e-07,-6.520064265791752e-08,-1.758941262372803e-07,-4.051242557769724e-07,8.681936549720591e-07,1.6156926799218218e-07,4.405565726395872e-07,-7.417084622446545e-07,-4.2192758572493277e-07,3.069854670616391e-07,-3.377137428118502e-07,-6.675226482178956e-08,-7.537052144553183e-07,1.6268447887524133e-07,-1.9220715039898035e-07,1.864204677654414e-07
5.160625023022323e-07,4.985047980301823e-07,-9.420681156666253e-07,-7.402124576825961e-08,-2.4228869092369773e-07,-4.2605897672923394e-07,8.132840662822183e-07,1.2830418943221043e-07,4.148203993500273e-07,-7.35164421646493e-07,-4.1685831128152395e-07,2.9908692633078016e-07,-3.6818456017961146e-07,-1.1284397982354904e-07,-7.694982937692634e-07,8.476501016412295e-08,-1.8240387913261548e-07,1.313236634269255e-07
4.6480027080286257e-07,4.438209347647548e-07,-9.789425359244061e-07,-8.407615543730143e-08,-3.163047230134914e-07,-4.3434944832402904e-07,7.605620883897322e-07,9.719743772168293e-08,3.912652871960824e-07,-7.309774381207655e-07,-4.1894656292643006e-07,3.0167438091791037e-07,-3.8813646219908097e-07,-1.730586522835604e-07,-7.766394203353947e-07,-1.5604449927464284e-08,-1.9198769882349584e-07,7.521881105751143e-08
4.112918480661549e-07,3.8810136300829214e-07,-1.0019658101486428e-06,-9.289541727789223e-08,-3.914156440639001e-07,-4.3865799207112404e-07,7.076864838107274e-07,6.966047105018084e-08,3.711161963288073e-07,-7.311209036139826e-07,-4.1220882947168776e-07,3.0792303880035336e-07,-4.0099614641241214e-07,-2.5164038835422444e-07,-7.760960335537568e-07,-1.3039856507023485e-07,-2.1248020875732604e-07,2.1456832590733672e-08
3.5830999716461696e-07,3.329367766413957e-07,-1.0182236426612262e-06,-1.0179422429221031e-07,-4.633546332300042e-07,-4.3869716489733804e-07,6.34742719858989e-07,4.5145067523485634e-08,3.531098168093166e-07,-7.320262734086073e-07,-4.0349293539050657e-07,3.1642506607708236e-07,-4.1512082132834215e-07,-3.4683365055976447e-07,-7.704464966185396e-07,-2.4616752660021296e-07,-2.4355732138321614e-07,-2.7127179872361922e-08
3.0855168720709074e-07,2.826247433031287e-07,-1.024792025745463e-06,-1.1061685664109589e-07,-5.297628007275896e-07,-4.481404121128817e-07,5.554578104781662e-07,2.286487604194421e-08,3.3532829447056696e-07,-7.348427262610015e-07,-3.981643016488649e-07,3.035011676112298e-07,-4.401795557580916e-07,-4.523962775516056e-07,-7.670250373135867e-07,-3.5063616749896296e-07,-2.920431232844126e-07,-6.730882202153264e-08
2.6255240679981284e-07,2.5323967405416087e-07,-1.0153763641274745e-06,-1.1920398800107221e-07,-5.896229005930837e-07,-4.5322734299273784e-07,5.006839784856424e-07,9.322153507577037e-10,3.1585205836959426e-07,-7.326036516402836e-07,-3.8874553532271043e-07,2.7522638029934357e-07,-4.7621774375727083e-07,-5.597631398832275e-07,-7.684115609245239e-07,-4.4820092831698904e-07,-3.4896670853102216e-07,-9.782531036917767e-08
2.2050075250084182e-07,2.4597285529354796e-07,-9.897929855996577e-07,-1.2861684680510047e-07,-6.445866902056365e-07,-4.5766827471481267e-07,4.605403019667982e-07,-2.1130961350906927e-08,2.9441447305578567e-07,-7.2424999573896e-07,-3.665440695601609e-07,2.475413903386615e-07,-5.137058956509032e-07,-6.583447704893904e-07,-7.774089340356314e-07,-5.248674807745319e-07,-3.910022669590149e-07,-1.209041188844386e-07
1.804656941092404e-07,2.405296691134781e-07,-9.519401773914821e-07,-1.4069205859373576e-07,-6.939977914543537e-07,-4.622929712968178e-07,4.3536139531491836e-07,-4.421565091117902e-08,2.716011940172112e-07,-7.083716889064124e-07,-3.4471362236392085e-07,2.4166357750505744e-07,-5.500611095070065e-07,-7.415010143196687e-07,-7.965901136963387e-07,-5.408016917499166e-07,-4.1193539281006455e-07,-1.3241363390606416e-07
1.3942142682890575e-07,2.3125829844324513e-07,-9.034144259731231e-07,-1.547193889867316e-07,-7.405060766211307e-07,-4.6618766179337945e-07,4.2307114825283994e-07,-6.809259672335662e-08,2.47646987514509e-07,-6.847253716039781e-07,-3.2420564587684125e-07,2.425511875646841e-07,-5.812619681548021e-07,-8.066859678128572e-07,-8.246947791642862e-07,-5.440809012379036e-07,-4.1591480611884136e-07,-1.4427876731970511e-07
9.531479198727946e-08,2.2133160378704208e-07,-8.546214834336511e-07,-1.7008088448833125e-07,-7.881229495537538e-07,-4.7161076355152786e-07,4.1674401823840343e-07,-9.088984497566968e-08,2.2443851030817694e-07,-6.543999483833746e-07,-3.0341278822810475e-07,2.621122763469095e-07,-6.066395903265387e-07,-8.548022303837906e-07,-8.586300913765766e-07,-5.373456589691368e-07,-4.122224960925954e-07,-1.5691837453634754e-07
4.68938693869445e-08,2.0297571439551129e-07,-8.045106462277337e-07,-1.8593926827890585e-07,-8.377721571456053e-07,-4.714988733072908e-07,4.206408037467442e-07,-1.1063215681690866e-07,2.0476430325494345e-07,-6.175048932022478e-07,-2.821752553632837e-07,2.900459867978427e-07,-6.266247415852295e-07,-8.906946442055522e-07,-8.950011623711843e-07,-5.190061703998576e-07,-4.104045371201025e-07,-1.716350790931442e-07
-6.640804377665379e-09,1.6829653176755966e-07,-7.527545489771259e-07,-2.020511792088422e-07,-8.893261786449279e-07,-4.6523549201756075e-07,4.3897853131056304e-07,-1.2678642019879357e-07,1.877126674932738e-07,-5.770468689904289e-07,-2.6056390449487045e-07,3.083290555624211e-07,-6.421266902424694e-07,-9.228461239167862e-07,-9.320105495024303e-07,-5.011887483743851e-07,-4.1147670415942297e-07,-1.937319944029537e-07
-6.587292748055157e-08,1.094156260076017e-07,-7.099371171340256e-07,-2.2007019305389564e-07,-9.462209506752838e-07,-4.512517758418027e-07,4.628327625789114e-07,-1.4110776929228622e-07,1.7106078130353788e-07,-5.355238021723051e-07,-2.4622540869984416e-07,3.1895687296920197e-07,-6.57740433954923e-07,-9.578746264716316e-07,-9.682708765654353e-07,-4.947661903093078e-07,-4.1618959622403623e-07,-2.2435378180215028e-07
-1.287381939134122e-07,6.507240166430583e-08,-6.832230022405115e-07,-2.377039202512142e-07,-1.0084954798595237e-06,-4.352913988815594e-07,4.809677195385421e-07,-1.5575492438209383e-07,1.524605781979498e-07,-4.945776035441266e-07,-2.431499325256035e-07,3.2181512285324556e-07,-6.779271179250774e-07,-9.965390411124629e-07,-1.0026367586785885e-06,-5.025973843121619e-07,-4.3099762786244937e-07,-2.469794610513946e-07
-1.899851129324715e-07,9.727463880359065e-09,-6.702840582247149e-07,-2.566998788870201e-07,-1.0716213511982285e-06,-4.198973321304258e-07,4.928043528028461e-07,-1.7191430668279168e-07,1.319849157161706e-07,-4.5237127912260347e-07,-2.573282640595321e-07,3.1541015126125795e-07,-7.019538143459025e-07,-1.0340395483465496e-06,-1.0339013356569927e-06,-5.163672337618551e-07,-4.4364242565991583e-07,-2.6600220013441435e-07
-2.4316553737909127e-07,-6.134812530547881e-08,-6.720229948636299e-07,-2.7836544155959703e-07,-1.134125492837144e-06,-4.037623375621686e-07,4.971471180071256e-07,-1.8995004286674586e-07,1.1101372262749409e-07,-4.0796223508247016e-07,-2.862471102637657e-07,3.044321379807367e-07,-7.290000286691987e-07,-1.0647290314413975e-06,-1.062035385462268e-06,-5.262805229782514e-07,-4.498345874036191e-07,-2.8354308208380954e-07
-2.84010748218542e-07,-1.403908514283675e-07,-6.864121387377444e-07,-3.036955667538348e-07,-1.1926806820908899e-06,-3.916837959793911e-07,4.937659785529322e-07,-2.0953196414217774e-07,9.058396775645008e-08,-3.644389874495022e-07,-3.242498808595627e-07,2.875085537686822e-07,-7.592004608174621e-07,-1.0858270966959725e-06,-1.088265411041543e-06,-5.279020970628554e-07,-4.5167021437841107e-07,-2.908420030389384e-07
-3.112834919737936e-07,-2.0982119151732658e-07,-7.060929571889862e-07,-3.336567972802222e-07,-1.2440380625833515e-06,-3.8416753981729743e-07,4.872414796769133e-07,-2.3018475466180924e-07,7.22319386182581e-08,-3.230476728103154e-07,-3.658804861721566e-07,2.630433578726614e-07,-7.908087585479829e-07,-1.0971083595144556e-06,-1.1123019348614788e-06,-5.203108087336644e-07,-4.4888844070810504e-07,-2.9494500534800546e-07
-3.2591119670539134e-07,-2.674784865366875e-07,-7.284656286532797e-07,-3.658910605116075e-07,-1.2874529279474061e-06,-3.791924165473571e-07,4.798919701336488e-07,-2.496941010006413e-07,5.7707288716152924e-08,-2.853034360688389e-07,-4.149370833282078e-07,2.3311357080532624e-07,-8.220281213710566e-07,-1.0999419280282455e-06,-1.1324686191104672e-06,-5.052821115936189e-07,-4.4152383533023045e-07,-2.9543215990815303e-07
-3.31066670013806e-07,-3.130329356051308e-07,-7.489751098255404e-07,-3.9904408680450973e-07,-1.3216470213093707e-06,-3.7431147470301005e-07,4.7502067802601243e-07,-2.651223250516453e-07,4.911248547053478e-08,-2.5230619668743524e-07,-4.666140388091281e-07,2.011796675261484e-07,-8.513128074716841e-07,-1.096966001809149e-06,-1.1473426238058495e-06,-4.775490471155193e-07,-4.288250420407668e-07,-2.8927355777780704e-07
-3.316893994588783e-07,-3.4571745242820996e-07,-7.639241920146655e-07,-4.31416994063115e-07,-1.3464697947041699e-06,-3.658142570543814e-07,4.77683089388546e-07,-2.7453006774088436e-07,4.7385631375401836e-08,-2.2306878719589044e-07,-5.089128374948097e-07,1.6687785752435572e-07,-8.763803597203904e-07,-1.0905542439899748e-06,-1.1562654997724203e-06,-4.4233648101679663e-07,-4.117038343533204e-07,-2.782338063472078e-07
-3.3432052480769477e-07,-3.6799867189844764e-07,-7.722371998505609e-07,-4.6169282390339174e-07,-1.3643093774047954e-06,-3.5753909560505354e-07,4.905747442295028e-07,-2.7654820092661514e-07,5.24270995744792e-08,-1.9837729424170814e-07,-5.407378778787212e-07,1.3165855504488126e-07,-8.955008136025686e-07,-1.0824650953526854e-06,-1.1589104862431433e-06,-4.0374523756370893e-07,-3.9019146650367374e-07,-2.6591471290437985e-07
-3.4374555275712077e-07,-3.836409921074669e-07,-7.75051658488243e-07,-4.923666096019348e-07,-1.3770390095072578e-06,-3.475457269400396e-07,5.171095904897205e-07,-2.7082323738187636e-07,6.293866016978052e-08,-1.734257557523365e-07,-5.590832539000978e-07,9.608190015207694e-08,-9.087080367039872e-07,-1.0729735810360302e-06,-1.1555832373909685e-06,-3.6144710712573255e-07,-3.66439142441985e-07,-2.504819612353606e-07
-3.6423898562205624e-07,-3.966263252929436e-07,-7.738769982518584e-07,-5.142772534402855e-07,-1.3875129795739167e-06,-3.359734577531212e-07,5.5563254852976e-07,-2.584068287613049e-07,7.600898851500046e-08,-1.469543847313392e-07,-5.636949116934345e-07,5.977274717408134e-08,-9.16651970193651e-07,-1.063031387423476e-06,-1.1485040280561213e-06,-3.195637988011792e-07,-3.419394752760828e-07,-2.3095895833768538e-07
-3.986239006209287e-07,-4.103687346759365e-07,-7.719520439551725e-07,-5.139953071615511e-07,-1.3984602132817823e-06,-3.2348396877649853e-07,5.99126358488244e-07,-2.4367200927257954e-07,8.771085247492524e-08,-1.201042332670764e-07,-5.599196001974481e-07,2.2441132270616662e-08,-9.217132786105818e-07,-1.055158239169287e-06,-1.1414892283590468e-06,-2.805755005295077e-07,-3.2207812398817336e-07,-2.1350141490222783e-07
-4.4674956439695056e-07,-4.269945661748901e-07,-7.734960741658468e-07,-4.891571899398766e-07,-1.4106795181811773e-06,-3.124497691591575e-07,6.402866979234253e-07,-2.3016197326149797e-07,9.46108373744339e-08,-9.503646559771491e-08,-5.58977376998125e-07,-1.6123819100345185e-08,-9.268609644047593e-07,-1.0514394326498895e-06,-1.137781465089756e-06,-2.4526744036587604e-07,-3.03970967614795e-07,-1.975202941354933e-07
-5.048020784865917e-07,-4.4625204257059613e-07,-7.79347506975724e-07,-4.49086754152415e-07,-1.4233601824423572e-06,-3.0505942215872744e-07,6.739848165329652e-07,-2.2025459132055597e-07,9.539279517575821e-08,-7.379544444473923e-08,-5.564059655171419e-07,-5.546082443913758e-08,-9.329038486886679e-07,-1.0528724691889367e-06,-1.1389318817935084e-06,-2.133489475392609e-07,-2.9069112070778894e-07,-1.8329080682678109e-07
-5.657942942832075e-07,-4.663894202460259e-07,-7.89367017345554e-07,-4.0960091612031023e-07,-1.434265460840148e-06,-3.046785544871625e-07,6.975518850579597e-07,-2.154932081759799e-07,9.044562927027224e-08,-5.3076023912195055e-08,-5.527843971575777e-07,-9.582321836549783e-08,-9.39676038633733e-07,-1.0593766577316792e-06,-1.145534512439002e-06,-1.8616171944549238e-07,-2.838599766789012e-07,-1.718502285054124e-07
-6.229206360609732e-07,-4.853450206289348e-07,-8.00365343171948e-07,-3.782136542031758e-07,-1.4400355990541936e-06,-3.112317095455756e-07,7.110038818357164e-07,-2.1600477365642574e-07,8.09219306922511e-08,-3.507751707350876e-08,-5.557255767373497e-07,-1.2543911232564573e-07,-9.471927138819125e-07,-1.0701987867236422e-06,-1.1574262535697529e-06,-1.62854951837849e-07,-2.8081190084034503e-07,-1.6195474283501248e-07
-6.708028912162955e-07,-5.015203954375842e-07,-8.122205823939767e-07,-3.517022959873681e-07,-1.4389801196076607e-06,-3.2056809491549813e-07,7.167212756419698e-07,-2.2078880033531509e-07,6.883059621472056e-08,-1.9803298790592605e-08,-5.600126386448365e-07,-1.5026455928780225e-07,-9.542954472804037e-07,-1.0821046243309358e-06,-1.1724466834501866e-06,-1.4212122416046457e-07,-2.811525214997676e-07,-1.604164147293171e-07
-7.055999897731533e-07,-5.132620602560424e-07,-8.23657410642428e-07,-3.245573164527641e-07,-1.4301979328273451e-06,-3.302370745316222e-07,7.174917709172025e-07,-2.2678095129661054e-07,5.7281442986582853e-08,-5.2838821018849924e-09,-5.669385440282432e-07,-1.73067112044537e-07,-9.59918200556367e-07,-1.09382820787298e-06,-1.186309800335099e-06,-1.222451793735291e-07,-2.8173009815035264e-07,-1.6152832237458951e-07
-7.248732787124286e-07,-5.189676725503159e-07,-8.30773594882631e-07,-3.0862374727441703e-07,-1.4121467437114417e-06,-3.3658742426532714e-07,7.194454735502663e-07,-2.300937448464596e-07,4.955657009858561e-08,1.0317164562005869e-08,-5.763068501777783e-07,-1.8799012940732948e-07,-9.635940314819783e-07,-1.1026018813485305e-06,-1.1944347990160386e-06,-1.009196983366696e-07,-2.797967755273289e-07,-1.6008229683255123e-07
-7.290519566564552e-07,-5.178717877736191e-07,-8.310828490298289e-07,-2.9965552706954363e-07,-1.3858574203244323e-06,-3.380392919380525e-07,7.275747002004054e-07,-2.2761445120904388e-07,4.760142330765256e-08,2.543259355705129e-08,-5.855593262956504e-07,-2.0325666828409947e-07,-9.659785266254487e-07,-1.1084983878544282e-06,-1.1935296166594289e-06,-7.531837915539392e-08,-2.73644108142197e-07,-1.5481323621346716e-07
-7.214205479519725e-07,-5.101654949752417e-07,-8.224512724545688e-07,-2.8564260830006517e-07,-1.3540268876839525e-06,-3.35627919385439e-07,7.432634524383081e-07,-2.1810910602020054e-07,5.194113895869312e-08,4.274686037309639e-08,-5.922948034488197e-07,-2.1672983851305654e-07,-9.683459114346491e-07,-1.1123787125180843e-06,-1.1817497799311402e-06,-4.562407691092784e-08,-2.6558211098018293e-07,-1.4183353255860764e-07
-7.062107538401222e-07,-4.97301029829948e-07,-8.050955320007891e-07,-2.6875219018974986e-07,-1.3209249226226593e-06,-3.303268070023629e-07,7.66802982401904e-07,-2.0143474158510613e-07,6.222831914386133e-08,6.371614200785795e-08,-5.964060541933958e-07,-2.2467420183091185e-07,-9.715074593788175e-07,-1.1138735823472743e-06,-1.158901715553596e-06,-1.151646500979067e-08,-2.551798932272588e-07,-1.254590406859397e-07
-6.876556088972252e-07,-4.809021923247582e-07,-7.810125479394127e-07,-2.525167778744586e-07,-1.2885520375598947e-06,-3.223968346495121e-07,7.963734252768146e-07,-1.7855872569512125e-07,7.72047841179691e-08,8.562970758302861e-08,-5.969681707308828e-07,-2.2680965515615356e-07,-9.756776907679637e-07,-1.114498260646506e-06,-1.1272547684856199e-06,2.447406622915342e-08,-2.4335816817774023e-07,-1.0910957457221585e-07
-6.70157431989679e-07,-4.6353286067148655e-07,-7.545578508340965e-07,-2.3936756334449704e-07,-1.2588900399873705e-06,-3.139655749161189e-07,8.291940038149889e-07,-1.5206701633020583e-07,9.439090305412703e-08,1.0706323901269999e-07,-5.923575239914177e-07,-2.2392798876990274e-07,-9.784494907668553e-07,-1.115930378616978e-06,-1.0911299977141776e-06,6.190440283609423e-08,-2.3307146021290905e-07,-9.518849207489966e-08
-6.575238118893117e-07,-4.4845042550383735e-07,-7.297480449143588e-07,-2.2759855762276023e-07,-1.233574822316392e-06,-3.055267212667165e-07,8.621295261146827e-07,-1.250584212773849e-07,1.1096045000409781e-07,1.2564059281281592e-07,-5.851558582403761e-07,-2.13576470148834e-07,-9.802553450886848e-07,-1.117743188655533e-06,-1.0547425701277845e-06,1.0312422946841655e-07,-2.2452063143346198e-07,-8.366714475162826e-08
-6.520476598203151e-07,-4.3710703961199357e-07,-7.087781921552229e-07,-2.1769816850565937e-07,-1.2120359605520264e-06,-2.966965590708446e-07,8.945600729346035e-07,-1.0023891817026505e-07,1.2499628574159547e-07,1.389990859140015e-07,-5.738536665232574e-07,-1.9491980426968775e-07,-9.792298224906682e-07,-1.1182722006671015e-06,-1.021023392486589e-06,1.4868037989833554e-07,-2.1638795123678682e-07,-7.406371159991636e-08
-6.53837339811852e-07,-4.2951391654315416e-07,-6.923600148408564e-07,-2.0982304856120449e-07,-1.1941091985235841e-06,-2.898962843099082e-07,9.265417406116374e-07,-7.929893036903908e-08,1.3542622640617023e-07,1.4805422488561564e-07,-5.611001430442375e-07,-1.677976659133315e-07,-9.73795206350403e-07,-1.1159165511168793e-06,-9.925855515218092e-07,2.0108921297080183e-07,-2.0752788974560194e-07,-6.752145010791827e-08
-6.621823885657548e-07,-4.246038881637013e-07,-6.801656831846097e-07,-2.0423538331234437e-07,-1.1789695930605768e-06,-2.868446659298177e-07,9.57552097816124e-07,-6.347914617765641e-08,1.4149098472407405e-07,1.5561613102884841e-07,-5.502777657417108e-07,-1.308777318333325e-07,-9.656211550808037e-07,-1.109530203841984e-06,-9.722568059425932e-07,2.594796292666318e-07,-1.9679821543114909e-07,-6.179289851446002e-08
-6.756050632343307e-07,-4.179586611104159e-07,-6.713255919304827e-07,-2.0063449862119155e-07,-1.1652908089441927e-06,-2.880449658539129e-07,9.867108985424606e-07,-5.3717869819403295e-08,1.4314558697320712e-07,1.6364087777884283e-07,-5.398078892526356e-07,-8.812073330114561e-08,-9.546263416982233e-07,-1.0988980895528592e-06,-9.61532016345549e-07,3.2122486846382306e-07,-1.8441110814206436e-07,-5.6413249613624224e-08
