0,1,2,3,4,5,6,7,8,9,10,11,12,13,14,15,16,17
-1.6962863109156455e-07,-1.5354308381157776e-07,-1.2445332619540772e-07,1.331726822901151e-08,-1.1654120517317518e-07,-1.2377552634391606e-07,-1.4993648817478323e-07,-1.6021403263033708e-07,1.109237314870229e-07,-2.2642619330051152e-07,-4.115282652271732e-08,-9.500152386461974e-08,-1.3482968329514989e-07,-1.3045897649286752e-07,-1.3842241365345904e-07,1.8789271379407578e-08,-4.304698269292151e-08,-4.9448156443933135e-08
-1.9039485627582663e-07,-1.5099729942939397e-07,-5.462524839092925e-08,4.5951862744267405e-08,-9.565600280877183e-08,-9.699559387028271e-08,-1.2964982761198592e-07,-1.27329379267152e-07,5.4100214852597606e-08,-2.387236584264725e-07,-4.761251418861211e-08,-4.791952636605238e-08,-1.4139094359485584e-07,-1.0081565946873406e-07,-1.576807009028444e-07,4.089994133280486e-09,-5.018391786591523e-08,-7.052427930605755e-08
-1.925173745362242e-07,-1.4629384479277246e-07,-1.3047748470992989e-08,8.190333829770767e-08,-7.780147519173202e-08,-8.208065823068271e-08,-1.0667150405482939e-07,-9.253535224972668e-08,7.261178891192545e-09,-2.3775187834851425e-07,-4.8360424943417985e-08,-1.0015631475140763e-08,-1.4043325758102265e-07,-7.279083902933284e-08,-1.7447095806497148e-07,-1.015155488876202e-08,-5.7013186939801023e-08,-8.578913024114048e-08
-1.7612597698102132e-07,-1.3607579004690295e-07,4.565619378054846e-09,1.1846620636272368e-07,-5.9107103291487996e-08,-7.515986555334008e-08,-7.982234847278015e-08,-5.514358257936643e-08,-2.961988994745097e-08,-2.2366331192310622e-07,-4.142813288209722e-08,1.5875988153253842e-08,-1.308203693172211e-07,-4.7974952305054246e-08,-1.84880527053404e-07,-1.980408168447974e-08,-5.963915341490016e-08,-9.88685792482234e-08
-1.4846587243336436e-07,-1.1790775803586694e-07,2.9006049297662172e-08,1.523042555590153e-07,-3.987517604549063e-08,-7.447916866150215e-08,-4.869276403674219e-08,-1.9058580024191735e-08,-3.339457621294529e-08,-1.9214445497118334e-07,-2.6988011328637815e-08,2.593696528469665e-08,-1.1310347788186726e-07,-3.071849386903361e-08,-1.8593380759559108e-07,-2.2113145828643125e-08,-5.7141828106509583e-08,-1.0749775722527322e-07
-1.056636738541946e-07,-9.13818786817733e-08,5.0267344375626766e-08,1.6065657463770535e-07,-2.454598974911279e-08,-7.706761309550033e-08,-1.4686421286431942e-08,8.012296391716734e-09,-2.6207409627891593e-08,-1.416396897721218e-07,-6.597811325441381e-09,1.5834552600629367e-08,-8.904609864552868e-08,-2.69841257549723e-08,-1.749832763207704e-07,-1.5976325986193497e-08,-5.0162877424278354e-08,-1.0713778758955045e-07
-6.290306896357904e-08,-5.746341715213317e-08,5.2995120890804597e-08,1.3179783327349003e-07,-1.6715401092132118e-08,-8.051017872874372e-08,1.9359353256540622e-08,2.1051996538455067e-08,-1.5567088795912336e-08,-7.39515350185287e-08,1.7326012354640012e-08,-1.4941320255025445e-08,-6.017560266414435e-08,-3.887139773797657e-08,-1.4847599562263014e-07,-1.5348889639591596e-09,-3.86492112906288e-08,-9.499436787841821e-08
-1.7909477567113746e-08,-1.734120134619278e-08,4.473226158205903e-08,1.0558816663478629e-07,-1.706781874740462e-08,-7.431887600584785e-08,5.0130596215213474e-08,2.1195244068444296e-08,1.3411940053177902e-08,6.628473034596128e-09,4.1345833555676544e-08,-5.512127127020646e-08,-2.690189229299811e-08,-5.989404109767765e-08,-1.0310983226031112e-07,1.9436822528777026e-08,-2.1363115716155873e-08,-6.739005288615263e-08
4.5464384519759725e-08,2.727299688682909e-08,2.9126406447690734e-08,7.267317808835513e-08,-2.0409193371410785e-08,-5.2061162294053136e-08,7.435788101028028e-08,1.593347223210101e-08,4.4651099446541035e-08,9.083783415083668e-08,6.39484588375015e-08,-8.731582088446545e-08,1.077502183326555e-08,-7.627951185689799e-08,-3.9036288135347175e-08,4.225203399965877e-08,2.2630340422918945e-09,-2.5907048037957013e-08
1.024072276859257e-07,7.26278044352371e-08,1.3518444708544816e-08,4.1732945853170687e-08,-1.828707582403594e-08,-1.0569713366154435e-08,8.879816582277092e-08,1.4080212374862907e-08,7.119567096853937e-08,1.6318501010676128e-07,7.972461011243936e-08,-1.1651300855225006e-07,5.147213853144316e-08,-7.283138705333581e-08,3.5118175013081746e-08,5.953173529581641e-08,2.9747948761490064e-08,2.3303211190085898e-08
1.3476934975100983e-07,1.121678174004494e-07,8.127898586242636e-09,-1.7722247745323693e-08,-4.485783988554985e-09,4.517953792516835e-08,9.041429471462744e-08,2.036569519134296e-08,7.968905764144398e-08,1.9104278938890718e-07,7.445965622921205e-08,-9.5101276082578e-08,9.116585669744769e-08,-3.889983017732177e-08,1.0815100455674895e-07,6.004688915392013e-08,5.515166278883316e-08,7.0843331675695e-08
1.5361039030218228e-07,1.3832599306251145e-07,1.0206948424269711e-08,-8.059430696430202e-08,2.217274944936465e-08,1.007366397380984e-07,7.803954029033457e-08,3.453974475049143e-08,6.457052185351962e-08,2.2017248534211344e-07,4.785997415049408e-08,-6.871460461167628e-09,1.2388947582426857e-07,2.3960553007705517e-08,1.6982735892049657e-07,3.8862602265663606e-08,7.159167033381843e-08,1.070099191483506e-07
1.531627004938863e-07,1.4660141991876453e-07,8.28063719881381e-09,-1.2936672865885168e-07,5.7712151428680224e-08,1.4208743864778453e-07,5.682710566281455e-08,5.1429723502814195e-08,1.0447599778825424e-08,1.9272639035856825e-07,1.3814299501681011e-08,8.053554156937023e-08,1.442148255416035e-07,9.949395068032747e-08,2.1101848595572417e-07,9.164989054322555e-11,7.498585295990062e-08,1.265968057554844e-07
1.7007441132640105e-07,1.3897077215259164e-07,-1.8528937613720908e-09,-1.9191355018777105e-07,9.660603141844028e-08,1.6035712935617058e-07,3.3964533238938545e-08,7.01519101122385e-08,-5.28430034869517e-08,1.6313888653492836e-07,-2.334319553309283e-08,1.4577181321917282e-07,1.4971480113974594e-07,1.6857302469707671e-07,2.3624087554449872e-07,-5.045563644987904e-08,6.604534038245197e-08,1.311607742957997e-07
1.6711787491383128e-07,1.237189329711106e-07,-1.7328269092630776e-08,-2.372160647005601e-07,1.362952406913151e-07,1.5697200680938004e-07,1.867641058720438e-08,8.962852149292391e-08,-1.2060542692343638e-07,1.469938304048398e-07,-5.290598845094887e-08,1.4386556409085215e-07,1.4167423643362847e-07,2.0926264034210915e-07,2.516922031715873e-07,-7.018873848128653e-08,4.903592731168887e-08,1.2717571931986488e-07
1.3700259270989088e-07,1.1131853646911967e-07,-3.951924497843629e-08,-2.675787314234249e-07,1.7770605229550888e-07,1.416856036734216e-07,1.8891472838828346e-08,1.0789211009538367e-07,-1.780136199782733e-07,1.5957502243888745e-07,-5.008993956667932e-08,1.0098041429353076e-07,1.2379496927138483e-07,1.9522904611598556e-07,2.949456964471912e-07,-5.2876626363863805e-08,2.837883687063505e-08,1.2146739747142606e-07
1.1175629820136179e-07,1.0897220789381938e-07,-6.545879283490955e-08,-2.948069921119878e-07,2.206627091857008e-07,1.2509770393054177e-07,3.4990156887908224e-08,9.431687728241758e-08,-2.1658355678819352e-07,2.0611156783602605e-07,-5.4864408375432324e-08,7.380441766169565e-08,9.991431081929128e-08,1.6973303825917285e-07,3.4928481149601354e-07,-4.193878804357017e-08,5.550045151087382e-09,1.1701534995042601e-07
9.659757693536398e-08,1.1715254558276418e-07,-9.168713273679493e-08,-3.145700680801241e-07,2.608019013951608e-07,1.1411542711345472e-07,6.008620185470049e-08,3.745450221476693e-08,-2.3644291721426764e-07,2.7402840644891376e-07,-5.538916633411428e-08,-2.1634581161148346e-09,7.222725918634104e-08,9.050230710445338e-08,4.5793499053398743e-07,-2.6287970691948097e-08,-2.1504597630284654e-08,1.1166000318492772e-07
8.397841545743965e-08,1.3023274913121376e-07,-1.1754913647970334e-07,-3.3774640092409043e-07,2.898983482060698e-07,1.0651603612710179e-07,8.341212202618957e-08,-3.931821957725529e-08,-2.4446062467729754e-07,3.433609535931737e-07,-2.8284836696923997e-08,-1.1197652847118731e-07,4.1144876903393344e-08,-6.540288576544189e-10,5.41122330565723e-07,9.042572502483072e-09,-5.597177979505481e-08,1.0021078123785018e-07
7.855592250965857e-08,1.4010796808194714e-07,-1.4119153097656734e-07,-3.655754143919897e-07,2.992256596088328e-07,9.579252519104943e-08,9.423183112432518e-08,-1.2639318422026067e-07,-2.513399355649253e-07,3.959420169100806e-07,1.4089642248635418e-09,-2.3959495680344836e-07,6.667983434820931e-09,-9.4175263936656e-08,5.924016290348899e-07,4.328705758383623e-08,-9.871654248284031e-08,7.82656244208374e-08
6.857061680693808e-08,1.406226072448851e-07,-1.606702354329215e-07,-3.947172574690437e-07,2.8520417205143833e-07,7.855571451868804e-08,8.624988325221462e-08,-2.1075720344463097e-07,-2.653596868024512e-07,4.191622757481247e-07,1.589224153413606e-08,-3.2791557670089015e-07,-3.008390477172533e-08,-1.7644401465380442e-07,6.047239151689108e-07,4.802892763331728e-08,-1.4653986452844482e-07,4.518852503091987e-08
5.069421497071445e-08,1.301220640090623e-07,-1.7382973591090006e-07,-4.2279221689624475e-07,2.5084356370667307e-07,5.607114267181276e-08,6.076200469499854e-08,-2.8501640305283026e-07,-2.885901297661178e-07,4.1070684369852413e-07,1.802370525784222e-08,-3.7745933002494385e-07,-6.652191941839554e-08,-2.387959421663998e-07,6.360400966506506e-07,3.012497891601818e-08,-1.9329359307134904e-07,4.5121121771142884e-09
2.6053227833799862e-08,1.11282746335759e-07,-1.785754582005619e-07,-4.4667061012298686e-07,2.0243590293892624e-07,3.630556171483681e-08,2.403804088118249e-08,-3.434341171533648e-07,-3.1870052669454e-07,3.7821564176252127e-07,1.4461094952396523e-08,-3.9507121312013745e-07,-9.955516248399195e-08,-2.779546094070058e-07,6.656696298660468e-07,5.209041451419056e-10,-2.3264598457748176e-07,-3.768433129043594e-08
-5.1820284864470465e-09,8.919722902410014e-08,-1.7427876903081866e-07,-4.64664149438614e-07,1.4854158231233096e-07,2.2220464119594156e-08,-1.5889914819707265e-08,-3.828996570457819e-07,-3.5064876082782873e-07,3.338573842570463e-07,8.734877817086795e-09,-3.851293000045207e-07,-1.268232536863198e-07,-2.956176887904224e-07,6.227946507826257e-07,-3.208459015662294e-08,-2.6025574582941376e-07,-7.505851878111378e-08
-3.5766392564038654e-08,6.926174545696636e-08,-1.6209903348305502e-07,-4.771790279894577e-07,9.382791850411754e-08,1.5763531320017333e-08,-5.146823654021599e-08,-4.1265038542136564e-07,-3.796759741610823e-07,2.9121347520096484e-07,5.087840350639454e-09,-3.58551629516985e-07,-1.4700892851229428e-07,-2.981814897561595e-07,5.783415816935738e-07,-5.8630978748715256e-08,-2.740465652352273e-07,-1.0252128479169035e-07
-5.892223471238198e-08,5.6099113496204994e-08,-1.435471688693275e-07,-4.854574607911902e-07,4.3004475259070726e-08,1.8541956957658263e-08,-7.721059981423053e-08,-4.345634729123903e-07,-4.0238174522423727e-07,2.6139538345060303e-07,6.811028941095125e-09,-3.2519037635401144e-07,-1.5915240635984097e-07,-2.914782225572373e-07,5.615329648915146e-07,-7.202440058275481e-08,-2.732771897039126e-07,-1.1663138689983529e-07
-6.979118262235025e-08,5.338557736551854e-08,-1.1858217401736836e-07,-4.901835168173161e-07,3.4020898868813987e-09,3.1649147579705986e-08,-8.98766871431589e-08,-4.434881386118199e-07,-4.1638864445668156e-07,2.534685825300976e-07,1.653028608688031e-08,-2.8975596645223544e-07,-1.620679924264723e-07,-2.785118819882381e-07,5.649504271407451e-07,-6.779444541477502e-08,-2.5811927241342613e-07,-1.1575564763989068e-07
-6.474156907872638e-08,6.35721986530423e-08,-8.525697076487868e-08,-4.904725189390885e-07,-1.7220254566653937e-08,5.8727375877169695e-08,-8.832084974911556e-08,-4.3841744543152377e-07,-4.20678536543758e-07,2.7168888152426684e-07,3.6054960225138394e-08,-2.52745757805863e-07,-1.5484859635649608e-07,-2.5940644555102065e-07,5.888304312002957e-07,-4.513865758793141e-08,-2.304396211649273e-07,-1.0059448031529417e-07
-4.302859596908507e-08,8.6637795826924e-08,-4.17012615801616e-08,-4.853513009507752e-07,-1.2638583361903146e-08,1.0163914708718693e-07,-7.510283792350689e-08,-4.1510092902235684e-07,-4.1638600209755245e-07,3.1415928874095405e-07,6.442164236898827e-08,-2.1261640118953006e-07,-1.3821115447692245e-07,-2.3263906290737934e-07,6.381124848760919e-07,-7.933598462011177e-09,-1.9474881958744157e-07,-7.476929597314716e-08
-7.900492969982105e-09,1.1883400020934929e-07,1.1203247541442019e-08,-4.746517726162551e-07,1.74631933517287e-08,1.5898287935257294e-07,-5.5253571368610744e-08,-3.760216439873714e-07,-4.0721336810136326e-07,3.722592664411775e-07,9.677410520213094e-08,-1.7185159344745093e-07,-1.153617103151297e-07,-1.9956784921759838e-07,7.032967637115933e-07,3.578465391169445e-08,-1.5767420954631934e-07,-4.440305139291614e-08
3.400770584355499e-08,1.5310814186597843e-07,6.861718544735551e-08,-4.604618306090818e-07,6.64190558738237e-08,2.1944285095872719e-07,-3.558151156576468e-08,-3.3002923692312253e-07,-3.981491760428452e-07,4.349843178460991e-07,1.2578299009777224e-07,-1.3528675574662886e-07,-9.120780641508322e-08,-1.640427281966321e-07,7.707617722280028e-07,7.66841632274701e-08,-1.2551045924018e-07,-1.618130425078083e-08
7.519978278381778e-08,1.818636400797979e-07,1.231410739641129e-07,-4.4657245832324125e-07,1.2310645002800241e-07,2.7852953967634677e-07,-2.2032601276918898e-08,-2.858375712110392e-07,-3.930215223448353e-07,4.92442879896114e-07,1.4468133454406071e-07,-1.0830689005946668e-07,-7.022423017836663e-08,-1.3146568629112741e-07,8.287159763315189e-07,1.080391799748814e-07,-1.0147069966540459e-07,5.223445585289383e-09
1.1022058923128225e-07,2.0025177615849627e-07,1.676627268531209e-07,-4.371848851522685e-07,1.7775893705645192e-07,3.308613570623847e-07,-1.6446788899663247e-08,-2.5078509322826916e-07,-3.9277191646698854e-07,5.401532890918392e-07,1.503363474394296e-07,-9.611341872406535e-08,-5.4685299145297744e-08,-1.0623095303349664e-07,8.702720816954691e-07,1.2809273630116172e-07,-8.499597561656062e-08,1.8569809717268223e-08
1.3695883795392958e-07,2.0749822325655192e-07,1.9749528245855915e-07,-4.3539333148955756e-07,2.2336754904485418e-07,3.7554778934320015e-07,-1.645332912771941e-08,-2.3098881012349066e-07,-3.9571597458811314e-07,5.772037527953383e-07,1.4356025311813395e-07,-1.0611190342776467e-07,-4.4707199418438285e-08,-9.168938175860099e-08,8.93654751378501e-07,1.3942540979019984e-07,-7.38207300291326e-08,2.5299524144748258e-08
1.5570146265313713e-07,2.0546668098318087e-07,2.10764451145186e-07,-4.42777720723472e-07,2.553282117059967e-07,4.124027435409585e-07,-1.7422651455971482e-08,-2.4459515671921537e-07,-3.9926745060892173e-07,6.053652821021043e-07,1.275082179640099e-07,-1.4014236168453198e-07,-3.9904146597797034e-08,-9.074969828299594e-08,9.028988030054694e-07,1.4629070979798238e-07,-6.709003209506564e-08,2.7308977954546514e-08
1.6704742364243418e-07,1.9596179455036946e-07,2.076505295240287e-07,-4.6038484264572915e-07,2.702963672053678e-07,4.454564153986559e-07,-1.583928186929811e-08,-2.732512934691875e-07,-4.018252219105001e-07,6.292494076939138e-07,1.0542173213785509e-07,-1.974776494323713e-07,-4.1055524178015026e-08,-1.0669957487594998e-07,9.046745741245819e-07,1.5131401890165414e-07,-6.688706655441703e-08,2.4983770903764958e-08
1.7043863503929598e-07,1.7893168449742645e-07,1.8957006831535278e-07,-4.889358747700203e-07,2.6552244652952343e-07,4.7642806220230243e-07,-8.986442091477322e-09,-3.2023054602519735e-07,-4.03041582118697e-07,6.480191204140168e-07,7.917899459091168e-08,-2.8262358486241226e-07,-5.0163986418962084e-08,-1.4274525978646304e-07,9.045043598944439e-07,1.5461275847740808e-07,-7.68271410155999e-08,1.7010296954801882e-08
1.6436127272801037e-07,1.5291526276128046e-07,1.5901634503419957e-07,-5.283807384984132e-07,2.4028459951896235e-07,5.094865887555824e-07,5.927462193155811e-09,-3.9345669294865477e-07,-4.0257985995290054e-07,6.607907268618676e-07,5.032205579556657e-08,-3.934300830241655e-07,-6.878167729116189e-08,-1.9872523791960891e-07,9.084382253322361e-07,1.5482666500026956e-07,-9.896738011778768e-08,1.9966413124515376e-09
1.4777586641926495e-07,1.1717160211678775e-07,1.1971038806444577e-07,-5.76507959639832e-07,1.99444337527158e-07,5.546188729839814e-07,2.3689896997983445e-08,-4.5461106686849117e-07,-3.9885703445329603e-07,6.677081852630765e-07,2.101108277348953e-08,-5.223133278020149e-07,-9.619818605118881e-08,-2.698739134542492e-07,9.21008316750679e-07,1.5059659797236722e-07,-1.3178158585284403e-07,-1.9675569955105135e-08
1.2130441572559532e-07,7.301924089445933e-08,7.582180076221981e-08,-6.278548890627699e-07,1.5015527276372045e-07,6.087379034800613e-07,3.6717947902170337e-08,-5.404022774337074e-07,-3.8915296258306774e-07,6.687905605283899e-07,-5.680971418285632e-09,-6.589954381345763e-07,-1.292228390260571e-07,-3.4811952633603427e-07,9.45225890298632e-07,1.4121347882242664e-07,-1.708104837398927e-07,-4.524913266917428e-08
8.707699783078476e-08,2.370615470759297e-08,3.019863708265677e-08,-6.773211922965567e-07,9.894658036653305e-08,6.680381509400959e-07,4.163780888234338e-08,-6.38154485825869e-07,-3.7155291775967183e-07,6.64351121459635e-07,-2.7557904432914235e-08,-7.899950386438553e-07,-1.6377359593442966e-07,-4.2459955324401637e-07,9.813816561722185e-07,1.257325897637376e-07,-2.1111772535478553e-07,-7.060199340839263e-08
4.742270290435293e-08,-2.7259421779433456e-08,-1.6771403621120348e-08,-7.196131164726893e-07,4.844094494219092e-08,7.255196659108966e-07,3.4351080667295984e-09,-7.067462996636809e-07,-3.4753184843086027e-07,6.524066066497859e-07,-4.5128469062549505e-08,-8.761293372182231e-07,-1.9689500319605888e-07,-4.919510686450626e-07,1.0281095638222225e-06,1.0204988905039588e-07,-2.492177673406358e-07,-9.187324682104265e-08
3.657282044269285e-09,-7.767695385495967e-08,-6.64658221102256e-08,-7.512675733678013e-07,-5.740861622016114e-09,7.49086016312405e-07,-1.1204296925470229e-07,-7.751561891919135e-07,-3.230263617307819e-07,6.294126992744851e-07,-6.159096551727764e-08,-9.159927401738891e-07,-2.275129059709095e-07,-5.449091308021498e-07,1.0800021690924193e-06,6.77390119397396e-08,-2.828202817994197e-07,-1.0663389409423748e-07
-4.371193397735758e-08,-1.2648400043272588e-07,-1.1935213650969928e-07,-7.775561688529425e-07,-6.999826839453329e-08,7.274961237467032e-07,-1.8717816764604572e-07,-7.894547705770566e-07,-3.0631832964219945e-07,5.915631470221794e-07,-8.08781027168423e-08,-9.357875879163534e-07,-2.5542744879583723e-07,-5.788088701453957e-07,1.1250188416489955e-06,2.2870125352524812e-08,-3.0903140399647806e-07,-1.1387833484643002e-07
-9.338209103927323e-08,-1.7218671979407813e-07,-1.7227259064275183e-07,-7.888175554657013e-07,-1.4511042197683614e-07,6.987352090712474e-07,-2.542514131873023e-07,-7.525055009820963e-07,-3.036368372359741e-07,5.406249190946039e-07,-1.0456921947395513e-07,-9.213912227999141e-07,-2.797416610308142e-07,-5.891194798955246e-07,1.1286008827426274e-06,-2.7666107465081964e-08,-3.2343423525646997e-07,-1.1337097139056858e-07
-1.4183137722962032e-07,-2.1170666213220657e-07,-2.1832351182843164e-07,-7.720326604757955e-07,-2.2469240813994475e-07,6.773329473042213e-07,-4.252405153323228e-07,-7.669842958190226e-07,-3.153329608885628e-07,4.81720160846242e-07,-1.303302440179036e-07,-9.223819826672243e-07,-2.984748261688585e-07,-5.748666961018538e-07,1.0928140690803856e-06,-7.476157429573542e-08,-3.21735462378249e-07,-1.0542632855285118e-07
-1.8373770298778463e-07,-2.4101041921144557e-07,-2.4989806313570505e-07,-7.454007869944842e-07,-2.9862295108479326e-07,6.461972090349393e-07,-5.764031009208103e-07,-7.901224054782606e-07,-3.355472169747408e-07,4.2602214811561376e-07,-1.5347383951713438e-07,-9.333000836040834e-07,-3.0994202073405226e-07,-5.404880778016697e-07,1.0598998630635506e-06,-1.0896792554737674e-07,-3.029956105533443e-07,-9.137230295368444e-08
-2.1430894439785699e-07,-2.580604088112443e-07,-2.626408774621572e-07,-7.187689795341915e-07,-3.579254824762127e-07,5.957771245336229e-07,-6.321145742870023e-07,-7.762724659069266e-07,-3.553828453946864e-07,3.842001136147212e-07,-1.7020944516617493e-07,-9.000090692549841e-07,-3.146553937697448e-07,-4.958420039534072e-07,1.0378577306926271e-06,-1.2494784824442797e-07,-2.714589749909835e-07,-7.39614400264713e-08
-2.3170892833378856e-07,-2.649354856521296e-07,-2.5766951429958427e-07,-6.841271423983561e-07,-3.982628963406585e-07,5.404325914057591e-07,-6.701705162305473e-07,-7.272572401601916e-07,-3.671742770416421e-07,3.5859037461893493e-07,-1.799519723645843e-07,-8.604260706896908e-07,-3.15708645637385e-07,-4.5349610933640803e-07,1.0159693716008463e-06,-1.22869771139084e-07,-2.3477116596591235e-07,-5.6563714882182165e-08
-2.3740009439990333e-07,-2.6666305842052503e-07,-2.401500101438315e-07,-6.480751236162596e-07,-4.1879318341484504e-07,5.357339304139991e-07,-6.799791436406007e-07,-6.491117523010814e-07,-3.66473754129235e-07,3.4840023330506825e-07,-1.8477854628441769e-07,-8.010789351103131e-07,-3.168789869206691e-07,-4.2288970285524835e-07,1.0071229171491886e-06,-1.0589527069906726e-07,-1.9957080700086455e-07,-4.1162416609376316e-08
-2.339932510424815e-07,-2.6813096258481357e-07,-2.1558244822815975e-07,-6.195104752419266e-07,-4.186861281546234e-07,5.321718159709828e-07,-6.57000544543769e-07,-5.870324003260696e-07,-3.512635487332746e-07,3.5102193117365064e-07,-1.8677846558413496e-07,-7.36862795565456e-07,-3.1997634863979307e-07,-4.07245886691992e-07,1.0157010206707444e-06,-7.649055390979715e-08,-1.680264142801431e-07,-2.6676857770770765e-08
-2.2259494191206476e-07,-2.707373715922046e-07,-1.8713479614493985e-07,-6.005323698732726e-07,-3.967411771102704e-07,5.264434512466994e-07,-6.636436112548513e-07,-5.424556793721128e-07,-3.2043449786748723e-07,3.6486827076141526e-07,-1.8629882832456492e-07,-7.200857779199953e-07,-3.2380911242618414e-07,-4.045453946930463e-07,1.0338898006814177e-06,-3.485748516092696e-08,-1.3812891399471135e-07,-9.323667058517636e-09
-2.0212830541724384e-07,-2.7194120596541286e-07,-1.557805780357949e-07,-5.907479200754561e-07,-3.544157038124896e-07,5.356646403567206e-07,-6.600245303088548e-07,-5.241464715604295e-07,-2.7376170401061097e-07,3.917394830183986e-07,-1.8249810197792616e-07,-7.314942995309724e-07,-3.2563296065515916e-07,-4.1116329740654324e-07,1.0668380132439855e-06,1.8845311923995602e-08,-1.0719185777037716e-07,1.4400715842668686e-08
-1.7122459635138915e-07,-2.6825058990617867e-07,-1.2256466905070803e-07,-5.881833660186089e-07,-2.982258956976576e-07,5.592450878112148e-07,-6.094814724596155e-07,-5.30716309803971e-07,-2.136772699703068e-07,4.3213155283070095e-07,-1.7535740306521016e-07,-7.668214553868283e-07,-3.2369671848575225e-07,-4.248482956076751e-07,1.1115763270433931e-06,8.103238350070134e-08,-7.526342696550934e-08,4.5942577921961406e-08
-1.308952157641278e-07,-2.5870439679260104e-07,-9.053221795807421e-08,-5.900148416340156e-07,-2.4033271351544795e-07,6.134948972613178e-07,-5.106945644659207e-07,-5.504584999942235e-07,-1.4653894196270762e-07,4.8099507289948e-07,-1.6695871648862473e-07,-8.214069919993806e-07,-3.186228332396301e-07,-4.450109915007035e-07,1.1607994198116548e-06,1.436038112236556e-07,-4.551918641476187e-08,8.290120058991747e-08
-8.546822048329115e-08,-2.458501450436536e-07,-6.425039829366467e-08,-5.935345372039911e-07,-1.943377898352591e-07,6.941762591010866e-07,-4.317258822223134e-07,-5.804310177856783e-07,-8.16636401043638e-08,5.29697934286106e-07,-1.6026451319049675e-07,-8.744667755824916e-07,-3.126310454034565e-07,-4.689735513982152e-07,1.2088122885215977e-06,1.9669675470389945e-07,-2.1761816606107423e-08,1.208335773176738e-07
-4.085987791260594e-08,-2.3385358628792037e-07,-4.715470179421405e-08,-5.95524322833026e-07,-1.6780613227295093e-07,7.742388592833677e-07,-3.82102678989714e-07,-6.114744886549996e-07,-2.8111578289005165e-08,5.701494315270529e-07,-1.570937870370765e-07,-9.215791335273015e-07,-3.076615047658326e-07,-4.938418668798251e-07,1.2465227874729008e-06,2.3354495698875108e-07,-5.716484377978532e-09,1.5468072857324368e-07
-1.5768655730257842e-09,-2.2548517142520294e-07,-3.926452392611216e-08,-5.925260587555439e-07,-1.6009725171805264e-07,8.108100543966117e-07,-3.7559981153501317e-07,-6.3888862521298e-07,8.989725129438054e-09,5.987281874596917e-07,-1.5639973599813038e-07,-9.585275241047383e-07,-3.041977103351462e-07,-5.155320279723352e-07,1.2722035983425344e-06,2.536923780459131e-07,3.58099946230339e-09,1.8135662363594308e-07
3.124828679081558e-08,-2.2033274020204491e-07,-3.712248593211892e-08,-5.824781047398362e-07,-1.639123284563434e-07,8.236657248663822e-07,-4.0132847363748586e-07,-6.590850932088163e-07,2.9756128424576012e-08,6.172532288654742e-07,-1.5491852144044193e-07,-9.81379760056532e-07,-3.016195332838828e-07,-5.311558612759252e-07,1.2895252630042737e-06,2.622813961215475e-07,8.387310868369251e-09,2.0033922130360084e-07
5.9546173949120655e-08,-2.1561804989820645e-07,-3.5772011426146734e-08,-5.655667099967905e-07,-1.7013513159666185e-07,8.39593833852052e-07,-4.3320807002226864e-07,-6.706383705602607e-07,3.840099476994377e-08,6.309858061088553e-07,-1.493730552199071e-07,-9.922576968877126e-07,-2.9938557961527847e-07,-5.422730969746079e-07,1.3050194177937095e-06,2.66362374438731e-07,1.0726456908364961e-08,2.126566283830628e-07
8.638777167821733e-08,-2.084161635927284e-07,-3.1005679772760936e-08,-5.454812793808492e-07,-1.7249111611439561e-07,8.556382917682847e-07,-4.5440432528743884e-07,-6.767553968964766e-07,4.0787873110661463e-08,6.445560855619246e-07,-1.3906898776268987e-07,-9.98703471319887e-07,-2.976264960242283e-07,-5.521714851180997e-07,1.323884421500105e-06,2.7129748000367286e-07,1.2270314805194831e-08,2.2002815662016383e-07
1.1413345495950684e-07,-1.972297081954897e-07,-2.0344114535131693e-08,-5.253934226158139e-07,-1.6777842135777367e-07,8.696259917300912e-07,-4.520474336487087e-07,-6.811601211255446e-07,4.207489119801244e-08,6.6061158618675e-07,-1.244644897201857e-07,-1.005422258704809e-06,-2.966111447449617e-07,-5.625657183435973e-07,1.3472592473444905e-06,2.7916295083952853e-07,1.517798870945586e-08,2.2364364874616605e-07
1.436261894203681e-07,-1.823284681610531e-07,-2.651432503694611e-09,-5.071490353353723e-07,-1.537311361598855e-07,8.887684547802766e-07,-4.286483610403475e-07,-6.847003599429573e-07,4.519813695694227e-08,6.778841678765197e-07,-1.0766119774917031e-07,-1.0106155943805983e-06,-2.9603679304913983e-07,-5.707042308383737e-07,1.3726629369760498e-06,2.889222898329622e-07,2.2207588190185496e-08,2.238334475011632e-07
1.7410044627917436e-07,-1.6514346065203414e-07,2.2357389381795374e-08,-4.892530077404565e-07,-1.290288233522052e-07,9.200791097210859e-07,-3.919652710758951e-07,-6.845019372838512e-07,5.0006497639982845e-08,6.924276241363252e-07,-9.190100756888551e-08,-1.0077615826248559e-06,-2.952551421382317e-07,-5.705074833143853e-07,1.3953716134167015e-06,2.972819973135426e-07,3.537050179854105e-08,2.19016447131701e-07
2.0323493005137312e-07,-1.479285071066526e-07,5.399204978687331e-08,-4.6955690500190744e-07,-9.48166558616478e-08,9.57758174408001e-07,-3.5086570465798e-07,-6.761151773942596e-07,5.314884087306624e-08,6.987459046332632e-07,-8.060097798241048e-08,-9.886897350575043e-07,-2.943023036349039e-07,-5.546175434627427e-07,1.4134601291509214e-06,2.9968079887009943e-07,5.4191990344803134e-08,2.0549609284830487e-07
2.2698233133381153e-07,-1.3395259461159312e-07,8.994293998766668e-08,-4.462706374474912e-07,-5.5488702548378585e-08,9.928913463090004e-07,-3.1339092824415916e-07,-6.569274325103615e-07,4.896735150028415e-08,6.921409836910658e-07,-7.731092764711668e-08,-9.493923703145992e-07,-2.945417809968982e-07,-5.199641772417846e-07,1.4149181441221453e-06,2.9163707473886664e-07,7.534957102453211e-08,1.7823946837917596e-07
2.4166242120031657e-07,-1.2631589007491967e-07,1.2590675950993672e-07,-4.1715637603953584e-07,-1.8988539492214268e-08,1.011291406769931e-06,-2.866836470389674e-07,-6.274714355317664e-07,3.1853681334988054e-08,6.700662221396913e-07,-8.440985442588907e-08,-8.923919836363186e-07,-2.979315549479673e-07,-4.6919582713404264e-07,1.4096840050961644e-06,2.7059307499663895e-07,9.444422999755693e-08,1.335416039130651e-07
2.4521909663709294e-07,-1.2672050798496498e-07,1.5666453726584753e-07,-3.784916909709859e-07,6.109820061671333e-09,1.0179692565470678e-06,-2.7255520030143944e-07,-5.897045257364465e-07,-6.556328272290435e-10,6.332248793585453e-07,-1.0161744282195507e-07,-8.255940491984531e-07,-3.0528168096104506e-07,-4.090561570027506e-07,1.36777146936377e-06,2.3778207839745028e-07,1.0863468054897632e-07,7.215772828275368e-08
2.3881699122504136e-07,-1.3407104526625055e-07,1.78088447785112e-07,-3.325956665407642e-07,1.506722863809548e-08,1.0115375267725541e-06,-2.687776124507161e-07,-5.456966141735615e-07,-4.5872133723899326e-08,5.885750956676851e-07,-1.2498263150318248e-07,-7.586189265245e-07,-3.1507459064058804e-07,-3.485957786585126e-07,1.2984609594468714e-06,1.9852629007687677e-07,1.1785120259294628e-07,5.429754625559796e-10
2.2746590524116376e-07,-1.442353751967808e-07,1.883499548268866e-07,-2.8343454649516907e-07,8.832831153622825e-09,9.865016501488343e-07,-2.696279546682396e-07,-4.9760888214874e-07,-9.635888766955946e-08,5.464280603033554e-07,-1.4820701525420523e-07,-7.021664907347452e-07,-3.2408911544831337e-07,-2.967136442860838e-07,1.2370289225731563e-06,1.6039186021781219e-07,1.2357416515552119e-07,-7.129874404220993e-08
2.1790803299656683e-07,-1.5190735670137621e-07,1.8751198574910537e-07,-2.4021129553724816e-07,-8.082641879387966e-09,9.506953809110603e-07,-2.6675183207541055e-07,-4.4926522494933567e-07,-1.4288224112359994e-07,5.171114614314875e-07,-1.6478263310465324e-07,-6.669113309925019e-07,-3.2950942735258305e-07,-2.6167288017041663e-07,1.200074183053107e-06,1.3142630640119308e-07,1.2642390112316294e-07,-1.335581899064175e-07
2.157302721719612e-07,-1.5363674877995405e-07,1.7612164782690272e-07,-2.082475339822133e-07,-3.112649361345231e-08,9.172070608034778e-07,-2.5654653478986477e-07,-4.073376053742503e-07,-1.7825175058207315e-07,5.062430342283394e-07,-1.7071117240941294e-07,-6.618831840115807e-07,-3.308942737361151e-07,-2.506263690881372e-07,1.1631294419395716e-06,1.1496895734145725e-07,1.2488415954984799e-07,-1.801870123514185e-07
2.2408620007056798e-07,-1.4918707799338006e-07,1.5472090178821282e-07,-1.8367598025225516e-07,-5.3960704248109186e-08,8.88733647902651e-07,-2.3621712206812662e-07,-3.795878826717538e-07,-1.9957579617489998e-07,5.146420262249646e-07,-1.644630257049485e-07,-6.917465862867366e-07,-3.304041118528896e-07,-2.664333912051208e-07,1.1809410566328336e-06,1.1117178069700595e-07,1.1641265297321423e-07,-2.096726741270694e-07
2.4079296924488913e-07,-1.4067149880228632e-07,1.2534194479421403e-07,-1.6961899151697692e-07,-7.159358064270767e-08,8.931365383707511e-07,-2.0387883300393817e-07,-3.732132895984523e-07,-2.0766261124027184e-07,5.360856902223148e-07,-1.4846049799010528e-07,-7.54806512168372e-07,-3.3112009983388107e-07,-3.062100298420113e-07,1.2636155209542125e-06,1.205633796342591e-07,9.988443736247104e-08,-2.2394486318254396e-07
2.625849005449436e-07,-1.304115626523259e-07,9.329187354501892e-08,-1.7282041998008162e-07,-7.72451137930195e-08,9.917700911541858e-07,-1.5730206142348897e-07,-3.8796496739073376e-07,-2.0435632902462884e-07,5.659071182458667e-07,-1.2548309283780995e-07,-8.42017528821129e-07,-3.34949069789275e-07,-3.619000792070426e-07,1.3295571503825575e-06,1.4235964433455752e-07,7.698442704391131e-08,-2.2639757711222494e-07
2.87871324210645e-07,-1.1884176210463624e-07,6.693571074652114e-08,-1.963185383611066e-07,-6.222188941843561e-08,1.0672335707221754e-06,-8.580612244346406e-08,-4.1969151455077985e-07,-1.9043185484971939e-07,6.020255590349655e-07,-9.680765560665563e-08,-9.409887225086396e-07,-3.418662246901519e-07,-4.2321087091129064e-07,1.3528058041620337e-06,1.8086325356959804e-07,5.1117098325037517e-08,-2.206919262223236e-07
3.1537638371453975e-07,-1.0470441193414437e-07,5.4590097485595765e-08,-2.474998782955594e-07,-2.0307050159465064e-08,1.1138844459304626e-06,5.738734953394938e-09,-4.6471673742528854e-07,-1.6582093270413503e-07,6.423710672979308e-07,-6.318068630696343e-08,-1.0403004004745112e-06,-3.5087737734576906e-07,-4.821631382982267e-07,1.3786681147051043e-06,2.36962914246835e-07,2.4689308758551114e-08,-2.107914079408301e-07
3.448332471535125e-07,-8.702370128726561e-08,5.931683088202272e-08,-3.1751893267085014e-07,4.623647197520934e-08,1.1713562862922996e-06,1.2813062424051163e-07,-5.216529253995312e-07,-1.3170892229830104e-07,6.87226658200155e-07,-2.6153305411485777e-08,-1.1326245703720242e-06,-3.614807764892251e-07,-5.361809732212131e-07,1.3872952867250402e-06,3.048783218092024e-07,-2.7614544968421437e-09,-2.0100932417454025e-07
3.745458712678302e-07,-6.83264892046389e-08,7.795620979465917e-08,-3.761236500133521e-07,1.2368093398771162e-07,1.210050532524103e-06,2.510968154583486e-07,-5.915695139455508e-07,-9.238933742286042e-08,7.342519592345487e-07,1.0350701276418759e-08,-1.2144879735385324e-06,-3.7413065122671595e-07,-5.862493548951598e-07,1.4211945676552574e-06,3.632918570690684e-07,-3.374108040241877e-08,-1.955865302044252e-07
4.0204997843181586e-07,-5.121435492952695e-08,1.0385267410699444e-07,-4.2922000291363804e-07,2.07932177292663e-07,1.2541320378824182e-06,3.2682551170386124e-07,-6.730424717624194e-07,-5.517827434709963e-08,7.761208529225741e-07,4.2428263410371755e-08,-1.2828082105365951e-06,-3.894181821028631e-07,-6.32962908095561e-07,1.500379302681827e-06,3.8677424735323404e-07,-6.996557005630562e-08,-1.971480780229942e-07
4.2456365621932305e-07,-3.724883511748538e-08,1.266138348295004e-07,-4.751730874829033e-07,2.653325500190241e-07,1.3007636288786994e-06,3.1072426270488787e-07,-7.587577544640736e-07,-2.8246192557568446e-08,8.078572249618026e-07,6.651064426709785e-08,-1.3345401759281067e-06,-4.0696915047778766e-07,-6.753450584664114e-07,1.5350514278134271e-06,3.575290293683391e-07,-1.101496863685724e-07,-2.0681989168039427e-07
4.4069874620915644e-07,-2.882396789009804e-08,1.383627969893972e-07,-5.154645953668597e-07,2.4905467873740613e-07,1.3421733478848907e-06,2.605985942415864e-07,-8.346517723464249e-07,-1.777938746171114e-08,8.257616444578623e-07,8.061310291226566e-08,-1.363042054927334e-06,-4.252055181985592e-07,-7.070343884278349e-07,1.5365376835618236e-06,3.106163522770043e-07,-1.5038012567353194e-07,-2.2530416231374783e-07
4.504443028425061e-07,-2.5848689519248315e-08,1.3597698674781958e-07,-5.74605278647345e-07,2.578174750713515e-07,1.3647015449102283e-06,2.0713208418000744e-07,-8.902916239699042e-07,-2.6767858786197115e-08,8.272742613771183e-07,8.671841384934554e-08,-1.366155896755764e-06,-4.4252794165391296e-07,-7.245063195490899e-07,1.5475508708429446e-06,2.7428521007540636e-07,-1.8655359289944946e-07,-2.5097890815278415e-07
4.544692368447757e-07,-2.7041946197590182e-08,1.1963172228312208e-07,-6.220279223460941e-07,2.391121028581328e-07,1.366041318797237e-06,1.6809049273866472e-07,-9.187989974918347e-07,-5.295013493947772e-08,8.145125415695865e-07,8.687839626916399e-08,-1.3469400059731728e-06,-4.57783657671726e-07,-7.276388588127522e-07,1.5346474607616873e-06,2.483465700567282e-07,-2.164935443070682e-07,-2.827640735485825e-07
4.5400268432150375e-07,-3.196805548937085e-08,9.252413772865866e-08,-6.397684088273469e-07,1.613249519625669e-07,1.3620297449054547e-06,1.7534014538574426e-07,-9.213563978014448e-07,-9.083169680321965e-08,7.894466463647953e-07,8.210421472267841e-08,-1.3117149609991623e-06,-4.715468633926881e-07,-7.18255860544407e-07,1.533729613343787e-06,2.034030122210133e-07,-2.3992426971205154e-07,-3.1512886502519606e-07
4.4990235862871804e-07,-3.95493689901026e-08,5.9473151035117375e-08,-6.107360250538907e-07,6.448289921927379e-08,1.370577607899428e-06,1.310331174384301e-07,-9.046279372455704e-07,-1.335066767227984e-07,7.534737951350708e-07,7.363605843465618e-08,-1.2682844771424404e-06,-4.849660734916361e-07,-7.013387440113123e-07,1.5669607234901823e-06,1.5740033153097446e-07,-2.5686065657212426e-07,-3.488946833679931e-07
4.433909986677932e-07,-4.807538580366852e-08,2.5648815292792073e-08,-5.735566295505365e-07,-2.131340720755716e-08,1.356088250070078e-06,8.404269947906442e-09,-8.743606211232262e-07,-1.723282401122045e-07,7.101712702767789e-07,6.203694290683444e-08,-1.2230908368136925e-06,-4.982071612560547e-07,-6.764413536899882e-07,1.5596147723994657e-06,6.992000387912744e-08,-2.664906523116643e-07,-3.834883870042915e-07
4.3631546219905913e-07,-5.460388815421465e-08,-5.805094960601409e-09,-5.367527111650291e-07,-7.512132424976898e-08,1.319881095860428e-06,-7.651801771955201e-08,-8.352835792245948e-07,-2.0240202468211738e-07,6.644116680883201e-07,4.974374337612317e-08,-1.1767884000970858e-06,-5.103868889311758e-07,-6.429599725865353e-07,1.5274232497028893e-06,-2.2849398083643295e-08,-2.677958539920705e-07,-4.212403930395513e-07
4.307683153508994e-07,-5.707523786592473e-08,-3.195769954702357e-08,-4.988206570604725e-07,-1.1518892747704635e-07,1.2698583319893053e-06,-1.0869053212071207e-07,-7.924431518934263e-07,-2.2052345820825768e-07,6.193361786528614e-07,3.820935925619909e-08,-1.1299498457994761e-06,-5.201798061498588e-07,-6.010235237503284e-07,1.450406843324279e-06,-1.0372894663597108e-07,-2.6116963094095067e-07,-4.580502103396499e-07
4.2900212184877996e-07,-5.3709106672455204e-08,-5.3223655252261e-08,-4.7165095797151423e-07,-1.398370661686286e-07,1.230542879680805e-06,-2.1876994642375418e-07,-7.461191371553634e-07,-2.2615440719361598e-07,5.796280216515874e-07,2.816155252903301e-08,-1.085390439444337e-06,-5.271432282921745e-07,-5.530436312371913e-07,1.3779960285542047e-06,-1.840987963176625e-07,-2.4913484596648196e-07,-4.88477389896742e-07
4.3186071955985666e-07,-4.4264227422957784e-08,-7.40199445843758e-08,-4.526575923512632e-07,-1.4972518918542792e-07,1.1930771223414749e-06,-2.672715797932432e-07,-7.015432936832557e-07,-2.2182837792861957e-07,5.464691297626097e-07,1.890679248351347e-08,-1.0459269070475286e-06,-5.320025245362426e-07,-5.03562384903064e-07,1.292416090914449e-06,-2.310957006448321e-07,-2.3506386345829903e-07,-5.086387402905568e-07
4.3895907014032945e-07,-2.9863908141761756e-08,-1.0008046255022326e-07,-4.4369488098055016e-07,-1.5670153455645319e-07,1.1580897524796011e-06,-2.3350551835195428e-07,-6.640968667807672e-07,-2.1055124802468023e-07,5.192307319017301e-07,8.892275774964753e-09,-1.0146112780373019e-06,-5.357481855305787e-07,-4.558034229385851e-07,1.2004921941056638e-06,-2.5377026308780744e-07,-2.209569897379691e-07,-5.16553627545736e-07
4.5026221091828714e-07,-1.2136629573189712e-08,-1.3596495395751945e-07,-4.381500912259899e-07,-1.5897951909283144e-07,1.116392930363503e-06,-1.654972123217013e-07,-6.314894726001053e-07,-1.9469486624314608e-07,4.996031184247749e-07,-2.588399692333167e-09,-9.911585120484755e-07,-5.379401857381223e-07,-4.101216714321878e-07,1.1336611318594625e-06,-2.635264107164649e-07,-2.0645000595478858e-07,-5.13628218217599e-07
4.6620010960492367e-07,9.637044661815134e-09,-1.7805118091044136e-07,-4.3139217246025054e-07,-1.552926906748165e-07,1.057986223966975e-06,-9.713634516659953e-08,-6.012197543140281e-07,-1.7542892079260645e-07,4.869027062576161e-07,-1.477828793289105e-08,-9.712992165096216e-07,-5.362942561422873e-07,-3.6374110352269e-07,1.0697556151656641e-06,-2.5799401219581077e-07,-1.8985858972331685e-07,-4.987393224207522e-07
4.873287388930091e-07,4.015639101511535e-08,-2.223980882487685e-07,-4.2264528556662485e-07,-1.43550890283515e-07,9.898097209123988e-07,-3.097476250431239e-08,-5.689042261334937e-07,-1.532411187392345e-07,4.775786167360466e-07,-2.1949793617614707e-08,-9.489250888027457e-07,-5.27602582923546e-07,-3.0830966867344974e-07,1.0190080777224635e-06,-2.4640651626448234e-07,-1.6989463537254867e-07,-4.75325041584536e-07
5.129175004748547e-07,7.918278650281322e-08,-2.6965127951451033e-07,-4.107552719046561e-07,-1.2067637042129672e-07,9.113909061204042e-07,3.89003632142815e-08,-5.267861924617768e-07,-1.3297030997526676e-07,4.777044670550855e-07,-2.4171596716763042e-08,-9.180360620655494e-07,-5.09040240755457e-07,-2.3917778180565385e-07,9.843957000709315e-07,-2.3019874600825808e-07,-1.4621745238915025e-07,-4.498783563294539e-07
5.408343861862925e-07,1.228244849128772e-07,-3.0831020268197776e-07,-4.043042791175013e-07,-8.649366881614742e-08,8.278084854224116e-07,1.1608064546926165e-07,-4.7081626742182933e-07,-1.1824992256774591e-07,4.854336229975913e-07,-2.2273436218096476e-08,-8.651714532355633e-07,-4.79195726495366e-07,-1.4921949983353557e-07,9.496202788271758e-07,-2.1029308290486684e-07,-1.1853953988194894e-07,-4.251197440864528e-07
5.688720706191604e-07,1.7346200064705794e-07,-3.053319077800261e-07,-3.9392578159615447e-07,-4.2419309243447394e-08,7.494787262100341e-07,1.9349139040186907e-07,-4.0152529281573994e-07,-1.1206949225114485e-07,4.988302216462732e-07,-1.4267911310994447e-08,-8.025037212916544e-07,-4.3830810536940406e-07,-5.599362018352453e-08,9.194209730988813e-07,-1.879900470292439e-07,-8.572577291089286e-08,-3.953429837775269e-07
5.964068500369133e-07,2.3080159226327248e-07,-2.675839808993933e-07,-3.799437421102803e-07,1.0487724796672007e-08,6.97846938835329e-07,2.7366685462327576e-07,-3.090022805123552e-07,-1.088115338613727e-07,5.221958852568707e-07,-4.989560518586061e-09,-7.28185800292231e-07,-3.860108200304487e-07,3.898773326897567e-08,9.085020241726446e-07,-1.6097447137805871e-07,-4.631920708326529e-08,-3.6586729824929214e-07
6.253418185537586e-07,2.9503015578359213e-07,-2.2623298116469383e-07,-3.648171325151977e-07,7.129373363045145e-08,6.676870088319389e-07,3.60811218273816e-07,-2.0806818299778295e-07,-1.072982557745717e-07,5.58144973076374e-07,1.0873236021971111e-08,-6.342893538995664e-07,-3.2880035518709533e-07,1.3290098546103358e-07,9.027283543836723e-07,-1.252995229564497e-07,-2.6292594984056506e-10,-3.3689875174632415e-07
6.586455547217496e-07,3.704013551223537e-07,-1.9316257037983546e-07,-3.459527015684063e-07,1.3809074997532573e-07,6.635251036717028e-07,4.6023167257869266e-07,-1.0507750046311396e-07,-1.0940724479994938e-07,6.095434670832653e-07,4.430538791940053e-08,-5.331170184564157e-07,-2.7187696115336533e-07,2.1298544185400862e-07,8.960754330274842e-07,-7.844186455133143e-08,5.000884273339288e-08,-3.2477343478975375e-07
6.982648143186415e-07,4.530423282247128e-07,-1.7715002333521437e-07,-3.254204042060441e-07,2.0781894781578792e-07,6.787262789933853e-07,5.649910200929902e-07,-5.824261387870237e-09,-1.1398498520731189e-07,6.790522016673335e-07,8.36128463432202e-08,-4.520549127763553e-07,-2.1998811384274837e-07,3.0055933079660324e-07,8.914544374814811e-07,-2.100864433407324e-08,1.0071370706125177e-07,-3.219917871248592e-07
7.458243639068348e-07,5.347476192584122e-07,-1.6596441745783623e-07,-3.0316073018884337e-07,2.769161002011998e-07,6.951811576610627e-07,6.705405681089098e-07,8.49667554171924e-08,-1.397510253284718e-07,7.699289285074104e-07,1.2222300091929563e-07,-3.747937229488141e-07,-1.7765470556345344e-07,3.457352488883727e-07,8.906134311824013e-07,4.417434945363919e-08,1.4940664915588734e-07,-3.0312158562039034e-07
8.002967777526801e-07,6.036801266706114e-07,-1.2044633710222637e-07,-2.78550450190883e-07,3.42899695174196e-07,7.095606319479157e-07,7.725457337495274e-07,1.4623576641888618e-07,-1.4918251965476988e-07,8.65536421472924e-07,1.57465213931175e-07,-3.4476885949264963e-07,-1.4469884420952496e-07,3.4602952152433774e-07,8.957782296598279e-07,1.1470144388942301e-07,1.9648114129668492e-07,-2.535578491113717e-07
8.57690547208859e-07,6.653604112788416e-07,-4.2126071830177384e-08,-2.500528822020554e-07,4.038561100028677e-07,7.187342065243723e-07,8.638503047426785e-07,1.9041296443900513e-07,-1.2060426025285345e-07,9.669288080903872e-07,1.8713757656141004e-07,-4.454828022648519e-07,-1.1909539395960783e-07,3.162380471189578e-07,9.08534468819365e-07,1.893415289269709e-07,2.437050083474598e-07,-1.761998093667073e-07
9.25324836909747e-07,7.225005821452446e-07,3.528690670409617e-08,-2.212490540434566e-07,4.561182020648642e-07,7.254932997330889e-07,9.411422138724891e-07,2.201574652535915e-07,-4.335588730079775e-08,1.06990339152938e-06,2.1268723327840022e-07,-4.800233008662341e-07,-9.857425671191771e-08,2.6216508489877817e-07,9.230399749200265e-07,2.668796933409756e-07,2.91155648938882e-07,-7.576531552627454e-08
1.0041235495218577e-06,7.7640479688051e-07,1.0990967217204462e-07,-1.9508196515834127e-07,4.93531582391975e-07,7.223394768285315e-07,1.0002963713105577e-06,1.8639097555118256e-07,5.12938783591404e-08,1.1717166234077293e-06,2.5318195464108805e-07,-4.7203106830548607e-07,-8.664933188757833e-08,2.39757224704898e-07,9.403631740327064e-07,3.4477469506364094e-07,3.3574602772983277e-07,-1.2889923037964642e-08
1.0854124813253336e-06,8.26626414037198e-07,1.669611543382296e-07,-1.7488173230208135e-07,5.094171726118969e-07,7.290130560087211e-07,1.0388419788579024e-06,1.3836846343659993e-07,1.1751720646737032e-07,1.2716929782431378e-06,3.0020269065926455e-07,-4.4929137405427483e-07,-7.769328110668514e-08,2.3193152385504848e-07,9.64819314419453e-07,4.191352797642668e-07,3.7296590157062724e-07,3.5000122899323787e-08
1.1676454301432228e-06,8.637808837006015e-07,1.9087688475214855e-07,-1.643419056442211e-07,5.006523501193302e-07,7.502864206750347e-07,1.0584516290529606e-06,1.314039895394705e-07,1.5597864125418034e-07,1.3560459072420187e-06,3.508808155184169e-07,-4.379158690408373e-07,-7.16662651586073e-08,1.958758557612087e-07,1.0038902365584784e-06,4.86325497373917e-07,4.001387923971634e-07,1.3854850878139384e-07
1.244452705734619e-06,8.813188013521146e-07,2.0387592193490356e-07,-1.630556992034955e-07,4.7114946432683433e-07,7.866979909057111e-07,1.064929166472416e-06,1.5337171303173252e-07,2.2367718544679972e-07,1.408547649934492e-06,4.057456436714984e-07,-4.668315677178061e-07,-6.873234328273553e-08,1.2723632034972123e-07,1.067628738605468e-06,5.440848404098944e-07,4.1804431828869916e-07,2.2209422492108657e-07
1.3016651898354409e-06,8.778264819592541e-07,2.1853339034935241e-07,-1.683076857789802e-07,4.3137413474889125e-07,8.425267312773381e-07,1.0674349783032393e-06,1.7158664191155516e-07,3.052200716630786e-07,1.426963734153644e-06,4.6570385505284284e-07,-5.814627335969565e-07,-6.516901577834678e-08,2.6871300556640545e-08,1.1287555868845213e-06,5.910004488270218e-07,4.295466078413088e-07,3.015490628897289e-07
1.3436557195278935e-06,8.731733794728709e-07,2.15246394299349e-07,-1.7610202295567974e-07,3.9388793175829524e-07,9.137459126644873e-07,1.0746136131647922e-06,1.4846485204873745e-07,4.181555768808977e-07,1.4311028803490282e-06,5.17455932843856e-07,-7.08245788304943e-07,-6.147421204195136e-08,-7.856131270839761e-08,1.1880701528971617e-06,6.249712819309868e-07,4.368108425424044e-07,3.590277853875346e-07
1.3611443974931045e-06,8.705477324134957e-07,2.0628015179303003e-07,-1.8117216694588238e-07,3.6830970108076975e-07,9.949244177307622e-07,1.0902468786061742e-06,6.122097207514362e-08,4.912374652475371e-07,1.413532773855453e-06,5.470794757938744e-07,-8.250240552806682e-07,-5.8775647124449693e-08,-1.3751855380766436e-07,1.2429710937084288e-06,6.428340361065099e-07,4.3997138281914854e-07,3.557320609260759e-07
1.3582837319535593e-06,8.65941916021682e-07,1.943917389994529e-07,-1.825656077240108e-07,3.579256126592354e-07,1.0785329905640324e-06,1.1122993268490193e-06,-3.5861198719306265e-08,5.317903187901044e-07,1.427143517693013e-06,5.532514556422566e-07,-9.311028326901372e-07,-5.907316990504289e-08,-1.8164737415936482e-07,1.275613681343784e-06,6.420707568477102e-07,4.3852530018980615e-07,3.614317480384548e-07
1.383029461711575e-06,8.564209929178021e-07,1.765173345749593e-07,-1.7981681201161738e-07,3.603581866833232e-07,1.1616868045259332e-06,1.1339674509503364e-06,-1.1864301369197973e-07,5.653290291712024e-07,1.448300099819864e-06,5.668031923016182e-07,-9.710299819806248e-07,-6.038477894113485e-08,-2.0917737234335023e-07,1.3051257121300343e-06,6.234826121947616e-07,4.3380706914230625e-07,3.87355196705533e-07
1.4149988466604628e-06,8.432045154514891e-07,1.6152030623905383e-07,-1.6998377584452454e-07,3.711007898789995e-07,1.232052387683811e-06,1.1489666924118418e-06,-1.8163519286032462e-07,6.088457787478882e-07,1.4395420933892382e-06,5.999602620935781e-07,-9.645109378402853e-07,-6.60139605003753e-08,-2.1543082273419358e-07,1.3063107597486226e-06,5.924775941155299e-07,4.2976052665425726e-07,4.173680809746759e-07
1.421973157243854e-06,8.171012589869228e-07,1.5217610793742684e-07,-1.504685873960273e-07,3.8537315253146835e-07,1.2900195503724183e-06,1.1545528104338842e-06,-1.9876889741272884e-07,6.58306210590626e-07,1.4343734864893527e-06,6.058761048551181e-07,-9.434710759390484e-07,-7.278915215926909e-08,-2.152384861111588e-07,1.2799934776105506e-06,5.573362449785233e-07,4.3092097967314905e-07,4.664942385034161e-07
1.4052314146114137e-06,7.852180426965379e-07,1.4774398739947308e-07,-1.1826610376900839e-07,3.9838455881804723e-07,1.2991236360400149e-06,1.1513636211548323e-06,-2.249919212051276e-07,6.940681718397002e-07,1.3843339189164492e-06,5.865224724831332e-07,-9.09738095874746e-07,-7.653738412007151e-08,-1.7568849891059757e-07,1.2430921533394002e-06,5.255859350848385e-07,4.39160778186353e-07,5.007098699667011e-07
1.3713607842348544e-06,7.629131408701015e-07,1.4912491969201412e-07,-7.47203525106771e-08,4.053456996406971e-07,1.2739804387228418e-06,1.1421220282800425e-06,-2.6132306830661166e-07,7.028105415680736e-07,1.3213934903080126e-06,5.716834963644215e-07,-8.471321322212912e-07,-7.769264298420271e-08,-1.2103708731313707e-07,1.2116204872077266e-06,5.01229178793885e-07,4.519575712217899e-07,5.162961248037712e-07
1.3349760614064928e-06,7.356525648872514e-07,1.6089961877120553e-07,-2.8020099205831068e-08,4.0229238567838377e-07,1.2483535991417617e-06,1.130406733233534e-06,-2.5145913507586947e-07,6.70990686793456e-07,1.2834823114296443e-06,5.464493997981682e-07,-8.018837911651812e-07,-7.674247432424907e-08,-7.048159047965319e-08,1.1762971071004016e-06,4.84675582994361e-07,4.6372346834050826e-07,4.757608339129465e-07
1.3070356876773662e-06,7.071469856118725e-07,1.7739116569068405e-07,-9.295446440935238e-10,3.8748590469510785e-07,1.223984692387432e-06,1.120651454862492e-06,-2.1054360039681872e-07,6.34457555352351e-07,1.2574946738407923e-06,5.168411709807464e-07,-7.889392144803532e-07,-7.628628644213993e-08,-3.4335561332909326e-08,1.1434482969870674e-06,4.746994361100019e-07,4.690903013564699e-07,4.084644692328151e-07
1.2884373088087429e-06,6.822026208738265e-07,1.9364096273203743e-07,-1.8491813011289746e-09,3.6298223125378735e-07,1.1902300688709632e-06,1.117757093894825e-06,-1.888936375588086e-07,6.045171763582388e-07,1.2444985637972743e-06,5.026280938448884e-07,-7.852783087977388e-07,-7.847411988443308e-08,-2.1809814530980465e-08,1.1116579210501243e-06,4.721025135086452e-07,4.6542914567811057e-07,3.6210960310476526e-07
1.2845406879160016e-06,6.575210709463391e-07,2.0787253172418907e-07,-3.3218937265727455e-08,3.3363446276685767e-07,1.160226727412945e-06,1.1278383350629401e-06,-1.936962312116526e-07,5.795896048148525e-07,1.2437300617009837e-06,5.031328054852044e-07,-8.08770046916363e-07,-8.474916862022787e-08,-3.285558613859637e-08,1.1049237697605263e-06,4.7325559207068865e-07,4.5278377029527163e-07,3.325364348024482e-07
1.3021602676753798e-06,6.33027494435849e-07,2.1704859041954645e-07,-4.809507660365867e-08,3.037685428260441e-07,1.1536991865395594e-06,1.1456049389317763e-06,-2.1073354556595656e-07,5.904520430681287e-07,1.2485069200505629e-06,5.171101601413396e-07,-8.548692684937268e-07,-9.411213112458566e-08,-6.631616317965609e-08,1.1363891280185058e-06,4.7608733050708186e-07,4.317424827799181e-07,2.9625654693609576e-07
1.331082961008573e-06,6.194963302464302e-07,2.194654880695155e-07,-3.5416882837013925e-08,2.736124390684383e-07,1.1768628867535416e-06,1.163577255373087e-06,-2.4192526743432624e-07,6.582320512668989e-07,1.2480497600949522e-06,5.436615730656081e-07,-9.14264287402289e-07,-1.077554718020858e-07,-1.1705522785293519e-07,1.1736579173121594e-06,4.7386790018169825e-07,4.0151977908897563e-07,3.172851054239748e-07
1.3632717219242029e-06,6.070843316462154e-07,2.1154524201690708e-07,-7.122853581203417e-08,2.3754271659490777e-07,1.197171796861626e-06,1.167730451779782e-06,-2.8714221820501894e-07,7.255474080788624e-07,1.2558130954398452e-06,5.723435037456833e-07,-9.86445231744868e-07,-1.2868347686527043e-07,-1.8709862876281156e-07,1.2038834163191976e-06,4.253538395570686e-07,3.603836754937587e-07,3.352622187337923e-07
1.3655580742098995e-06,5.835484755094976e-07,1.884216052756337e-07,-1.33852422958539e-07,1.8707580201349913e-07,1.2071478628924738e-06,1.1007975798855832e-06,-3.425566003371725e-07,7.861800222759195e-07,1.2487215714994009e-06,5.690208937146314e-07,-1.0652231722366214e-06,-1.5953831867836854e-07,-2.6321014288909335e-07,1.1963373479343457e-06,3.6812436425675707e-07,3.0832148442988524e-07,3.3175522577372875e-07
1.3281399485432582e-06,5.475508955534563e-07,1.4780984866386504e-07,-1.817215517267911e-07,1.1789066692519576e-07,1.1638276686346079e-06,1.008168029797523e-06,-4.05567275263241e-07,7.9128002227988e-07,1.192557664597553e-06,5.469610054896982e-07,-1.133419049020592e-06,-2.015750287351024e-07,-3.3498416841956944e-07,1.1613490629481175e-06,3.2688268193765887e-07,2.493374444967169e-07,2.896119804577115e-07
1.3033473124558566e-06,4.926311711954494e-07,9.242062904524328e-08,-2.485667096134783e-07,3.454808250354505e-08,1.1184436756462208e-06,9.50466592048727e-07,-4.7305490326129216e-07,7.732625700388315e-07,1.1441625360151446e-06,5.196296631118024e-07,-1.1827229541059297e-06,-2.521467684201769e-07,-3.953451825596148e-07,1.1213689490115862e-06,2.3830628170454224e-07,1.9086153181742978e-07,2.369909617780303e-07
1.2729525817451643e-06,4.264646738613745e-07,2.950190588951176e-08,-3.184385899223852e-07,-5.0703621024939406e-08,1.0457715315341085e-06,8.34667673138402e-07,-5.324461046340625e-07,7.679269433861841e-07,1.0482533047774693e-06,4.6660237455863707e-07,-1.212851668019139e-06,-3.055383442827824e-07,-4.3739007263383425e-07,1.0808813545894778e-06,1.2101254275785828e-07,1.4036280799824885e-07,1.9172988719946694e-07
1.2006539468537525e-06,3.59102401711922e-07,-3.2289436876981344e-08,-3.663702133609431e-07,-1.2535340521174914e-07,9.818223702782013e-07,6.89772204490021e-07,-5.729938022047732e-07,7.566074867485042e-07,9.541590745210537e-07,4.0181671521034605e-07,-1.2265094252653185e-06,-3.5561948568201017e-07,-4.6302145745689594e-07,9.960287324100486e-07,1.5503694422753568e-08,1.0160318685764878e-07,1.2715609927600486e-07
1.1207958218180135e-06,2.986719842718131e-07,-8.6428495897367e-08,-4.0271973119745066e-07,-1.8288739877634244e-07,8.987842595013418e-07,5.71753097441355e-07,-5.974926016995415e-07,6.986370992881679e-07,8.676278253325189e-07,3.420646821068233e-07,-1.2336737537082755e-06,-3.9831422993306154e-07,-4.778822512136543e-07,9.047298806275006e-07,-6.896763657244246e-08,7.3189873194801e-08,4.933822863741598e-08
1.0571352119481176e-06,2.4751335179125223e-07,-1.3017379551426762e-07,-4.2741083960072986e-07,-2.2403972770020233e-07,8.262056635978994e-07,4.872946995423403e-07,-6.098989346964832e-07,6.190672035315305e-07,7.975613870205052e-07,2.9682958486435e-07,-1.2438457619855624e-06,-4.326044355956501e-07,-4.894353162673964e-07,8.346418332424086e-07,-1.3749374186824537e-07,5.023761011545638e-08,-2.1261062008224062e-08
1.0058880600847792e-06,2.0775814866194689e-07,-1.63808186212814e-07,-4.4796547074119987e-07,-2.5377119429962273e-07,7.697567251603538e-07,4.224564584418179e-07,-6.163117978509866e-07,5.617864401785237e-07,7.408790610084281e-07,2.639813880072211e-07,-1.2632567960900998e-06,-4.5971168222319005e-07,-5.04509465144296e-07,7.820603770531239e-07,-1.888944398752097e-07,2.7446117960844206e-08,-8.221223509397529e-08
9.673411828666254e-07,1.776419811582611e-07,-1.8881856273602914e-07,-4.723273543310459e-07,-2.7680147911908977e-07,7.228063263779805e-07,3.7553543007966946e-07,-6.223867093159398e-07,5.195297561458984e-07,6.997714364758701e-07,2.4130644315938994e-07,-1.2936339611460332e-06,-4.817211908665871e-07,-5.260509491522638e-07,7.414412394851131e-07,-2.265664735658129e-07,1.0607580512240869e-09,-1.3678164091445984e-07
9.418743012861596e-07,1.562900892879384e-07,-2.0671451551957697e-07,-4.992975270393702e-07,-2.9580424027604837e-07,6.848723303539995e-07,3.409068494918685e-07,-6.286988025512223e-07,4.843106077264031e-07,6.758532694689871e-07,2.2900336934970133e-07,-1.3327203248161957e-06,-5.008345535597923e-07,-5.541980398533185e-07,7.110099161339818e-07,-2.556709570479167e-07,-3.111892583295499e-08,-1.851077936753104e-07
9.174210828802995e-07,1.4343706742864417e-07,-2.189383195174144e-07,-5.273365858016784e-07,-3.1223251406016475e-07,6.544239474810859e-07,3.127237640194854e-07,-6.348480466979883e-07,4.555805105288471e-07,6.635423441833397e-07,2.1846160065889096e-07,-1.3758674679472188e-06,-5.191439152193733e-07,-5.873917141320576e-07,6.860631253927604e-07,-2.8228506072228045e-07,-7.032045878797027e-08,-2.2926127421648907e-07
8.990697191613045e-07,1.3516621942260502e-07,-2.2698588323235068e-07,-5.551043936863598e-07,-3.276930499523721e-07,6.292090731210044e-07,2.855508363450074e-07,-6.406186264465459e-07,4.2927119435168455e-07,6.58518398896828e-07,2.082395965929761e-07,-1.4176910575911075e-06,-5.38306246433969e-07,-6.230661294325124e-07,6.610688084903603e-07,-3.117069240374796e-07,-1.1635173714624866e-07,-2.725798123595318e-07
8.82543614779616e-07,1.298345576132938e-07,-2.317943732428141e-07,-5.810076314606611e-07,-3.437057575113861e-07,6.073893935778805e-07,2.5544767554622604e-07,-6.458614221148442e-07,4.021391481941309e-07,6.554952181349389e-07,1.988533242668028e-07,-1.4546724974986554e-06,-5.586656219297054e-07,-6.585545289937912e-07,6.331516675517466e-07,-3.462416409406684e-07,-1.6625383327221842e-07,-3.172151962735713e-07
8.560377786653507e-07,1.275648641733213e-07,-2.3268543910768716e-07,-6.034068691282902e-07,-3.6008472616794485e-07,5.897104707736394e-07,2.2155437424478252e-07,-6.485061642387309e-07,3.7451819528464745e-07,6.512494304546214e-07,1.896473514834687e-07,-1.483314421085444e-06,-5.78495561410788e-07,-6.904842150346424e-07,6.037880633339049e-07,-3.83932118269712e-07,-2.1383502139281958e-07,-3.6231672910712317e-07
8.267160785504189e-07,1.3086372822036713e-07,-2.2719698369035293e-07,-6.211059965323945e-07,-3.7380282716988877e-07,5.78908077282041e-07,1.8653031496037818e-07,-6.465402386021732e-07,3.4817730192539095e-07,6.499222681030573e-07,1.8358078002050156e-07,-1.5007853375434603e-06,-5.94481499461556e-07,-7.152453927819267e-07,5.765991320042857e-07,-4.199131673828494e-07,-2.515375577495846e-07,-4.030795853317564e-07
7.988291046151575e-07,1.4384272188266677e-07,-2.125724895441301e-07,-6.327295350066707e-07,-3.798232318610613e-07,5.784896992108871e-07,1.5493599406977387e-07,-6.369968790654132e-07,3.281744878981522e-07,6.548076907570732e-07,1.837507586943101e-07,-1.5070806867898163e-06,-6.03522425301599e-07,-7.302833227066212e-07,5.565110932680203e-07,-4.493341558343153e-07,-2.7398857769987093e-07,-4.353258852319937e-07
7.841702269143607e-07,1.6915300906560806e-07,-1.879425392668358e-07,-6.371295617017913e-07,-3.7520591468920396e-07,5.898403625643382e-07,1.3031129142521454e-07,-6.187464088011719e-07,3.1992885077830654e-07,6.655843336828241e-07,1.9418013498883438e-07,-1.5036153531365008e-06,-6.046838817423861e-07,-7.348144658750563e-07,5.463945586257595e-07,-4.69946813332704e-07,-2.8066511918787224e-07,-4.575305231983394e-07
7.846835786192273e-07,2.0511228925473582e-07,-1.552780131652734e-07,-6.341009867608692e-07,-3.597649366204715e-07,6.108089741278057e-07,1.1384481630945562e-07,-5.939508656337118e-07,3.2305217356512245e-07,6.819255003835639e-07,2.111133999499414e-07,-1.4918423701708038e-06,-5.996248394240763e-07,-7.293509980741559e-07,5.450046341378769e-07,-4.824210691960237e-07,-2.7539422515063666e-07,-4.702548182388767e-07
7.980983916267921e-07,2.4766293796817967e-07,-1.1802667474345604e-07,-6.240910853766239e-07,-3.346202904442074e-07,6.381138335062429e-07,1.0579681846659282e-07,-5.649668817809925e-07,3.35125630861346e-07,6.993975213072767e-07,2.3229802962845112e-07,-1.474100154451856e-06,-5.910999355796457e-07,-7.148486855214786e-07,5.496124383580423e-07,-4.885190894446338e-07,-2.63158356476189e-07,-4.772445484244403e-07
8.189963408628112e-07,2.9248837742159263e-07,-7.857922686031566e-08,-6.073792093138238e-07,-3.0023709825653256e-07,6.692815660322545e-07,1.0763373639169415e-07,-5.323360134866439e-07,3.526887994013932e-07,7.160208116510973e-07,2.563259509484009e-07,-1.4507168891943228e-06,-5.809410107298866e-07,-6.910867948726068e-07,5.579235691364714e-07,-4.892636703238908e-07,-2.4716116274842696e-07,-4.81217192824332e-07
8.43291415883843e-07,3.3785323906206747e-07,-3.699728332381125e-08,-5.832783763515211e-07,-2.551630944225678e-07,7.044059923471617e-07,1.2258825707642484e-07,-4.940683775529528e-07,3.7274476940471925e-07,7.331309876684008e-07,2.815510592041913e-07,-1.4198015466911872e-06,-5.693978845211399e-07,-6.564254711545166e-07,5.683808527630197e-07,-4.8478635286547e-07,-2.2848014814308523e-07,-4.837633836180786e-07
8.730113751401855e-07,3.8354276527876704e-07,7.857326559271652e-09,-5.503196702225648e-07,-1.9826864729163615e-07,7.437828984334418e-07,1.5332585271553066e-07,-4.4693399551913625e-07,3.926263589557953e-07,7.479399682307342e-07,3.08385561442631e-07,-1.379914084660427e-06,-5.562205455614552e-07,-6.094930956329728e-07,5.796615775122362e-07,-4.7557453523840335e-07,-2.0784834240590011e-07,-4.868183629206872e-07
9.051310582623613e-07,4.284870355246212e-07,5.59756218009558e-08,-5.071754393280024e-07,-1.3138840574144394e-07,7.852916752151734e-07,1.9927808851557055e-07,-3.910111578882295e-07,4.0890506467178995e-07,7.567112595277879e-07,3.3638029971746885e-07,-1.3313500893135832e-06,-5.42056918779972e-07,-5.507971240749824e-07,5.898698523891875e-07,-4.634841540894471e-07,-1.8721407071913377e-07,-4.947842546196513e-07
9.359024284834531e-07,4.702921034078788e-07,1.0494593117192661e-07,-4.540448420978461e-07,-5.937305551434138e-08,8.241487324863745e-07,2.5609366425098874e-07,-3.2968140911746706e-07,4.1694958067486836e-07,7.560101894624075e-07,3.630929640441202e-07,-1.27649740629177e-06,-5.285168244830569e-07,-4.832396715872694e-07,5.963166537401836e-07,-4.5105149012104525e-07,-1.6927061884715058e-07,-5.098808089588149e-07
9.593973541038446e-07,5.068507769186969e-07,1.5110684018437512e-07,-3.929002146771533e-07,1.1503472070839601e-08,8.550928459556752e-07,3.172220151736004e-07,-2.668618097692753e-07,4.126716360780071e-07,7.424451701152526e-07,3.8585742926314204e-07,-1.2188195442956768e-06,-5.167478310119191e-07,-4.112105236772927e-07,5.971874730808139e-07,-4.3970291617799e-07,-1.5552399494740772e-07,-5.324930885063622e-07
9.738171242291141e-07,5.373774488046067e-07,1.9201242021419012e-07,-3.2656751226884177e-07,7.712366744139917e-08,8.757080196113529e-07,3.767055809477017e-07,-2.0466076633124005e-07,3.959495944266977e-07,7.169202292381254e-07,4.039780236753041e-07,-1.1619025504418158e-06,-5.060819115707992e-07,-3.3832421095790326e-07,5.930897931310145e-07,-4.286524387228472e-07,-1.4520864576318015e-07,-5.614313700374838e-07
9.839246805570321e-07,5.640815287206873e-07,2.279238263528416e-07,-2.576240822096276e-07,1.3724570091529063e-07,8.866451779934717e-07,4.309897911752294e-07,-1.425152056687521e-07,3.6813033668871757e-07,6.860296209352157e-07,4.2032876614598695e-07,-1.1078158279427207e-06,-4.943037315227955e-07,-2.671404617126572e-07,5.857188924029265e-07,-4.1568723122018997e-07,-1.3637887231357582e-07,-5.916549105897156e-07
9.91034672551088e-07,5.906498908773878e-07,2.6111272219239296e-07,-1.8850208573976921e-07,1.933054199434979e-07,8.901041347216135e-07,4.788452063792894e-07,-7.974301617340562e-08,3.32105823162759e-07,6.560841941477518e-07,4.35900449042619e-07,-1.058319894830884e-06,-4.794057336673042e-07,-1.9990662397952645e-07,5.764826797801638e-07,-3.9936401436839824e-07,-1.280342979465845e-07,-6.234333128767719e-07
9.987854895658346e-07,6.185450025937981e-07,2.938224397585669e-07,-1.2208706766767473e-07,2.458096773830089e-07,8.857867657181263e-07,5.201783445236001e-07,-1.847064621994422e-08,2.8825310919800073e-07,6.312264179171969e-07,4.5061821440057673e-07,-1.0097567977958778e-06,-4.6135383938464347e-07,-1.3941794905834192e-07,5.645188848360575e-07,-3.8050082207134994e-07,-1.2104088943341217e-07,-6.616701883393703e-07
1.0108068194278192e-06,6.463786344097123e-07,3.2679942565425e-07,-6.236620412012837e-08,2.9329592776388836e-07,8.717085892412405e-07,5.550154222253347e-07,3.61058419886212e-08,2.306038956345502e-07,6.143236550603127e-07,4.6379305906795876e-07,-9.661713159704295e-07,-4.423619314693587e-07,-8.945853914949523e-08,5.472749180419046e-07,-3.619208370579154e-07,-1.1689544755408903e-07,-6.985357168730312e-07
1.025009841340555e-06,6.710796276554663e-07,3.5943445422272556e-07,-1.3829259704563882e-08,3.335199185735274e-07,8.462640879049339e-07,5.830997095877736e-07,7.915944937300026e-08,1.7024244847231304e-07,6.059938707453812e-07,4.746164738124122e-07,-9.371309279263536e-07,-4.254683283182152e-07,-5.3592087325952035e-08,5.232051544310819e-07,-3.4649818278440583e-07,-1.1566288014278459e-07,-7.342657591275317e-07
1.0411796986273627e-06,6.904403232293488e-07,3.907608658966259e-07,2.0083589765191407e-08,3.652291093994772e-07,8.111570709327409e-07,6.040540100017511e-07,1.0908452074521033e-07,1.084210307163302e-07,6.083108484549132e-07,4.84029517354958e-07,-9.200353415445245e-07,-4.1267273784613094e-07,-3.3803784179347276e-08,4.926869770255394e-07,-3.355610157988318e-07,-1.1529252667908667e-07,-7.691303432798327e-07
1.0582954881024146e-06,7.046380472205555e-07,4.198525290627561e-07,3.809335818483e-08,3.8905972217127844e-07,7.710637107946856e-07,6.174457745812908e-07,1.2774990997515965e-07,3.6513052798226546e-08,6.249700931198039e-07,4.938335435707645e-07,-9.137718902486655e-07,-4.0407990193378184e-07,-3.032960702443196e-08,4.578169017150486e-07,-3.2896499194010234e-07,-1.1306394832666303e-07,-7.973780431510048e-07
1.077627435883565e-06,7.155809438368396e-07,4.451625197491043e-07,4.143140538875105e-08,4.0533412062674875e-07,7.323197731235034e-07,6.224015404532476e-07,1.3809232588745638e-07,-2.9481605893472874e-08,6.554553491568583e-07,5.06900883911762e-07,-9.184898671408935e-07,-3.9846465993651043e-07,-4.24981077106323e-08,4.209902247777556e-07,-3.262515977201104e-07,-1.0780359224768843e-07,-8.279800419116792e-07
1.0993013314441272e-06,7.243367146578756e-07,4.6369918265966656e-07,3.2784454115824255e-08,4.1224223052376847e-07,6.967427912851167e-07,6.175496766985796e-07,1.41158283352989e-07,-7.018150076403661e-08,6.971212145516977e-07,5.236497326775887e-07,-9.339627464997982e-07,-3.9441806678744755e-07,-7.000928669867114e-08,3.8350604619057953e-07,-3.276222263774289e-07,-1.0079936602878671e-07,-8.51806632784157e-07
1.121410547487768e-06,7.297244778974402e-07,4.7131759231952186e-07,1.5230839236876136e-08,4.064826965819498e-07,6.621341814483885e-07,6.015220214735029e-07,1.3583404603820556e-07,-8.138376255804515e-08,7.43856611097264e-07,5.422424248861121e-07,-9.637535666532554e-07,-3.908820891421659e-07,-1.1249523025269501e-07,3.461155034618349e-07,-3.335629253345783e-07,-9.454263198937325e-08,-8.53934770413852e-07
1.1412727579704826e-06,7.29407400213084e-07,4.6449909624530605e-07,-8.385053074563396e-09,3.858126455327596e-07,6.250960089414752e-07,5.736950976801034e-07,1.2111454425185553e-07,-6.458173688929794e-08,7.885038323799745e-07,5.607209517557903e-07,-1.023032325016474e-06,-3.86707847286849e-07,-1.6816938561146493e-07,3.1088102183824984e-07,-3.4358698680295483e-07,-9.054546290804423e-08,-8.305459357489451e-07
1.1558684304724138e-06,7.220570018584472e-07,4.4241307980731467e-07,-3.55077713388281e-08,3.5165802703238594e-07,5.844544701613362e-07,5.357577619964834e-07,9.824928264093523e-08,-2.995638888317914e-08,8.281736120716956e-07,5.782465080857537e-07,-1.1082426444422278e-06,-3.801027244332583e-07,-2.331159242476792e-07,2.8195784086498016e-07,-3.5535088067561913e-07,-8.84093681107058e-08,-7.950899770413502e-07
1.1654460386887812e-06,7.08872111078747e-07,4.075630974693287e-07,-6.386554288903475e-08,3.0901299035466035e-07,5.430181633062914e-07,4.908904402195799e-07,7.031883627876031e-08,-1.7291139305684735e-08,8.628107443932988e-07,5.956037986924721e-07,-1.2003559499465315e-06,-3.690589266716914e-07,-3.0222583223869886e-07,2.645334214392936e-07,-3.6576189356116965e-07,-8.692411339106461e-08,-7.556578919175506e-07
1.1715343375966177e-06,6.92939876779151e-07,3.6448209639046257e-07,-9.227423446045044e-08,2.6378506155820624e-07,5.052364813617406e-07,4.42904058563128e-07,3.950396619576323e-08,-1.6363582520637158e-08,8.934222911042337e-07,6.142891516093383e-07,-1.3003609742341707e-06,-3.5272414670751577e-07,-3.713486302358473e-07,2.62852716923965e-07,-3.729323486939309e-07,-8.578555646607866e-08,-7.251816433663268e-07
1.1754790810514209e-06,6.771035086889637e-07,3.1765353821307994e-07,-1.211158046379469e-07,2.1991777001907956e-07,4.7528851465302765e-07,3.951126723621351e-07,4.824860002002929e-09,1.1400778201575603e-08,9.20630671009286e-07,6.345137446459725e-07,-1.4046944011973432e-06,-3.324283486786208e-07,-4.385442029233098e-07,2.7886427231285753e-07,-3.7722441783942926e-07,-8.588887470282668e-08,-6.989865652977439e-07
1.1762366337490554e-06,6.622909814498185e-07,2.7034872115103524e-07,-1.5178942794372655e-07,1.7912266115130152e-07,4.554530696565419e-07,3.496458024262811e-07,-3.705638925044707e-08,8.339565433695905e-08,9.430212216504233e-07,6.545950530020284e-07,-1.5078922490686412e-06,-3.1114243040658126e-07,-5.027359176333322e-07,3.1095702768445767e-07,-3.806345776267405e-07,-8.775606600470814e-08,-6.56668883882089e-07
1.1715307196689333e-06,6.475775207650649e-07,2.2494188083393408e-07,-1.849694754885471e-07,1.4290332798188963e-07,4.475020283601051e-07,3.0811799530135824e-07,-8.835830804303376e-08,1.8257713935930972e-07,9.579413276858505e-07,6.71927442313391e-07,-1.6064469433589951e-06,-2.916914341695817e-07,-5.611666269781119e-07,3.555535076887157e-07,-3.842887861958074e-07,-8.983730302297241e-08,-5.918135251198102e-07
1.1593763601589816e-06,6.315472024669066e-07,1.8375513777757422e-07,-2.188996972195238e-07,1.1393884342403582e-07,4.526038866701258e-07,2.7168954780390443e-07,-1.473040910613509e-07,2.8202059797227924e-07,9.632868321076118e-07,6.841654937132899e-07,-1.689444321068877e-06,-2.7528603335650397e-07,-6.096996238433141e-07,4.079509028256251e-07,-3.8881966396521083e-07,-8.867940821425142e-08,-5.062997368063791e-07
1.1389874235884463e-06,6.133615082096385e-07,1.4911181198008864e-07,-2.495004896388341e-07,9.568613915089956e-08,4.704608844157898e-07,2.418262067433027e-07,-2.0857962109995913e-07,3.6831434316851855e-07,9.582442851510264e-07,6.899039242579455e-07,-1.7374424948660972e-06,-2.615769264944952e-07,-6.436164975935497e-07,4.6171149807482647e-07,-3.943008212717362e-07,-8.101231622573644e-08,-4.1549056272735497e-07
1.1109632608231366e-06,5.927002663455677e-07,1.2236240883403959e-07,-2.723254573522432e-07,8.959667253683048e-08,4.974080616559292e-07,2.1784776672546975e-07,-2.664711692712881e-07,4.060591614150221e-07,9.429905966893341e-07,6.88499150946083e-07,-1.7487613359222255e-06,-2.4982410083109596e-07,-6.60256933878258e-07,5.093497419511737e-07,-4.011204527963856e-07,-6.587021844619365e-08,-3.127796317389867e-07
1.076086854656545e-06,5.692661756161906e-07,1.0295934133116383e-07,-2.845654533536704e-07,9.233107780540149e-08,5.264571588338985e-07,1.9733387319271215e-07,-3.1747590951294853e-07,4.2989911114660707e-07,9.181458007441882e-07,6.799914809005559e-07,-1.7376020898848618e-06,-2.397605704708183e-07,-6.608306087270568e-07,5.444570700039164e-07,-4.103745694780526e-07,-4.4798231161945466e-08,-2.2631675380866686e-07
1.0353495966647866e-06,5.430135925011897e-07,8.882612464549084e-08,-2.8614641981197207e-07,9.750884313878941e-08,5.497730539003988e-07,1.7726967830404679e-07,-3.6007577028423984e-07,4.461654434481038e-07,8.863065743785224e-07,6.656928594083461e-07,-1.7074648154533944e-06,-2.313106662961028e-07,-6.492964903274403e-07,5.638557518097857e-07,-4.222589181605443e-07,-2.0094001390302113e-08,-1.7969905863424644e-07
9.906812496438824e-07,5.151360609434278e-07,7.79504773399562e-08,-2.789462264746482e-07,9.903026866195045e-08,5.615337411830514e-07,1.5506794472510057e-07,-3.927105908035807e-07,4.2865113119608484e-07,8.518469383482388e-07,6.484341435712115e-07,-1.6667307982907582e-06,-2.238383970003317e-07,-6.304846672991191e-07,5.688118313413393e-07,-4.3540918153735447e-07,6.9420539156221984e-09,-1.4341356046702848e-07
9.454134276044086e-07,4.884631877677616e-07,6.963527049181295e-08,-2.652748761717333e-07,9.362769151767579e-08,5.593772490698029e-07,1.2999108096033227e-07,-4.129928639387375e-07,4.013772677267277e-07,8.192117334678793e-07,6.320089554798077e-07,-1.6233146904627611e-06,-2.1615159938557955e-07,-6.087695072522457e-07,5.64347627857483e-07,-4.4743307298224085e-07,3.5892463582426604e-08,-1.2664808993643276e-07
9.031903535964238e-07,4.6631443141225753e-07,6.425564834383219e-08,-2.472651425714764e-07,8.124199326367943e-08,5.443221290976681e-07,1.0264725913017382e-07,-4.1968615086894704e-07,3.6746438744189864e-07,7.918122528730105e-07,6.194206340086402e-07,-1.5803481635394052e-06,-2.0757825736497513e-07,-5.881401825061453e-07,5.555561485763585e-07,-4.5707748361356075e-07,6.56492615105494e-08,-1.1431203071753223e-07
8.665458278163822e-07,4.503902572535162e-07,6.169246987589836e-08,-2.2748009706378307e-07,6.301212683691314e-08,5.18142734327759e-07,7.464090344556747e-08,-4.1572866826690264e-07,3.359822295920569e-07,7.696543960374642e-07,6.112265454914621e-07,-1.5442419776010534e-06,-1.9920312227249808e-07,-5.726280158169299e-07,5.450194977723193e-07,-4.6531305057320003e-07,9.307042044742325e-08,-1.039991898807743e-07
8.353465963522553e-07,4.394174280180976e-07,6.005185470506381e-08,-2.0964281224991768e-07,3.931534644124926e-08,4.822768713234587e-07,4.667599705111672e-08,-4.0891341556027336e-07,3.131191500324852e-07,7.495883862550704e-07,6.053454447412255e-07,-1.5240533563011434e-06,-1.9393533716652183e-07,-5.664183767378393e-07,5.327157134008131e-07,-4.751980398447733e-07,1.137617982043639e-07,-8.889688333209783e-08
8.070996131750153e-07,4.2972478165229053e-07,5.6136488935252425e-08,-1.98196693747432e-07,1.0344434921121585e-08,4.389888977994995e-07,1.9179452756450252e-08,-4.086224828966282e-07,2.942926703982472e-07,7.288034594391654e-07,5.983336013675947e-07,-1.5226553291355116e-06,-1.9492338908711756e-07,-5.723412286989767e-07,5.1757193582231e-07,-4.897439226437534e-07,1.247456873774612e-07,-7.957658347164893e-08
7.790561284021005e-07,4.17605433910984e-07,4.7306341640553704e-08,-1.968260962466096e-07,-2.1602388458711078e-08,3.9312818902125436e-07,-7.286066244410064e-09,-4.2086338674091785e-07,2.7031637850173466e-07,7.065324833167697e-07,5.87525960878875e-07,-1.5369388523079193e-06,-2.0335339778036861e-07,-5.903202815087609e-07,4.997119203590065e-07,-5.094543718592189e-07,1.2660703799331982e-07,-8.27306850854364e-08
7.501574696578664e-07,4.017278516518911e-07,3.294486013481563e-08,-2.0685797737873253e-07,-5.2169821987513304e-08,3.5215180528327013e-07,-3.214536211007589e-08,-4.4559663776255046e-07,2.4055535030432687e-07,6.847375713217779e-07,5.7279995876879e-07,-1.5644738299335856e-06,-2.174802073873477e-07,-6.175740092503659e-07,4.809101823325499e-07,-5.320229574212605e-07,1.2301727742824342e-07,-9.41308236178743e-08
7.214026172661927e-07,3.8350600265670663e-07,1.4172377018726592e-08,-2.2681850263968135e-07,-7.687160849722931e-08,3.2295483586529284e-07,-5.506415435303904e-08,-4.779849527374996e-07,2.1533789623133678e-07,6.669323770110806e-07,5.559483177132406e-07,-1.599233964511736e-06,-2.3380644424714232e-07,-6.500366278256416e-07,4.628026453134513e-07,-5.541661178411382e-07,1.1784659001146759e-07,-1.1348083344455496e-07
6.940584787841657e-07,3.651278822949027e-07,-7.767709332292938e-09,-2.530982521254916e-07,-9.432351732935271e-08,3.079003285002725e-07,-7.757520843668568e-08,-5.122430186638218e-07,1.9487283453741663e-07,6.543089312286208e-07,5.390656184342461e-07,-1.635009167504547e-06,-2.494287116365883e-07,-6.839902362749231e-07,4.4517127276716845e-07,-5.747885309798527e-07,1.1255572327434332e-07,-1.3171413369308467e-07
6.676226800895236e-07,3.471769903420135e-07,-3.2802927353750717e-08,-2.811628149596174e-07,-1.0777913991347877e-07,3.0282410726160737e-07,-1.0337148440372829e-07,-5.443766738842969e-07,1.7862028894852812e-07,6.437671352744063e-07,5.22604872481396e-07,-1.6672271912144628e-06,-2.634807089198447e-07,-7.164185006198007e-07,4.251470050732149e-07,-5.95656808033456e-07,1.0571706235822707e-07,-1.494031561943152e-07
6.399705035087674e-07,3.2836500388777613e-07,-6.162843604379537e-08,-3.066126786710048e-07,-1.2275108718351073e-07,2.9942562138220554e-07,-1.364488307341292e-07,-5.719684828509482e-07,1.631180590978106e-07,6.306671051664026e-07,5.059204631136721e-07,-1.6913370486279222e-06,-2.765401478428164e-07,-7.447894764621484e-07,3.9931650402807033e-07,-6.192090325145351e-07,9.556696509905601e-08,-1.7095874148802447e-07
6.095256126509124e-07,3.077254299722957e-07,-9.400233241807612e-08,-3.2595874580011615e-07,-1.4308360650763824e-07,2.907558197311871e-07,-1.7774626405698283e-07,-5.926758661093298e-07,1.4566606370730043e-07,6.125129137257016e-07,4.889484769892747e-07,-1.704232451644404e-06,-2.889317042059925e-07,-7.667913917706477e-07,3.667823001714166e-07,-6.462636534540495e-07,8.23643789221932e-08,-1.968891458206648e-07
5.774981168255246e-07,2.8691740218669075e-07,-1.276070094707395e-07,-3.3703202341016525e-07,-1.6822748709014679e-07,2.7504233279826116e-07,-2.2364567696840325e-07,-6.034798576153288e-07,1.27936448816609e-07,5.908052675086279e-07,4.730502560244517e-07,-1.7050580586368706e-06,-2.998683200364973e-07,-7.805656915827242e-07,3.2984157840916255e-07,-6.75057758374169e-07,6.811217472896586e-08,-2.273104163942207e-07
5.478578976862552e-07,2.701072675900286e-07,-1.5878510970998116e-07,-3.393650001398724e-07,-1.9385764436332485e-07,2.556329292990389e-07,-2.6753605509595227e-07,-6.022234277291938e-07,1.1241298634122719e-07,5.701071031058579e-07,4.6010570172507066e-07,-1.6956860848837936e-06,-3.0833302336567785e-07,-7.856292323048335e-07,2.920766507029013e-07,-7.030007508821698e-07,5.4183338928103647e-08,-2.5996414565084583e-07
5.248262909198834e-07,2.6145246396859995e-07,-1.8457929530566472e-07,-3.344826907451219e-07,-2.1520784319874727e-07,2.3769006085350347e-07,-3.0320248596347645e-07,-5.900781373983405e-07,1.0074002758788118e-07,5.537067182269658e-07,4.5120207660114365e-07,-1.6806745342368596e-06,-3.1474285387608157e-07,-7.832117240798818e-07,2.557804746110741e-07,-7.292779138330215e-07,3.906471171511553e-08,-2.944516410033384e-07
5.101612174112975e-07,2.624127807584552e-07,-2.0426213886484854e-07,-3.2576188121699324e-07,-2.29929446266475e-07,2.2497710809154633e-07,-3.27567081509585e-07,-5.719849692936972e-07,9.131315445349275e-08,5.408596005252578e-07,4.4514124745140085e-07,-1.6654886866994582e-06,-3.215757731059436e-07,-7.755430204315161e-07,2.208598496447137e-07,-7.554265480450511e-07,1.8831834287347668e-08,-3.324178302581447e-07
5.023958954411793e-07,2.7125419141966036e-07,-2.1903192192648578e-07,-3.173909782407732e-07,-2.3779941472083662e-07,2.1847440925720873e-07,-3.4139223498826295e-07,-5.538227776129555e-07,8.031566154321658e-08,5.283942329835691e-07,4.392383834298987e-07,-1.653538356309033e-06,-3.321055725703501e-07,-7.640431840308965e-07,1.8590488421520135e-07,-7.838081308636262e-07,-9.765002772802622e-09,-3.754236812123886e-07
4.985171181849514e-07,2.849610561801671e-07,-2.3011040811842948e-07,-3.1274882854446714e-07,-2.384525730827182e-07,2.1870827946262214e-07,-3.470686530317471e-07,-5.38308140307192e-07,6.409966900083678e-08,5.126597820016726e-07,4.3148153060486045e-07,-1.6442765886783602e-06,-3.4822411062697634e-07,-7.482701710243478e-07,1.505954170794397e-07,-8.152783224432777e-07,-4.623439442809777e-08,-4.242859410741758e-07
4.954569216971306e-07,3.015902717262224e-07,-2.371646920395604e-07,-3.1323991030761326e-07,-2.3022880099439715e-07,2.2680380393294406e-07,-3.4643305050010886e-07,-5.231811115360957e-07,4.10248297963506e-08,4.92642125097017e-07,4.2205760277282004e-07,-1.6334067642865604e-06,-3.6919478297757917e-07,-7.258911203673993e-07,1.1649551917662804e-07,-8.482893226007652e-07,-8.622821786804544e-08,-4.766765149404926e-07
4.927586750503867e-07,3.20920703866084e-07,-2.384360094708777e-07,-3.185537681811702e-07,-2.1036266232243705e-07,2.43642882613141e-07,-3.3978111984101073e-07,-5.033665129826692e-07,1.1967366754492369e-08,4.7027854023238566e-07,4.1305567832072846e-07,-1.615338821977522e-06,-3.9236272559230964e-07,-6.947978464757614e-07,8.561415469343985e-08,-8.800575764493982e-07,-1.245656480788828e-07,-5.296208079627605e-07
4.908243787560036e-07,3.429758719875036e-07,-2.3252033759996164e-07,-3.2780699601758613e-07,-1.7905360859302764e-07,2.6755399492773414e-07,-3.2765247381683535e-07,-4.7577075548036347e-07,-2.1098330340227063e-08,4.478136414625611e-07,4.06448714452893e-07,-1.5874084813702173e-06,-4.152697359821443e-07,-6.560938527006382e-07,5.817097136456491e-08,-9.089864633279084e-07,-1.5907059430762923e-07,-5.818360307396816e-07
4.88956610504585e-07,3.6594047449281375e-07,-2.2039236632145105e-07,-3.4114399132934083e-07,-1.4154678554076143e-07,2.925467731714666e-07,-3.12164907176154e-07,-4.429453913925722e-07,-5.696543022896323e-08,4.2616023367001825e-07,4.0225718821740696e-07,-1.5525254053375078e-06,-4.3751043450648324e-07,-6.151907963026034e-07,3.138679732245871e-08,-9.361830473338435e-07,-1.9219953525037235e-07,-6.334785418398689e-07
4.851491091180249e-07,3.8564416203797785e-07,-2.058371894584978e-07,-3.599859330909533e-07,-1.0736551485793473e-07,3.0965671225977227e-07,-2.9661490321186894e-07,-4.1237379700355975e-07,-9.561095348065531e-08,4.0463856164612e-07,3.9796694038002956e-07,-1.518071818051763e-06,-4.607691427470518e-07,-5.801515791795337e-07,9.171988180918277e-10,-9.645647023790622e-07,-2.289686518772667e-07,-6.873053404178128e-07
4.7676905374231586e-07,3.975473852778208e-07,-1.9383694562436493e-07,-3.8566274833601007e-07,-8.565412486719831e-08,3.1088911208976205e-07,-2.8471112779976086e-07,-3.917098200070138e-07,-1.3682071910534172e-07,3.8261272481309476e-07,3.905192771112101e-07,-1.4922641361472474e-06,-4.869612627942151e-07,-5.581155641588052e-07,-3.6283216632963764e-08,-9.964556553094687e-07,-2.7281713711986254e-07,-7.451356046146836e-07
4.6305880745094544e-07,3.9982895420994084e-07,-1.8802007954785128e-07,-4.1779839193738715e-07,-8.094075723053227e-08,2.9363324362523793e-07,-2.783125950017302e-07,-3.838020115525107e-07,-1.7837504022621232e-07,3.609167616522587e-07,3.786444819590437e-07,-1.4802661022849179e-06,-5.160786034709245e-07,-5.518605370753753e-07,-7.949318727211669e-08,-1.0312837373674742e-06,-3.2281724374659817e-07,-8.056815986255971e-07
4.4747313149740114e-07,3.950871765426738e-07,-1.8911559353988087e-07,-4.5378656651441547e-07,-9.17036470622205e-08,2.615445916337453e-07,-2.764896368065409e-07,-3.8572744623040884e-07,-2.1561935232991404e-07,3.4451735350115043e-07,3.642548268001434e-07,-1.4833048235922044e-06,-5.456062654465806e-07,-5.60016932637456e-07,-1.2465164439544276e-07,-1.0658253398552072e-06,-3.7424781106147655e-07,-8.658647347489218e-07
4.352543060160331e-07,3.8926040112514896e-07,-1.9551685170793413e-07,-4.901532482597989e-07,-1.1204297182667716e-07,2.2225435422704685e-07,-2.761865177220746e-07,-3.923811379142677e-07,-2.4318794563233334e-07,3.3935891123716383e-07,3.511474718448802e-07,-1.5004133218399818e-06,-5.719735266063314e-07,-5.796019237654891e-07,-1.6673149444851716e-07,-1.0959621347409718e-06,-4.2213478835964276e-07,-9.207767523307974e-07
4.315653420312223e-07,3.883776028753376e-07,-2.053924353218078e-07,-5.247391068826606e-07,-1.362513621180913e-07,1.832210131949759e-07,-2.744792672639631e-07,-4.013432148559268e-07,-2.574579329288892e-07,3.4936826117478917e-07,3.430681264098323e-07,-1.5317140901408287e-06,-5.928934630329457e-07,-6.093896614740442e-07,-2.0229609843190807e-07,-1.1194136622970748e-06,-4.647123254572487e-07,-9.671422211846265e-07
4.3928853096608536e-07,3.9528894761405016e-07,-2.1849677173945e-07,-5.582099439698168e-07,-1.622765501663612e-07,1.4902499049403942e-07,-2.698926511650804e-07,-4.1510435071540483e-07,-2.581258389867687e-07,3.761070513833407e-07,3.4210157059673403e-07,-1.5791166858191445e-06,-6.087054271090098e-07,-6.51190435275878e-07,-2.3056742003480246e-07,-1.1369943521033026e-06,-5.041949266347593e-07,-1.0046754340644252e-06
4.573276420570932e-07,4.085901020597982e-07,-2.3611233537522666e-07,-5.930865304062334e-07,-1.896319759066638e-07,1.2162469780714939e-07,-2.634402827371795e-07,-4.3886175027262634e-07,-2.4798924989012253e-07,4.1492433301201363e-07,3.4816986105131617e-07,-1.6439594118876593e-06,-6.217261829010162e-07,-7.074167663335139e-07,-2.523950278754719e-07,-1.151532394074981e-06,-5.445724237863644e-07,-1.0351029210603108e-06
4.81763461522713e-07,4.241335218293982e-07,-2.5942551189708366e-07,-6.314376985634857e-07,-2.1797112749098466e-07,1.0201455183998456e-07,-2.5811783050033956e-07,-4.76068154020652e-07,-2.3139645336636914e-07,4.594230684984186e-07,3.5960327549531854e-07,-1.7238215536400442e-06,-6.344637293470853e-07,-7.777134171844984e-07,-2.688126445224668e-07,-1.1662298692106107e-06,-5.88432869577776e-07,-1.0608837072125351e-06
5.074943255600324e-07,4.374485406148981e-07,-2.882466650408681e-07,-6.726683340694318e-07,-2.4617983140737506e-07,9.097797944033406e-08,-2.5723429656205634e-07,-5.257287479206792e-07,-2.129824783678945e-07,5.027200840615182e-07,3.737451625177667e-07,-1.810888137845808e-06,-6.483627721720785e-07,-8.566262773948149e-07,-2.8074842538914417e-07,-1.1836173333700349e-06,-6.361196149617502e-07,-1.0846001533885842e-06
5.291054494123849e-07,4.451186333201841e-07,-3.2052850207852005e-07,-7.127073350781401e-07,-2.7112958219548243e-07,8.784827716557369e-08,-2.6353873740181196e-07,-5.832183904068984e-07,-1.9733054082700775e-07,5.345402021844921e-07,3.8704285461786483e-07,-1.893787350078889e-06,-6.638728873312203e-07,-9.345034122925807e-07,-2.8960361056740415e-07,-1.2056520925606376e-06,-6.866578902451095e-07,-1.1090981185336954e-06
5.411826964514734e-07,4.447897691337915e-07,-3.53706537802489e-07,-7.462025651238737e-07,-2.9081361962467197e-07,8.893002886454756e-08,-2.7861906660443555e-07,-6.429000510576347e-07,-1.8892358969521168e-07,5.472813078470326e-07,3.9536556345519733e-07,-1.9604449887098543e-06,-6.811425705675332e-07,-1.0003269229274772e-06,-2.978440754744408e-07,-1.233598369610013e-06,-7.388192026954149e-07,-1.1371690463501694e-06
5.396475884281891e-07,4.350077358381235e-07,-3.856132753277759e-07,-7.683088801473053e-07,-3.052094067071632e-07,8.870508374134347e-08,-3.021387400908423e-07,-6.996175919427089e-07,-1.913196362402034e-07,5.350745290084679e-07,3.9526030643107095e-07,-2.002143721241134e-06,-7.00134071312245e-07,-1.0447301896387849e-06,-3.080248380328342e-07,-1.267477236897108e-06,-7.908766219413729e-07,-1.170974535543884e-06
5.223364394943483e-07,4.157956765415145e-07,-4.1402669882335964e-07,-7.75853524470091e-07,-3.1482372418934423e-07,8.343570973382684e-08,-3.303629466072514e-07,-7.480841164308976e-07,-2.0551832792379792e-07,4.960708467655267e-07,3.8601308217039535e-07,-2.014277596521763e-06,-7.198283161785947e-07,-1.0616711088744543e-06,-3.2059367051182496e-07,-1.304769769794642e-06,-8.392353040627478e-07,-1.21016104394907e-06
4.90653387195812e-07,3.8956094978097566e-07,-4.359404676485865e-07,-7.675206989303434e-07,-3.168630857904646e-07,7.431709450422144e-08,-3.56012025887157e-07,-7.819573198727473e-07,-2.2885140813405034e-07,4.373942596905167e-07,3.7050715188993627e-07,-1.995945292421669e-06,-7.375129832033381e-07,-1.0484267952296555e-06,-3.328957310850072e-07,-1.3401173058478665e-06,-8.780766551192777e-07,-1.251211343298456e-06
4.4994691146500917e-07,3.6099211975695805e-07,-4.4715159190458315e-07,-7.431054515894063e-07,-3.0696395367291324e-07,6.704185865491207e-08,-3.6996917321129744e-07,-7.950388468549098e-07,-2.557481094506608e-07,3.695586990660314e-07,3.5382135149116667e-07,-1.949901108959337e-06,-7.49334736215877e-07,-1.0058019277991536e-06,-3.401543855567485e-07,-1.3665948347071678e-06,-9.013303942128014e-07,-1.2889034200826384e-06
4.0745665372816607e-07,3.353330689439958e-07,-4.436460867735634e-07,-7.037274427665008e-07,-2.8087442385453496e-07,6.762400436366172e-08,-3.647545114271459e-07,-7.846984206629099e-07,-2.8018768270280524e-07,3.0259402088421127e-07,3.4110485618587327e-07,-1.8828099812548977e-06,-7.520204808536714e-07,-9.389542706136347e-07,-3.3940790734398794e-07,-1.3786910386142394e-06,-9.060046959515086e-07,-1.3184947839977669e-06
3.698913714646108e-07,3.1609168098250287e-07,-4.248702265006506e-07,-6.529683427994861e-07,-2.3833934078594717e-07,7.761433216857169e-08,-3.378397141936424e-07,-7.548571187172152e-07,-2.9796548498095467e-07,2.456966189377207e-07,3.352605317651805e-07,-1.8059498603844824e-06,-7.4439773663798e-07,-8.58038098342657e-07,-3.302954038433682e-07,-1.3746199976360717e-06,-8.940062929258334e-07,-1.3373368236171712e-06
3.417061695949573e-07,3.039654759196568e-07,-3.944991923780399e-07,-5.966143640324465e-07,-1.8608022946296226e-07,9.2402620247303e-08,-2.926506192139685e-07,-7.153173347233614e-07,-3.072899695654405e-07,2.054689970554799e-07,3.3701741920536683e-07,-1.7334466729981124e-06,-7.274493909494767e-07,-7.771870904390859e-07,-3.152465642533209e-07,-1.356117859484705e-06,-8.70932264710105e-07,-1.3446519358444764e-06
3.248249328396307e-07,2.977898587989925e-07,-3.5902518462987583e-07,-5.416223332296616e-07,-1.3463687114629662e-07,1.0421175386623027e-07,-2.366996304578469e-07,-6.772348068438858e-07,-3.076136987664419e-07,1.8552143320015115e-07,3.45835930825115e-07,-1.6784798203562715e-06,-7.030238640561693e-07,-7.109006036798951e-07,-2.9720828766809483e-07,-1.326715954046719e-06,-8.425908187019033e-07,-1.3402396603968847e-06
3.2008920433274273e-07,2.964340797630083e-07,-3.249844890609226e-07,-4.941245322533397e-07,-9.392524678017964e-08,1.0691613620092725e-07,-1.779771485642567e-07,-6.480434403393158e-07,-2.9849529625139654e-07,1.8835247366092198e-07,3.614096544448971e-07,-1.6488004133630088e-06,-6.725831748750813e-07,-6.693347256612262e-07,-2.770067002302273e-07,-1.289810955980718e-06,-8.123109901527201e-07,-1.3237990116999656e-06
3.276067337958603e-07,2.997581071167366e-07,-2.9630248790059316e-07,-4.5752234729556037e-07,-6.92407587299862e-08,9.937713201669587e-08,-1.223999416991938e-07,-6.296101228453973e-07,-2.796423671038271e-07,2.1353402583421003e-07,3.836144601791476e-07,-1.6447764856633185e-06,-6.371908923764158e-07,-6.554943479237163e-07,-2.534120092350317e-07,-1.2481819364825838e-06,-7.810502673252917e-07,-1.2956340429160828e-06
3.4599067629919523e-07,3.077722599118301e-07,-2.740530651846793e-07,-4.320176796896151e-07,-6.077577140985304e-08,8.448962287705935e-08,-7.433292842760948e-08,-6.205805379316551e-07,-2.5225740071088654e-07,2.548101091271672e-07,4.110053877896501e-07,-1.6609710438344943e-06,-5.986104813529506e-07,-6.653467718032504e-07,-2.2554757957450577e-07,-1.2050111940905013e-06,-7.495757878779165e-07,-1.258030036077587e-06
3.714419794970606e-07,3.1885905366295876e-07,-2.580269607548182e-07,-4.157945331964771e-07,-6.590102345513344e-08,6.615721155476603e-08,-3.709421012561509e-08,-6.1997650248069e-07,-2.2040446442235438e-07,3.022058742753195e-07,4.3988630023721473e-07,-1.689310394225374e-06,-5.601646322331454e-07,-6.907242709172973e-07,-1.9482697729518283e-07,-1.1648619285805924e-06,-7.202588520829242e-07,-1.2157477748894498e-06
3.976001524916354e-07,3.287877304180795e-07,-2.482041040313008e-07,-4.064098393467606e-07,-8.116422944781792e-08,4.718250735893335e-08,-1.341271627038781e-08,-6.283750986080167e-07,-1.9052279019057045e-07,3.4360252016656936e-07,4.650827586985045e-07,-1.7214529423786493e-06,-5.260678289372121e-07,-7.219718513795924e-07,-1.63918443293274e-07,-1.132736199620889e-06,-6.965256138965058e-07,-1.174681375011624e-06
4.1729503468331106e-07,3.3211504153482094e-07,-2.4448180155822875e-07,-4.0076110187953833e-07,-1.0233267720413301e-07,2.93603020187058e-08,-4.636158928448596e-09,-6.458575614792487e-07,-1.68902038684618e-07,3.685730109447846e-07,4.82246102496143e-07,-1.7503387619846247e-06,-4.993002401634427e-07,-7.496305292301761e-07,-1.3581620305483808e-07,-1.111731316437514e-06,-6.803134443509694e-07,-1.1393571372370783e-06
4.253523804506747e-07,3.251694067631832e-07,-2.456049371785041e-07,-3.9598526535637706e-07,-1.2456014532562175e-07,1.4494894925163886e-08,-8.84797195575966e-09,-6.693926812357747e-07,-1.586811024527583e-07,3.7425975007453293e-07,4.90000451736131e-07,-1.7696310582605975e-06,-4.798939996626221e-07,-7.65911419817653e-07,-1.1168849476813739e-07,-1.1012075107751686e-06,-6.701280813972632e-07,-1.111165642935351e-06
4.2043711152309544e-07,3.08217739718703e-07,-2.481761967169806e-07,-3.888379874397229e-07,-1.4132102206486515e-07,5.4682261488599316e-09,-2.063719980846527e-08,-6.928694621238548e-07,-1.5887922298790097e-07,3.623976935150514e-07,4.89980916023475e-07,-1.7741693705021793e-06,-4.6513875396183267e-07,-7.656855188859217e-07,-9.044418590933121e-08,-1.0972203736569625e-06,-6.616815911447259e-07,-1.0886387243877131e-06
4.0475991423520394e-07,2.850955598830057e-07,-2.473401844844227e-07,-3.7649420044976724e-07,-1.4571470422761857e-07,4.764922755021993e-09,-3.2553656021605466e-08,-7.10283332140467e-07,-1.6594958770981981e-07,3.3834397759240105e-07,4.851889357808273e-07,-1.761513149542129e-06,-4.5166504786272434e-07,-7.483094462479299e-07,-7.077148464254392e-08,-1.0949579785060297e-06,-6.507635329814094e-07,-1.069466924930435e-06
3.816730367608181e-07,2.605238649318754e-07,-2.3910321256869085e-07,-3.5817543005028193e-07,-1.3609444178552876e-07,1.2247348008558244e-08,-3.832142141641983e-08,-7.19455621706843e-07,-1.7670642088833288e-07,3.078242317098341e-07,4.776358712068237e-07,-1.7334129343204592e-06,-4.378485947494172e-07,-7.181535693624753e-07,-5.299298876651737e-08,-1.0918181164953838e-06,-6.360830255385433e-07,-1.0526790365550256e-06
3.5354320500235005e-07,2.3719181881997286e-07,-2.2228886965064745e-07,-3.355693907484722e-07,-1.1542494268222737e-07,2.4462201049283698e-08,-3.496951380590196e-08,-7.228017957667198e-07,-1.9041854689721414e-07,2.728825317697565e-07,4.671488202265773e-07,-1.694859637752485e-06,-4.2484430429252143e-07,-6.825571141040098e-07,-3.916920031712671e-08,-1.0881036478986202e-06,-6.195423325150112e-07,-1.0392670008810628e-06
3.2102200773610834e-07,2.1485647994123155e-07,-1.9881209495685057e-07,-3.1200449898377477e-07,-8.937934077499119e-08,3.6568852207773616e-08,-2.3774700836109197e-08,-7.242965514899303e-07,-2.0839641593180073e-07,2.338311451131681e-07,4.523242405011611e-07,-1.6512981293459876e-06,-4.1479986391367524e-07,-6.481719125438018e-07,-3.193418647330818e-08,-1.0854410809176325e-06,-6.038449859220827e-07,-1.030891283118411e-06
2.84118906348288e-07,1.9188881830608492e-07,-1.721653465830029e-07,-2.903644059788547e-07,-6.31415614630172e-08,4.534754990516389e-08,-9.126146365071596e-09,-7.255435117893897e-07,-2.3176479504991013e-07,1.9120893818272072e-07,4.322390485781042e-07,-1.6068700063936904e-06,-4.0903271998904995e-07,-6.182134394298548e-07,-3.236157882960007e-08,-1.0846023437638042e-06,-5.89993064487212e-07,-1.0281138626823404e-06
2.436766842856531e-07,1.6736766229095474e-07,-1.4537552045804654e-07,-2.7164833702330413e-07,-3.893186931942104e-08,5.054454709781542e-08,4.281213034671324e-09,-7.246781918681901e-07,-2.5970737059580766e-07,1.4655371612153708e-07,4.077219104069325e-07,-1.5638023097351767e-06,-4.070721557702823e-07,-5.925222293264401e-07,-3.964831192954558e-08,-1.0846060387642281e-06,-5.770912563991956e-07,-1.029883024767113e-06
2.0171124861610275e-07,1.4172182303437826e-07,-1.205755752967989e-07,-2.551835511679794e-07,-1.7065922086821126e-08,5.374654644639116e-08,1.2664309430911517e-08,-7.189510953157652e-07,-2.895871072522663e-07,1.0251106283111738e-07,3.8083644035140905e-07,-1.5241359863703703e-06,-4.072920733460699e-07,-5.699941846061245e-07,-5.206109495369817e-08,-1.0841227940605635e-06,-5.642907644057479e-07,-1.0346365606652767e-06
1.6025612341735452e-07,1.1565277621431823e-07,-9.974802872143968e-08,-2.404499050273929e-07,1.293553467776332e-09,5.570688041742559e-08,1.3125924384349773e-08,-7.083727997471845e-07,-3.188324002836663e-07,6.12589699476275e-08,3.5351360857126306e-07,-1.4911940872161794e-06,-4.086245853482029e-07,-5.510621572375311e-07,-6.845371321535376e-08,-1.0833376970282233e-06,-5.527625840453684e-07,-1.0418440235167812e-06
1.2044899616052509e-07,8.873344586945803e-08,-8.541535433909203e-08,-2.2864079661855242e-07,1.3030371318155978e-08,5.50559877025004e-08,3.319517980775586e-09,-6.969478494809507e-07,-3.467766730658822e-07,2.2865835568109416e-08,3.263926686791895e-07,-1.4689842188994787e-06,-4.119596624419022e-07,-5.37499094534511e-07,-8.964885443033566e-08,-1.0840970256755308e-06,-5.455054444933071e-07,-1.0524615499873038e-06
8.19443638770752e-08,5.938012266751036e-08,-8.027018565242513e-08,-2.225632981580051e-07,1.520989761442805e-08,4.9451117563817514e-08,-1.8575232500718352e-08,-6.901174529429609e-07,-3.7472679787802874e-07,-1.4110353555878893e-08,2.9889649135996834e-07,-1.4596331620580569e-06,-4.190099433400297e-07,-5.304570876011768e-07,-1.1548902625661975e-07,-1.0886275251596702e-06,-5.449316121600284e-07,-1.0677661791386453e-06
4.376381095628905e-08,2.6474720805291687e-08,-8.561269184142802e-08,-2.2463502897065708e-07,7.667724225678394e-09,3.8266922247588726e-08,-5.223862192220667e-08,-6.903947080371118e-07,-4.0426451122194354e-07,-5.082400191843214e-08,2.706156707239815e-07,-1.4612762962234984e-06,-4.302202629984807e-07,-5.283853292348165e-07,-1.4419851763341357e-07,-1.0974769306414488e-06,-5.503710989040924e-07,-1.0877354184303848e-06
5.8651290309211475e-09,-8.834612118712417e-09,-1.0007001119091098e-07,-2.3510834584402635e-07,-5.732743540390394e-09,2.3897237766917373e-08,-9.447526878445301e-08,-6.950048963354135e-07,-4.353641128345831e-07,-8.612899785691703e-08,2.425013650618025e-07,-1.4684317111086584e-06,-4.44109446536103e-07,-5.268641841070102e-07,-1.723558630553489e-07,-1.1085880683862762e-06,-5.578424806501248e-07,-1.1105398738492154e-06
-3.0352064171107035e-08,-4.2866419757546424e-08,-1.199164193848133e-07,-2.5171698513597065e-07,-1.8719258682777092e-08,1.0308841398806056e-08,-1.3970824424369287e-07,-6.976102008342757e-07,-4.6596151556476585e-07,-1.1727047110826421e-07,2.168182943105693e-07,-1.4747357514803742e-06,-4.5739245161448026e-07,-5.210740399425596e-07,-1.9633348822315794e-07,-1.1186023929173138e-06,-5.625307787050013e-07,-1.1335543094551678e-06
-6.259918431834865e-08,-7.109562615971382e-08,-1.409372653838513e-07,-2.712644147930814e-07,-2.5917308359473992e-08,1.454976761445616e-10,-1.8208345323133474e-07,-6.927260006222643e-07,-4.931513323572193e-07,-1.4118920012796976e-07,1.9599063529552262e-07,-1.4762970178062964e-06,-4.6717306272526175e-07,-5.094017885613616e-07,-2.1506297273201578e-07,-1.1253840049275227e-06,-5.618018322734682e-07,-1.1549186838459634e-06
-8.881611798322332e-08,-9.041549508489957e-08,-1.6052244919080595e-07,-2.9159793194118257e-07,-2.6506257227976276e-08,-7.2770056355151466e-09,-2.1808462424227434e-07,-6.792595090021566e-07,-5.149418817061584e-07,-1.5532560035511224e-07,1.8129628903046182e-07,-1.4734563398528648e-06,-4.725445783339158e-07,-4.939007623250574e-07,-2.2988616807900888e-07,-1.1282938418714426e-06,-5.563176717616114e-07,-1.1741965991242866e-06
-1.0766032263763804e-07,-1.001013008675351e-07,-1.7821141179748963e-07,-3.1247849903693186e-07,-2.4562969906010607e-08,-1.563706426199628e-08,-2.4733725854734395e-07,-6.603912239860554e-07,-5.309421951916705e-07,-1.5849898051392936e-07,1.7270973852195085e-07,-1.4698166320288638e-06,-4.742855616923376e-07,-4.79802453314356e-07,-2.431984209993429e-07,-1.1282615552234865e-06,-5.48380893216346e-07,-1.1915558928685601e-06
-1.182475732616593e-07,-1.0086119885361439e-07,-1.9451968604228526e-07,-3.353425794815717e-07,-2.5135016375394743e-08,-2.8135629576410644e-08,-2.7161141478535415e-07,-6.403530676909364e-07,-5.415361577136843e-07,-1.4939380493627769e-07,1.6989139780390368e-07,-1.4696258120105294e-06,-4.733494971725735e-07,-4.724534886114028e-07,-2.561735045221982e-07,-1.1261719470527584e-06,-5.392519458684414e-07,-1.2063518295471634e-06
-1.1916393922021137e-07,-9.310755589392751e-08,-2.09328125720913e-07,-3.611273588896055e-07,-3.104400177566396e-08,-4.4931686996914204e-08,-2.9240933480782896e-07,-6.214141891263504e-07,-5.466822196099798e-07,-1.2590667020074404e-07,1.7311239343414503e-07,-1.4749430267476396e-06,-4.6962383586422346e-07,-4.7383013480809184e-07,-2.6787369021195816e-07,-1.1221328456900225e-06,-5.282264265027156e-07,-1.2166520820255247e-06
-1.0852983421005397e-07,-7.628871849919012e-08,-2.2144416622705626e-07,-3.8999419127574085e-07,-4.267781658014594e-08,-6.364082655171246e-08,-3.1028887724766625e-07,-6.037131313826025e-07,-5.457670911126214e-07,-8.686903394131875e-08,1.8305538917483607e-07,-1.4860298107491106e-06,-4.622394646473081e-07,-4.828319627176108e-07,-2.7598749326883024e-07,-1.1148039843962741e-06,-5.141661324278381e-07,-1.2203268452958553e-06
-8.543514192082736e-08,-5.001554042133702e-08,-2.3021718720143232e-07,-4.2167690846926076e-07,-5.8712017682494784e-08,-8.127909802792081e-08,-3.252341065880415e-07,-5.874674446335015e-07,-5.388144494657829e-07,-3.3332336653327204e-08,1.9949612769433838e-07,-1.5027171433044178e-06,-4.512222326426247e-07,-4.97248472631419e-07,-2.790117041922041e-07,-1.1037108829287399e-06,-4.976918195479405e-07,-1.2168007293635672e-06
-5.1569343977756895e-08,-1.6030941408463154e-08,-2.3623635896105102e-07,-4.5565291551524063e-07,-7.838620020122206e-08,-9.632021796333745e-08,-3.372440600149527e-07,-5.747285833703177e-07,-5.278170160742554e-07,2.995397772619708e-08,2.2002426173079502e-07,-1.5246929142916143e-06,-4.386736909556416e-07,-5.141717652004397e-07,-2.770583271444865e-07,-1.090091195716583e-06,-4.815982153465894e-07,-1.2078717172501696e-06
-1.1647567280493945e-08,2.1226695794135992e-08,-2.415082722689861e-07,-4.909673803202235e-07,-1.012983307485702e-07,-1.0861786924803573e-07,-3.4741678540902343e-07,-5.682988700059618e-07,-5.166125542002789e-07,9.460875127593559e-08,2.4061606060996176e-07,-1.550880563737915e-06,-4.280457469497448e-07,-5.30703201120934e-07,-2.713532157511048e-07,-1.0757596122353078e-06,-4.6889097616431206e-07,-1.1968032334394296e-06
2.8188385931264664e-08,5.644105345106334e-08,-2.4812048046227037e-07,-5.254516123870365e-07,-1.247369853015366e-07,-1.1737071675971762e-07,-3.5543415481326596e-07,-5.68413541222578e-07,-5.090729905788579e-07,1.5193109776694955e-07,2.574877257432086e-07,-1.577715896605994e-06,-4.222758121425963e-07,-5.439336060326312e-07,-2.6319845793476697e-07,-1.0621975697528392e-06,-4.6044463811621e-07,-1.1865840712858094e-06
6.298178224218287e-08,8.613620517587792e-08,-2.564321077678388e-07,-5.55322967711488e-07,-1.426763538131526e-07,-1.1980030784338388e-07,-3.592248227302652e-07,-5.707968101907107e-07,-5.069983585898028e-07,1.963021622351204e-07,2.6911919199866153e-07,-1.5999291006252423e-06,-4.22416915576254e-07,-5.507855571229681e-07,-2.5335563609760576e-07,-1.0495073235595388e-06,-4.546477733097077e-07,-1.1789127287555867e-06
9.051730728245906e-08,1.0999613509722894e-07,-2.652654994574154e-07,-5.761566545455781e-07,-1.4816127894650958e-07,-1.1269038407464981e-07,-3.5605102991144286e-07,-5.686525847731947e-07,-5.095414600157092e-07,2.2609486637856635e-07,2.7654601994887636e-07,-1.6131416432396528e-06,-4.2762848112582676e-07,-5.492006392016932e-07,-2.4267441636516725e-07,-1.037357816872739e-06,-4.4954845373233113e-07,-1.1744506044605071e-06
1.1126506265726988e-07,1.299440744172891e-07,-2.734790078630634e-07,-5.852787998690943e-07,-1.378540895915002e-07,-9.585245633521161e-08,-3.4391923622345667e-07,-5.573794644485437e-07,-5.141151627617416e-07,2.4313539146400137e-07,2.8199007538420944e-07,-1.6172491166715932e-06,-4.3648650785049053e-07,-5.407745702557924e-07,-2.3360190917795142e-07,-1.0259913557429691e-06,-4.4513722681153647e-07,-1.1735432320052018e-06
1.2727903392831544e-07,1.4824055503094408e-07,-2.8153303974402656e-07,-5.839181463989818e-07,-1.1548721048014077e-07,-7.41541994930539e-08,-3.229938232721083e-07,-5.383688733240539e-07,-5.178212919168641e-07,2.5183682382007726e-07,2.8738950756059885e-07,-1.6176607787997672e-06,-4.480075718147337e-07,-5.314800426526081e-07,-2.294251382125201e-07,-1.0166715909038068e-06,-4.435017277241715e-07,-1.1762663384386641e-06
1.4129488869088207e-07,1.6638148742250457e-07,-2.913862894163885e-07,-5.77045419007772e-07,-9.115262585963142e-08,-5.593535033089721e-08,-2.956754385416854e-07,-5.184099326776907e-07,-5.180191597146008e-07,2.5796437808958937e-07,2.9404265234881896e-07,-1.6228091870484858e-06,-4.614103476575059e-07,-5.293341692554112e-07,-2.3230635566269222e-07,-1.0103608298535862e-06,-4.4674165817916226e-07,-1.1816156312054833e-06
1.5656209216461163e-07,1.855376272148279e-07,-3.048643024395709e-07,-5.709111958303042e-07,-7.60183038090758e-08,-4.833227252734852e-08,-2.655913701604503e-07,-5.048789650696375e-07,-5.120370254167356e-07,2.682239504871509e-07,3.0335726823049103e-07,-1.6397029700417559e-06,-4.754103266138561e-07,-5.409299143736159e-07,-2.4156181952358694e-07,-1.0062989612735895e-06,-4.546143109848198e-07,-1.186771440161491e-06
1.7671398799993373e-07,2.0742257471889516e-07,-3.215131843326955e-07,-5.698409470225922e-07,-7.674943283510286e-08,-5.321772623974495e-08,-2.361661701616681e-07,-5.00795586086167e-07,-4.967583023976281e-07,2.8913430681777145e-07,3.1760047311299235e-07,-1.669995721964439e-06,-4.876210339270343e-07,-5.677949263479731e-07,-2.525145856013302e-07,-1.0019547916821348e-06,-4.643132521520759e-07,-1.1874533260587468e-06
2.0504440064587897e-07,2.3432962012867503e-07,-3.381252473401549e-07,-5.742018615200372e-07,-9.321584581605065e-08,-6.660246787123424e-08,-2.102444668794667e-07,-5.038711953383655e-07,-4.687180782800388e-07,3.2446429456801865e-07,3.3944941684989135e-07,-1.7089406190184722e-06,-4.951212639466259e-07,-6.061718364059441e-07,-2.5849538967372725e-07,-9.947106246220322e-07,-4.7263320860588553e-07,-1.1795077920779594e-06
2.4258367004679314e-07,2.6788622068444497e-07,-3.508080221540422e-07,-5.816136348105228e-07,-1.2012007327489244e-07,-8.163875819403765e-08,-1.9017312910281147e-07,-5.098901792915517e-07,-4.2508119903503334e-07,3.7417147692075385e-07,3.7031307152292946e-07,-1.7510766501742826e-06,-4.961198563142204e-07,-6.502230182596185e-07,-2.5410235379608724e-07,-9.8397130066662e-07,-4.786839986102495e-07,-1.1609199458049994e-06
2.880230503292805e-07,3.0722040448484013e-07,-3.5775978284864194e-07,-5.893721953173247e-07,-1.5380509788664812e-07,-9.243790740326765e-08,-1.7843718346456856e-07,-5.167776418906872e-07,-3.652153151806493e-07,4.3285421033270505e-07,4.084906209990951e-07,-1.791447766386375e-06,-4.914197483701768e-07,-6.948362795084241e-07,-2.3758291975224974e-07,-9.724970201776573e-07,-4.846986070683162e-07,-1.1330026753177024e-06
3.365787627680956e-07,3.4809687745882875e-07,-3.605090452307011e-07,-5.960030509651624e-07,-1.9130745507772413e-07,-9.568902178208392e-08,-1.7793396185816145e-07,-5.251825065888308e-07,-2.9200571684842134e-07,4.903018846143456e-07,4.4885115117181353e-07,-1.8255710575818452e-06,-4.843238961371113e-07,-7.360693869038695e-07,-2.1110863071274095e-07,-9.652572659458383e-07,-4.94048948419752e-07,-1.099945867653155e-06
3.7958876945509694e-07,3.840516898355142e-07,-3.624454464285959e-07,-6.004962519926901e-07,-2.2783897271697939e-07,-8.953145961285325e-08,-1.8915846225698383e-07,-5.350291858195805e-07,-2.119265359716786e-07,5.346698928482148e-07,4.845715043898348e-07,-1.8482160158616133e-06,-4.787890844053132e-07,-7.691331316224952e-07,-1.793012385822063e-07,-9.658031092694063e-07,-5.080938851735009e-07,-1.0671049933266323e-06
4.1411468991623835e-07,4.0906004415340967e-07,-3.657100302409038e-07,-6.004478200568417e-07,-2.5425439876886743e-07,-7.214237143181494e-08,-2.126891877783119e-07,-5.418629734128611e-07,-1.338267610711976e-07,5.558258265872868e-07,5.098845306676722e-07,-1.8515820979230206e-06,-4.774234736455434e-07,-7.867650770312134e-07,-1.4712165426000733e-07,-9.75689605471452e-07,-5.24538383616233e-07,-1.0392124544782551e-06
4.377669553958678e-07,4.201874097520707e-07,-3.693875996737914e-07,-5.914921886080413e-07,-2.600894355447309e-07,-4.206156948295068e-08,-2.375649264406753e-07,-5.37159817576403e-07,-6.6804741096661e-08,5.486812641057482e-07,5.224042797948725e-07,-1.827935978044969e-06,-4.803650119105097e-07,-7.812246315594612e-07,-1.1878428997274423e-07,-9.921840687569584e-07,-5.386322854817009e-07,-1.0193988119037587e-06
4.2369305972382876e-07,4.18751072553638e-07,-3.7000263160785e-07,-5.689886963297619e-07,-2.4406483929073967e-07,-3.556380430122706e-10,-2.5318142054518287e-07,-5.13129153225535e-07,-1.770030047156424e-08,5.149523682428486e-07,5.236311987420795e-07,-1.7747168480645152e-06,-4.859325708462786e-07,-7.488961346859936e-07,-9.766800376854593e-08,-1.0096232222280914e-06,-5.464330409121322e-07,-1.0091602920250088e-06
3.937218106617925e-07,4.093667983209576e-07,-3.640974076995759e-07,-5.312028326641484e-07,-1.821848772280277e-07,4.848868184703672e-08,-2.69730626463415e-07,-4.6848618687997466e-07,1.0733930997187331e-08,4.625007450168443e-07,5.176821842965734e-07,-1.698610349916327e-06,-4.921051053070859e-07,-6.93854067982603e-07,-8.48978286021907e-08,-1.0229391223463715e-06,-5.474715752058025e-07,-1.0087602657483593e-06
3.630763982023056e-07,3.975664285519906e-07,-3.5090319747562674e-07,-4.813581396699186e-07,-1.1319250095559672e-07,9.431881854129086e-08,-2.5294449796515407e-07,-4.102683836209485e-07,2.015933086440273e-08,4.0199755038317894e-07,5.091457454347324e-07,-1.613646009547752e-06,-4.981096429582521e-07,-6.279414175475296e-07,-8.269441865312169e-08,-1.0291667462679984e-06,-5.447479594433516e-07,-1.0172650058997914e-06
3.360281293804437e-07,3.877713755802959e-07,-3.327526815737986e-07,-4.2675968489732136e-07,-3.73784777548604e-08,1.26506531974796e-07,-1.866626994621882e-07,-3.4985645508142744e-07,1.5757787595631977e-08,3.44550812022318e-07,5.017385313885142e-07,-1.5358276259588438e-06,-5.037990444616085e-07,-5.663937549629731e-07,-9.05244313249046e-08,-1.0278565208109739e-06,-5.420008805147372e-07,-1.0319728681076247e-06
3.0952853931730737e-07,3.8278766246318344e-07,-3.132112687931238e-07,-3.7541417706618076e-07,2.7146710628651924e-08,1.3903382875402308e-07,-1.195050647628891e-07,-2.964364099448971e-07,3.538203633022698e-09,2.9962545011973483e-07,4.981554754807193e-07,-1.476082010989586e-06,-5.085885318599916e-07,-5.19663697758461e-07,-1.0413956976174737e-07,-1.0199575176308468e-06,-5.409076518931448e-07,-1.0481469105123057e-06
2.9087734786688087e-07,3.841499970507689e-07,-2.947338345454169e-07,-3.3263886813353656e-07,7.404479206087058e-08,1.3185571715751037e-07,-6.069331471730599e-08,-2.529407908502993e-07,-9.33657632331054e-09,2.725702519916772e-07,5.000382047470339e-07,-1.4369724555013604e-06,-5.112737551174614e-07,-4.925415912692043e-07,-1.1786460077789704e-07,-1.005689901061535e-06,-5.404543571134556e-07,-1.060172755365526e-06
2.844518553421615e-07,3.9191545975342477e-07,-2.7780070236660154e-07,-2.9931674450055836e-07,1.032396698481233e-07,1.1003703303856809e-07,1.6817601606639856e-08,-2.168600261000685e-07,-1.873467390808218e-08,2.6355827541317246e-07,5.072195754859186e-07,-1.4136133322837156e-06,-5.107896770768268e-07,-4.824809005655879e-07,-1.261210100266496e-07,-9.865105716349995e-07,-5.393288660407756e-07,-1.0641099035726287e-06
2.8798758168767173e-07,4.036168737326017e-07,-2.618633860770439e-07,-2.7307144616917503e-07,1.1970802602456474e-07,7.914583642161875e-08,5.230939942928301e-08,-1.84469314434043e-07,-2.5110752630065265e-08,2.6546409886337945e-07,5.166418491729035e-07,-1.3972700259221776e-06,-5.079553401637681e-07,-4.813195175385122e-07,-1.2675337206923382e-07,-9.660298828830318e-07,-5.385540198879194e-07,-1.060127028490899e-06
2.9505828976528896e-07,4.1372447553490587e-07,-2.4704795874985956e-07,-2.502792899536792e-07,1.3055294993028662e-07,4.1558420001112415e-08,3.498944436278648e-08,-1.5442533035991808e-07,-3.8511603169134464e-08,2.6561846284388865e-07,5.224013734849233e-07,-1.3798615270203114e-06,-5.058377880132724e-07,-4.814334521777553e-07,-1.215955981851103e-07,-9.497623838287456e-07,-5.415412789928009e-07,-1.0528107932427272e-06
2.966755587811296e-07,4.151048748819207e-07,-2.350744793069814e-07,-2.2876849012356393e-07,1.3942527423238294e-07,-4.246102289139087e-09,3.960621386920554e-08,-1.2868926370113086e-07,-7.147902678109232e-08,2.5224649539870253e-07,5.180000033807642e-07,-1.3571002588448736e-06,-5.081706328410808e-07,-4.761831574145402e-07,-1.1727175808316287e-07,-9.433100946203764e-07,-5.516679164630678e-07,-1.0486032474438635e-06
2.8543968486097803e-07,4.0239586334298384e-07,-2.2823917886067067e-07,-2.0888168031784287e-07,1.4801457529031132e-07,-5.8543100994662335e-08,3.7147527964581494e-09,-1.0986406033487129e-07,-1.29588513102953e-07,2.19506715051193e-07,4.999313408425859e-07,-1.3277110981339322e-06,-5.165677917105681e-07,-4.631202194023459e-07,-1.1887350540211747e-07,-9.488811440915758e-07,-5.688493396540311e-07,-1.0519190201354152e-06
2.593056503324927e-07,3.7520977499772753e-07,-2.276613205557315e-07,-1.9296976342613963e-07,1.5708021925666832e-07,-1.181026795082284e-07,-5.050992630909396e-08,-9.820050675500091e-08,-2.0749539493103222e-07,1.7099499485720818e-07,4.7018201299970623e-07,-1.2927437605497852e-06,-5.288258696746426e-07,-4.4421259238298696e-07,-1.2686796223817062e-07,-9.636111955522672e-07,-5.883318986263123e-07,-1.0626123070923425e-06
2.2242898923243283e-07,3.3878936827695226e-07,-2.3239664544731966e-07,-1.8444287750598205e-07,1.6776838216583442e-07,-1.7607051346857288e-07,-1.4628727672299698e-07,-9.131212076000863e-08,-2.8208464215189625e-07,1.2058271634729218e-07,4.358207927730137e-07,-1.2549733482742046e-06,-5.39563161864736e-07,-4.2337087567178115e-07,-1.3870709596111531e-07,-9.800805357227715e-07,-6.028561360185242e-07,-1.0762901866350913e-06
1.842612819936955e-07,3.0174096739663844e-07,-2.401065856998418e-07,-1.8581682810126463e-07,1.7798893557194388e-07,-2.2416365708630418e-07,-1.6356950233087401e-07,-8.660469868749936e-08,-3.2541578238055836e-07,8.299587085190269e-08,4.059521972267138e-07,-1.2185428764097932e-06,-5.429343098999253e-07,-4.058446971721354e-07,-1.495593572008886e-07,-9.90683942288932e-07,-6.069138375401128e-07,-1.0869688109973475e-06
1.5362674913175782e-07,2.7212591694103317e-07,-2.4898699258661886e-07,-1.9860261696940182e-07,1.8556933390666338e-07,-2.582203911019296e-07,-1.4179877776099809e-07,-8.486220879969169e-08,-3.174182623322366e-07,6.941881551507987e-08,3.877692143898279e-07,-1.1904237427474204e-06,-5.358919152614087e-07,-3.992831031521421e-07,-1.593839192890869e-07,-9.904279620748865e-07,-6.002055650337653e-07,-1.0903006177656517e-06
1.3565359412475913e-07,2.5407542929941466e-07,-2.597452165854322e-07,-2.2350531854742085e-07,1.8032640558348924e-07,-2.804556609571088e-07,-1.3639903828459792e-07,-9.203887349276262e-08,-3.1600519805234773e-07,8.436425297008276e-08,3.8367111148807637e-07,-1.1802889305020773e-06,-5.198996830671284e-07,-4.113911663187842e-07,-1.6508570582497768e-07,-9.78678390236037e-07,-5.880096761137018e-07,-1.085327103216254e-06
1.3087849616962273e-07,2.4665393627939015e-07,-2.756715849919573e-07,-2.607789015465191e-07,1.5590085281978965e-07,-2.978983708654474e-07,-6.356420043014812e-08,-1.1719463385860842e-07,-3.160193022343146e-07,1.234355308051316e-07,3.9083167666521474e-07,-1.1972179045691383e-06,-5.000352107790904e-07,-4.4794814165510605e-07,-1.683923021470493e-07,-9.593596084833616e-07,-5.779935983995599e-07,-1.0738279584971357e-06
1.3533657831285024e-07,2.453186388793078e-07,-3.0069420644476026e-07,-3.0931728737102105e-07,1.0944176758654211e-07,-3.184405323305067e-07,-1.3014060058627749e-08,-1.670317669773211e-07,-3.174704167765638e-07,1.7602542665676174e-07,4.0326337386359364e-07,-1.24459883016258e-06,-4.821498652036846e-07,-5.098979067639284e-07,-1.711065369285589e-07,-9.374530859060783e-07,-5.756176670630208e-07,-1.058123926771596e-06
1.4400114338033112e-07,2.4471875732046425e-07,-3.366488966585247e-07,-3.656780279111409e-07,4.1828660723915975e-08,-3.4586865787445486e-07,-3.263649954051905e-08,-2.40844021333036e-07,-3.0074163284714875e-07,2.3197692935045405e-07,4.1467916911942514e-07,-1.3164924443098753e-06,-4.700046484029274e-07,-5.895652001778033e-07,-1.7059197218363574e-07,-9.165340431938745e-07,-5.816755305384827e-07,-1.0394354237496411e-06
1.527730697592577e-07,2.4081069485536894e-07,-3.8154789734260674e-07,-4.237581714122825e-07,-3.700729017309726e-08,-3.7854555368753635e-07,-1.0975482582231734e-07,-3.293835345923954e-07,-2.5150655212660696e-07,2.8649245473075144e-07,4.202891425671328e-07,-1.3978556684734642e-06,-4.645960306609655e-07,-6.731500345185346e-07,-1.6514413913799732e-07,-8.983211364536904e-07,-5.929305814086081e-07,-1.0182220862735064e-06
1.6047623648256314e-07,2.3119574430440471e-07,-4.3011333334679747e-07,-4.7558752469473823e-07,-1.1462811555842506e-07,-4.1262241501496397e-07,-1.8192883934195325e-07,-4.1831740807649467e-07,-2.0675429135796303e-07,3.210209409749364e-07,4.1694269744717947e-07,-1.4692677244785042e-06,-4.6542510295819567e-07,-7.455124539372419e-07,-1.5658868631771126e-07,-8.837963077619045e-07,-6.055008495609176e-07,-9.960043646955716e-07
1.6072107720351657e-07,2.1410915748829998e-07,-4.7600537257406745e-07,-5.137028236839743e-07,-1.7953319115433195e-07,-4.461260014885845e-07,-2.472026435041928e-07,-4.940014537475849e-07,-2.16129542227257e-07,3.4386817735399643e-07,4.0246427017315857e-07,-1.5135699529779786e-06,-4.7232674144955377e-07,-7.943336351267315e-07,-1.459244006667313e-07,-8.748383993069591e-07,-6.181626937771836e-07,-9.76788330101939e-07
1.5252307421264582e-07,1.876496599482293e-07,-5.14204928778654e-07,-5.335025242299166e-07,-2.2491410306512214e-07,-4.816622735355639e-07,-3.030309669295464e-07,-5.479579921509505e-07,-2.4270798428681115e-07,3.2885870292780717e-07,3.755347704876584e-07,-1.52129651465818e-06,-4.861862400833024e-07,-8.140175323887725e-07,-1.3369779005095503e-07,-8.737214948342018e-07,-6.324208628663709e-07,-9.663200304645158e-07
1.1166578170506553e-07,1.5061010081926775e-07,-5.421135825858156e-07,-5.338460053625785e-07,-2.495202827188794e-07,-5.233698765936079e-07,-3.9336630148240804e-07,-5.776985088142726e-07,-2.8672232058919063e-07,2.5101620864547086e-07,3.3667764094570735e-07,-1.4927232854130164e-06,-5.075897681986221e-07,-8.063566223336573e-07,-1.270299507021366e-07,-8.814640496983062e-07,-6.498328312413428e-07,-9.691600757208779e-07
3.566683602865281e-08,1.0453689390416756e-07,-5.592165244389598e-07,-5.188747475070212e-07,-2.5841659415503454e-07,-5.748327369456774e-07,-5.048060650971656e-07,-5.846746042110309e-07,-3.4603871870498934e-07,1.6919520483215378e-07,2.895851094522532e-07,-1.4362065010649332e-06,-5.348345139801792e-07,-7.786192791879479e-07,-1.2837919740074853e-07,-8.954619509487141e-07,-6.692150768151199e-07,-9.855727025898e-07
-3.2905013456385385e-08,5.507187365322074e-08,-5.661850490890186e-07,-4.962793529398871e-07,-2.559586447508465e-07,-6.308859662824969e-07,-5.8777539174618e-07,-5.720642725868331e-07,-4.1107630882465407e-07,9.621138253021083e-08,2.410658462838318e-07,-1.3653411631865616e-06,-5.632578382236562e-07,-7.391805933249769e-07,-1.3574092526266755e-07,-9.094299771478292e-07,-6.858798921928049e-07,-1.0106879006632211e-06
-9.360502815230612e-08,1.0808936679653315e-08,-5.646660799502396e-07,-4.738277946782768e-07,-2.457984865155615e-07,-6.82442996218287e-07,-6.036760194779061e-07,-5.447731166404493e-07,-5.074705985765771e-07,3.14393865292721e-08,1.9900459341552568e-07,-1.2951496181020483e-06,-5.869989732290003e-07,-6.965850559782009e-07,-1.4556134054846212e-07,-9.158437045256544e-07,-6.938294082487223e-07,-1.036831270797349e-06
-1.4894340568188092e-07,-2.0252110507480193e-08,-5.578654478966052e-07,-4.591478689144268e-07,-2.3220044493221246e-07,-7.291794654174625e-07,-6.143667087271167e-07,-5.109138298018166e-07,-5.907103007058178e-07,4.150507963461153e-10,1.689431733566693e-07,-1.2408075844934185e-06,-6.021803705034518e-07,-6.594448229340152e-07,-1.534975080399805e-07,-9.117417894932593e-07,-6.903876471027156e-07,-1.0576412755262871e-06
