0,1,2,3,4,5,6,7,8,9,10,11,12,13,14,15,16,17
-6.119480943114896e-08,-2.33085722857108e-09,2.7397177783308022e-09,9.193813624838263e-08,1.7374785729236617e-07,-1.5974862957719704e-08,1.5992434638021822e-07,7.059052193213086e-09,8.675283511723732e-08,2.009652237076771e-07,1.7407265062860115e-07,2.887899462798272e-07,1.1216245109052725e-07,2.1011749735476758e-07,1.424959886369841e-07,4.5765683822086755e-07,1.8240723708135485e-07,-4.4579852318435404e-08
-5.473181082006391e-08,3.682708161860393e-10,-3.160420160354247e-09,9.261641645106887e-08,1.3819041723453718e-07,-6.316636780531907e-09,1.638511614470661e-07,7.734754621177346e-09,7.930755960193578e-08,1.7246431119496683e-07,1.595160188568267e-07,2.388386792144473e-07,6.523116508289551e-08,1.7963063586898325e-07,1.0796753450347435e-07,4.0148742854920993e-07,1.6714242514763314e-07,-5.625365478795678e-08
-4.673493769549686e-08,-2.9364321822355645e-09,-4.836100134830231e-09,9.307678424486733e-08,1.0435440540856546e-07,9.049431306141377e-09,1.691421587386799e-07,1.251120492012273e-08,7.320453810839734e-08,1.4576474589761808e-07,1.4981734732679911e-07,1.8747710361851818e-07,1.8293611831259827e-08,1.4353729885916674e-07,8.77284996484274e-08,3.369241311018284e-07,1.493940666989292e-07,-5.7222854069206015e-08
-3.9883040288989404e-08,-7.42182089219429e-09,-3.146394723645976e-09,8.990247292411992e-08,7.32474579138251e-08,2.806463308414539e-08,1.7298852971667148e-07,2.061753774686227e-08,6.785528514441506e-08,1.2023273429241338e-07,1.4426716998184113e-07,1.36042613158177e-07,-2.3574426670854124e-08,9.959173337795275e-08,7.87302689324067e-08,2.658250311590564e-07,1.2702244867298083e-07,-4.826274498581253e-08
-3.5336888359858915e-08,-4.970301816467873e-09,4.773251432151587e-10,8.051735344749444e-08,4.5897815222692766e-08,4.742517674468109e-08,1.7165699010082406e-07,3.064938850245116e-08,6.198999518493024e-08,9.455428340135888e-08,1.385488774604761e-07,8.641461706232116e-08,-5.2217953666745915e-08,4.7662197197839156e-08,7.776549566623123e-08,1.901587928352834e-07,9.797459448277862e-08,-3.23506801144701e-08
-3.24024467887317e-08,2.2628061107164536e-09,4.380556719365113e-09,6.38478334625397e-08,2.3238716425821e-08,6.329914561646339e-08,1.6149458270295296e-07,4.0570160356253266e-08,5.443620756927222e-08,6.769888805241467e-08,1.271290066804924e-07,4.0959047792933735e-08,-4.3996650999660126e-08,-9.222179565935638e-09,7.543278876772015e-08,1.1325095704361713e-07,6.164816674246916e-08,-1.3448667658549548e-08
-2.8631877066288737e-08,1.0027878427518304e-08,7.382291367636118e-09,4.0891968642340285e-08,6.071610336155101e-09,7.242464877989446e-08,1.4012358060546564e-07,4.824886497888975e-08,4.4627470601205064e-08,3.945228974152044e-08,1.0587436147396816e-07,1.3186871841079212e-09,-2.003794684987207e-08,-6.489928205938316e-08,6.59424392659626e-08,3.846120543878929e-08,1.9568229392386468e-08,4.622428694868194e-09
-2.1636025745739434e-08,1.7121482547608825e-08,8.955857173481025e-09,1.4164199636128322e-08,-5.774117351518127e-09,7.248264432684364e-08,1.0638782433741328e-07,5.139944105958573e-08,3.188126864835278e-08,9.9870960922608e-09,7.270034040722394e-08,-3.2519865775778275e-08,-6.989390603578839e-09,-1.1202616966439784e-07,4.615435340197361e-08,-3.148614372619847e-08,-2.5138925064168506e-08,1.8729929095676676e-08
-1.1033274227647362e-08,2.005547240874281e-08,8.725923625519644e-09,-1.3566990228573768e-08,-1.4080645685199138e-08,6.224664260361918e-08,5.9563270339975085e-08,4.756983171187758e-08,1.5241762858295318e-08,-2.046013401430756e-08,2.8235557989257452e-08,-6.202140451289918e-08,7.347999814969114e-09,-1.4364031435920341e-07,1.8299717814136865e-08,-9.474516331589485e-08,-6.804811751248985e-08,2.733395705542813e-08
1.9184431799253324e-09,2.0779897193200276e-08,6.812094920652192e-09,-3.973250969927204e-08,-2.1802208837116004e-08,4.2326174681400386e-08,5.69294846714507e-10,3.54138708338442e-08,-5.631926211337794e-09,-5.093142674457741e-08,-2.3992145109239395e-08,-8.781611398651469e-08,1.8358031180525768e-08,-1.539597400211246e-07,-1.609673738903436e-08,-1.5008541547825728e-07,-1.0347743511199103e-07,3.122801333771507e-08
1.6240245807033676e-08,1.8925700276171483e-08,4.191593299145423e-09,-6.17754992705609e-08,-3.1747316714275205e-08,1.533865383837482e-08,-6.627186446409285e-08,1.5929107689366262e-08,-2.9391443050947173e-08,-7.95938658169956e-08,-7.848090717334061e-08,-1.0992407321180199e-07,2.633671798182486e-08,-1.4018158805778887e-07,-5.121086720594988e-08,-1.948935648841895e-07,-1.2579150346041176e-07,3.2773374363098797e-08
3.1960731653615364e-08,1.417457075586889e-08,1.8622395507757695e-09,-7.77147140990398e-08,-4.591537440397784e-08,-1.5106290053596138e-08,-1.3422764208802306e-07,-8.493394197474345e-09,-5.380409779665429e-08,-1.0475523583136554e-07,-1.2963710171884156e-07,-1.2691277957659744e-07,3.146598776536664e-08,-1.0513540756054076e-07,-8.071433276350558e-08,-2.28127678669042e-07,-1.3189693887274354e-07,3.354562885835537e-08
4.888045188343516e-08,4.75747259732725e-09,-4.0422868060123816e-10,-8.72831267466832e-08,-6.581616483752574e-08,-4.6283664318336056e-08,-1.9735900455597046e-07,-3.557177764315927e-08,-7.700858927779142e-08,-1.2597666384305336e-07,-1.7360448772618193e-07,-1.3783895891054946e-07,1.7152662176487983e-08,-5.722832410824559e-08,-1.0773553425080612e-07,-2.5118565137572207e-07,-1.2266556234180873e-07,3.3332660152855826e-08
6.561629360129244e-08,-9.51505158309297e-09,-3.834838327312677e-09,-9.214152698321955e-08,-9.228002927712639e-08,-7.7372010885451e-08,-2.533369626881895e-07,-6.359098507580831e-08,-9.804323286628454e-08,-1.434595743743871e-07,-2.083856018202917e-07,-1.4271601756043178e-07,-2.8266799205210364e-08,-6.477446769447532e-09,-1.3026689635605965e-07,-2.6843921506355584e-07,-1.0214504169461028e-07,3.0959396026741426e-08
7.962652566461842e-08,-2.852024250145618e-08,-9.862163722568101e-09,-9.514613754671557e-08,-1.2492294531531286e-07,-1.0901555604640764e-07,-3.032971104455169e-07,-9.1388252808057e-08,-1.1686418568958465e-07,-1.5743492849002983e-07,-2.3396082245171248e-07,-1.4213855039561617e-07,-5.157360942722827e-08,3.8846809921208124e-08,-1.4846871572980915e-07,-2.838426624232176e-07,-7.598244865399208e-08,2.4985415932794337e-08
8.734241863404458e-08,-5.277884492932396e-08,-2.0283453828808827e-08,-9.959466048287634e-08,-1.6240947741191127e-07,-1.4258812993952137e-07,-3.512091549741856e-07,-1.1865880488914426e-07,-1.3455344794144086e-07,-1.6850774326551395e-07,-2.521002648058787e-07,-1.379529303801438e-07,-6.969184950070814e-08,7.338427958614975e-08,-1.660240029421518e-07,-3.009588894125747e-07,-5.001119550631575e-08,1.4607650416896642e-08
8.485308969363714e-08,-8.191358129778993e-08,-3.60069276589547e-08,-1.0844097855019071e-07,-2.0269379850767024e-07,-1.7926304054967514e-07,-4.021824288082775e-07,-1.4575183543270533e-07,-1.5297579516463867e-07,-1.7795343997670105e-07,-2.654161571596647e-07,-1.3323166961237624e-07,-9.620127371691729e-08,9.544870166427813e-08,-1.8548085702923024e-07,-3.225189494870772e-07,-2.866878671985751e-08,1.8267763829635687e-10
7.00941266699934e-08,-1.1541107730624438e-07,-5.634465373362729e-08,-1.2309749858548914e-07,-2.4312469985758774e-07,-2.1884288831867371e-07,-4.5906443094257986e-07,-1.7257560797103248e-07,-1.733388561676447e-07,-1.8675640694233786e-07,-2.7614188542598154e-07,-1.3059376199157006e-07,-1.1310582491643992e-07,1.0759992160947066e-07,-2.1037908818435935e-07,-3.480919818649638e-07,-1.3769741631293454e-08,-1.635295173144492e-08
4.449343179259827e-08,-1.5140723424808428e-07,-7.909074304868467e-08,-1.4282530220112503e-07,-2.80554893142509e-07,-2.592807321379399e-07,-5.20653168661601e-07,-1.980172072442372e-07,-1.9598051047865573e-07,-1.9509287466472878e-07,-2.8579761507446236e-07,-1.3073938312841846e-07,-1.2730586925371547e-07,1.1509328177735026e-07,-2.384392420873189e-07,-3.757927047429565e-07,-4.90246819313728e-09,-3.263124731403881e-08
1.2523319932792126e-08,-1.8737570929175687e-07,-1.0199362890759404e-07,-1.6564096449844622e-07,-3.1228090940762254e-07,-2.979134502939053e-07,-5.834361828619567e-07,-2.2113578070137777e-07,-2.2048441454830676e-07,-2.031290674398641e-07,-2.960322489290801e-07,-1.3349204223401377e-07,-1.3829438534081316e-07,1.2251024913545368e-07,-2.6291717720124444e-07,-4.039774208684917e-07,-8.206646059455097e-10,-4.76914407822838e-08
-2.0328035448511188e-08,-2.216329745719016e-07,-1.2447705118279004e-07,-1.8976020135331302e-07,-3.373907058570822e-07,-3.3268412270181837e-07,-6.442839352001876e-07,-2.422587971868916e-07,-2.4626100246447143e-07,-2.1130048787751328e-07,-3.087169227304244e-07,-1.3828314088648562e-07,-1.4411636178448383e-07,1.3219769370741855e-07,-2.8329365517373595e-07,-4.31871321070716e-07,1.6306283260274783e-11,-6.224655434780463e-08
-4.857403952866011e-08,-2.5377767234031715e-07,-1.4677744747713114e-07,-2.1401859651792078e-07,-3.555331652721467e-07,-3.6218659533523227e-07,-7.008052876440453e-07,-2.6161588636604904e-07,-2.7244665461655424e-07,-2.196884829632243e-07,-3.249386398332537e-07,-1.4365209363561873e-07,-1.508810387063413e-07,1.4542349976345885e-07,-3.0054549884908563e-07,-4.5824077617541344e-07,-2.352213969837847e-10,-7.729632315344742e-08
-6.741510502652316e-08,-2.834620275222658e-07,-1.6863185846611814e-07,-2.3752549216404195e-07,-3.6647240569467397e-07,-3.853980239362606e-07,-7.508375317040184e-07,-2.7876217807323204e-07,-2.9717206275669394e-07,-2.2729034669354068e-07,-3.444111487016231e-07,-1.4680036462423556e-07,-1.5788770495510252e-07,1.6321392304435772e-07,-3.151336725739576e-07,-4.807448886067367e-07,1.0634226258102388e-09,-9.317461482467219e-08
-7.397200482741668e-08,-3.1025910451174195e-07,-1.891936749914128e-07,-2.596077801477321e-07,-3.699637228788131e-07,-4.019935061010738e-07,-7.927674629903458e-07,-2.928833323075066e-07,-3.183369932819504e-07,-2.3266555717354737e-07,-3.6591765777417896e-07,-1.4420514624483457e-07,-1.665957111301234e-07,1.874889218338771e-07,-3.284767681435015e-07,-4.964582195025434e-07,6.437559491539714e-09,-1.0951065333272171e-07
-6.801320799896826e-08,-3.3387161302815965e-07,-2.0730543722569946e-07,-2.7969247755392066e-07,-3.656593454927702e-07,-4.1269069355078534e-07,-8.259628041597141e-07,-3.029821041147509e-07,-3.344225840276472e-07,-2.3407586374111732e-07,-3.87554425985256e-07,-1.324577762299759e-07,-1.7705488994332668e-07,2.2045915807293744e-07,-3.3967009245163737e-07,-5.022999084807406e-07,1.8010244068262887e-08,-1.2261813132059693e-07
-5.153142290449484e-08,-3.538480965093368e-07,-2.2100472832837567e-07,-2.9671757703083086e-07,-3.532898448791171e-07,-4.1887126352491984e-07,-8.502592831491326e-07,-3.08470695974127e-07,-3.444781510249909e-07,-2.2930156011021854e-07,-4.061888810832347e-07,-1.0932973736838229e-07,-1.8588820912942668e-07,2.6383266709329114e-07,-3.464338894775669e-07,-4.9602896950971e-07,3.705309557563145e-08,-1.3078079263745063e-07
-2.8585632967162578e-08,-3.699642480592395e-07,-2.2811310021560974e-07,-3.0904473429274177e-07,-3.3303267716901064e-07,-4.221299190847664e-07,-8.660914621563672e-07,-3.0869735142489823e-07,-3.485249095977547e-07,-2.1670666822390545e-07,-4.1792557197334934e-07,-7.511031682209743e-08,-1.8788976088597952e-07,3.1689184615341334e-07,-3.47940465985475e-07,-4.787474950729969e-07,6.291643976743502e-08,-1.3317248536484304e-07
-5.1872815725861914e-09,-3.830187130131604e-07,-2.2810731204878154e-07,-3.15450947492218e-07,-3.068120438259251e-07,-4.2447710750755997e-07,-8.761427471583724e-07,-3.047107344647693e-07,-3.485465020489829e-07,-1.9645225596039477e-07,-4.200627266424958e-07,-3.381355751598727e-08,-1.784843830582671e-07,3.745701952685885e-07,-3.465769279885324e-07,-4.5569056249905773e-07,9.271170450654484e-08,-1.302840256747303e-07
1.2243565075870088e-08,-3.949377833389409e-07,-2.2256658770559332e-07,-3.1587923480867985e-07,-2.7829201426042424e-07,-4.280770431754386e-07,-8.85550995881553e-07,-2.993603648387797e-07,-3.479871672592194e-07,-1.7002043060370252e-07,-4.12351767277688e-07,8.68197449227208e-09,-1.5535073607444201e-07,4.2939971078297674e-07,-3.4241124059327596e-07,-4.3406741453732473e-07,1.228496247057268e-07,-1.2407888633093134e-07
1.95843933852728e-08,-4.073517806757415e-07,-2.136392528177828e-07,-3.109853575708776e-07,-2.512748569466398e-07,-4.340326800477492e-07,-8.991020553556457e-07,-2.9535797568005346e-07,-3.474648465901561e-07,-1.4045273544113194e-07,-3.9650136202059645e-07,4.757177309705234e-08,-1.1892055737762647e-07,4.7579596776539437e-07,-3.3356879434610736e-07,-4.19141283061915e-07,1.5093388265523958e-07,-1.1544673508258582e-07
1.68718519609537e-08,-4.203815074157063e-07,-2.027333455873022e-07,-3.014571032817398e-07,-2.2787741179972704e-07,-4.416910204134435e-07,-9.188543851818394e-07,-2.9400663481477993e-07,-3.481685521471811e-07,-1.1091440193277446e-07,-3.748678272656169e-07,8.023880692802131e-08,-7.272316235478453e-08,5.11987179288979e-07,-3.2077143293839677e-07,-4.1347117632779634e-07,1.7618022467632897e-07,-1.047649669663015e-07
7.26219803981876e-09,-4.3264094780236925e-07,-1.9118530281061412e-07,-2.8801245973048346e-07,-2.0846820594615403e-07,-4.4927018665772933e-07,-9.442131980470898e-07,-2.950179375153992e-07,-3.5041306696232867e-07,-8.40879480219257e-08,-3.497329622526353e-07,1.0579275032604256e-07,-2.2245341861549786e-08,5.392875803626866e-07,-3.030896515131107e-07,-4.173166667563516e-07,1.988941839657572e-07,-9.236101857415191e-08
-4.937815970671387e-09,-4.420040405571251e-07,-1.7932432990575576e-07,-2.7142830475898486e-07,-1.920279479739059e-07,-4.5474550690927824e-07,-9.725040845822407e-07,-2.944555846137797e-07,-3.530422004657586e-07,-6.247229655779042e-08,-3.228966602986913e-07,1.2469739199932985e-07,2.7379145046790675e-08,5.614617987204974e-07,-2.787307619485331e-07,-4.2906301566356946e-07,2.2007334621525468e-07,-7.865967883106348e-08
-1.532515832795708e-08,-4.463210794691171e-07,-1.6643376375997734e-07,-2.5226595728475116e-07,-1.765161483590959e-07,-4.5617754831290583e-07,-9.99535535326506e-07,-2.9108928115623515e-07,-3.5520658444026873e-07,-4.620957576739971e-08,-2.9543716930798627e-07,1.3813698472088071e-07,7.314842949649631e-08,5.831931290551094e-07,-2.4966592925360557e-07,-4.465362435684195e-07,2.406677082489738e-07,-6.298470223423845e-08
-2.0534011356325563e-08,-4.442329070628817e-07,-1.5164818289834166e-07,-2.3116671801968534e-07,-1.5979035111345586e-07,-4.5215043041428467e-07,-1.0211595927782302e-06,-2.842267729443919e-07,-3.5582677242164566e-07,-3.4156452164158655e-08,-2.6811988683469703e-07,1.470587696034527e-07,1.1351522454366234e-07,6.072681652349959e-07,-2.1476572117939385e-07,-4.685496651217375e-07,2.6042460788878075e-07,-4.568967775904089e-08
-1.9839487085921397e-08,-4.36242418397946e-07,-1.34794822432364e-07,-2.0966817672703257e-07,-1.4088643128327308e-07,-4.4240246403479504e-07,-1.0355774388834916e-06,-2.749117967275127e-07,-3.551106445670489e-07,-2.497435573477121e-08,-2.4182053130031744e-07,1.5123367999940493e-07,1.4722636332768316e-07,6.329697584039195e-07,-1.7624234727494932e-07,-4.954725925728761e-07,2.7784682758183386e-07,-2.85187699691364e-08
-1.4763355434418213e-08,-4.2465853421353343e-07,-1.1712373133359118e-07,-1.9010027619607075e-07,-1.2029892634306609e-07,-4.277110618499654e-07,-1.0438249584350598e-06,-2.6639021085749106e-07,-3.5422066343815667e-07,-1.69845004875386e-08,-2.1714494908839504e-07,1.5185891978244256e-07,1.7312159768311828e-07,6.575791805550723e-07,-1.3707786290654578e-07,-5.273163760862015e-07,2.9160700439347045e-07,-1.3031758031169015e-08
-7.170872765308685e-09,-4.120643124136191e-07,-1.000968717989007e-07,-1.7449423239267e-07,-9.917062035964646e-08,-4.0907950259674895e-07,-1.047859908001143e-06,-2.6062795392851695e-07,-3.5437830398273844e-07,-8.06325407047222e-09,-1.9407189919247135e-07,1.5126973666081606e-07,1.9103438565447886e-07,6.788398963967871e-07,-9.964206580324937e-08,-5.624190797892908e-07,3.0140268883275927e-07,1.091607164324072e-10
1.8098729814664991e-09,-4.0055858724787984e-07,-8.446257091767079e-08,-1.637083920507837e-07,-7.847870404757287e-08,-3.8756099960590494e-07,-1.0495210055438612e-06,-2.6099073409133564e-07,-3.554199801958723e-07,1.3903161175734498e-09,-1.7267746057071617e-07,1.5146170950844274e-07,2.0173661631141025e-07,6.958077590228464e-07,-6.581930874354079e-08,-5.978321506297248e-07,3.072794054233993e-07,1.0845289409903389e-08
1.1358709381405323e-08,-3.916527189400055e-07,-7.21259835123766e-08,-1.5793985110028143e-07,-5.921706379939191e-08,-3.64913146416205e-07,-1.0513381709412433e-06,-2.66933760350228e-07,-3.567009799886219e-07,1.0179063491679046e-08,-1.5396885157673188e-07,1.531641001105009e-07,2.0649729963391909e-07,7.082848232572989e-07,-3.7395666641002565e-08,-6.309359375274657e-07,3.091183723561993e-07,1.6792861719564503e-08
2.0717165961927834e-08,-3.8633054329292623e-07,-6.493821439477387e-08,-1.5691238297697633e-07,-4.224937683333813e-08,-3.436826931631672e-07,-1.0564868241811645e-06,-2.7777288845242383e-07,-3.581746559319088e-07,1.6732086651813983e-08,-1.3967170627899664e-07,1.553754330353492e-07,2.0718772355162755e-07,7.174894729026214e-07,-1.5783586931664123e-08,-6.594677679298852e-07,3.0729170867472304e-07,1.8969086774675075e-08
2.983862813270021e-08,-3.8423495556039067e-07,-6.294399567401315e-08,-1.5919439015623727e-07,-2.6982613937910262e-08,-3.26369616892005e-07,-1.0671351599788487e-06,-2.915200105749861e-07,-3.6025065079435426e-07,1.7709528344728817e-08,-1.313959918613569e-07,1.5737565097385728e-07,2.0613631995066084e-07,7.262331549749746e-07,-3.6252315807035526e-10,-6.810911798878459e-07,3.0297247419629437e-07,2.0052973893785866e-08
3.9605592097231726e-08,-3.832065684108641e-07,-6.442753192879092e-08,-1.622063731212571e-07,-1.0907645519257683e-08,-3.1493210889417404e-07,-1.083784100541919e-06,-3.0510159253595814e-07,-3.608364501069762e-07,1.074202279159262e-08,-1.314287204714943e-07,1.571542357731187e-07,2.0516313450211079e-07,7.370620530751098e-07,8.627298779942893e-09,-6.950211089798184e-07,2.972187876856922e-07,2.2265739978261858e-08
5.061655255475777e-08,-3.803826466176448e-07,-6.658081954990772e-08,-1.63018454796941e-07,9.34861648026024e-09,-3.1103964282161543e-07,-1.1066053322003315e-06,-3.170373671717509e-07,-3.590266194570418e-07,-5.070764789052732e-09,-1.4008344509566498e-07,1.5272823987458675e-07,2.0536740542564025e-07,7.506472025904374e-07,1.0478800419314462e-08,-7.023078534263665e-07,2.902825735634804e-07,2.7067936987401018e-08
6.252700461071131e-08,-3.7328865880282755e-07,-6.603455310218866e-08,-1.5986284782231913e-07,3.661397281834454e-08,-3.1602046195129023e-07,-1.136013517145022e-06,-3.260369648169191e-07,-3.5497422272044427e-07,-3.009832094674346e-08,-1.5581297318228107e-07,1.430114559305282e-07,2.077561957907332e-07,7.648440130410855e-07,5.943963376362826e-09,-7.051161228874523e-07,2.81913052763198e-07,3.4840296239527763e-08
7.455159528129292e-08,-3.603347225724855e-07,-5.92704719955632e-08,-1.4986118568884722e-07,7.293724364750991e-08,-3.302700476575288e-07,-1.1722573598617152e-06,-3.3204130028409284e-07,-3.501920855348641e-07,-6.256645491209963e-08,-1.7527950422298435e-07,1.2754737660008654e-07,2.13306752183106e-07,7.784738544274568e-07,-4.133502565038814e-09,-7.062539168328599e-07,2.7136732752840554e-07,4.524170943552688e-08
8.528776983646772e-08,-3.412087938386901e-07,-4.369458413947041e-08,-1.3186931679977172e-07,1.1715806417643089e-07,-3.5313703700502184e-07,-1.2156799683961595e-06,-3.3535677849406883e-07,-3.472275864791665e-07,-1.0036656984041473e-07,-1.9425077997318818e-07,1.0563548380571824e-07,2.2220009200786135e-07,7.893371153100641e-07,-2.0252839700708602e-08,-7.098333949931877e-07,2.568371881609318e-07,5.595431422139222e-08
9.251207519256906e-08,-3.175717896269859e-07,-2.001882189697857e-08,-1.0720889576476896e-07,1.6536469189766086e-07,-3.833502958088783e-07,-1.2671632652458729e-06,-3.3820540169448613e-07,-3.4844948920904665e-07,-1.4274664002699522e-07,-2.0940244365572265e-07,7.623683749851571e-08,2.3334575197943711e-07,7.943895677791958e-07,-4.3079946594798767e-08,-7.223107281298805e-07,2.359872753450969e-07,6.368593259883035e-08
9.440783602235081e-08,-2.925375472930479e-07,7.879236159543807e-09,-7.85843243702323e-08,2.126002887381423e-07,-4.1899453081704966e-07,-1.3270119164079224e-06,-3.435909589950117e-07,-3.5615805594167805e-07,-1.8884734077263427e-07,-2.2169173388616948e-07,3.9217249752921396e-08,2.461667666549921e-07,7.929533248784667e-07,-7.179117644369212e-08,-7.475293630166127e-07,2.0784137205374126e-07,6.514458851839338e-08
9.18020305172561e-08,-2.688145612625386e-07,3.6061660452399423e-08,-4.883761864982324e-08,2.5487625194606515e-07,-4.5722786747690413e-07,-1.3929824075825336e-06,-3.5165405874614005e-07,-3.6973565075651384e-07,-2.3626096735049364e-07,-2.3392313964125452e-07,-3.3727923684230417e-09,2.599329460434546e-07,7.870753225933176e-07,-1.0343867389275932e-07,-7.839298476330945e-07,1.7377404677078316e-07,5.931917870491698e-08
8.78257084225182e-08,-2.4723072577881483e-07,6.141620078860846e-08,-2.1042361336143222e-08,2.9075859591185614e-07,-4.949150843772798e-07,-1.460658117638698e-06,-3.6138295340110937e-07,-3.8331086647914867e-07,-2.83299492016249e-07,-2.491838430584487e-07,-4.9204771366631315e-08,2.743812677010617e-07,7.799880921900534e-07,-1.3715740012880003e-07,-8.258886805660852e-07,1.3660633498963618e-07,4.781423881018995e-08
8.537749196047492e-08,-2.2825460586172608e-07,8.183575265204005e-08,2.3928563022384624e-09,3.205818646858515e-07,-5.299272981000152e-07,-1.5259724694737996e-06,-3.715625434101175e-07,-3.9576843204406417e-07,-3.2790357020026786e-07,-2.7134056625892e-07,-9.449872558363899e-08,2.8942132730298676e-07,7.734883370659953e-07,-1.717716462023269e-07,-8.657202791051904e-07,9.947916757734855e-08,3.322248126818429e-08
8.507703016131387e-08,-2.1186522126824806e-07,9.701455513396035e-08,2.0031612138763107e-08,3.456598102964208e-07,-5.6167990594846e-07,-1.5868077284249783e-06,-3.814836848732766e-07,-4.063709585697126e-07,-3.683515078819231e-07,-3.01396542172082e-07,-1.3530968904884452e-07,3.048998223781024e-07,7.696856397147428e-07,-2.0497864822984588e-07,-8.95639672799375e-07,6.550295810617905e-08,1.9489176729070798e-08
8.543838099615802e-08,-1.9711620903771776e-07,1.0842834607950035e-07,3.068194669152319e-08,3.673124009043561e-07,-5.907447407110592e-07,-1.6428748428700091e-06,-3.909736493275984e-07,-4.1359428711251867e-07,-4.057959862869328e-07,-3.3676342014343547e-07,-1.7015644197963637e-07,3.2108544802109406e-07,7.666565103239914e-07,-2.293061377173628e-07,-9.097996634623553e-07,3.7124861347053124e-08,1.0340114357421078e-08
8.375035589823679e-08,-1.828647166723984e-07,1.1774259726990826e-07,3.4277737508499153e-08,3.86348873152389e-07,-6.185101062605605e-07,-1.6955463797659066e-06,-3.998538035681376e-07,-4.1839703207504455e-07,-4.3302170588229184e-07,-3.76689310924065e-07,-1.9911209342940453e-07,3.377664753161953e-07,7.62332437779778e-07,-2.466233417741688e-07,-9.068660707862149e-07,1.50444767963098e-08,7.426344836991934e-09
7.692032725762679e-08,-1.683765299707928e-07,1.2587400146618016e-07,3.0897892370695984e-08,4.0210040388548084e-07,-6.46839721383519e-07,-1.7475330045962545e-06,-4.1019284938496166e-07,-4.2189544237096064e-07,-4.5465640144789937e-07,-4.191363719503901e-07,-2.2536175160812688e-07,3.541384787852608e-07,7.566129211076406e-07,-2.612613658379989e-07,-8.897020247064564e-07,-1.7506184713403154e-09,1.0299012390529512e-08
6.294173974633705e-08,-1.5382793851152916e-07,1.3289773854111523e-07,1.934698916737712e-08,4.1294829571249e-07,-6.770267225940885e-07,-1.8011283084244376e-06,-4.2332076902691907e-07,-4.187049269811026e-07,-4.841577089736542e-07,-4.6341189691032075e-07,-2.5340797676206904e-07,3.698588465531902e-07,7.522733522478487e-07,-2.7663276107578633e-07,-8.629217251120123e-07,-1.4622129587674266e-08,1.254675829390178e-08
4.226902980044147e-08,-1.4028132170786846e-07,1.388524386807259e-07,7.074675891134076e-10,4.178210386659694e-07,-7.086795073428067e-07,-1.8560514310004026e-06,-4.3503646899309373e-07,-4.1088356292716437e-07,-5.185269948748279e-07,-5.087021122785774e-07,-2.8548194845388203e-07,3.866402903127273e-07,7.56710369692357e-07,-2.9528031411354827e-07,-8.30341771683232e-07,-2.4396087535235593e-08,1.481593737925596e-08
1.772021016499074e-08,-1.29425360913262e-07,1.4408316138281133e-07,-2.4535773744408923e-08,4.163237190615901e-07,-7.39705979335909e-07,-1.9092998461818797e-06,-4.450090133332013e-07,-4.0030359492440487e-07,-5.47587399949855e-07,-5.452514762868295e-07,-3.157502643150945e-07,4.077159131753325e-07,7.78000754699777e-07,-3.0244096892228083e-07,-7.940554268109846e-07,-3.150901845408381e-08,1.8821176556966683e-08
-6.800419783031739e-09,-1.227869502490414e-07,1.476234713768196e-07,-5.630669967092876e-08,4.085829844117249e-07,-7.669193208056044e-07,-1.956412362354469e-06,-4.5155934735312673e-07,-3.835191172659837e-07,-5.677263933940117e-07,-5.750392104592769e-07,-3.414158156452106e-07,4.372816184381461e-07,8.218179115794043e-07,-2.831108859645651e-07,-7.549043372005707e-07,-3.5825591118080434e-08,2.5879943862533223e-08
-2.7109919662943366e-08,-1.2184726150588282e-07,1.4951330987493488e-07,-8.486808966723135e-08,3.9590480940424067e-07,-7.861147216640866e-07,-1.9920965200610097e-06,-4.5093282341487684e-07,-3.602075828450015e-07,-5.556089002947333e-07,-6.01805898472989e-07,-3.684808584002162e-07,4.797167635893404e-07,8.865086816383735e-07,-2.1722130688028927e-07,-7.094772146293975e-07,-3.57048131419313e-08,3.967570480457107e-08
-3.9154636822384486e-08,-1.2060430884614686e-07,1.4953707247903773e-07,-1.0851046832295271e-07,3.815215344957064e-07,-7.921335520219561e-07,-2.0104845303397814e-06,-4.398715852651652e-07,-3.2128218183184856e-07,-5.233390289829359e-07,-6.265011503851225e-07,-4.2588483161377225e-07,5.362713149299149e-07,9.734068843573465e-07,-1.59636526002257e-07,-6.559680557381504e-07,-2.910141489301901e-08,6.122383092151186e-08
-4.016632974639194e-08,-1.2899563162691046e-07,1.463579482905036e-07,-1.270702271006797e-07,3.706154222308475e-07,-7.801888941197551e-07,-2.0068708939758836e-06,-4.1461822405014123e-07,-2.5768095897450224e-07,-5.101831031762193e-07,-6.396103786141532e-07,-5.217474264578678e-07,6.064546659320622e-07,1.0786160964820431e-06,-1.1712139372493516e-07,-5.894942183081012e-07,-1.3849181614280445e-08,9.098702324387252e-08
-3.01322775929562e-08,-1.498041627284993e-07,1.4541422009171325e-07,-1.3587291458081157e-07,3.646726240603496e-07,-7.480828005775362e-07,-1.9801579892598384e-06,-3.73612409829408e-07,-2.1508737535496597e-07,-5.224386902278029e-07,-6.504968901403643e-07,-6.335992195551797e-07,6.869389229854103e-07,1.1946416804782585e-06,-8.069495844940969e-08,-5.0827659497689e-07,1.1248191255840267e-08,1.266991348734458e-07
-1.2279304991699946e-08,-1.676305383312068e-07,1.4605140236712456e-07,-1.215056556685761e-07,3.6893490760711803e-07,-6.978116555847635e-07,-1.933966681984028e-06,-3.2465429269778356e-07,-1.9350350541986466e-07,-5.135422483282601e-07,-6.364592559568187e-07,-6.900570076850012e-07,7.703573298507548e-07,1.3121262367129883e-06,-6.4522393448314e-08,-4.1432265934628817e-07,4.576923863296057e-08,1.656552376297832e-07
7.308196643000125e-09,-1.7938666007562567e-07,1.4851849398882613e-07,-9.226333961874315e-08,3.85902840155471e-07,-6.356680782278423e-07,-1.8762148404946003e-06,-2.751389200610452e-07,-1.4734620616659323e-07,-4.7340784716200964e-07,-5.808767973197869e-07,-6.877213418639154e-07,8.489445784163812e-07,1.417219824244447e-06,-4.33457699772869e-08,-3.1590727268638005e-07,8.776104395605198e-08,2.0472262821060463e-07
2.1616643819745254e-08,-1.743072081450885e-07,1.5235946152864115e-07,-3.520841199325164e-08,4.128490933491201e-07,-5.702744787612597e-07,-1.8170042793763648e-06,-2.3253330684605974e-07,-1.0712941958953494e-07,-4.268360243140822e-07,-5.623728387202568e-07,-6.476686292246619e-07,9.175922594223e-07,1.4977129573311934e-06,-5.502690656574631e-09,-2.242815984636964e-07,1.343382579328954e-07,2.361572919261814e-07
2.729840863608165e-08,-1.5130695224551939e-07,1.6216329350751834e-07,5.182854612317102e-08,4.460149468014036e-07,-5.084350548495071e-07,-1.7637267766734175e-06,-1.992572578573371e-07,-9.303842404667466e-08,-4.0188790132458595e-07,-5.440915437688507e-07,-5.914897250968187e-07,9.725120753643407e-07,1.5481105284096342e-06,5.751884382171512e-08,-1.4576001277234353e-07,1.8480488924615928e-07,2.640595416384045e-07
2.9115092918637826e-08,-9.294236774578302e-08,1.8153374203222215e-07,1.0181400255556116e-07,4.815187264793012e-07,-4.510995137465785e-07,-1.7137569596090292e-06,-1.7199737151001225e-07,-9.458278711321838e-08,-3.7859528378158997e-07,-5.124197676925498e-07,-5.740735047460806e-07,1.0114454900463988e-06,1.574452810197117e-06,1.1013486699038969e-07,-7.956187880670628e-08,2.3998564850556925e-07,2.942448899040691e-07
3.882519571383447e-08,-2.371328642089533e-08,2.158023302354064e-07,1.181592509181485e-07,5.204795847382618e-07,-3.931291070825869e-07,-1.657959016501091e-06,-1.4391651143860047e-07,-1.0214778765316111e-07,-3.6700902200236153e-07,-5.152031827532421e-07,-5.576685879492328e-07,1.0425729800019181e-06,1.5878481440516517e-06,1.8993789233825921e-07,-2.2974658384609665e-08,3.013209040895154e-07,3.34041561838884e-07
6.911969806498319e-08,1.6791843685122648e-08,2.655903163821592e-07,1.334550828444131e-07,5.66317478555191e-07,-3.274562358909541e-07,-1.5848562681588615e-06,-1.0322395448269127e-07,-1.0950648999008075e-07,-3.883680241076798e-07,-5.023064750071651e-07,-4.966724437340315e-07,1.0740782273244724e-06,1.599956302702236e-06,3.0909926359628436e-07,3.5834411542645236e-08,3.6919252587950775e-07,3.889507631115309e-07
1.2320552451436332e-07,3.5973142914462e-08,3.29786591707161e-07,1.585276308920904e-07,6.230221923432144e-07,-2.502467055400363e-07,-1.4874834324602622e-06,-4.854376135706898e-08,-1.0335065240618133e-07,-4.1602080841259325e-07,-4.6467649823051817e-07,-4.2544635984751074e-07,1.112651590536939e-06,1.6200379044179214e-06,4.2277749512044247e-07,1.0409937224556426e-07,4.417860650848439e-07,4.6259870849501966e-07
1.9431220775064108e-07,8.835119113603354e-08,4.064228936115285e-07,2.095285875497896e-07,6.915158789277652e-07,-1.6372761277683416e-07,-1.3682913362683278e-06,1.920352048699026e-08,-7.943087398569914e-08,-4.4157808333307267e-07,-4.024377796977601e-07,-3.5750924867920724e-07,1.161456290828021e-06,1.651954704335511e-06,5.381785197602634e-07,1.82856068337612e-07,5.141063170434524e-07,5.485268329474949e-07
2.6984043259176524e-07,1.66095352754587e-07,4.888645352606688e-07,2.9323888101971704e-07,7.684982291774756e-07,-7.569246594034079e-08,-1.2370850697669525e-06,8.673441404077347e-08,-4.376889474172924e-08,-4.527226731490577e-07,-3.6737651143013497e-07,-2.906927945413215e-07,1.2179246682558149e-06,1.6946891056663644e-06,6.355095593381127e-07,2.7131782533323136e-07,5.815758893062113e-07,6.236944707225135e-07
3.356635846113678e-07,2.460277870156023e-07,5.744529088947075e-07,3.742207381528634e-07,8.482953825598777e-07,3.900603008948578e-09,-1.106964022473075e-06,1.4789919346972162e-07,-3.2163281046995117e-09,-4.5832888341948065e-07,-3.3667191265480444e-07,-2.310452078700457e-07,1.2742453034636865e-06,1.7435705015679372e-06,6.607246236795298e-07,3.595353446863562e-07,6.407778124120307e-07,6.615957958206479e-07
3.8486278768480297e-07,3.004712842823463e-07,6.52412508598322e-07,4.3359021967014595e-07,9.249635899836397e-07,6.753377211766022e-08,-9.897618756404068e-07,1.992269730707343e-07,3.3532056927673134e-08,-4.593560850323084e-07,-3.0316336697261496e-07,-2.0126025429623364e-07,1.3253557519368567e-06,1.793362858549908e-06,7.083765750779778e-07,4.385416808408568e-07,6.887907422260017e-07,6.735807483212069e-07
4.1747386308774984e-07,3.448158472977386e-07,7.195247376156205e-07,5.18414624215183e-07,9.949154534186389e-07,1.1356872663807241e-07,-8.889657886221257e-07,2.337493802037675e-07,5.7970893000232715e-08,-4.566343767497932e-07,-2.905580255267262e-07,-1.9983470757717877e-07,1.3688350406673834e-06,1.8351498191598764e-06,7.714134128932347e-07,4.937284041853858e-07,7.230387104983981e-07,6.633948653803296e-07
4.382858414708677e-07,3.6823374132019066e-07,7.623672526454641e-07,5.847598653521409e-07,1.050738530060197e-06,1.451194251699525e-07,-8.014236981706424e-07,2.547357296504535e-07,7.171969571621836e-08,-4.5884482033186223e-07,-2.667225817544519e-07,-2.1430292280726588e-07,1.4156839070519562e-06,1.8641795063198965e-06,8.274848874875321e-07,5.472842828695934e-07,7.479240723211027e-07,6.746891668114817e-07
4.5528066782514124e-07,4.025669957586279e-07,8.010942447161781e-07,6.515950020292687e-07,1.0935245814292737e-06,1.687090180273749e-07,-7.20807904696417e-07,2.6387394368861645e-07,8.367273212061047e-08,-4.851683218559623e-07,-2.195972137039146e-07,-2.3872999619171093e-07,1.4660832214505943e-06,1.888804223360625e-06,8.493923483381599e-07,5.875170954698568e-07,7.688855903098062e-07,6.887567238320106e-07
4.765213816267041e-07,4.5657821635789214e-07,8.450454200723649e-07,6.981336688498015e-07,1.1279397677776529e-06,1.911317388068235e-07,-6.384977018482767e-07,2.646428680919228e-07,8.619321589820694e-08,-5.130377850143247e-07,-2.0337587561861313e-07,-2.6130467406789425e-07,1.5157998926738812e-06,1.9105168688650484e-06,8.435941067642741e-07,6.194602462802852e-07,7.872872813241405e-07,6.732354659380879e-07
5.084627620634164e-07,4.839926002014469e-07,8.45873534313725e-07,7.237441218367705e-07,1.156126941128094e-06,2.1932866516860172e-07,-5.480924439922681e-07,2.6266756348659376e-07,8.199597863363447e-08,-5.275920183978537e-07,-2.154263961924837e-07,-2.712842876283472e-07,1.5628462377028466e-06,1.9332372654606186e-06,8.402358508353681e-07,6.303075391322717e-07,8.225096024908989e-07,6.497940393644858e-07
5.532031721220584e-07,5.016039251806454e-07,8.424362703313141e-07,7.597928404823765e-07,1.1857332807992518e-06,2.5793653874804193e-07,-4.4698314393509204e-07,2.633432769432908e-07,7.637312379321469e-08,-5.281873358939159e-07,-2.4099309242823544e-07,-2.640217406634435e-07,1.605344819653345e-06,1.9636937426224467e-06,8.421034487061155e-07,6.513375928167597e-07,8.830728326310275e-07,6.295969840618286e-07
6.097193258206092e-07,5.338749671237107e-07,8.928935288459431e-07,7.885575836824258e-07,1.2209354596565746e-06,3.0515537920286675e-07,-3.368400923174214e-07,2.7325876158959804e-07,7.578475613259597e-08,-4.860000185009533e-07,-2.4274645139516984e-07,-2.41572905906624e-07,1.6544075623884172e-06,2.0024022215372073e-06,8.610901862178086e-07,7.177803792804687e-07,9.626404504638067e-07,6.367125394319227e-07
6.742047615301332e-07,5.845439479030398e-07,9.446201282818959e-07,8.051528203875543e-07,1.2630848353672474e-06,3.5758979157822376e-07,-2.1812544148553468e-07,2.8946435499505854e-07,8.567779943458758e-08,-4.568857208917821e-07,-2.355893666599206e-07,-1.8668011005124036e-07,1.7088517294391304e-06,2.050308455973363e-06,9.469429888444064e-07,8.726000609679177e-07,1.040038170190214e-06,6.531519296467166e-07
7.434938177979306e-07,6.402181805214848e-07,9.950835787342045e-07,8.367603637921737e-07,1.3184483122086372e-06,4.1074420550775786e-07,-1.114328486479306e-07,3.1623195066432963e-07,1.0772223363901882e-07,-4.3235622105653796e-07,-2.2540601017969834e-07,-1.1108790694796476e-07,1.802227174642019e-06,2.0973162096239313e-06,1.0208874844562464e-06,1.0358612428819264e-06,1.0923571791621788e-06,6.891381870628205e-07
8.239345621000957e-07,6.914510621117361e-07,1.0359069645375106e-06,8.839968859209918e-07,1.3789301222804895e-06,4.599147676859875e-07,-1.9543174649356105e-08,3.457779141980068e-07,1.3509580745976686e-07,-4.014695649609304e-07,-2.1181323912913482e-07,-4.6093683486734755e-08,1.926231462961166e-06,2.1483687860254636e-06,1.0758891460622838e-06,1.111430557183668e-06,1.1558732013493781e-06,7.202797952776858e-07
8.888844513947518e-07,7.26766402788027e-07,1.0730174396530209e-06,9.493742650367632e-07,1.4428971861736104e-06,5.022599865287704e-07,5.6767644093810144e-08,3.7491238261567466e-07,1.6868698646182045e-07,-3.7075720491445464e-07,-2.0543010325567902e-07,1.612495842921457e-08,1.9903979052127115e-06,2.1973262950453217e-06,1.1193291423611972e-06,1.1440090180421453e-06,1.2445326100137944e-06,7.287730656115815e-07
9.203939976944118e-07,7.589836807484658e-07,1.1144833134126353e-06,1.0238000906124958e-06,1.5158696598254045e-06,5.36721362908714e-07,1.0932705579539543e-07,4.1349949280867834e-07,2.1431546767658307e-07,-3.4258949811367884e-07,-1.963359457543382e-07,3.55393371437661e-08,2.026459051659883e-06,2.2375491166929725e-06,1.136417389115367e-06,1.1751434481759188e-06,1.305205590301164e-06,7.252478933287517e-07
9.341867471720466e-07,7.810167197549367e-07,1.154734923810543e-06,1.0841713974771439e-06,1.5913628556800173e-06,5.633212008279351e-07,1.4124393351771653e-07,4.5645888962003653e-07,2.673236245904422e-07,-3.1514875984025585e-07,-1.3889639334439756e-07,5.1415198591911776e-08,2.027027048081506e-06,2.269728239055111e-06,1.18379470855864e-06,1.2473405762510137e-06,1.3179005491517899e-06,7.500871301995198e-07
9.443248243642069e-07,8.208259352173512e-07,1.2034930429550885e-06,1.1219431085672706e-06,1.649836004183265e-06,5.84010377208022e-07,1.5276995025064752e-07,4.943788802552422e-07,3.135015100414058e-07,-2.8446164047318645e-07,-5.1957375635014304e-08,5.4329447365994986e-08,2.0057200608510128e-06,2.267034967829121e-06,1.2498743611008733e-06,1.3436023271998072e-06,1.3293941527693925e-06,8.06561173487247e-07
9.66239133321473e-07,8.712611919574312e-07,1.2256709249651046e-06,1.1494790940941667e-06,1.6819120538619313e-06,5.99385674576068e-07,1.492362434949915e-07,5.206947796855497e-07,3.4263105156787613e-07,-2.4962690388847195e-07,-1.979269298003106e-08,2.424224389479427e-08,2.0435968818315808e-06,2.2283879315111218e-06,1.2910755016086175e-06,1.4216231870473805e-06,1.3346557604622629e-06,8.347041028881713e-07
9.858685100632967e-07,9.159979522530583e-07,1.2422266934948082e-06,1.1361832400407264e-06,1.6710847544329557e-06,6.130676834646745e-07,1.2206675145240564e-07,5.118080362409044e-07,3.3898233266181466e-07,-2.3246223136571283e-07,-2.151189320191526e-08,-6.487993864036328e-08,2.086265998035504e-06,2.1609961119599443e-06,1.288791269435941e-06,1.4459052126954245e-06,1.3349928042393242e-06,8.267762856181063e-07
9.857805987996797e-07,9.513488068498927e-07,1.228642343497096e-06,1.0897666602784105e-06,1.5930042815554887e-06,6.182803633747465e-07,1.0061480958351547e-07,4.552291986861524e-07,2.9391194890611237e-07,-2.1824717205890812e-07,-1.4801940980566523e-08,-1.4804108535868956e-07,2.071385615299999e-06,2.0633636994667043e-06,1.270784077161168e-06,1.336092612033986e-06,1.3613361929403836e-06,8.017838429239956e-07
9.670278503872375e-07,9.337322418256083e-07,1.2062813423694665e-06,1.062493436029601e-06,1.556784027818879e-06,6.118087859994335e-07,7.31384888432889e-08,4.3491483094869137e-07,2.860591162543067e-07,-2.085219070337451e-07,-1.4645107790507025e-08,-2.1147833309257787e-07,2.058955091215969e-06,1.9941903300146102e-06,1.2446223228585833e-06,1.208551493084616e-06,1.3852530477128254e-06,7.511318978642994e-07
9.244717425752277e-07,8.813579699780584e-07,1.1989223078681315e-06,1.0590852439548724e-06,1.5461089370746749e-06,5.901409162780315e-07,-1.566643187806125e-08,4.225874568227677e-07,2.9319327002608236e-07,-2.1301175219550307e-07,-3.665254775840019e-08,-2.5577398666356484e-07,2.0475196706637315e-06,1.97133454904556e-06,1.2126011180242515e-06,1.1452674752381994e-06,1.3933299558112924e-06,7.174793764953507e-07
8.586694391878382e-07,8.325170886966622e-07,1.193231594477064e-06,1.0611506408316385e-06,1.5245150641723369e-06,5.27428184642613e-07,-7.87086233781526e-08,4.051169865494825e-07,2.949111174414348e-07,-1.8932454669155606e-07,-7.772331791837694e-08,-3.0017994051722206e-07,1.993990991031506e-06,1.9747280646802383e-06,1.1872591406829617e-06,1.1112816189104527e-06,1.3918080190178397e-06,6.980478574862285e-07
8.420155146544891e-07,8.013913586290631e-07,1.1936544791393454e-06,1.0848698618263918e-06,1.5150908979912075e-06,4.5896866574278004e-07,-1.0684730467518356e-07,4.0681228393822266e-07,3.0962165441602765e-07,-1.5461345611930133e-07,-1.4358666245196756e-07,-3.615137932865496e-07,1.9378572385783386e-06,1.9629858672975336e-06,1.1949682304781278e-06,1.1040189971633382e-06,1.3840833416977947e-06,6.806540615770831e-07
8.437615501318734e-07,7.785914297185565e-07,1.216478223789563e-06,1.1331421727855738e-06,1.5033147459729851e-06,3.873335782566462e-07,-8.123934495976801e-08,4.1719355787826647e-07,3.261729423037155e-07,-1.4737302242196252e-07,-2.138958310874318e-07,-4.046262607889819e-07,1.933228442054621e-06,1.966046109010155e-06,1.2278661538715896e-06,1.143095082342445e-06,1.3621167440252393e-06,6.809340174707946e-07
8.152650100785513e-07,7.823429254253311e-07,1.2335567277699724e-06,1.1650088625896355e-06,1.5228800813325315e-06,2.929447154764242e-07,-9.243855286283545e-08,4.4289219823681347e-07,3.398339745317625e-07,-1.6103119461271727e-07,-2.574989787084762e-07,-4.3696800589782786e-07,1.9297636493341925e-06,2.003134668513138e-06,1.25266508078618e-06,1.1556506504770097e-06,1.323639439043387e-06,6.835181459650767e-07
7.097049605039303e-07,7.855228981062355e-07,1.246130184266234e-06,1.1835899390311274e-06,1.5579217207996859e-06,1.9962219771910266e-07,-2.1617447101512258e-07,4.6487147707877583e-07,3.309028994148933e-07,-1.8992787887708196e-07,-2.504835322278205e-07,-3.7447404220774816e-07,1.911255721672032e-06,2.0130533296928237e-06,1.2574844875308014e-06,1.1492810247242658e-06,1.2786845111632848e-06,6.818445600907565e-07
6.148277386791415e-07,7.797677774952606e-07,1.2634234261657266e-06,1.1834808750186514e-06,1.590368405952602e-06,1.7913498817395995e-07,-3.935689480121247e-07,4.823399682198223e-07,3.1743212798748016e-07,-2.2235434121340916e-07,-2.1630169096182226e-07,-2.6771460529634526e-07,1.9213095221093407e-06,1.9984913026162343e-06,1.2197425149205162e-06,1.1342014259750515e-06,1.2472240694724844e-06,6.826596351345588e-07
5.631063406098435e-07,7.69973741017675e-07,1.2982983967146074e-06,1.1768127723953817e-06,1.6081380484149789e-06,2.06331628409297e-07,-5.105644005272737e-07,4.865387274528224e-07,3.3378916490843025e-07,-2.768152127915641e-07,-1.869026821397156e-07,-1.752335481347008e-07,1.9586944112566808e-06,1.9654225144620857e-06,1.1970523815386133e-06,1.1534979902692122e-06,1.251852511673044e-06,6.903026244225215e-07
5.360367090671182e-07,7.541633705653987e-07,1.3281379248184189e-06,1.1555082845107113e-06,1.613114960921427e-06,2.3065543939334738e-07,-6.349098445886815e-07,5.020236281361651e-07,3.371451396936568e-07,-3.4853717715757756e-07,-1.4295014277992256e-07,-9.768535009880416e-08,1.9933107985242715e-06,1.9236688224915265e-06,1.1741078165722007e-06,1.1406766223128623e-06,1.2692714906999313e-06,6.882870275050215e-07
4.940036661897621e-07,7.391232015231767e-07,1.3174273857316213e-06,1.125852646385573e-06,1.6021678836978583e-06,2.477469681632382e-07,-7.439195577583972e-07,5.090199800253776e-07,3.375793017964528e-07,-4.1548932596919533e-07,-9.347845327830126e-08,-2.2531610622449726e-08,1.998463201792447e-06,1.8522189609237385e-06,1.1586288591021134e-06,1.0891297118390143e-06,1.2595363256433735e-06,6.84255469622759e-07
4.6008269635772707e-07,7.188757855891592e-07,1.2969347034363575e-06,1.1058000793004462e-06,1.5652914373855849e-06,2.6783743428826316e-07,-8.404370880551678e-07,4.976633860199595e-07,3.357637119752993e-07,-4.804406647088053e-07,-4.045142965683103e-08,5.2010913634571174e-08,1.9825312344624276e-06,1.7906294997209049e-06,1.1702462127741245e-06,1.007885949956403e-06,1.2273384421253926e-06,6.786470867598401e-07
4.366489971012744e-07,6.976417213650216e-07,1.2653172170486835e-06,1.0897884648540216e-06,1.5253394732890525e-06,2.7858226320764896e-07,-9.303999595113208e-07,5.067756537303868e-07,3.438749049530036e-07,-5.385630102320346e-07,5.2195888672444015e-08,1.3313304254683102e-07,1.9515953186465257e-06,1.8109967491205653e-06,1.1664993849083616e-06,9.162642645477889e-07,1.2219189081768752e-06,6.954323494379445e-07
4.457685391925807e-07,6.932339613086872e-07,1.238291101309461e-06,1.0649215478576275e-06,1.508696492028848e-06,3.352274065552291e-07,-9.991717618272802e-07,5.287171532299687e-07,3.634761367850982e-07,-5.832701945146924e-07,1.550426875987292e-07,2.218847037792579e-07,1.933554848738875e-06,1.8487166921884646e-06,1.1460406177741068e-06,8.671403693017365e-07,1.2410560484283004e-06,7.080245900373499e-07
4.997019494049705e-07,6.887115889302641e-07,1.2086119462497884e-06,1.0306483424450857e-06,1.5079482526400506e-06,3.75867457310109e-07,-1.0232598135521586e-06,5.383030334394342e-07,3.812430830221985e-07,-6.224232405539447e-07,2.3795090108559286e-07,3.190787395603385e-07,1.9048340285360564e-06,1.8773216903803543e-06,1.1150254210375669e-06,8.485010533908013e-07,1.2634214323435912e-06,7.094181399357283e-07
5.373327353490309e-07,6.851015117500215e-07,1.1975458942627888e-06,9.847731330543367e-07,1.5188369106373853e-06,3.7936624901668924e-07,-1.0753571433234132e-06,5.306471709005818e-07,3.9310617498261835e-07,-6.563074145348118e-07,3.180097510577422e-07,4.2605755359994863e-07,1.8581344538379087e-06,1.8673095684919697e-06,1.0624114569915988e-06,8.554293264528651e-07,1.280699614997427e-06,7.0191778354584e-07
5.55340442344645e-07,6.82840440948189e-07,1.2065395294555984e-06,9.264675607936648e-07,1.52249330991733e-06,3.909899290476002e-07,-1.1254208892847417e-06,5.087593404452198e-07,3.9360635408489086e-07,-6.736793678851572e-07,3.36637005828353e-07,5.055091544251238e-07,1.8078119427104408e-06,1.8272601350040403e-06,9.861323177687989e-07,8.359444653154016e-07,1.2904527165823192e-06,6.762215525632877e-07
5.829371197547093e-07,6.7250582508673e-07,1.2326916005014785e-06,8.741690308864119e-07,1.510632186547791e-06,3.637278119849798e-07,-1.1520930782208463e-06,4.767627341793812e-07,3.7277126831404685e-07,-6.796166034235218e-07,3.4450935361112997e-07,5.397490265040916e-07,1.7518647305295287e-06,1.7632379267223108e-06,9.039956792215827e-07,7.638820716820955e-07,1.2809692823617488e-06,6.395958551257346e-07
5.790774004517941e-07,6.585965029736374e-07,1.2484976870023835e-06,8.261644482319801e-07,1.4718466418934505e-06,3.3666362721156154e-07,-1.2606545822661766e-06,4.388508565430541e-07,3.4602245071992773e-07,-6.783378788049807e-07,3.469889956721257e-07,5.870234321351252e-07,1.707026180665189e-06,1.6913894619589358e-06,8.340724192600122e-07,6.551399159136052e-07,1.2554311974193036e-06,5.899166062757439e-07
5.076330194478494e-07,6.448087585460429e-07,1.2254901935245754e-06,7.800222916828754e-07,1.4257516907514521e-06,3.078930647603182e-07,-1.4049695997373236e-06,4.030237716136105e-07,3.1482050632660737e-07,-6.706651085724191e-07,3.375106601553589e-07,5.964147844005381e-07,1.6645879931512213e-06,1.5991990210515782e-06,7.654691080966934e-07,5.359438208667938e-07,1.2214444784660382e-06,5.351466288904245e-07
4.318300274703936e-07,6.236896870631542e-07,1.177390775488378e-06,7.386293061924094e-07,1.3742120976471453e-06,2.2057897488174522e-07,-1.5280833053295101e-06,3.6990638011174356e-07,2.7801821427823484e-07,-6.613637263918459e-07,3.2395599195164523e-07,6.063881060097072e-07,1.6094709923203072e-06,1.5214023983747655e-06,6.997438222747886e-07,4.1023289957068413e-07,1.1815380135084872e-06,4.823533791282191e-07
3.717445608829042e-07,5.944295295314796e-07,1.1000945593258833e-06,7.009286506696667e-07,1.3152279261356354e-06,1.3615840558013187e-07,-1.6296714632290832e-06,3.426774942624549e-07,2.433589714802205e-07,-6.520424243033111e-07,2.9816070738718357e-07,6.672655281066671e-07,1.548357062702263e-06,1.4588395990629317e-06,6.446549395998781e-07,2.8027168069526424e-07,1.137574859154528e-06,4.4509015191247015e-07
3.307370784338811e-07,5.723308297565714e-07,1.030599255266612e-06,6.665829409647887e-07,1.2594886669064446e-06,7.435724298429974e-08,-1.7144588231190404e-06,3.2205327822402866e-07,2.0949914565436798e-07,-6.447390691625331e-07,2.627003415571926e-07,6.929694120166526e-07,1.4984554308256558e-06,1.399136652466027e-06,5.947243846035417e-07,1.5199819353060398e-07,1.0917907622653335e-06,4.228420504749798e-07
3.1212261037506705e-07,5.569745691666157e-07,9.879325865527626e-07,6.346474218300597e-07,1.2013353097180304e-06,2.4890418499630564e-08,-1.780088527423301e-06,3.0555912210311253e-07,1.7951144242455365e-07,-6.44248253412449e-07,2.171746078736622e-07,6.685096988536776e-07,1.4544044769408289e-06,1.3414651281525442e-06,5.49390082747932e-07,2.0604872923074646e-08,1.045065066036746e-06,4.095361770557104e-07
3.034301092496654e-07,5.422273038295005e-07,9.510798812275327e-07,6.049010600488918e-07,1.1506301207337785e-06,1.6454887786912717e-08,-1.83167449892304e-06,2.9034752807311597e-07,1.5421071948902067e-07,-6.556947071919976e-07,1.6135476569868124e-07,6.243334866761e-07,1.4140691092440863e-06,1.2913859970623975e-06,5.091923864588944e-07,-1.0317670084169738e-07,9.978430024620147e-07,4.0084284038700804e-07
3.0413128039877527e-07,5.278730073867655e-07,9.158180974582417e-07,5.714222720508322e-07,1.1098362434498543e-06,1.932918436579755e-08,-1.8773380396275888e-06,2.715177191841606e-07,1.3040627382688489e-07,-6.781351754055383e-07,1.0549320681371968e-07,5.79612435694317e-07,1.3767030561488145e-06,1.2408147476262124e-06,4.662979300048554e-07,-2.140154821200851e-07,9.507841723877751e-07,3.9176079440392087e-07
3.076873502751846e-07,5.086582447784729e-07,8.91797141702796e-07,5.333555983444596e-07,1.0769410417680432e-06,1.507140963685475e-08,-1.91884695619849e-06,2.488502417116624e-07,1.0770144820761773e-07,-7.103838457924847e-07,5.034469149939102e-08,5.289009655362127e-07,1.3359847061508417e-06,1.1827789978671126e-06,4.1126872153093695e-07,-3.194542277712623e-07,9.029207310265812e-07,3.824971407616581e-07
3.056101672039337e-07,4.80491967287064e-07,8.637849268008209e-07,4.901977816262872e-07,1.0432395574075531e-06,3.0123116397528188e-09,-1.9611777417991498e-06,2.1805648018051519e-07,8.292705767525597e-08,-7.5059390327482e-07,-4.665434113868024e-09,4.818314527571252e-07,1.2954745922030127e-06,1.117398291272096e-06,3.4795566248493434e-07,-4.285006267515723e-07,8.536299674255571e-07,3.688992579828834e-07
2.978993669580888e-07,4.442774989880919e-07,8.309252662244784e-07,4.40366628066611e-07,1.0028751263716522e-06,-2.07200420579609e-08,-2.006868764280233e-06,1.8079288211354407e-07,5.5079922668553546e-08,-7.951882770860778e-07,-5.9002502612645017e-08,4.102115587523389e-07,1.2528512109122517e-06,1.0460518970537086e-06,2.80227163160555e-07,-5.359216379670816e-07,8.03846199171046e-07,3.5112415512612386e-07
2.83232011890687e-07,3.99831130791651e-07,7.993127360016723e-07,3.9187323113724633e-07,9.545374990383555e-07,-5.1543092411279365e-08,-2.055240875779046e-06,1.4086156949240363e-07,2.4751669927073934e-08,-8.407912411056742e-07,-1.0929527172128726e-07,3.3480677344603237e-07,1.2098907094133315e-06,9.7324321876808e-07,2.2021380994214166e-07,-6.385682920041498e-07,7.554594024294828e-07,3.296113976866716e-07
2.626384919276662e-07,3.4454463458904827e-07,7.578264113826495e-07,3.439056399035491e-07,8.972217503282953e-07,-8.173506026063294e-08,-2.101866733205677e-06,1.0060106286669377e-07,-5.882978069572719e-09,-8.841724952783502e-07,-1.5737123178658868e-07,2.5890468550933417e-07,1.166244150055158e-06,9.037226279102189e-07,1.7036018655241857e-07,-7.282388489372134e-07,7.102395386983294e-07,3.011224241918542e-07
2.3726056657056482e-07,2.8072634278686043e-07,7.148573914939489e-07,2.958636783730412e-07,8.352139362028943e-07,-1.0875767304547798e-07,-2.142650837485641e-06,6.50328990910313e-08,-3.488281875687085e-08,-9.22929166491517e-07,-2.0272005833637637e-07,1.8216651403414983e-07,1.1253815480878568e-06,8.355704925493447e-07,1.3115002567092822e-07,-8.055494475719577e-07,6.694086362997712e-07,2.7383689258773776e-07
2.0949745451407916e-07,2.1266089812121447e-07,6.757609541247411e-07,2.515782673114246e-07,7.726783209679682e-07,-1.3197544065504888e-07,-2.1761051697997433e-06,3.405417948087631e-08,-6.34163807586752e-08,-9.559295073931982e-07,-2.4110433441413395e-07,1.1365943574802513e-07,1.089745791037677e-06,7.704172869452482e-07,1.0979615843328788e-07,-8.529643937008924e-07,6.33797674973499e-07,2.500807992159562e-07
1.8101729297892793e-07,1.4281879693393824e-07,6.552365805213142e-07,2.1030367959415732e-07,7.115282113694868e-07,-1.4971152522015377e-07,-2.2021372712086935e-06,7.176690346756335e-09,-8.62821522153081e-08,-9.822814701798457e-07,-2.784756417229728e-07,4.534090743175944e-08,1.056383603699618e-06,7.205346700886491e-07,9.827146233080575e-08,-8.744413712296929e-07,6.0354057310703e-07,2.3047074982637274e-07
1.5156187853546776e-07,7.412020532813483e-08,6.406460247150917e-07,1.726807565785437e-07,6.56738273108744e-07,-1.6432358687451722e-07,-2.2236325135721334e-06,-1.694577747166607e-08,-1.05676332983451e-07,-1.001612913773889e-06,-3.1233615268035245e-07,-2.3128590093085893e-08,1.0235145858880241e-06,6.790854366074994e-07,9.058582024583056e-08,-8.810553277343461e-07,5.778180849245634e-07,2.1961209047839418e-07
1.199877081557501e-07,8.47467806700078e-09,6.25208405819148e-07,1.387911811469503e-07,6.08063258248369e-07,-1.7924942701691028e-07,-2.2449788266731953e-06,-3.604492826078083e-08,-1.2459369209484887e-07,-1.0144117675523656e-06,-3.4145458593916667e-07,-9.000615630398702e-08,9.909362042735537e-07,6.408149077849063e-07,8.467087180855225e-08,-8.748070699443984e-07,5.555185086697975e-07,2.1006172890131906e-07
8.47499131298453e-08,-4.7586845162302215e-08,6.114566521961686e-07,1.0719090660640755e-07,5.648162705255156e-07,-1.966784195908648e-07,-2.2693458511165352e-06,-5.661554922589028e-08,-1.4313479525659295e-07,-1.022326279776514e-06,-3.681095915607831e-07,-1.380504654711764e-07,9.676208329952428e-07,6.050564470566517e-07,7.191387844852851e-08,-8.635841462089171e-07,5.358783166415527e-07,1.9645464166788356e-07
4.5792802904680304e-08,-9.351098892673465e-08,5.896383516067748e-07,7.571628060674599e-08,5.277222052223841e-07,-2.1824325631741515e-07,-2.297069025149762e-06,-7.952979397027802e-08,-1.6234012686780399e-07,-1.0273413815557476e-06,-3.9337180856387717e-07,-1.7259288566963907e-07,9.481661730458053e-07,5.680442972104956e-07,4.867383720836843e-08,-8.459932911396379e-07,5.181414149220802e-07,1.7313540602477006e-07
4.4325246493937615e-09,-1.3215027611515955e-07,5.636786747838889e-07,4.470000933463227e-08,4.955037675155038e-07,-2.453276545651606e-07,-2.3261673551361636e-06,-1.0320969649126891e-07,-1.8370717102856598e-07,-1.0317070520033754e-06,-4.1967970768923934e-07,-2.000792015239472e-07,9.29325311426966e-07,5.307911676734778e-07,1.8282585286357523e-08,-8.223872899062721e-07,5.013511035714376e-07,1.4089705124578238e-07
-3.722429148061985e-08,-1.6519609186721354e-07,5.34098951733529e-07,1.4289072135856527e-08,4.688919153016352e-07,-2.7644670366461765e-07,-2.353510225076874e-06,-1.2838126013663738e-07,-2.0622644390785725e-07,-1.0369529341558087e-06,-4.486469915470423e-07,-2.1989784204634912e-07,9.044673760848727e-07,4.97026947537919e-07,-8.410695325885061e-09,-7.928665098833221e-07,4.852372572770549e-07,1.0190326162375815e-07
-7.615199369031571e-08,-1.939084621853172e-07,4.993894492146091e-07,-1.5438377223681748e-08,4.4603673322292043e-07,-3.092683312657809e-07,-2.3751548390546945e-06,-1.5206580214160615e-07,-2.2764355767466127e-07,-1.043116737898256e-06,-4.798561819107027e-07,-2.402287815546916e-07,8.737385396437024e-07,4.673986341935703e-07,-3.1358889884765913e-08,-7.682312803599852e-07,4.7077088060128925e-07,6.050970491445661e-08
-1.0923004555659772e-07,-2.2292140797075234e-07,4.5977096415754087e-07,-4.220731477486046e-08,4.26376726288401e-07,-3.2927758364867045e-07,-2.3873928218161996e-06,-1.7037171126874822e-07,-2.472163760986905e-07,-1.0489607697839916e-06,-5.107594205085665e-07,-2.5995035526893075e-07,8.432562524316194e-07,4.420969275954081e-07,-4.512730491760725e-08,-7.444782541658656e-07,4.590840707169886e-07,2.1637502920015204e-08
-1.3526974982555247e-07,-2.5069035558691796e-07,4.221246521666938e-07,-6.471873209781561e-08,4.0914506391417854e-07,-3.399268600632044e-07,-2.389229861776085e-06,-1.836418103410102e-07,-2.634722522617688e-07,-1.05222160481161e-06,-5.415508920338892e-07,-2.744611375784816e-07,8.159014718577026e-07,4.2103516255807924e-07,-5.192003316706816e-08,-7.177805316395508e-07,4.501868442333624e-07,-1.3741256060839047e-08
-1.559210053772034e-07,-2.7594355571982273e-07,3.918650593561307e-07,-8.286501908438004e-08,3.929198575428532e-07,-3.439587904722583e-07,-2.383554046486112e-06,-1.9340489918693825e-07,-2.774746815715059e-07,-1.0516524148169487e-06,-5.697786444840424e-07,-2.890053201206844e-07,7.942291530360746e-07,4.020072497369254e-07,-5.166316720084313e-08,-6.909247727003952e-07,4.431401809250831e-07,-4.3738119064228655e-08
-1.742643691443143e-07,-3.0112513836542716e-07,3.6916377971018154e-07,-9.664897222903575e-08,3.765889878634663e-07,-3.400079930912967e-07,-2.375331144457067e-06,-1.9988366404576984e-07,-2.9005638085464744e-07,-1.046550566660268e-06,-5.925986024372934e-07,-2.9621872956174456e-07,7.779529373708835e-07,3.837575962126819e-07,-4.2707768632629155e-08,-6.541257160332789e-07,4.36749065237975e-07,-6.7226158871562e-08
-1.9320159321046944e-07,-3.248834027454582e-07,3.559781203989427e-07,-1.0774929857097284e-07,3.5869630715862397e-07,-3.337243219703607e-07,-2.3690076136242756e-06,-2.0532820511720138e-07,-3.0228873926523923e-07,-1.0368485219741323e-06,-6.091759022059352e-07,-3.0196508533148577e-07,7.666932603321283e-07,3.659010177527849e-07,-2.06026472767744e-08,-6.185919566016365e-07,4.295496598018968e-07,-8.240263518078441e-08
-2.147541537086031e-07,-3.465553932597441e-07,3.5652168769340944e-07,-1.1552866807758073e-07,3.3798764904929765e-07,-3.240131163301206e-07,-2.3671102482228934e-06,-2.1130436985188413e-07,-3.1484804798673324e-07,-1.0235845659249863e-06,-6.195773982152761e-07,-3.108353831724221e-07,7.59023263515494e-07,3.480660027092875e-07,6.479406876770691e-09,-5.901520951461614e-07,4.199904087360966e-07,-8.643627677549108e-08
-2.393002906973753e-07,-3.667634247974644e-07,3.698431957383046e-07,-1.1943104549380087e-07,3.1315482666733407e-07,-2.9978667606102314e-07,-2.3693360788652265e-06,-2.182897031764987e-07,-3.278642076782464e-07,-1.008206086646578e-06,-6.214620921786771e-07,-3.280424441515389e-07,7.550953438162136e-07,3.3088469008325807e-07,1.7079482263955602e-08,-5.751595707614492e-07,4.0742010723983415e-07,-7.972268655847437e-08
-2.645905081502117e-07,-3.854762053358702e-07,3.897161290390467e-07,-1.1934452939841711e-07,2.852580468164249e-07,-2.6197487821797993e-07,-2.3710759680476267e-06,-2.2678992677658927e-07,-3.415389192829004e-07,-9.920800973071324e-07,-6.249648240467413e-07,-3.57846869683433e-07,7.531888094580782e-07,3.1453354836501207e-07,3.584715361272753e-08,-5.68634276087952e-07,3.9249527271185014e-07,-6.175889828993363e-08
-2.860952455647463e-07,-4.019161383520298e-07,4.046624463527733e-07,-1.1458580825995015e-07,2.5730732693582207e-07,-2.0880707151127061e-07,-2.366946602575666e-06,-2.365791942727676e-07,-3.5932232249483757e-07,-9.764677960591224e-07,-6.342969081472158e-07,-3.8150458887248305e-07,7.508514162863012e-07,2.93401134013261e-07,5.3736967582366345e-08,-5.709202772257592e-07,3.7644592836306496e-07,-3.353606087067591e-08
-2.9886168292895816e-07,-4.1825294400391516e-07,4.1455639008599254e-07,-1.0579660390983439e-07,2.322975180912077e-07,-1.606873924175747e-07,-2.3494194012054765e-06,-2.4628875337198007e-07,-3.778694442917866e-07,-9.642376241957007e-07,-6.432437896228567e-07,-3.8945662125185515e-07,7.448079516664574e-07,2.6278313403738953e-07,4.522320132180528e-08,-5.870230060503184e-07,3.606845165301139e-07,-1.6866483502897482e-09
-2.9901121744824676e-07,-4.377574208000769e-07,3.9454098392078956e-07,-9.441104797747418e-08,2.1420779727488706e-07,-1.2725581212729618e-07,-2.3122951764956732e-06,-2.556340071939236e-07,-3.9602941996247654e-07,-9.58673074722488e-07,-6.313679248435036e-07,-3.493204902067069e-07,7.300188855572206e-07,2.1625212802965895e-07,2.6496605798469847e-08,-6.171730918184702e-07,3.471851955256497e-07,2.638604847681316e-08
-2.8457363918204525e-07,-4.655951468569027e-07,3.42119074481848e-07,-8.236352073710393e-08,2.0536247977088662e-07,-1.24816774674902e-07,-2.264444567854532e-06,-2.614341810511562e-07,-4.05811364237332e-07,-9.610967799774386e-07,-5.899708502004432e-07,-2.856227745701236e-07,6.984407406140228e-07,1.4767609239476804e-07,1.7485547155383773e-08,-6.653326948841764e-07,3.381908535204442e-07,4.616907298187779e-08
-2.566529125455887e-07,-5.045840414039714e-07,2.997023317457082e-07,-7.177608954422824e-08,2.0441540901457553e-07,-1.217069416524885e-07,-2.18359340023863e-06,-2.6288719651237265e-07,-3.9182620265807067e-07,-9.719847100468617e-07,-5.276495976704057e-07,-2.329413471409576e-07,6.474950289413544e-07,5.5543421959357505e-08,2.511485858116083e-08,-7.260724773574424e-07,3.350943152735834e-07,5.3562551040576604e-08
-2.2082727707869118e-07,-5.556285739683933e-07,2.688954862651398e-07,-6.600512502518944e-08,2.077055501168501e-07,-3.1081963561046406e-08,-2.0644193187716594e-06,-2.6351955230484497e-07,-3.528128652872631e-07,-9.90412590182427e-07,-4.6455303942324995e-07,-2.0114724020932536e-07,5.759938376774092e-07,-5.733364006437956e-08,5.425591056995809e-08,-7.905753458986448e-07,3.380040225874872e-07,4.5317994307722954e-08
-1.861143781771936e-07,-6.181269844041697e-07,2.2778370471320916e-07,-6.810910235136221e-08,2.1460188290860973e-07,6.016706139302855e-08,-1.9450066193056514e-06,-2.6259723992254093e-07,-3.20746267661478e-07,-1.0137135834669781e-06,-4.0992733950359047e-07,-1.6055951867105555e-07,4.887040522713283e-07,-1.8074527371909794e-07,1.0621432038204224e-07,-8.472675425981859e-07,3.4613335178767433e-07,2.3278252667968044e-08
-1.6085193002859774e-07,-6.843565693937366e-07,1.6367580316427584e-07,-7.964592853689407e-08,2.155751093283446e-07,1.0127119369439795e-07,-1.835422984826374e-06,-2.648211803911944e-07,-2.879565611902414e-07,-1.0366255484794902e-06,-3.54162739043853e-07,-1.164450997901662e-07,3.943005778401444e-07,-3.0270240208067386e-07,1.4085746760182038e-07,-8.826062861909183e-07,3.5782753658355163e-07,-4.017519766255444e-09
-1.4602179405898026e-07,-7.500525970588501e-07,8.361420379453212e-08,-1.0083639810230032e-07,2.1086698729733732e-07,1.3420817820356324e-07,-1.7371576910644512e-06,-2.7445239232356883e-07,-2.506605876328717e-07,-1.0548306511953397e-06,-2.946028943109869e-07,-4.490926405425926e-08,3.0174194204791173e-07,-4.0562340345116793e-07,1.6239964851930856e-07,-8.893108590526959e-07,3.704288894432802e-07,-3.246288189238654e-08
-1.5303830312722047e-07,-8.12503796309476e-07,8.772839827123901e-09,-1.303968909776513e-07,2.0250006769619732e-07,1.3221687639045895e-07,-1.6594333443808216e-06,-2.9217350796572383e-07,-2.406767938746849e-07,-1.060937761111478e-06,-2.717230830181365e-07,4.2517191782176734e-08,2.1852239367881657e-07,-4.860708473856006e-07,1.9716121936440435e-07,-8.602363168116441e-07,3.8102168861867195e-07,-5.982393562823872e-08
-1.7690933548125126e-07,-8.652289970204171e-07,-5.592618249910199e-08,-1.658053288012879e-07,1.5898663274113253e-07,1.3554184503955986e-07,-1.597562847530465e-06,-3.1347384869875014e-07,-2.3252607612756336e-07,-1.054652995501477e-06,-2.431567102129959e-07,9.801424893857624e-08,1.5031348558976492e-07,-5.464898167728097e-07,2.286844571465922e-07,-8.013893923559298e-07,3.875011415358854e-07,-8.160192956359386e-08
-2.0540369642205215e-07,-9.077519787422954e-07,-1.1435434397271026e-07,-2.0397291394654648e-07,1.0715256555387258e-07,1.7681220978355855e-07,-1.575696345595475e-06,-3.3666922522279963e-07,-2.284562162871625e-07,-1.03772070534781e-06,-2.5508957879817375e-07,1.774272595484187e-07,1.0488409748338366e-07,-5.874417873101979e-07,2.7110932270473096e-07,-7.24385941386906e-07,3.888467305975508e-07,-9.674653651240527e-08
-2.405047227551725e-07,-9.41459714061459e-07,-1.5284277506791295e-07,-2.4251926267997804e-07,6.199679717778234e-08,2.260350663414571e-07,-1.5818794358208627e-06,-3.5881029746473335e-07,-2.521618701997659e-07,-1.011783110833457e-06,-2.7502400392009573e-07,2.499003784855145e-07,7.753102671718147e-08,-6.146950444114626e-07,3.165167141698325e-07,-6.339384910829343e-07,3.8513857968520937e-07,-1.0531746311923384e-07
-2.77276237009694e-07,-9.665310350514539e-07,-1.7163601797494996e-07,-2.80155549855019e-07,2.3917790769888252e-08,2.3723835024689684e-07,-1.6041958420737946e-06,-3.7558445812674096e-07,-2.8527345097318954e-07,-9.794394240536836e-07,-3.0510496800473737e-07,3.282797532197234e-07,6.164479323322712e-08,-6.308646920088915e-07,3.605580754549502e-07,-5.48489438367752e-07,3.7799441196828674e-07,-1.0396881368530988e-07
-3.1329089498516606e-07,-9.842218154067519e-07,-1.779871786546971e-07,-3.156922382416544e-07,-1.4213370310466972e-08,2.381145574259622e-07,-1.6282040859888807e-06,-3.8744654739807066e-07,-3.189297436537705e-07,-9.440897891371982e-07,-3.455709319608304e-07,3.7828987368474985e-07,5.1036779078598756e-08,-6.341003986200185e-07,3.6467568516358723e-07,-4.627431015236452e-07,3.7027848945848726e-07,-9.998774890437662e-08
-3.462234260525347e-07,-9.949103750766663e-07,-1.7896604715595984e-07,-3.474180267634266e-07,-4.3439522300187454e-08,2.1908557253625943e-07,-1.6614592385434426e-06,-3.921182782689603e-07,-3.414749100679098e-07,-9.073088440128865e-07,-3.8428653793713993e-07,4.23358582766767e-07,3.98403580489198e-08,-6.248034250121998e-07,3.7052473530049297e-07,-3.7762550453718287e-07,3.6438043182483334e-07,-9.58871315151644e-08
-3.729036375104282e-07,-9.9810806839044e-07,-1.7876188267089977e-07,-3.7381904937244344e-07,-5.7388993112682076e-08,1.8685746763868936e-07,-1.6975141157504664e-06,-3.8830433207500344e-07,-3.5651558040692784e-07,-8.707885828598199e-07,-4.2545424307245194e-07,4.499769599743983e-07,3.364499668900592e-08,-6.05474037163163e-07,3.7861962257664986e-07,-2.9814345351031705e-07,3.609071496899512e-07,-9.297766274054457e-08
-3.907116368056162e-07,-9.941869656987033e-07,-1.7896158422832695e-07,-3.94431828561888e-07,-5.460915740733364e-08,1.4272322402235192e-07,-1.7270563910699724e-06,-3.767178311958386e-07,-3.6378932158840936e-07,-8.367540287383959e-07,-4.6840773564393026e-07,4.7009190314432956e-07,3.1257208242353557e-08,-5.769419378281205e-07,3.7054759051163346e-07,-2.262998755389815e-07,3.5930925313270587e-07,-9.346779009999603e-08
-3.9698140345819237e-07,-9.85282860675911e-07,-1.7796097477918598e-07,-4.094856161724158e-07,-3.6648348315132987e-08,9.704916046775933e-08,-1.7467560321996189e-06,-3.5919143348738094e-07,-3.639214965089324e-07,-8.073388983687743e-07,-5.117121416081432e-07,4.73032943060532e-07,3.204855403141425e-08,-5.414284393801311e-07,3.910690965254917e-07,-1.6760022058216722e-07,3.590550097272293e-07,-9.353874850277185e-08
-3.936646013676526e-07,-9.72512778209151e-07,-1.7422933379762349e-07,-4.1988647403775597e-07,-9.980607893270007e-09,6.804161717170317e-08,-1.7538396359923227e-06,-3.396774238011399e-07,-3.634446592348824e-07,-7.788401254716496e-07,-5.534128671225708e-07,4.5338896029202313e-07,3.623950710781048e-08,-5.03449843272709e-07,4.0866954317629376e-07,-1.236591899882883e-07,3.597693330332352e-07,-9.262351428209822e-08
-3.8408282286974434e-07,-9.617214106137914e-07,-1.6758497609499214e-07,-4.2688292742854414e-07,1.706527187466907e-08,4.1216821198816206e-08,-1.7486497667745745e-06,-3.189192671226666e-07,-3.6163662899366303e-07,-7.494279991418694e-07,-5.892453023826923e-07,4.320957131900029e-07,4.221475088678863e-08,-4.69536451516167e-07,4.1661291459659813e-07,-1.0841083934156654e-07,3.611294161046415e-07,-8.432333650303263e-08
-3.7305839074363443e-07,-9.54600308047073e-07,-1.5351984793191424e-07,-4.3342737806339364e-07,3.728572607662323e-08,2.0046211847575913e-08,-1.7334352328286122e-06,-2.913653871342677e-07,-3.600618876405211e-07,-7.178476619631015e-07,-6.146616492151988e-07,4.1879755238255246e-07,4.363030213957897e-08,-4.45868495651563e-07,4.286375003297709e-07,-1.1186921785976547e-07,3.6333055362250384e-07,-6.940622769947765e-08
-3.6647814582297274e-07,-9.519781273340026e-07,-1.3222052449630802e-07,-4.4263492135685064e-07,4.513459629821222e-08,1.526426530992375e-09,-1.7136389682906167e-06,-2.6267518376265345e-07,-3.600937734519079e-07,-6.73817214946302e-07,-6.283706961347023e-07,3.8879199936306916e-07,4.435671009123242e-08,-4.381678930051835e-07,4.414145061341442e-07,-1.1511606792110758e-07,3.670131950330535e-07,-4.800917640895179e-08
-3.676321844655916e-07,-9.560544065114838e-07,-1.0525610841680333e-07,-4.547500611643055e-07,4.905994661998564e-08,-2.1118978490440605e-08,-1.6956763333910482e-06,-2.332378169348849e-07,-3.534557468393917e-07,-6.219373552245262e-07,-6.303697290226748e-07,3.420308873123779e-07,4.58546710755824e-08,-4.4009028989881176e-07,4.597450245270172e-07,-1.1632770831338602e-07,3.7218720612872934e-07,-3.216763499031611e-08
-3.7821834932295005e-07,-9.633156654240602e-07,-7.949703075654605e-08,-4.6949193417913966e-07,5.028883331509566e-08,-4.2955400043130916e-08,-1.6819061655560726e-06,-2.0171148820483456e-07,-3.41924585292191e-07,-5.681900185904215e-07,-6.222842046400929e-07,2.935373226632789e-07,4.496604058819005e-08,-4.5420525215286766e-07,4.811691863220292e-07,-1.123774726388017e-07,3.778658752775258e-07,-2.3291341096030097e-08
-3.984504576815118e-07,-9.716900567194265e-07,-5.487458367425887e-08,-4.857500230612801e-07,5.005295285425969e-08,-5.5928156019685634e-08,-1.6735431985756133e-06,-1.7039719265156042e-07,-3.264928034813768e-07,-5.243233847527639e-07,-6.050405893150377e-07,2.3755334961937048e-07,5.487856791222888e-08,-4.796475267270798e-07,5.146022533306975e-07,-1.1575298073510217e-07,3.832071034365897e-07,-1.7351950738488824e-08
-4.2505356638747753e-07,-9.854390020247136e-07,-3.6959842828848444e-08,-5.011511123953032e-07,5.388940223311915e-08,-6.389459167968122e-08,-1.6691519132437416e-06,-1.4557084258537304e-07,-3.07407805222725e-07,-4.928059353452702e-07,-5.823199444340127e-07,1.838096581590904e-07,7.343544577664535e-08,-5.029573163795877e-07,5.458217414398656e-07,-1.2649193199948223e-07,3.8840889113466333e-07,-1.57043679781897e-08
-4.4979456586091327e-07,-9.991341203715264e-07,-2.473153574769491e-08,-5.133183256859994e-07,5.6568913437384213e-08,-6.743844570748817e-08,-1.664254550217402e-06,-1.1382824300549125e-07,-2.87498304400874e-07,-4.725343568681224e-07,-5.629133290601476e-07,1.3813026292222023e-07,9.820508447281854e-08,-5.163576931834867e-07,5.75215648412759e-07,-1.206814179942998e-07,3.943452800147632e-07,-5.323914542098182e-09
-4.6635995872793827e-07,-1.0018045015814805e-06,-1.7834248960132293e-09,-5.207633356822757e-07,7.858913743222705e-08,-6.782650601129525e-08,-1.6540660720782605e-06,-7.152274072684234e-08,-2.659963991876951e-07,-4.4707086670444025e-07,-5.416768416418856e-07,1.0729910667470759e-07,1.3199470991493951e-07,-5.085546992992845e-07,6.14618487236978e-07,-7.803641530238218e-08,4.024022112672527e-07,4.3136991481773115e-09
-4.6946676076041984e-07,-9.95889319916709e-07,1.95032885470176e-08,-5.226821370294804e-07,1.2502448546726197e-07,-6.932975671895213e-08,-1.633570882302093e-06,-2.052904311196351e-08,-2.3437719448168434e-07,-4.2210979576496653e-07,-5.149418834822525e-07,6.066110084076388e-08,1.6627264538107068e-07,-4.406795973243314e-07,6.610602434648598e-07,2.8232361942625006e-08,4.1513146913367707e-07,2.0761255521675888e-08
-4.569641866519473e-07,-9.842993813266428e-07,6.745903918649472e-08,-5.169204582484155e-07,1.8091559087481327e-07,-6.977476259574768e-08,-1.5953633154165054e-06,3.546751536206876e-08,-1.8807837820781908e-07,-3.903229053207529e-07,-4.7379444373989565e-07,3.186216830652227e-08,2.0842575123410134e-07,-3.5112587890725855e-07,7.252518949922223e-07,1.7583789826061675e-07,4.358666866222907e-07,6.537058274308542e-08
-4.2236699014843985e-07,-9.722836134640861e-07,1.1946904424842497e-07,-5.021873123317553e-07,2.364475621846583e-07,-6.732971641478192e-08,-1.533296919047357e-06,7.960990414982552e-08,-1.2765299315427576e-07,-3.177093534867274e-07,-4.4135947116891294e-07,-9.713206991706315e-09,2.678242140017716e-07,-2.836190178424181e-07,8.235868572601879e-07,2.740680018232375e-07,4.6657375043558566e-07,8.733442251529803e-08
-3.630998111876533e-07,-9.60626044729384e-07,1.539992442756035e-07,-4.769235566582404e-07,2.7634652702413717e-07,-5.852169327723837e-08,-1.4439064070711486e-06,1.1496587602407315e-07,-3.990754533000264e-08,-2.8349219857390695e-07,-4.247255714811675e-07,-1.2423571147252645e-07,3.350797533631677e-07,-2.3387749581073535e-07,8.925751468061416e-07,3.4992855950822863e-07,5.061945012888092e-07,1.0005882575619963e-07
-2.783357391888879e-07,-9.473972910719852e-07,1.762067389129102e-07,-4.396723544474098e-07,3.0837536017933007e-07,-4.310986554505058e-08,-1.3336153130312638e-06,1.423150454996606e-07,5.271433772896763e-09,-2.5591310435190397e-07,-4.2447101854672803e-07,-2.124808817636754e-07,3.970277691420658e-07,-1.9239353286838023e-07,9.580250984356944e-07,4.1070652957949146e-07,5.510995054297358e-07,1.1412476996675689e-07
-1.8165245355851565e-07,-9.265697840836369e-07,1.872178731981915e-07,-3.9124358508326126e-07,3.547734903322455e-07,-2.0305666016089698e-08,-1.2118843892942614e-06,1.4420202620513388e-07,1.629052167114664e-08,-2.1502932578755014e-07,-4.2585941791876423e-07,-2.668997788926597e-07,4.622976722158645e-07,-1.6152481962119558e-07,1.020594652386383e-06,4.728616288167238e-07,5.964536753485821e-07,1.1814518679435134e-07
-8.566176729236416e-08,-8.969682545373222e-07,1.827095887095396e-07,-3.3217198446419966e-07,4.2936289265810853e-07,9.311578462986636e-09,-1.0768118831775991e-06,1.574003586213509e-07,3.910722118533596e-08,-1.873575514064953e-07,-4.164176471878894e-07,-3.226638761454992e-07,5.307828383404661e-07,-8.467692425773758e-08,1.074125183845654e-06,5.186838153782653e-07,6.374216049993652e-07,1.2349016963172194e-07
-5.218537667675198e-08,-8.647158530797179e-07,1.8190526312899583e-07,-2.7151575644076624e-07,5.385253338742259e-07,4.344822950540328e-08,-9.630617907979123e-07,1.798628584050572e-07,7.053314796321211e-08,-1.5324815181611623e-07,-3.833424532336737e-07,-3.469225157953578e-07,5.928925752204915e-07,8.531251943633395e-10,1.1227535885981838e-06,5.800779972166914e-07,6.707472235513431e-07,1.366085809703313e-07
-7.123946042838119e-08,-8.273138374584056e-07,2.1071134923789088e-07,-2.1412419284500608e-07,6.495650563335715e-07,8.227282005731595e-08,-9.020917314973174e-07,2.3545937531980642e-07,1.299204628421196e-07,-1.092907682741534e-07,-3.039682404627619e-07,-3.8334270430411453e-07,6.829675717174056e-07,5.2750947205629695e-08,1.1707964123727049e-06,6.637163778003649e-07,6.962652634413012e-07,1.7756506206641797e-07
-1.0206140612111726e-07,-7.830790328975194e-07,2.3004909999527791e-07,-1.6809797090217513e-07,7.327490633009387e-07,1.253157987299017e-07,-8.634955702750565e-07,2.746347053725973e-07,1.7083792117595986e-07,-7.129374076293782e-08,-2.3073629451336715e-07,-4.589219753573416e-07,7.832029021317049e-07,9.223134066721471e-08,1.2192227590256653e-06,7.464426692416535e-07,7.166142956960879e-07,2.0549290931159368e-07
-1.0130367039677073e-07,-7.216715433136132e-07,2.5128580598937916e-07,-1.4097848917324794e-07,7.84954796414892e-07,1.720296240254527e-07,-8.292435125516805e-07,3.137528251659484e-07,1.808112469077704e-07,-3.6492346688145823e-08,-1.6306216882273608e-07,-5.057548051778411e-07,8.76769937864645e-07,1.25513248997629e-07,1.2823423897078956e-06,8.05968585365786e-07,7.352459799591209e-07,2.2656654941735396e-07
-1.1592431623883876e-07,-6.496700906150395e-07,2.616035612445654e-07,-1.519616615031763e-07,7.980765462800385e-07,2.1977591569509136e-07,-8.147222739334239e-07,3.446555073381429e-07,1.921184399612814e-07,-5.498833180887729e-09,-1.0573123803136052e-07,-5.012930661941709e-07,9.663110288802012e-07,1.6775145297545238e-07,1.3245837895539296e-06,8.470566034461888e-07,7.547576101050684e-07,2.396386816935347e-07
-1.3915828639202904e-07,-5.779676746879103e-07,2.7785881858885373e-07,-1.7333808975137862e-07,8.047675732801992e-07,2.636707336014495e-07,-8.184849789548505e-07,3.53594371935075e-07,2.0868965201845204e-07,2.9431019517101806e-08,-6.005605567528061e-08,-5.210182039757227e-07,1.0529763238437343e-06,2.0489066506157756e-07,1.345601261436336e-06,8.462489158606647e-07,7.763141130521867e-07,2.5997755034385184e-07
-1.6413919897086968e-07,-5.181633152979323e-07,2.952175269141051e-07,-1.7461826648617682e-07,8.35038165052783e-07,2.985528990191901e-07,-8.357934769871065e-07,3.6126012626499206e-07,2.3251910572233075e-07,6.874799055302268e-08,-6.3102447905879355e-09,-5.688857950838971e-07,1.1304071074418559e-06,2.3930678183367975e-07,1.3485338142822826e-06,8.280911104242442e-07,7.993637622897315e-07,2.7156431986721523e-07
-2.1087812946934777e-07,-4.952337401851503e-07,3.0785896884498855e-07,-1.5286029577173777e-07,8.657215901958836e-07,3.175531014270821e-07,-8.72547454557452e-07,3.8194749567208234e-07,2.4059733104722376e-07,1.1613391242726631e-07,8.379929430334704e-08,-6.094508342844991e-07,1.1823694927604761e-06,2.793066064164334e-07,1.3400997122848884e-06,8.751703304778374e-07,8.217634501002364e-07,2.770925888510834e-07
-2.763660985585716e-07,-4.765172589243613e-07,3.2876813814697527e-07,-1.4029840656834873e-07,9.38589721600502e-07,3.163714905686814e-07,-9.295722412868759e-07,4.1804235912243055e-07,2.669676494870237e-07,1.47694395486526e-07,1.9880182664651506e-07,-6.803627902258762e-07,1.211043750885697e-06,2.8110085037978036e-07,1.349187786861339e-06,9.209075949626228e-07,8.409864043201598e-07,2.817541033624524e-07
-3.6369506814410827e-07,-4.446603252291587e-07,3.7538341123384346e-07,-1.2870518139514975e-07,9.574826690620287e-07,2.9307444554457643e-07,-9.753316524475894e-07,4.5676857661851167e-07,2.9047499379110843e-07,1.7545566253615888e-07,2.740465296824037e-07,-7.291626002560216e-07,1.2039879292187289e-06,2.585315652400618e-07,1.3652653001659024e-06,9.852798661434469e-07,8.554258990779823e-07,3.062857576158723e-07
-4.5507944152160665e-07,-3.840088084699626e-07,4.1829079500405167e-07,-1.4884369036162827e-07,8.929710938199419e-07,2.446033672092153e-07,-1.0208818106724985e-06,4.74039010123852e-07,2.8361933219142765e-07,1.9792556925099952e-07,3.0827460067718326e-07,-7.281346756040708e-07,1.1706924611100587e-06,2.2766916899137432e-07,1.382577762022731e-06,1.0171116973332121e-06,8.643314626012077e-07,3.442426671383585e-07
-5.205042851901888e-07,-3.537029315937943e-07,4.4841241582195574e-07,-1.8837120720072047e-07,8.587073118463281e-07,1.851956966965045e-07,-1.102823495128437e-06,4.900913092498918e-07,2.708744505237378e-07,2.220453844165141e-07,3.443086190887308e-07,-7.634204271989344e-07,1.1251210902412457e-06,1.7909976533223883e-07,1.3908152497599919e-06,1.053023624273384e-06,8.669889738972824e-07,3.736347655400624e-07
-5.673048985085176e-07,-3.5157160315323457e-07,4.494871271123521e-07,-2.3709338037139784e-07,8.308457874868141e-07,1.1888899950008233e-07,-1.2081598771579875e-06,4.997314533953893e-07,2.484666916083932e-07,2.583874996163217e-07,3.8804507481669885e-07,-7.926661264338988e-07,1.080448771442276e-06,1.4559526420159898e-07,1.4080785668051468e-06,1.1153579483105615e-06,8.625934160942025e-07,3.9894325832238853e-07
-5.986571683178669e-07,-3.469793976454613e-07,4.599252190236918e-07,-2.912197121917434e-07,7.928719578284299e-07,4.7847233732982346e-08,-1.314955734209519e-06,5.174214326275926e-07,2.2312622384284503e-07,2.895548616479909e-07,4.3293693220818307e-07,-8.149160551759901e-07,1.0352696987939238e-06,1.1703733938866373e-07,1.4120127753084094e-06,1.1705897415663188e-06,8.506634044015426e-07,4.45499295608505e-07
-6.37943457445901e-07,-3.5433124529359426e-07,4.770337880971526e-07,-3.236614039545129e-07,8.035266738556779e-07,-2.1590482809737754e-08,-1.4245357831740712e-06,5.276766423925228e-07,1.7941984963555983e-07,3.0739141662139894e-07,4.941652712095658e-07,-8.205595358676977e-07,9.881474146112359e-07,7.888583690498653e-08,1.3969262953785457e-06,1.2625826262575368e-06,8.313518916858185e-07,4.7211448205780303e-07
-6.667028909533101e-07,-3.7235257810721855e-07,4.994536798602381e-07,-3.4019754448252076e-07,8.312524762269533e-07,-7.821451049461629e-08,-1.5280118294862903e-06,5.156790454455687e-07,1.1486156439472844e-07,2.96190477628761e-07,5.188649250937031e-07,-7.863288437176547e-07,9.711553422198613e-07,2.301946842117599e-08,1.3671058667731652e-06,1.3403527091794522e-06,8.061876413096275e-07,4.838979377440606e-07
-6.726547746213733e-07,-3.907866639526857e-07,5.414829854747895e-07,-3.5843971165246793e-07,8.285030803521024e-07,-1.162456920186073e-07,-1.6077161154807357e-06,4.988413092901277e-07,6.235882621771162e-08,2.5697270842807233e-07,4.946245156098485e-07,-7.777762076919863e-07,9.84434208672444e-07,-3.797568452898922e-08,1.3063279461222839e-06,1.3770931566426393e-06,7.792551834497184e-07,4.844944208320477e-07
-6.606843163937158e-07,-4.1259471451791466e-07,5.728008623502255e-07,-3.7510128433552787e-07,8.056475035560047e-07,-1.1958666525583958e-07,-1.699351178456571e-06,4.812481480249602e-07,2.1081525907246667e-08,2.0909019291365043e-07,4.622989530104103e-07,-7.736062931088039e-07,1.0071636782238514e-06,-1.0133321913954451e-07,1.247860399192778e-06,1.3993196425181362e-06,7.561523498767798e-07,4.795451695592542e-07
-6.239011541442762e-07,-4.329583390057997e-07,5.945819491493719e-07,-3.8086999679406213e-07,7.875296816907563e-07,-8.147088516064652e-08,-1.7582797501424394e-06,4.6119629673601703e-07,-1.030959887725695e-08,1.5703554175474877e-07,4.6242003889888916e-07,-7.806231378221882e-07,1.0377815995363888e-06,-1.6594008514174557e-07,1.1956164446757849e-06,1.4007831751218396e-06,7.450150006118689e-07,4.90471535306463e-07
-5.901935952092902e-07,-4.472157965371245e-07,6.076896983629513e-07,-3.786115588816074e-07,7.645125722862026e-07,-5.298612413472735e-08,-1.728924213614232e-06,4.421150186835161e-07,-1.57930701607559e-08,1.1114597203611473e-07,4.6740243546914435e-07,-8.045097626630215e-07,1.0684417416838088e-06,-2.2274373644974177e-07,1.1542935359998687e-06,1.3966854742928753e-06,7.58535527114119e-07,4.95298146902251e-07
-5.570103478233719e-07,-4.564433564860922e-07,6.044575205459418e-07,-3.685009608879524e-07,7.45053751721056e-07,-3.741409132047226e-08,-1.6943755490089611e-06,4.2340981794797977e-07,-2.1709710659364626e-08,8.961035324320573e-08,4.912440165507203e-07,-7.767071875831111e-07,1.094107472083461e-06,-2.7289707363016746e-07,1.1469223092768818e-06,1.3935539659793728e-06,7.719156840702145e-07,4.978008992287909e-07
-5.178523775465412e-07,-4.5895446596818445e-07,5.921837916207517e-07,-3.531392413119513e-07,7.254565267177168e-07,-1.9847498399429714e-08,-1.6906224123969204e-06,4.11865013587347e-07,-7.160702355715518e-08,6.002108939644675e-08,5.119596906983115e-07,-7.29614565141006e-07,1.121833056071302e-06,-3.159478738043198e-07,1.1408087437836071e-06,1.380339383048421e-06,8.136572753276924e-07,5.028411787178714e-07
-4.7110946007679575e-07,-4.5481876407158816e-07,5.665029251401397e-07,-3.3894314819401885e-07,7.018662037172869e-07,-9.443060195682881e-09,-1.714238225126449e-06,4.0731703148479777e-07,-9.67271146159364e-08,4.2215439838410604e-08,5.384758286642388e-07,-6.698892206989506e-07,1.1532215797649043e-06,-3.539984436125345e-07,1.1272207432753424e-06,1.331296094310658e-06,8.592081376543801e-07,5.063106436349949e-07
-4.18981821398966e-07,-4.4573568603497694e-07,5.283823092879233e-07,-3.274980805304076e-07,6.753396158978038e-07,7.998174615408081e-09,-1.7296501451574486e-06,4.160090797003991e-07,-9.126524500883944e-08,5.24220953614566e-08,5.997852063165861e-07,-5.873871237843073e-07,1.1512439544106453e-06,-3.888037150490259e-07,1.1145158206131768e-06,1.274821287269081e-06,9.076681287670277e-07,5.127183505651866e-07
-3.625184516852805e-07,-4.3197845418844375e-07,4.810015961258832e-07,-3.1671481434776063e-07,6.462148286147939e-07,6.522164086481006e-08,-1.7313595896278156e-06,4.298690643747099e-07,-7.008059016279261e-08,9.366219407735328e-08,6.715062531703276e-07,-5.037231483347572e-07,1.1256366544445767e-06,-4.309353365466867e-07,1.1096930715652125e-06,1.2117521956451226e-06,9.526561820330943e-07,5.136569721668618e-07
-3.113578132123318e-07,-4.1698618959684977e-07,4.4100346731644015e-07,-3.0748500034488575e-07,6.166544385810378e-07,1.3694777641418137e-07,-1.650219618958746e-06,4.4320213975024617e-07,-3.888049615372053e-08,1.3691503231476127e-07,7.237688651624427e-07,-4.3404545831516337e-07,1.0798213520653928e-06,-4.823591948351065e-07,1.0991285159083486e-06,1.1177782712060888e-06,9.616008470302946e-07,4.991571874262175e-07
-2.697493375260332e-07,-4.031224482228758e-07,4.09729556842714e-07,-3.0275971744856903e-07,5.83907964156053e-07,1.6801122012608367e-07,-1.5524772066592907e-06,4.4667337242015817e-07,1.5674222466675075e-09,1.7527798444245148e-07,7.793561436959557e-07,-3.6778787230613316e-07,1.0185858143922293e-06,-5.397040190384537e-07,1.0735394470415737e-06,1.0070040539111026e-06,9.651812240956744e-07,4.726490468818554e-07
-2.202742202845827e-07,-3.9195363132925886e-07,3.8007498055904164e-07,-3.01088446451732e-07,5.512849219784662e-07,1.9504806486361924e-07,-1.4605444260499714e-06,4.374349741244782e-07,2.7071949854820614e-08,2.0701249372620316e-07,8.181647451983211e-07,-3.099212829047022e-07,9.573147525394593e-07,-6.013533196055575e-07,1.0316759278517236e-06,8.940782963194638e-07,9.54973004469365e-07,4.5138965754379827e-07
-1.6958593813301383e-07,-3.8337712714784604e-07,3.5704706704241744e-07,-3.0163851914887776e-07,5.216856096985574e-07,2.2924384996719288e-07,-1.3865141587470914e-06,4.177910820047694e-07,2.9923035367634895e-08,2.248345782373486e-07,8.404257650386529e-07,-2.6959785645957227e-07,8.92548281864575e-07,-6.606126946461378e-07,9.76384263346366e-07,7.861798737688418e-07,9.461917562193487e-07,4.3378392305037093e-07
-1.209688487025566e-07,-3.743383216892831e-07,3.3617943017973005e-07,-3.0310851003455716e-07,4.970765072888836e-07,2.5112999448195516e-07,-1.3669488123157985e-06,3.894125549014231e-07,1.4481020683394496e-08,2.3177161754085987e-07,8.555580059288755e-07,-2.362955052612147e-07,8.268937281466699e-07,-7.11705806981798e-07,9.106130525505523e-07,6.95945576460379e-07,9.353920047924361e-07,4.1960428988441306e-07
-7.250726013983981e-08,-3.613950599383071e-07,3.2225264287973146e-07,-3.0377990239955735e-07,4.806133722687926e-07,2.846409534069252e-07,-1.3856988429925047e-06,3.5799415080213635e-07,-6.3909245759335506e-09,2.4020176619732225e-07,8.615217399741223e-07,-2.0095787261225593e-07,7.630026248029169e-07,-7.516890507635399e-07,8.392679532606248e-07,6.463539049791258e-07,9.29974699505295e-07,4.0633091971237415e-07
-2.769517461077384e-08,-3.4113880478277486e-07,3.182403534550214e-07,-3.0191930822222383e-07,4.7333543531332753e-07,2.9209268434909654e-07,-1.4081974132784167e-06,3.26452060449504e-07,-2.9864041694840686e-08,2.467944461619003e-07,8.688601314796416e-07,-1.6212547524313692e-07,7.222982690095523e-07,-7.79226843171794e-07,7.660088402997944e-07,6.131031900340159e-07,9.349820950920765e-07,3.9201183015828435e-07
6.894318862134801e-09,-3.090559473523313e-07,3.2224135995897233e-07,-2.9534318679092994e-07,4.759147200712441e-07,2.770522036122213e-07,-1.417355720020897e-06,2.9892853304666904e-07,-4.61187599241515e-08,2.556537866941945e-07,8.823467130040384e-07,-1.1694539046392254e-07,6.893825528303593e-07,-7.951239574957602e-07,6.91515556524615e-07,5.939070884245393e-07,9.509051692509889e-07,3.8188681319362577e-07
4.021823906418828e-08,-2.643055872543304e-07,3.355263974259855e-07,-2.8206504206254883e-07,4.884256073810565e-07,2.229963232600915e-07,-1.437817272457247e-06,2.849674987057294e-07,-5.434891349719387e-08,2.708491123429134e-07,9.040800628117504e-07,-6.300790057813163e-08,6.653311806472324e-07,-8.021576137153191e-07,6.236129958059699e-07,5.888285107774628e-07,9.76017287501123e-07,3.788605257479041e-07
7.682560217864768e-08,-2.0848189285547718e-07,3.5466895645878307e-07,-2.615773384929172e-07,5.09125435921349e-07,1.726420420917319e-07,-1.4449314652603576e-06,2.8537758436035344e-07,-5.2585847617106376e-08,2.9203680447843006e-07,9.359894405645667e-07,-1.681640514402228e-09,6.490214429007401e-07,-8.046781186786374e-07,5.708941246114811e-07,5.848655529035591e-07,1.0067557243739699e-06,3.8181161583688145e-07
1.110591908438081e-07,-1.4491411291231783e-07,3.7936205364225306e-07,-2.3582556466487403e-07,5.350384711689032e-07,1.296636487244151e-07,-1.428736366685073e-06,2.9780133170227464e-07,-3.705756644763521e-08,3.233688981097528e-07,9.779005910006509e-07,6.628921943682275e-08,6.298125436884594e-07,-8.041804927493429e-07,5.360293432820833e-07,5.808226536010568e-07,1.039639193637842e-06,3.867596194183183e-07
1.4475093134845465e-07,-7.881342545104694e-08,4.058504817544213e-07,-2.0838641759571912e-07,5.632020379409935e-07,9.536924036514873e-08,-1.402803006102356e-06,3.2067347013621885e-07,-1.3730703326529441e-08,3.6809533709700263e-07,1.0281358787711368e-06,1.3072442782651814e-07,6.123827380844485e-07,-8.001487324273832e-07,5.289261072633013e-07,5.772814444803467e-07,1.0723444164031551e-06,3.9327696009820635e-07
1.7464593028987903e-07,-1.5091050397181804e-08,4.306603729409859e-07,-1.8377741616714228e-07,5.914249991308379e-07,8.820164209892868e-08,-1.3668952238489436e-06,3.4985567556595683e-07,1.260381490365637e-08,4.2550095945771784e-07,1.0829599395402866e-06,1.971900989878629e-07,5.96005177604536e-07,-7.912526862214996e-07,5.437667396944735e-07,5.767260252810649e-07,1.103471779040452e-06,4.0021618033616316e-07
1.9659169689674833e-07,4.185925134408783e-08,4.5416109686392823e-07,-1.6572037810907902e-07,6.186255710181034e-07,9.559085909597132e-08,-1.3264692227578402e-06,3.818163571300182e-07,4.137211635422638e-08,4.905249651113955e-07,1.136798428119698e-06,2.6893598060687073e-07,5.812514899911545e-07,-7.749228402490682e-07,5.71661995579657e-07,5.76959810295856e-07,1.1323956998880271e-06,4.067024953923133e-07
2.1091152796017533e-07,8.861401611277747e-08,4.7137149202952654e-07,-1.560583847458556e-07,6.452813417830087e-07,1.1621211484852591e-07,-1.2879651934430241e-06,4.1322657416424706e-07,7.137864815036498e-08,5.60673749336365e-07,1.1842037149415622e-06,3.4434156426911214e-07,5.671471002096615e-07,-7.48461873568797e-07,6.077146065612493e-07,5.87339960597962e-07,1.1594599958136098e-06,4.1144398554965597e-07
2.2221730989616882e-07,1.2365460742643065e-07,4.810643187884244e-07,-1.5376401810153547e-07,6.730925108540787e-07,1.4435422131179098e-07,-1.254003748220985e-06,4.4166428157179167e-07,1.000523151102771e-07,6.330659301770776e-07,1.2220509081756108e-06,4.2974469040749744e-07,5.603120644079619e-07,-7.105529192748685e-07,6.449275598509099e-07,6.119872770753909e-07,1.1856334193286872e-06,4.175133255406248e-07
2.3570570811597404e-07,1.4831542071285017e-07,4.84045471659294e-07,-1.5574752924630838e-07,7.034033260625856e-07,1.7165077453412937e-07,-1.2242332882494846e-06,4.639972991560459e-07,1.2472261764179865e-07,7.058610089063475e-07,1.2504008086351086e-06,5.213039741975306e-07,5.713981218296491e-07,-6.626448359026786e-07,6.806215586838069e-07,6.61669906520988e-07,1.2119708073606053e-06,4.2410725405847216e-07
2.529672300136168e-07,1.6523244150899572e-07,4.821300316652191e-07,-1.5827685880889063e-07,7.361203662235055e-07,1.8993812593766393e-07,-1.2036047929069055e-06,4.817251206978731e-07,1.4342902803149986e-07,7.775037119652865e-07,1.2722167228971603e-06,6.09362460227711e-07,5.946669584627833e-07,-6.080428917979699e-07,7.171369654113492e-07,7.28844817395326e-07,1.2396230553795358e-06,4.2890008434834063e-07
2.766191640404102e-07,1.7830379842268994e-07,4.80698869526887e-07,-1.5807283339984894e-07,7.702135986261401e-07,1.9979664880563214e-07,-1.192679057977336e-06,4.955313502838762e-07,1.556591537064454e-07,8.449325127135809e-07,1.2923316581245968e-06,6.943191995542598e-07,6.257590733604351e-07,-5.500135870925841e-07,7.551161082929835e-07,8.035295874517781e-07,1.2696432557634763e-06,4.3356292099004e-07
3.087245028540008e-07,1.921169513635402e-07,4.824986335713227e-07,-1.5275839751191612e-07,8.044519821853407e-07,2.0561608188326524e-07,-1.1874487308383883e-06,5.06195706493847e-07,1.6290507508715736e-07,9.026932532929703e-07,1.3157236551868175e-06,7.791008454170668e-07,6.611172518146417e-07,-4.914802460954587e-07,7.93762780000951e-07,8.841826011754699e-07,1.3020591907066686e-06,4.3987289258970777e-07
3.4934372790725995e-07,2.0991255605551243e-07,4.906242943659928e-07,-1.4051654941359752e-07,8.374295530438526e-07,2.0944829315877788e-07,-1.185557746471929e-06,5.15474079991548e-07,1.6684592576615033e-07,9.522605210287351e-07,1.3459680750660413e-06,8.621590232350174e-07,6.957593136904287e-07,-4.351983847534024e-07,8.356343054359407e-07,9.659379008876323e-07,1.3355053916898786e-06,4.491724849665896e-07
3.9705809796110225e-07,2.3275347383223837e-07,5.026755699400233e-07,-1.2231828650692707e-07,8.676479871040075e-07,2.1474685587981832e-07,-1.1848988456816026e-06,5.23415022018267e-07,1.6870987833486417e-07,9.935145772077987e-07,1.3846985351299642e-06,9.44649999545809e-07,7.297243405045064e-07,-3.831636408827371e-07,8.817778342229107e-07,1.049597056560042e-06,1.3680955880577178e-06,4.632537837445683e-07
4.483168240602819e-07,2.5957764813300624e-07,5.160151326288879e-07,-1.0042892105046799e-07,8.940689216845194e-07,2.1973506617353416e-07,-1.1854247740133505e-06,5.299720951459689e-07,1.69390878048798e-07,1.0292211949636457e-06,1.431408867102122e-06,1.0260430069375525e-06,7.632845944283757e-07,-3.3661993324715847e-07,9.323870824788272e-07,1.1363209394020853e-06,1.3981012604565276e-06,4.807501596597379e-07
4.991494105863255e-07,2.874299946493192e-07,5.285474375426602e-07,-7.905871134436894e-08,9.159604391779806e-07,2.232558048677377e-07,-1.1892568591740613e-06,5.340764918714999e-07,1.689068143828208e-07,1.059434889423256e-06,1.482967989052101e-06,1.1034199821006457e-06,7.980208165508566e-07,-2.9710933997454357e-07,9.864249979570957e-07,1.2227322193297193e-06,1.4236771660599727e-06,4.966617799604523e-07
5.429981815458722e-07,3.121715690110426e-07,5.349623549678348e-07,-6.192034092725151e-08,9.321834702206821e-07,2.2363354353545372e-07,-1.1998466619626003e-06,5.315107273462957e-07,1.661298382330462e-07,1.0772506311697058e-06,1.5339117605078902e-06,1.1740141535978224e-06,8.285930852795416e-07,-2.6654865764335764e-07,1.040157032176412e-06,1.3001151142089779e-06,1.4429173372841705e-06,5.064039572893596e-07
5.748979504322448e-07,3.29544812766019e-07,5.32886729188592e-07,-5.200265043282402e-08,9.414738328928356e-07,2.1997914727901267e-07,-1.2207911039568989e-06,5.196339756299671e-07,1.597534521231657e-07,1.0797970974868826e-06,1.578342310447087e-06,1.2352371638404107e-06,8.536565878107003e-07,-2.456799285538279e-07,1.089733954454002e-06,1.364481560977588e-06,1.454655668873183e-06,5.066715395303201e-07
5.925187011446042e-07,3.3679994867313636e-07,5.207452427384086e-07,-5.1106859129499255e-08,9.43386970558724e-07,2.1111523043331962e-07,-1.2536094758731342e-06,4.978078738550443e-07,1.4934970480067127e-07,1.0643153320313303e-06,1.611765332366593e-06,1.2844503958215856e-06,8.743030777596156e-07,-2.344328001488021e-07,1.1338927659625892e-06,1.4115695694432593e-06,1.4585468844463844e-06,4.960311685009867e-07
5.956880902894871e-07,3.335778865776539e-07,4.985826775974047e-07,-5.891969361389201e-08,9.382706396018083e-07,1.9676266186065037e-07,-1.297672175093378e-06,4.664477198822048e-07,1.3503910721445076e-07,1.0546077496947308e-06,1.631775028397186e-06,1.3196258909288925e-06,8.908421719818505e-07,-2.3247201548756658e-07,1.1695733708357843e-06,1.4369624978162854e-06,1.454277945384652e-06,4.749319539518383e-07
5.864161386254895e-07,3.20863388488282e-07,4.67483967517478e-07,-7.437188619574108e-08,9.264798237582176e-07,1.7786162184582485e-07,-1.3515384184099717e-06,4.2735309093977523e-07,1.1676592761895578e-07,1.0805968048285724e-06,1.6380879972313023e-06,1.3388340861165189e-06,9.059939367199027e-07,-2.387060261556717e-07,1.1968985035021492e-06,1.4402749930243994e-06,1.441773501689209e-06,4.4529067481440523e-07
5.674413718707231e-07,3.008778896418662e-07,4.2741213111322786e-07,-9.539178343428012e-08,9.086481951933836e-07,1.5553709570293626e-07,-1.4128687135835362e-06,3.8297646383577793e-07,9.47503604564478e-08,1.110839949053401e-06,1.6328431616201823e-06,1.343089244367857e-06,9.219226343939658e-07,-2.4993541571398426e-07,1.2178493569951158e-06,1.4244748167391982e-06,1.4225510307385619e-06,4.1102008202341084e-07
5.427675849963989e-07,2.7691654861742523e-07,3.8415010128578426e-07,-1.1889778465056282e-07,8.866055829441502e-07,1.3240485013349315e-07,-1.4774206151616314e-06,3.3673296479996156e-07,7.023934210283406e-08,1.1154900300749529e-06,1.620254742083515e-06,1.337290480534535e-06,9.398685926088901e-07,-2.614340260863271e-07,1.2350133434708926e-06,1.3973827153558026e-06,1.3998268554396648e-06,3.77806603938658e-07
5.166825257524422e-07,2.5250470923061166e-07,3.4393603849475546e-07,-1.417604159023373e-07,8.628332699159775e-07,1.1120843378413892e-07,-1.5399105317110927e-06,2.919101729217514e-07,4.4893758786765495e-08,1.1211935431010173e-06,1.6045990436689206e-06,1.3257339657865238e-06,9.580578772466994e-07,-2.705945112187094e-07,1.2511247517173449e-06,1.370307334606731e-06,1.3765981609432641e-06,3.483428578200254e-07
4.91163691738e-07,2.2954865087196278e-07,3.093620232405723e-07,-1.6281756835174472e-07,8.386434788724969e-07,9.315460806881093e-08,-1.5967395858638186e-06,2.5023995141311843e-07,1.9534495076440293e-08,1.1087362515652678e-06,1.5881878055206085e-06,1.313456281814346e-06,9.701992175053694e-07,-2.789017709547341e-07,1.266058690370185e-06,1.3449479956813175e-06,1.354105744688653e-06,3.237570282675778e-07
4.66956901020432e-07,2.0883135114297453e-07,2.800729983498995e-07,-1.8609238642419168e-07,8.13590580058991e-07,7.780597270930769e-08,-1.6471723865632185e-06,2.1103102711036847e-07,-5.9087643271736966e-09,1.0831603350373703e-06,1.571204148583556e-06,1.3030443022971007e-06,9.731734130704423e-07,-2.889777414666538e-07,1.2786947158063702e-06,1.3256551435443494e-06,1.332231321998227e-06,3.034933680341764e-07
4.4381914535372083e-07,1.8809102796113602e-07,2.535005255847921e-07,-2.114963593225e-07,7.867965527426237e-07,6.41603624725805e-08,-1.6920734184201986e-06,1.7329541856046926e-07,-3.152099124151252e-08,1.0697795788065263e-06,1.553040252696099e-06,1.2942547689195323e-06,9.656215438307286e-07,-3.036093864181534e-07,1.2883846015684088e-06,1.3129001762611e-06,1.3103015960181287e-06,2.855863420736423e-07
4.2157543669829106e-07,1.6529092159491086e-07,2.2708553623012536e-07,-2.4013832654704765e-07,7.579666974361752e-07,5.136709492237324e-08,-1.7327485110409878e-06,1.365055682111353e-07,-5.721771472465651e-08,1.0498364298807044e-06,1.5329509341289405e-06,1.2859924977224887e-06,9.482778209476563e-07,-3.243455813662135e-07,1.2949914307364315e-06,1.3039083160586414e-06,1.2870228504343727e-06,2.681033101818702e-07
4.0024206494051204e-07,1.3940919831185837e-07,1.9940747264479933e-07,-2.741368136434167e-07,7.273071586400318e-07,3.847970167391217e-08,-1.7710069494228289e-06,9.980068503907541e-08,-8.307445231982206e-08,1.0286161698376856e-06,1.510414181020138e-06,1.2764316227471088e-06,9.248384906540755e-07,-3.5193268120646273e-07,1.2974879383332259e-06,1.2972498641343128e-06,1.260729727751906e-06,2.485810663067193e-07
3.792646553387733e-07,1.0783115948014793e-07,1.690393204241898e-07,-3.110860685969187e-07,6.952618735463968e-07,2.4694589186910818e-08,-1.8086568874022063e-06,6.26069067154027e-08,-1.087416053969299e-07,1.0074850715984538e-06,1.4860737422859478e-06,1.2648261494674894e-06,8.997022314364549e-07,-3.8613324784943556e-07,1.2961657810343504e-06,1.2908802446092015e-06,1.2306542694186108e-06,2.2686497305166207e-07
3.5848563874802245e-07,7.138769055457883e-08,1.3497842588567918e-07,-3.5050940087444603e-07,6.62725606019534e-07,1.0412508943382975e-08,-1.8457610696628845e-06,2.560580115503243e-08,-1.3252098043912364e-07,9.80407852207603e-07,1.4622172942278684e-06,1.25291185437826e-06,8.778478024869868e-07,-4.2423158998890856e-07,1.293331166217359e-06,1.2858757275392533e-06,1.1975026733561427e-06,2.0354314767704616e-07
3.379907126669014e-07,3.207120704677859e-08,9.806119279134628e-08,-3.881543686919609e-07,6.303829734946974e-07,-2.648391173818189e-09,-1.8806402188785276e-06,-9.646378411031897e-09,-1.5218925231012346e-07,9.547683906763728e-07,1.4415885117719151e-06,1.2437802439258503e-06,8.628275907828803e-07,-4.6270896416310693e-07,1.290564587419359e-06,1.283511993374449e-06,1.1623009914828759e-06,1.7986556394528457e-07
3.167233956928625e-07,-9.089851244589948e-09,5.8654096617244305e-08,-4.2578461569116486e-07,5.968886997022118e-07,-1.2903392286697861e-08,-1.912510697685009e-06,-4.271408509684931e-08,-1.6724660323678904e-07,9.419253110184111e-07,1.4254224782500856e-06,1.2376087864358907e-06,8.554399137090275e-07,-4.997644327347333e-07,1.2873442770601804e-06,1.2844013544845333e-06,1.1254052619800861e-06,1.5587637590769114e-07
2.915460998884642e-07,-5.204025441715494e-08,1.6759882554213037e-08,-4.5924417490694166e-07,5.58365312734445e-07,-1.9936260410325184e-08,-1.9430700921967586e-06,-7.534440048041995e-08,-1.7973108953480963e-07,9.338015202974655e-07,1.4129904554362534e-06,1.2328089799994033e-06,8.525157408869765e-07,-5.366248032253802e-07,1.281785471933003e-06,1.2853022197854243e-06,1.0873850803226364e-06,1.311585216872773e-07
2.595139094726974e-07,-9.681245998219929e-08,-2.644563196783598e-08,-4.915618969726594e-07,5.103330855498125e-07,-2.385365017056108e-08,-1.9747896414241286e-06,-1.102871391562305e-07,-1.9268799900187706e-07,9.252440715870365e-07,1.4027717730423113e-06,1.2291683509530783e-06,8.49799114389883e-07,-5.737518320486826e-07,1.2724585158047735e-06,1.2835039345689674e-06,1.050136769994492e-06,1.0731232323500648e-07
2.1986339124755017e-07,-1.4236235803691654e-07,-6.801734488117941e-08,-5.230960367715611e-07,4.4983828533637667e-07,-2.4595584974113807e-08,-2.0086486537108774e-06,-1.4994444186172976e-07,-2.0871637024820627e-07,9.169396962920285e-07,1.3930375645129447e-06,1.224105511369953e-06,8.4338707344478e-07,-6.121087681636799e-07,1.2580710176431187e-06,1.27618637744516e-06,1.015843920352694e-06,8.611117552762083e-08
1.7339135044673806e-07,-1.880317715655615e-07,-1.0506856604323477e-07,-5.224201297184015e-07,3.7587834789556146e-07,-2.2824101017010383e-08,-2.0444354351065806e-06,-1.9635200932093357e-07,-2.30139434730111e-07,9.024075460625769e-07,1.3810540937143205e-06,1.2131675483986164e-06,8.287981329896989e-07,-6.545377363508068e-07,1.235560846919661e-06,1.2573543693520502e-06,9.84513758725532e-07,6.709931626082903e-08
1.213480532564804e-07,-2.3362589905927548e-07,-1.3624477643446093e-07,-4.948258635548128e-07,2.893401635284857e-07,-2.105687154000629e-08,-2.082539290355845e-06,-2.5095963985324136e-07,-2.5905829818722966e-07,8.791013908242597e-07,1.3628190131037191e-06,1.191518780028848e-06,8.028959426073244e-07,-7.040572698065478e-07,1.200807893477866e-06,1.2212015862855313e-06,9.536576924304494e-07,4.7035085610905746e-08
6.587751988506365e-08,-2.805099082547173e-07,-1.6253755441836743e-07,-4.418060900496967e-07,1.9422310678731998e-07,-2.2900339412936303e-08,-2.123439199465519e-06,-3.1293375012563217e-07,-2.957714141899316e-07,8.463184873819761e-07,1.334657862792141e-06,1.1555355486342818e-06,7.658480178450773e-07,-7.621816609974023e-07,1.1517500252208668e-06,1.1635425687339644e-06,9.202351622020307e-07,2.2653328822581048e-08
1.13384002426051e-08,-3.296581785861647e-07,-1.8413353338215154e-07,-3.7796297484690416e-07,9.795646128716639e-08,-3.102565875064312e-08,-2.1656577474558312e-06,-3.7800210129761574e-07,-3.374220816554121e-07,8.044238799573175e-07,1.2951698051841515e-06,1.106354453174924e-06,7.184995960474406e-07,-8.264004205546619e-07,1.0909208646412716e-06,1.0856794644553595e-06,8.820389730421827e-07,-8.14681573571019e-09
-3.668083881899657e-08,-3.8091303263833623e-07,-2.0359632638360935e-07,-3.195962422613239e-07,1.157954894595904e-08,-4.636463352178119e-08,-2.206322460529892e-06,-4.402864515086269e-07,-3.7935986243882914e-07,7.546025101884851e-07,1.2455179686476686e-06,1.047804078038998e-06,6.627876394990775e-07,-8.917261772787745e-07,1.0230436994901454e-06,9.945745610426072e-07,8.37314796132984e-07,-4.687264910560849e-08
-7.468104301507393e-08,-4.317081343180827e-07,-2.2543793227242192e-07,-2.651338881461522e-07,-5.1327513187877786e-08,-6.895557388895449e-08,-2.2443463853785694e-06,-4.957263703979798e-07,-4.181453347680095e-07,7.019157042343176e-07,1.1884528909052897e-06,9.842741929810937e-07,6.007103735732666e-07,-9.566255315512605e-07,9.525998581210625e-07,8.976872204912265e-07,7.844079368954384e-07,-9.44268651056106e-08
-1.0320232508711145e-07,-4.808999207509447e-07,-2.540920677252869e-07,-2.5385231454938757e-07,-1.0900202932505221e-07,-9.83991509133284e-08,-2.281765448857067e-06,-5.434679491424986e-07,-4.528679227705198e-07,6.493913889101991e-07,1.1276534897148604e-06,9.195414366755399e-07,5.340687551489441e-07,-1.020731360559968e-06,8.831617727472928e-07,8.00882669274413e-07,7.229130900157104e-07,-1.498770355063537e-07
-1.2555216432207893e-07,-5.477062668175113e-07,-2.921478469689116e-07,-2.6625114763878235e-07,-1.416588000374288e-07,-1.3302474703693182e-07,-2.3213190619304218e-06,-5.845853212869862e-07,-4.840477992084384e-07,5.992419611367455e-07,1.0675360682284648e-06,8.574578067334906e-07,4.651262452541148e-07,-1.0838490273327984e-06,8.187094680694607e-07,7.124096085455374e-07,6.549601547914332e-07,-2.0947433373457442e-07
-1.4548923345503633e-07,-6.189550222584413e-07,-3.40206286179617e-07,-2.75363795827916e-07,-1.6782446972332939e-07,-1.6946203914903684e-07,-2.3636409059525057e-06,-6.208088452538974e-07,-5.126046518475755e-07,5.538726323914428e-07,1.0121522607275345e-06,8.013537385212715e-07,3.990956579182005e-07,-1.1434546867788014e-06,7.62797490859777e-07,6.375251425670578e-07,5.843969075449442e-07,-2.682061221418692e-07
-1.6615133756192062e-07,-6.873409843831659e-07,-3.9458466946945925e-07,-3.0124439144592347e-07,-1.9082417165914982e-07,-2.0377097460812526e-07,-2.407118507326419e-06,-6.544260317169756e-07,-5.401078673249831e-07,5.134234198192039e-07,9.635097794833655e-07,7.514233267141649e-07,3.3933233232823395e-07,-1.1985024012373272e-06,7.166569405745875e-07,5.768075531017657e-07,5.151979283409442e-07,-3.2230685245153796e-07
-1.894010086289492e-07,-7.538864441241352e-07,-4.495232514299445e-07,-3.417655202318608e-07,-2.1531108397526526e-07,-2.3269491371909162e-07,-2.448718287701142e-06,-6.876880796002959e-07,-5.685621811758035e-07,4.769939150165795e-07,9.212535995923861e-07,7.074176458673865e-07,2.868013314528692e-07,-1.2498622674646295e-06,6.797138549893545e-07,5.290086861624959e-07,4.512129810755546e-07,-3.6870928093965913e-07
-2.1459442162733125e-07,-8.234129089505836e-07,-5.003495780555326e-07,-4.0573314522980983e-07,-2.430285250123017e-07,-2.5368128761652785e-07,-2.4836402241300344e-06,-7.212558260177419e-07,-5.988803567111434e-07,4.4385377514721843e-07,8.837308798681414e-07,6.714475468198687e-07,2.423597648882814e-07,-1.2986734909093434e-06,6.505659590014303e-07,4.927716237683374e-07,3.96375979666037e-07,-4.0442227489832525e-07
-2.3855768843720836e-07,-8.924144134000328e-07,-5.404087022669304e-07,-4.3386009269406627e-07,-2.727777435215999e-07,-2.6485661616326937e-07,-2.505564494655487e-06,-7.539463768931401e-07,-6.301740840603733e-07,4.1416335465227904e-07,8.483920169733892e-07,6.433721371846641e-07,2.0427532815115657e-07,-1.3474674709680369e-06,6.265316848212637e-07,4.6821096425770574e-07,3.5336913092875486e-07,-4.2735674150480455e-07
-2.5822276198431846e-07,-9.56329168043488e-07,-5.659756650411688e-07,-4.3571370424560273e-07,-3.029040109675924e-07,-2.664849013299522e-07,-2.5099197149719077e-06,-7.848556071557672e-07,-6.61333176312336e-07,3.8849043533538714e-07,8.110207861437055e-07,6.205455594752804e-07,1.7190206001333807e-07,-1.4008603203632688e-06,6.009993459925267e-07,4.575069061633793e-07,3.2140919889221725e-07,-4.38165447355431e-07
-2.7390154724577914e-07,-1.0145571272675995e-06,-5.773335386888635e-07,-4.4869273961921736e-07,-3.340984745828365e-07,-2.6265225423396983e-07,-2.4980191271837618e-06,-8.15252352181447e-07,-6.927542020935777e-07,3.6692858694964196e-07,7.660956874002721e-07,6.088401954861217e-07,1.4248495015562414e-07,-1.4578982971189039e-06,5.670859644404778e-07,4.603275057019267e-07,2.9624101757738016e-07,-4.404701520813938e-07
-2.8947058572959306e-07,-1.0712377331720133e-06,-5.779609508235974e-07,-4.45119404387689e-07,-3.6931373582939445e-07,-2.6053053590533894e-07,-2.4770308354888815e-06,-8.474830035016713e-07,-7.25541271883406e-07,3.48998034610159e-07,7.094768047920662e-07,6.053478083042696e-07,1.155424489897026e-07,-1.5176534539096792e-06,5.201409590277204e-07,4.778641443052345e-07,2.727950074352039e-07,-4.380863163033835e-07
-3.093361976003847e-07,-1.1232295689615774e-06,-5.727182047060709e-07,-4.309147728881503e-07,-4.111611239868991e-07,-2.672198088064631e-07,-2.455760903588669e-06,-8.822708211470363e-07,-7.592665024922374e-07,3.371384322547894e-07,6.412744216621642e-07,6.107599139958675e-07,9.945868408336809e-08,-1.573677730549858e-06,4.6182445696900776e-07,5.156975289600662e-07,2.4752541790366043e-07,-4.329965391880003e-07
-3.358216740144263e-07,-1.1770981345706176e-06,-5.657607698238107e-07,-4.050565558725302e-07,-4.6003633532266955e-07,-2.870702835560066e-07,-2.4411132969784977e-06,-9.180770185602336e-07,-7.916100532554574e-07,3.351789782672427e-07,5.658245654806778e-07,6.337947637366442e-07,9.860865733897399e-08,-1.5940089328466557e-06,4.0048329827692826e-07,5.657036403998051e-07,2.1823145283640844e-07,-4.2620100639369974e-07
-3.6898525223181154e-07,-1.23674131298834e-06,-5.609242052992814e-07,-4.002645814120467e-07,-5.143617358621854e-07,-3.2118666106813813e-07,-2.4379176840195484e-06,-9.529731290119763e-07,-8.202669116573291e-07,3.4554003826627655e-07,4.890298293993506e-07,6.701898419915015e-07,1.1002066394644428e-07,-1.5732612300544598e-06,3.463302438984539e-07,6.312696438316153e-07,1.8337117435035967e-07,-4.1951241990778375e-07
-4.071566540530965e-07,-1.300770003068871e-06,-5.592112617155635e-07,-4.1304266918238794e-07,-5.711244509559886e-07,-3.677325993533664e-07,-2.449137311812645e-06,-9.858358825982698e-07,-8.441121775998718e-07,3.705320213424402e-07,4.16055401373598e-07,7.035645469243637e-07,1.3464776336537512e-07,-1.581653455656154e-06,3.0522645085168186e-07,7.061035914408354e-07,1.429321608637121e-07,-4.1513521754827025e-07
-4.4659446471165027e-07,-1.3637035775738067e-06,-5.60580633381636e-07,-4.418072195767678e-07,-6.255749751615696e-07,-4.2174623023894054e-07,-2.4738204331442157e-06,-1.0153851521877978e-06,-8.622430472254088e-07,4.0944806013476687e-07,3.5059655758444075e-07,6.855969506189268e-07,1.767712359356678e-07,-1.5403805348640886e-06,2.8013103381254446e-07,7.774723059626908e-07,9.924109751058568e-08,-4.1436694568464885e-07
-4.815965215601661e-07,-1.4056294110052777e-06,-5.611781426846778e-07,-4.828933595726756e-07,-6.715711801647741e-07,-4.7569749644868873e-07,-2.505536772609728e-06,-1.0393699483537972e-06,-8.731576487396282e-07,4.5895020738190797e-07,2.9453861957159515e-07,6.328449016178413e-07,2.1840022434149305e-07,-1.4691838376459657e-06,2.6969507967942204e-07,8.181359096956893e-07,5.554743249817305e-08,-4.1781894408125253e-07
-5.064070422276976e-07,-1.4129762999735568e-06,-5.552928312076071e-07,-5.035084325895138e-07,-7.035148041502351e-07,-5.219226216055136e-07,-2.534483158732476e-06,-1.0555609708702389e-06,-8.757317355710662e-07,5.078544635680049e-07,2.4756660262903647e-07,5.368781026891541e-07,2.3044633110465355e-07,-1.4198768101051141e-06,2.670089641282781e-07,8.012787314503786e-07,1.3641402576893718e-08,-4.2648440352112667e-07
-5.174922916271857e-07,-1.4141955691440048e-06,-5.387250319159349e-07,-4.946846116547167e-07,-7.182332252367462e-07,-5.552707417263858e-07,-2.551518369417666e-06,-1.0628729870036257e-06,-8.702975627660441e-07,5.461852175751185e-07,2.0798397440779126e-07,4.813718869799702e-07,2.1008729607021208e-07,-1.4193378991886663e-06,2.6716151709337555e-07,7.359113077200003e-07,-2.6696650002924717e-08,-4.416432439785943e-07
-5.141603328087266e-07,-1.4342657511064292e-06,-5.077232705630401e-07,-4.683062678596203e-07,-7.153501403178008e-07,-5.737964276334258e-07,-2.5505020416524213e-06,-1.0611267331670008e-06,-8.581572162826031e-07,5.527907374221399e-07,1.744289269444065e-07,3.939769826029771e-07,1.486198959179089e-07,-1.4342588068424037e-06,2.6454360520901926e-07,6.377173829144019e-07,-6.641416801034286e-08,-4.6376379702611104e-07
-4.98065890512477e-07,-1.458700550492984e-06,-4.5993660257379217e-07,-4.396319942987398e-07,-6.968803447221086e-07,-5.780043616772106e-07,-2.5289569010469787e-06,-1.0507676623266436e-06,-8.407846117548606e-07,5.344700923524729e-07,1.4637207907797296e-07,2.6934711812803135e-07,8.564603714494973e-08,-1.478467422343542e-06,2.2433714650096994e-07,5.918215109964382e-07,-1.0654321990182436e-07,-4.925318696938703e-07
-4.732768766271582e-07,-1.4867663996589722e-06,-4.0555191795547455e-07,-4.097869523501023e-07,-6.673428725070558e-07,-5.703352527460009e-07,-2.488926585783449e-06,-1.0336432290545542e-06,-8.201378511148255e-07,5.140352871821089e-07,1.2281891655266742e-07,1.5126099176157753e-07,1.1827455552518745e-08,-1.5107416962759719e-06,1.5767063581488972e-07,5.702074014281861e-07,-1.4850285596838854e-07,-5.278086123786251e-07
-4.462286045306091e-07,-1.5205891993234673e-06,-3.4990984518166126e-07,-3.504056859972295e-07,-6.334735159985006e-07,-5.547284349588236e-07,-2.4368327410296103e-06,-1.013264585698785e-06,-7.988960168207462e-07,4.93988897509146e-07,1.0139101374575529e-07,3.650315644589747e-08,-3.454278240531074e-08,-1.5522130240817871e-06,8.238766698481724e-08,5.369417332550004e-07,-1.9334150056805544e-07,-5.691773713013208e-07
-4.23910462362548e-07,-1.5014004675038e-06,-2.990589548693325e-07,-2.8423319546314914e-07,-6.022500701663406e-07,-5.351828398175336e-07,-2.3801687020977805e-06,-9.93245046888116e-07,-7.792942948184028e-07,4.659898223423168e-07,7.944557129006835e-08,-8.054260138867146e-08,-5.8596240684595984e-08,-1.6091829334773024e-06,-2.6632895031567105e-08,4.957811388421155e-07,-2.3998270975023306e-07,-6.141663776980209e-07
-4.112414931408389e-07,-1.4707371845618716e-06,-2.5241722802384814e-07,-2.3689374264714833e-07,-5.785468187416528e-07,-5.140504421578707e-07,-2.3230609270460694e-06,-9.755957797083695e-07,-7.618924462938385e-07,4.3239550106376355e-07,5.583665230868515e-08,-1.6968420024439485e-07,-1.0039918880368063e-07,-1.6583959581893902e-06,-1.3888973774202923e-07,3.761657220441542e-07,-2.849561279755323e-07,-6.579454081245199e-07
-4.1034218290830803e-07,-1.4624547561361764e-06,-2.140721558759099e-07,-2.2931399915523619e-07,-5.64638651688693e-07,-4.918000051985265e-07,-2.2650385187582085e-06,-9.60828147073231e-07,-7.460153023489688e-07,3.6889506187218824e-07,3.139818783988631e-08,-2.2401720332809777e-07,-1.5950773829200379e-07,-1.720463455408545e-06,-2.3630070028260255e-07,2.2471038695991616e-07,-3.2417746903786704e-07,-6.952620976800224e-07
-4.217673133524154e-07,-1.4563620839285183e-06,-1.9131197833803395e-07,-2.2795402265061078e-07,-5.613396382761222e-07,-4.681189976626598e-07,-2.2033528037110646e-06,-9.488928663530455e-07,-7.309638624747546e-07,2.9098388870313364e-07,8.394866134481522e-09,-2.433379141198061e-07,-2.560617458002395e-07,-1.7974615621470314e-06,-2.9169604402875184e-07,1.0781452848616237e-07,-3.544078945190481e-07,-7.221745284862498e-07
-4.451098008459429e-07,-1.4504262159990216e-06,-1.8343648515117435e-07,-2.3077638057758266e-07,-5.686992865740187e-07,-4.427051732845843e-07,-2.135308740279882e-06,-9.391863035426042e-07,-7.16252366426421e-07,2.413266895550338e-07,-1.0153860049071763e-08,-2.274138341774213e-07,-3.550069468882047e-07,-1.8742123005636133e-06,-2.837629880637006e-07,3.9593508041881087e-08,-3.7328150867520335e-07,-7.362593270294324e-07
-4.783217338543527e-07,-1.4583340898442358e-06,-1.9626766175482283e-07,-2.297677287116616e-07,-5.856812296203465e-07,-4.1542888531408023e-07,-2.060939903978777e-06,-9.303409840697854e-07,-7.013637968086991e-07,2.1613309240437762e-07,-2.1582360047625086e-08,-2.0063067600495788e-07,-4.251477076363432e-07,-1.941287134233898e-06,-2.5595230655258477e-07,6.893691675730083e-08,-3.795738196476749e-07,-7.368154253410156e-07
-5.176535858327336e-07,-1.472138034928152e-06,-2.103712324968027e-07,-2.518074502166722e-07,-6.100206572045353e-07,-3.869151680399848e-07,-1.9803672120930696e-06,-9.212534959631663e-07,-6.863252677052351e-07,1.853874635590473e-07,-2.51591698566622e-08,-1.9045152456555854e-07,-4.803040182759191e-07,-1.9528800101010384e-06,-2.2773788495608405e-07,9.99065103923375e-08,-3.740815209871335e-07,-7.256858181796465e-07
-5.59102553732676e-07,-1.4904575821965646e-06,-2.2984649090685667e-07,-2.767630033021048e-07,-6.384777262575637e-07,-3.593583168627551e-07,-1.8964670823591377e-06,-9.122620500092183e-07,-6.722932914602091e-07,1.5748774349573983e-07,-2.257417162418828e-08,-1.897133316339041e-07,-5.055760243377918e-07,-1.925170714790112e-06,-2.4561378571215053e-07,6.910879140171649e-08,-3.5931783291701766e-07,-7.068570749601019e-07
-5.972815982015244e-07,-1.5111054089850273e-06,-2.5704545569364356e-07,-3.409237320891432e-07,-6.666089566697261e-07,-3.3616678351688354e-07,-1.8170236241371385e-06,-9.045695516921272e-07,-6.606856892826529e-07,1.423998656872489e-07,-1.6456250352867552e-08,-1.8844932181218447e-07,-5.334369678341688e-07,-1.8852901217323094e-06,-2.5389517853333736e-07,5.750262106326077e-08,-3.378298499097613e-07,-6.843731512569575e-07
-6.26704909314389e-07,-1.549704684786081e-06,-3.011204235581542e-07,-4.0879981149080187e-07,-6.886965127926415e-07,-3.20496783411629e-07,-1.7466281859964311e-06,-8.987564582986959e-07,-6.517833402085471e-07,1.6139925046690662e-07,-8.743876987499427e-09,-1.520319279550797e-07,-5.72713248963234e-07,-1.8308977625756282e-06,-2.5913714552900865e-07,3.827801455929119e-08,-3.114305797601123e-07,-6.610043060255665e-07
-6.423984345707904e-07,-1.5942924407123977e-06,-3.5720151505316464e-07,-4.6945211366127513e-07,-6.993456981163823e-07,-3.1423373130943893e-07,-1.689085367459869e-06,-8.945177530497822e-07,-6.447009003157212e-07,2.0074915637968808e-07,-8.095872662202345e-10,-7.434220546190996e-08,-6.182183486748749e-07,-1.8506203741629957e-06,-2.43775605087968e-07,6.783198350790357e-08,-2.820717107087421e-07,-6.388214198052409e-07
-6.417236686839798e-07,-1.6360886801828311e-06,-4.082462689103742e-07,-5.286789877975395e-07,-6.958347621257432e-07,-3.177982119648194e-07,-1.645572639156806e-06,-8.913270871562685e-07,-6.383263279360461e-07,2.2595998824465668e-07,5.627239248622032e-09,1.834262829142565e-08,-6.509084156422027e-07,-1.86650388090878e-06,-2.1474660790323084e-07,1.704435163175326e-07,-2.52262449707668e-07,-6.196035071773824e-07
-6.258204758625912e-07,-1.667602261743943e-06,-4.523647219620222e-07,-5.529272424831391e-07,-6.786245328796651e-07,-3.297819389400379e-07,-1.6147410909930017e-06,-8.883003555970555e-07,-6.315574720584314e-07,2.567000513534848e-07,8.739030225683762e-09,1.0965357453310684e-07,-6.400311765008377e-07,-1.8389667229119856e-06,-1.8483656384563373e-07,2.777633685116027e-07,-2.2394963701430707e-07,-6.03824286712455e-07
-5.977462162403855e-07,-1.6817690065165727e-06,-4.768044591327997e-07,-5.509465051828465e-07,-6.498513447846905e-07,-3.464747867929325e-07,-1.5887768377182823e-06,-8.835382566692831e-07,-6.229841149974387e-07,2.7573172827912596e-07,7.566611199389381e-09,1.652959941058254e-07,-6.198889135826855e-07,-1.8163533640576077e-06,-1.3426546950943804e-07,3.7104565631192835e-07,-1.9767855024268483e-07,-5.899577017521732e-07
-5.610027199056485e-07,-1.6825229408956238e-06,-4.955832073946041e-07,-5.326085420227591e-07,-6.120671965408632e-07,-3.624201329680495e-07,-1.558086168510579e-06,-8.744283424439669e-07,-6.111826012334322e-07,2.820231752178374e-07,2.3080846823151453e-09,1.8686015075213242e-07,-5.963695103071107e-07,-1.7846684752116114e-06,-9.564924046777647e-08,4.683275187635745e-07,-1.72980779840269e-07,-5.753040384283769e-07
-5.18936948048499e-07,-1.6722610584272672e-06,-5.101562067540077e-07,-5.091466010862763e-07,-5.679836376639109e-07,-3.718773348642091e-07,-1.5140030851092381e-06,-8.586025064061258e-07,-5.952478842324045e-07,2.8336919738329144e-07,-5.843947174174408e-09,1.9052178634836825e-07,-5.580314543707539e-07,-1.7190981790675552e-06,-7.22086746531336e-08,5.269288297765333e-07,-1.4867678039885098e-07,-5.570394019231646e-07
