0,1,2,3,4,5,6,7,8,9,10,11,12,13,14,15,16,17
1.7618833491633563e-08,2.4757006350510814e-07,-6.560181644104315e-08,-1.2539143143903914e-07,2.604227117846105e-07,-2.627193228402224e-07,-3.414274466733097e-07,-6.075172793892196e-07,-9.291611322998945e-08,4.071810463116739e-07,4.0199014817592665e-07,3.147175687087846e-07,-1.0834559893470753e-07,-1.3156188883548478e-07,-2.0273036563378427e-07,-3.4792224242455747e-07,-3.279099777683271e-07,-1.3217901976124333e-08
2.9797700722557257e-08,2.325968133762018e-07,-9.717540971748105e-08,-1.233456807187127e-07,2.004054757355563e-07,-3.734557154763049e-07,-1.8210282678246363e-07,-6.205615459657359e-07,-1.0336164464757059e-07,3.348699996595836e-07,2.883057858224397e-07,2.739128663904334e-07,-1.0314618519917201e-07,-1.3241665223994468e-07,-2.390137036229252e-07,-3.1220914113529495e-07,-3.520579584243964e-07,2.0970197755609804e-08
3.11226007137442e-08,2.0056657431085978e-07,-1.2854904823405485e-07,-1.171673188241017e-07,1.3006922459860611e-07,-4.989302554707116e-07,1.868424544059504e-08,-5.979213606331547e-07,-1.0838968463946154e-07,2.466526113157862e-07,1.5681703030529092e-07,2.1712406061676877e-07,-9.910596355427418e-08,-1.2894955005487483e-07,-2.634612292546479e-07,-2.407488980317092e-07,-3.589720714149394e-07,3.477297154133893e-08
1.9999969604108888e-08,1.5423830717598998e-07,-1.5097018358394638e-07,-1.0648372682627757e-07,4.567621034297162e-08,-6.098706599469031e-07,2.3219285748058056e-07,-5.069522299685519e-07,-1.0655589513305189e-07,1.546380711283509e-07,2.7385926963961796e-08,1.4706220476897817e-07,-9.549065552979821e-08,-1.1960100281325456e-07,-2.6532969635841497e-07,-1.4231880716219911e-07,-3.391228782201796e-07,8.548329597939914e-09
-3.6229708058681543e-09,9.719583966727142e-08,-1.59273994135124e-07,-9.215483987541153e-08,-5.85035555984953e-08,-6.569512627765283e-07,4.200872183083543e-07,-3.391349427508478e-07,-9.661752474472502e-08,6.958707168064068e-08,-8.108738997080135e-08,6.849531149727578e-08,-9.082473064333187e-08,-1.0317400701607062e-07,-2.3924189653860486e-07,-3.170658385919645e-08,-2.8770332398144003e-07,-1.710579936547204e-08
-3.7061877947086724e-08,3.211195677397703e-08,-1.5204673983006086e-07,-7.567963787472839e-08,-1.8417901037151115e-07,-5.991478009138273e-07,5.411536957283224e-07,-1.121817023283725e-07,-7.839198429036596e-08,-1.6111986691512412e-09,-1.553424977913576e-07,-1.2112340969163384e-08,-8.354188587906935e-08,-7.885919237862954e-08,-1.8491999412311393e-07,7.476592787705145e-08,-2.0589186659772748e-07,-7.115397372345768e-08
-7.463436586502195e-08,-3.9011589390862265e-08,-1.3046330864952398e-07,-5.843294269373492e-08,-3.190071935597617e-07,-4.3151974853971825e-07,5.636081791898267e-07,1.3771882210746943e-07,-5.32006471298458e-08,-5.661849768106964e-08,-1.9064204394638554e-07,-8.755137339477444e-08,-7.253403058701578e-08,-4.710533075715439e-08,-1.0653976544411832e-07,1.6386762121316378e-07,-1.0208361287275077e-07,-1.2479420058924248e-07
-1.086855176047614e-07,-1.147605046705128e-07,-9.689784134921684e-08,-4.092630756615262e-08,-4.319245022152133e-07,-1.923316246995715e-07,4.776540828319445e-07,3.7054599425018523e-07,-2.3641132966226572e-08,-9.685777589292901e-08,-1.9067417052929388e-07,-1.5032712202388632e-07,-5.8189146418384876e-08,-1.0403347542549595e-08,-1.434282312122654e-08,2.2444959720195515e-07,9.299637987966118e-09,-1.777682250486134e-07
-1.3087426185638335e-07,-1.885931144961417e-07,-5.386834218049315e-08,-2.2580982745914945e-08,-4.824240556924945e-07,5.769320666761953e-08,2.980144563406367e-07,5.519226281503971e-07,7.135628624230849e-09,-1.2527685580100443e-07,-1.645348954879307e-07,-1.9400343259548272e-07,-4.121143038646713e-08,2.7636102636351656e-08,8.079125589012583e-08,2.5272872884449667e-07,1.1356918190168243e-07,-1.9829155824859056e-07
-1.336256033595675e-07,-2.197475521125059e-07,-3.8192707189532965e-09,-1.3199897430467103e-09,-4.384019676423247e-07,2.6799183159887424e-07,6.985954956699758e-08,6.518021975037721e-07,3.6265957850527e-08,-1.4445040381110438e-07,-1.2308545015773277e-07,-2.134772118927276e-07,-2.1353390147352212e-08,6.208744284275859e-08,1.651973247756077e-07,2.4890098638569734e-07,1.966426633733453e-07,-1.5810850777611328e-07
-1.1192993175304107e-07,-2.2044761469964738e-07,5.0487130830987274e-08,2.5242048446953926e-08,-2.9435570263021043e-07,4.1638568584254865e-07,-1.564487261259875e-07,6.443482658001792e-07,6.17745570639834e-08,-1.5594928920300058e-07,-7.639414267955564e-08,-2.0651511682901893e-07,3.4802931108057064e-09,8.833443087235206e-08,2.3609365040518054e-07,2.1656136956211083e-07,2.5988018527795e-07,-7.384420155482476e-08
-6.464681426797536e-08,-1.6102654169565138e-07,1.0579787213583308e-07,5.870226650806183e-08,-7.684409426414312e-08,5.064051331333679e-07,-3.367527544605829e-07,5.203357209431972e-07,8.276351526341229e-08,-1.6004090229993954e-07,-3.256383588242824e-08,-1.7362230799381364e-07,3.7102656382487185e-08,1.0406083511843554e-07,2.897632488415491e-07,1.5848182918188994e-07,3.1278927642737286e-07,3.876646439033465e-08
5.235662911055456e-09,-2.9711833603563065e-08,1.586919505580868e-07,9.906233469160376e-08,1.6479672687038319e-07,5.54990449249176e-07,-4.120172650208699e-07,3.038477093585191e-07,9.934683275435187e-08,-1.5531477294801434e-07,3.0881511230789953e-09,-1.1746564763754067e-07,8.308605206275361e-08,1.1059942846511425e-07,2.9435978555785835e-07,7.507198747388132e-08,3.38846379826967e-07,1.339442152383611e-07
9.170445329103699e-08,-1.069707064373098e-08,2.0598812988294592e-07,1.4468779492905978e-07,3.7596029100233414e-07,5.824970094493145e-07,-4.1557966152580344e-07,5.309037224990089e-08,1.1260437767324782e-07,-1.3920890738584796e-07,2.89226703301435e-08,-4.281477319500811e-08,1.4294620650011604e-07,1.1278851378994785e-07,2.410708621507605e-07,-2.446006415543448e-08,3.2535960202670026e-07,1.8006033242801197e-07
1.869626179147654e-07,-3.1116762403241824e-08,2.4487886672939783e-07,1.9323185478720197e-07,5.188834718253875e-07,6.056509058436566e-07,-4.1689677890851033e-07,-1.616263105390603e-07,1.2462064851195707e-07,-1.0980982109040059e-07,4.692081484358149e-08,4.349805962535038e-08,2.1460505272712552e-07,1.171034152858532e-07,1.5124094639775843e-07,-1.258409425979719e-07,2.515440315840848e-07,1.8754481034222633e-07
2.8263950481080524e-07,5.0833028906449144e-08,2.728220047026471e-07,2.425565589442379e-07,5.894259698143058e-07,6.333121688792286e-07,-3.600288253897315e-07,-2.877163387886775e-07,1.3856310903952377e-07,-6.779037531357396e-08,6.089389888106304e-08,1.330792549238264e-07,2.92522756496282e-07,1.2946080262714848e-07,5.7062400078000756e-08,-1.896213683738819e-07,1.658107308736927e-07,2.2967704698861626e-07
3.713231219204498e-07,1.8901354580594432e-07,2.879948737670893e-07,2.9180698507590774e-07,6.144756962351678e-07,6.610952837814641e-07,-2.321363683550909e-07,-3.0753055528764837e-07,1.5867808390702276e-07,-1.7670979661970042e-08,7.423769833161342e-08,2.1685109873515964e-07,3.700808519962714e-07,1.5334301019991072e-07,-4.1894710362090543e-08,-1.6207019637184883e-07,8.504777828522175e-08,2.9851745052861226e-07
4.4772920702814673e-07,3.545057416546055e-07,2.902234839030927e-07,3.4174592676082494e-07,6.285528186078657e-07,6.711545956705269e-07,-9.938019449278598e-08,-2.373017876053255e-07,1.8985708535663395e-07,3.286974258696828e-08,8.747358189144129e-08,2.8653958162372355e-07,4.423666912459794e-07,1.8918629230179526e-07,-1.3712077923711885e-07,-9.789886963506123e-08,2.358696361438371e-08,4.118225816877109e-07
5.093288239107264e-07,5.084474172345615e-07,2.821155353292773e-07,3.944844957500019e-07,6.500781416887579e-07,6.41700031715739e-07,3.981144502590686e-08,-1.1463307862791947e-07,2.3655348332729948e-07,7.563836937347241e-08,1.0071844600191169e-07,3.371704600788229e-07,5.079198936953913e-07,2.346447223281312e-07,-1.9420752333518137e-07,-1.088035268008832e-10,-1.536951397664788e-08,5.398541572767961e-07
5.566391099187689e-07,6.455348658763003e-07,2.698908199584888e-07,4.5241636698153376e-07,6.753488147165335e-07,5.628114666129486e-07,2.0246939927744038e-07,1.758129543351067e-08,3.0144675404571486e-07,1.0489448245595735e-07,1.1540775781924086e-07,3.684539751901183e-07,5.684218488650279e-07,2.8648660723891194e-07,-2.2209106072529052e-07,5.347218992665745e-08,-3.2659123059106036e-08,6.645543680762122e-07
5.928511059813154e-07,7.392133168566579e-07,2.6181002872831793e-07,5.179967264120227e-07,6.937149509058471e-07,4.5026959181050165e-07,3.815877140144093e-07,1.2415253745383475e-07,3.8450661895486094e-07,1.1861334012002755e-07,1.327255000199059e-07,3.838664796889372e-07,6.279358211053404e-07,3.41567071067088e-07,-2.1732094291719096e-07,1.0569208849794144e-07,-2.759614930040401e-08,7.724677710598739e-07
6.219917031148331e-07,7.886769468123274e-07,2.654831422483728e-07,5.926008533844967e-07,7.037463930180299e-07,3.437714008307441e-07,5.701083603958348e-07,1.870175240323701e-07,4.825912132948196e-07,1.1738493635104721e-07,1.535637632901089e-07,3.8839378823038563e-07,6.905290479549509e-07,3.972732270494868e-07,-1.7725887277672548e-07,2.1957245705510407e-07,-1.2693778512148926e-08,8.595954886199759e-07
6.467650186805553e-07,8.173022957613353e-07,2.849888246291781e-07,6.746329736596478e-07,7.149091333199104e-07,2.87509286218709e-07,7.585128526308563e-07,2.0963729751315877e-07,5.893845989419003e-07,1.0320754849502552e-07,1.7622314185922412e-07,3.873939111754954e-07,7.582214976486908e-07,4.52379537112521e-07,-1.1315813315283046e-07,3.719154571408266e-07,1.0285161779123977e-08,9.374851138302797e-07
6.680553457626611e-07,8.353369056282818e-07,3.2070697473010984e-07,7.596749523740426e-07,7.406086625755144e-07,3.0597104147402526e-07,9.371747837148e-07,2.1274121694675086e-07,6.959656291942642e-07,7.969978432239844e-08,1.967270291115182e-07,3.862224669580276e-07,8.311393667068228e-07,5.058328684563587e-07,-2.8257374904034208e-08,5.422142855205062e-07,4.349585057215082e-08,1.0027765560802138e-06
6.85930339102728e-07,8.575074459213271e-07,3.7050848238068175e-07,8.417185968582574e-07,7.902345627481743e-07,3.9312273218398675e-07,1.094614986648661e-06,2.2066277846088813e-07,7.925470443869055e-07,5.2443513342042806e-08,2.1139757085408267e-07,3.9025284792565724e-07,9.075849812200873e-07,5.575894748223303e-07,6.958960393583167e-08,7.076557585480832e-07,8.540223131094326e-08,1.0623031609620647e-06
7.003425200880943e-07,8.893330980376219e-07,4.308253270856716e-07,9.154046110120928e-07,8.633323115364978e-07,5.188094363796448e-07,1.2143376831417272e-06,2.45589433801072e-07,8.711286710589966e-07,2.7939638030384324e-08,2.1831237269947655e-07,4.037330265332427e-07,9.839453350445322e-07,6.077424024581149e-07,1.7313746639752224e-07,8.5783839738208e-07,1.371303220117257e-07,1.108407939179543e-06
7.109283743433552e-07,9.325016931803484e-07,4.971204812053075e-07,9.76344833447063e-07,9.453246698154873e-07,6.479233346503454e-07,1.2799032395163685e-06,2.8215466147852093e-07,9.278963626489833e-07,1.1674955176190502e-08,2.1704168792307308e-07,4.285822060425404e-07,1.0560542342291569e-06,6.561247561787421e-07,2.790753560945928e-07,9.575842717150235e-07,1.9578365806555697e-07,1.1456680552081064e-06
7.171011072296189e-07,9.86587988895164e-07,5.64161124012686e-07,1.0219983128119155e-06,1.0084512287076923e-06,7.573978694843261e-07,1.2845526812023114e-06,3.14150735294561e-07,9.640978555385058e-07,7.256404535864653e-09,2.080905950701854e-07,4.637735010209281e-07,1.1202258605069163e-06,7.027379319578474e-07,3.851895166490046e-07,1.0112245980722818e-06,2.5876755727872584e-07,1.183136673428041e-06
7.188001644955964e-07,1.046586241595738e-06,6.268998761087199e-07,1.0522314908596268e-06,1.022107766124528e-06,8.387258913320698e-07,1.2425235368692868e-06,3.2587005465927484e-07,9.847941373210444e-07,1.499942974675156e-08,1.9258629385078282e-07,5.057357696824969e-07,1.17345021592743e-06,7.489135055413329e-07,4.906265799714204e-07,1.0379283377346347e-06,3.2476227902630494e-07,1.2200715034626035e-06
7.141940160346915e-07,1.105182959993798e-06,6.807709606009808e-07,1.068472126958711e-06,9.689229159261962e-07,8.904344252167563e-07,1.1823529345839926e-06,3.1279607452831784e-07,9.96519070281349e-07,3.0871777789091975e-08,1.712572452777108e-07,5.496193882853674e-07,1.2130673112173901e-06,7.961084234004251e-07,5.946368256817235e-07,1.0488258853144044e-06,3.921569401403525e-07,1.253170406384061e-06
7.03357843221098e-07,1.1550114433298732e-06,7.225841109742294e-07,1.0741656554954423e-06,8.570311541108343e-07,9.134448641225306e-07,1.1343718566876282e-06,2.8850623231821717e-07,1.0042763924809175e-06,5.090081276295444e-08,1.4445330396779556e-07,5.888954331568117e-07,1.239662937376375e-06,8.448038551019392e-07,6.958194968071482e-07,1.058057841060345e-06,4.5880520258453985e-07,1.2819314136526286e-06
6.870846278000158e-07,1.1905809097746717e-06,7.510072437095523e-07,1.0724583558444136e-06,7.222181080944529e-07,9.153149056772635e-07,1.1189144219884655e-06,2.818416464421841e-07,1.011448403137198e-06,7.041375982238284e-08,1.1252902852579722e-07,6.210187800353018e-07,1.255945369165642e-06,8.949574874993375e-07,7.925408902818374e-07,1.0689546135619734e-06,5.214946200016545e-07,1.307928858459471e-06
6.656127221746597e-07,1.209482667585595e-06,7.669667341427963e-07,1.0692846418910983e-06,6.198623205764635e-07,9.131480141102829e-07,1.1388351940918721e-06,3.2236406092308056e-07,1.0205055633260907e-06,8.620335033115017e-08,7.627945074281921e-08,6.450237291631538e-07,1.2681980649115436e-06,9.468372808900697e-07,8.82342418592308e-07,1.0829111971320223e-06,5.794801053253628e-07,1.3292112762702714e-06
6.397322515012203e-07,1.2123184543057853e-06,7.735569091333972e-07,1.0702626212428204e-06,6.080118947570218e-07,9.338763189820429e-07,1.1839511223305416e-06,4.2282595543500587e-07,1.0329807788348658e-06,9.48743284068964e-08,3.797328372493369e-08,6.614509402642177e-07,1.282168930326128e-06,9.987913778112077e-07,9.623572644093423e-07,1.0993600040375187e-06,6.285197156313842e-07,1.3497649355651734e-06
6.095962137734395e-07,1.201844337737962e-06,7.752957718234373e-07,1.07428125784756e-06,7.260290233807283e-07,1.0037593358147165e-06,1.2364236918321186e-06,5.707175039971622e-07,1.0493587908907295e-06,9.417715773537423e-08,3.715622698657005e-10,6.73224564806288e-07,1.3034346615767821e-06,1.049167596358646e-06,1.029161994563963e-06,1.1162980041216866e-06,6.634214277336391e-07,1.3679790337408236e-06
5.754324844665097e-07,1.181871419379894e-06,7.773579171086352e-07,1.0818359865422335e-06,9.75816880830109e-07,1.1406236136169493e-06,1.278885979901896e-06,7.335127572759088e-07,1.0689216949861411e-06,8.436401993674392e-08,-3.246616179847474e-08,6.83034309529656e-07,1.3372912143818304e-06,1.0971480767316922e-06,1.0799715389385446e-06,1.1314987158045807e-06,6.815115185891893e-07,1.3808986256487086e-06
5.396830336975813e-07,1.1561933725716085e-06,7.845580412848166e-07,1.1279497800109254e-06,1.3114431404493157e-06,1.3457672708864902e-06,1.2994542979334402e-06,8.737438812911424e-07,1.0900598572278742e-06,6.84462837811193e-08,-5.467441819577889e-08,6.943330502915342e-07,1.384638436651184e-06,1.1417152195238702e-06,1.113862080513706e-06,1.1437519699111964e-06,6.770035577270024e-07,1.3888463877373502e-06
5.031023344138053e-07,1.1276522352511252e-06,7.997830333489753e-07,1.2039439583063342e-06,1.6465334934921305e-06,1.5918314463888975e-06,1.292557061037736e-06,9.649931545338305e-07,1.1101792425519926e-06,5.167948723804547e-08,-6.386287005744093e-08,7.106666145226039e-07,1.4452588341888669e-06,1.1824678776183878e-06,1.1313536317744171e-06,1.1536190570736366e-06,6.514741896600377e-07,1.3913047901870384e-06
4.663111694200802e-07,1.097692862762732e-06,8.228225372018944e-07,1.2734045346140583e-06,1.8839946115219668e-06,1.8252976413895618e-06,1.2571462335657876e-06,1.0013173339244155e-06,1.1271090602616722e-06,3.947227956722761e-08,-5.848061970016744e-08,7.318757991777083e-07,1.5143118348350034e-06,1.2179846804817199e-06,1.1337292010667697e-06,1.1591389012980265e-06,6.094548518931684e-07,1.389721090948164e-06
4.299269274037469e-07,1.0670107265112749e-06,8.505571098733257e-07,1.3475806678204487e-06,1.955424149446632e-06,1.9825203754156496e-06,1.1924744333108979e-06,9.970267615260508e-07,1.1391602637784165e-06,3.7640121115092005e-08,-3.6829135409487734e-08,7.555535972776878e-07,1.5822818308181333e-06,1.249097004670572e-06,1.1223662930478998e-06,1.1591034897513431e-06,5.573822691871104e-07,1.381402263961109e-06
3.937972454552904e-07,1.036542559170645e-06,8.782017835407893e-07,1.403319192361826e-06,1.8470728519271307e-06,2.023478932712084e-06,1.105782135941358e-06,9.78785954397318e-07,1.1454596512360854e-06,5.097247376782267e-08,2.3260746050548455e-09,7.786196394220865e-07,1.6395734956548387e-06,1.276198616299107e-06,1.0983882652076008e-06,1.1519315059170129e-06,5.042573206244941e-07,1.3681077205353546e-06
3.575267477190933e-07,1.0076939506443566e-06,9.004073879668572e-07,1.4092323507713106e-06,1.5977837882365876e-06,1.950890783440072e-06,9.999371161446693e-07,9.740234166012356e-07,1.1462683012837027e-06,8.262137261174994e-08,6.080457848909821e-08,7.968346437904099e-07,1.6789808558680157e-06,1.3006479818193436e-06,1.062745953205271e-06,1.1350486190672451e-06,4.5737890378778874e-07,1.3470670407612406e-06
3.195586124598922e-07,9.813822665919942e-07,9.122026641797392e-07,1.4066802562797584e-06,1.2778148170844004e-06,1.8014489949985488e-06,8.853758335786512e-07,9.979539392633827e-07,1.142688885366603e-06,1.333361914788046e-07,1.40044477627784e-07,8.063636685306954e-07,1.696010651700379e-06,1.3230899221588144e-06,1.01762835131389e-06,1.1057877339488784e-06,4.2719978849453827e-07,1.3127526452961445e-06
2.7820632594311423e-07,9.567529427244578e-07,9.104080715133115e-07,1.3654419101467727e-06,9.641171004761284e-07,1.6207654705042403e-06,7.818986320262675e-07,1.0437128668540757e-06,1.1371715490182958e-06,2.0176430615128075e-07,2.3967336560243985e-07,8.049866137481665e-07,1.6889953630002055e-06,1.343341759657588e-06,9.683264826234993e-07,1.0611108300375812e-06,4.1005375768955377e-07,1.2651980250950819e-06
2.3327128209957324e-07,9.308043036021829e-07,8.951794210504154e-07,1.3201856015886395e-06,7.196434975202196e-07,1.4424037813662469e-06,7.021911619289922e-07,1.0829620242559733e-06,1.1335299638077704e-06,2.854144796671036e-07,3.562908594991587e-07,7.923062239883097e-07,1.6588178035718662e-06,1.3619718403856763e-06,9.23153419295289e-07,9.992068622158147e-07,4.2060052512217184e-07,1.2034414686287357e-06
1.8883744469339714e-07,8.989589978054265e-07,8.70805852142789e-07,1.2821594127107182e-06,5.787500131499842e-07,1.2853089318534722e-06,6.626180283879923e-07,1.080261151586457e-06,1.1356976988973006e-06,3.808685407771865e-07,4.84096189865281e-07,7.700445579158794e-07,1.6072634599343095e-06,1.3795005176899335e-06,8.929955108445407e-07,9.185114454420937e-07,4.614574779398775e-07,1.1317050098475767e-06
1.510171535091753e-07,8.560625235321964e-07,8.44927665365911e-07,1.2274838935890255e-06,5.444531921250217e-07,1.158469552736058e-06,6.637940033136216e-07,1.0149315980338926e-06,1.1457719070259893e-06,4.827572923660488e-07,6.156880865511483e-07,7.42843916250388e-07,1.537197244515091e-06,1.3966915994286457e-06,8.875902898978666e-07,8.198852252221851e-07,5.267483104685779e-07,1.057716336411688e-06
1.271133507580683e-07,7.980243804972115e-07,8.267745617975853e-07,1.1638168950462486e-06,5.940213948016346e-07,1.0645710102874119e-06,6.924768868105703e-07,8.975180056320229e-07,1.1625966211582918e-06,5.846780211754505e-07,7.408490533722815e-07,7.157831025847057e-07,1.4541520184960951e-06,1.41380013254727e-06,9.108255945342015e-07,7.09130704297832e-07,6.427658850078865e-07,1.0087270955552992e-06
1.24359298792997e-07,7.234975460794501e-07,8.244066141726875e-07,1.0559224326398368e-06,6.922800025209509e-07,1.0042543690547328e-06,7.081854777090467e-07,7.682444945036353e-07,1.1816231492597529e-06,6.788275317466021e-07,8.53110415970894e-07,6.931643909376039e-07,1.365480185232625e-06,1.4284733754324493e-06,9.593975081405208e-07,5.956103368543095e-07,7.602597770017709e-07,9.880141508583048e-07
1.463051307470485e-07,6.350887916808752e-07,8.413476279777323e-07,9.366075916502636e-07,8.018033661525788e-07,9.810056639313389e-07,6.680322765003362e-07,6.747017709740784e-07,1.1961342690959955e-06,7.562962298544762e-07,9.474467607734666e-07,6.771820935409743e-07,1.2814980009676226e-06,1.440923159287798e-06,1.0230212276550561e-06,4.896784590537974e-07,8.796893877141858e-07,1.016318461006257e-06
1.9089288801098557e-07,5.393141852907631e-07,8.742517668413854e-07,8.29602137437635e-07,8.92626948585141e-07,9.989419388175557e-07,6.122650559687404e-07,6.426909895550322e-07,1.199478848902227e-06,8.075208127292703e-07,1.0178412576444814e-06,6.665982676991232e-07,1.211948479049112e-06,1.4455021393005773e-06,1.087508611934854e-06,4.0003923751305083e-07,9.75554169581905e-07,1.0375109177023598e-06
2.503863975957605e-07,4.455353645213331e-07,9.13172203781585e-07,7.296147605364263e-07,9.537438739968679e-07,1.0585716747298433e-06,6.112244738711628e-07,6.615622896249915e-07,1.1872649363488055e-06,8.241595623504921e-07,1.058119523817279e-06,6.583858288175759e-07,1.1624619282131633e-06,1.4417541508219885e-06,1.1395287302972602e-06,3.3154939511210354e-07,9.749666909607182e-07,1.0080234924917922e-06
3.1334917428438443e-07,3.638872593785928e-07,9.447567095335721e-07,6.607431710637193e-07,9.909689222484287e-07,1.156223192581406e-06,7.296757356227928e-07,6.917454615822036e-07,1.1581600109843111e-06,8.017646139565175e-07,1.0621910409192555e-06,6.496504811550183e-07,1.1378343045807716e-06,1.4279274632133866e-06,1.17028276248189e-06,2.8478603375374874e-07,9.241401269580207e-07,1.0280558157331403e-06
3.687159329802767e-07,3.027105057173054e-07,9.564572423306257e-07,6.145717799798077e-07,1.017025359905341e-06,1.285189274435831e-06,7.329055231790559e-07,6.837945154266168e-07,1.1130721985971749e-06,7.41655471725927e-07,1.0283606589952828e-06,6.386835642914153e-07,1.138363866490133e-06,1.405234960889365e-06,1.1757249031734065e-06,2.580666230897161e-07,8.333664153342083e-07,1.0956137903078969e-06
4.075754537946585e-07,2.667632416155191e-07,9.403667039030217e-07,5.785734396416835e-07,1.0369873704897084e-06,1.433135163232379e-06,7.187248895837699e-07,5.967999195401266e-07,1.053558693910033e-06,6.518253744382477e-07,9.62193600212258e-07,6.254068146510074e-07,1.1558129528300262e-06,1.3778807431480255e-06,1.1565365680565549e-06,2.4595092907431235e-07,7.820459456593453e-07,1.1734200679508594e-06
4.2301444034610474e-07,2.569634785049476e-07,8.951491700065664e-07,5.500554888856707e-07,1.0530547331224623e-06,1.5753352693303817e-06,7.764194053504122e-07,4.1329083602924485e-07,9.81788867922826e-07,5.442170315925473e-07,8.781047782804233e-07,6.099248512757615e-07,1.1802952871267152e-06,1.3458713245997796e-06,1.1162420126392652e-06,2.399186839955226e-07,7.337293166712367e-07,1.2563615017976272e-06
4.145242128631677e-07,2.714755061306425e-07,8.253626972547938e-07,5.217228417356178e-07,1.0685335016300334e-06,1.6775919321351064e-06,8.264178579492281e-07,1.4763012811964816e-07,9.00176855430734e-07,4.35098618027098e-07,7.950853660013932e-07,5.933864004391635e-07,1.206413715396548e-06,1.3127347380539142e-06,1.0593320092969913e-06,2.387071147711417e-07,6.751090514030741e-07,1.3123534967126793e-06
3.852008626678214e-07,3.0673698986910233e-07,7.384837369876987e-07,4.964366670179182e-07,1.0904180617426615e-06,1.7115800854555546e-06,8.80180459164541e-07,-1.5797105140230802e-07,8.135004112855149e-07,3.3848183204721465e-07,7.317580268225144e-07,5.755861130437216e-07,1.2286707112642738e-06,1.279745547762826e-06,9.904563271169144e-07,2.3779627519649572e-07,6.383994768977146e-07,1.3496996545778097e-06
3.3898611096826927e-07,3.577046369559716e-07,6.412352656610265e-07,4.624227543939428e-07,1.127138800638412e-06,1.6676166551269451e-06,9.085609283344199e-07,-4.48823219022967e-07,7.269630984355441e-07,2.6105468640272666e-07,6.972634539954723e-07,5.542293551130821e-07,1.2466715853617921e-06,1.2472125044480948e-06,9.138239799857332e-07,2.3496762434640032e-07,5.555473278799178e-07,1.3797413947447657e-06
2.7946269917312055e-07,4.1771655571787774e-07,5.372770031645596e-07,4.2330865051790667e-07,1.1747194622647931e-06,1.5558280552068563e-06,8.847187996692782e-07,-6.752274357282725e-07,6.444959288614357e-07,1.9721741599353424e-07,6.940236006583465e-07,5.26377374245457e-07,1.264738895032076e-06,1.2201692934290066e-06,8.321489569523413e-07,2.3109849434743845e-07,4.724991846734956e-07,1.3965991415246891e-06
2.0330195796429146e-07,4.789497623429646e-07,4.271738929405996e-07,3.8850263603322264e-07,1.2150119917510129e-06,1.398926685679154e-06,8.167374496115035e-07,-8.036826397178767e-07,5.686293883794058e-07,1.3916776979916982e-07,7.165974664633828e-07,4.89490116685092e-07,1.286996667418739e-06,1.1996180920030522e-06,7.493887401227036e-07,2.3468585697969927e-07,3.6244094952217655e-07,1.4157975267050969e-06
1.2420866387272377e-07,5.337353037364874e-07,3.1024769470925e-07,3.6375650630340127e-07,1.2221558697847447e-06,1.222600348160096e-06,7.025649671608819e-07,-8.219371026599796e-07,4.968780651522547e-07,8.859953839547418e-08,7.537056020604256e-07,4.430254214840101e-07,1.3255898718534863e-06,1.1875642692205642e-06,6.696498422865913e-07,2.5172658690496004e-07,2.3595587546764516e-07,1.438455657232598e-06
4.078740738990351e-08,5.760780938343679e-07,1.8663587197005436e-07,3.9491965292755306e-07,1.172462938804188e-06,1.0488043975561076e-06,5.728005194301168e-07,-7.427770853368624e-07,4.295910678059067e-07,3.444490153474098e-08,7.939135232237128e-07,4.0239033226174465e-07,1.382734306357999e-06,1.1866567742514639e-06,5.962132960014365e-07,2.8469943880102405e-07,1.333563448368405e-07,1.4608656568191742e-06
-4.734741299666851e-08,6.028388386900799e-07,5.863603076183186e-08,4.4638099645986855e-07,1.0529358082501549e-06,8.940500957060682e-07,4.523434474509892e-07,-6.055293713643083e-07,3.691865153017325e-07,-2.8080640048760474e-08,8.343494748265842e-07,3.6490279041659807e-07,1.4563398432371817e-06,1.1969141950513195e-06,5.300671136859187e-07,3.383978891221119e-07,4.779781189094514e-08,1.4829776858299621e-06
-1.3524353036722937e-07,6.141325927597022e-07,-6.893545939139203e-08,5.438766336455882e-07,8.65503101868282e-07,7.718682932583073e-07,3.589923712670964e-07,-4.666847863544766e-07,3.1569917745150443e-07,-1.052159298055055e-07,8.762934692159615e-07,3.318987272268565e-07,1.5239487432530918e-06,1.2050623254919975e-06,4.706570597202067e-07,4.06007303683303e-07,-4.9293139582616675e-08,1.5027741608474439e-06
-2.2134116740992545e-07,6.127110151176421e-07,-1.9014315137136098e-07,6.11915513706803e-07,6.273317235144022e-07,6.813212027255695e-07,2.9139065633274637e-07,-3.787904868142435e-07,2.7169040511680945e-07,-1.8649648292343255e-07,9.238380624418041e-07,3.083842012544116e-07,1.5802037493820632e-06,1.208560485281228e-06,4.175563971366846e-07,4.784943556778895e-07,-1.5455798305101533e-07,1.5192624009951006e-06
-2.9983608168645137e-07,6.023567773377468e-07,-3.0067192947300825e-07,6.647100676076442e-07,3.710556021818097e-07,6.122775760301221e-07,2.3856204549617665e-07,-3.7286319429186125e-07,2.384357654156188e-07,-2.56291888338151e-07,9.867615502278657e-07,2.912151408443819e-07,1.6208643091947388e-06,1.2105856430386169e-06,3.711222914253336e-07,5.472045557532979e-07,-2.6186795184778043e-07,1.528955985665222e-06
-3.6792659017762324e-07,5.861198067989245e-07,-4.000083536438348e-07,6.901917113640041e-07,1.4268928229579789e-07,5.530574123383707e-07,1.8892615372678212e-07,-4.5655421387946936e-07,2.1363856499559848e-07,-3.050477250072384e-07,1.0601609211245133e-06,2.8410395778945505e-07,1.639190251515251e-06,1.209571869707108e-06,3.3359476821532207e-07,5.984853746137181e-07,-3.672966691735914e-07,1.5338964888654494e-06
-4.366194849632841e-07,5.654233216209547e-07,-4.912367585724091e-07,6.823365449572386e-07,-9.296049894802454e-09,4.965156313185717e-07,1.4320661813867013e-07,-6.211303258518657e-07,1.9415036278010603e-07,-3.333663490829837e-07,1.1180661811286495e-06,2.839901045657973e-07,1.6492673104843856e-06,1.2072660695924355e-06,3.078364848101481e-07,6.309617315102199e-07,-4.3256514979155197e-07,1.5359657741349414e-06
-5.028285474132462e-07,5.404076627457634e-07,-5.783265327159474e-07,6.76232367498729e-07,-5.326175393333591e-08,4.4496326500141393e-07,1.0670766699684855e-07,-8.459120160371019e-07,1.7857984149975294e-07,-3.526276231043415e-07,1.153835299474217e-06,2.705622675829709e-07,1.6465366875757448e-06,1.2029337041940358e-06,2.9705545398372126e-07,6.477371676546221e-07,-4.778753252359507e-07,1.535516307150518e-06
-5.673262113663154e-07,5.111689710951812e-07,-6.630361673008224e-07,6.580198480848897e-07,8.443030462334109e-09,3.981379515328688e-07,7.87476339007616e-08,-1.1022916166870768e-06,1.6006067009479814e-07,-3.7213779165039126e-07,1.1652733142468286e-06,2.4315915920901516e-07,1.6274280029557657e-06,1.2091222689975891e-06,3.011659620019228e-07,6.603418762336024e-07,-5.099482088425297e-07,1.5367466674062307e-06
-6.150746040419076e-07,4.789026342930044e-07,-7.434747907415893e-07,5.857906156348749e-07,1.3696934711565325e-07,3.5953164199191625e-07,7.065363944169982e-08,-1.3610695808228188e-06,1.3565754376045016e-07,-3.818648768205731e-07,1.1500970454774873e-06,2.2487455615762964e-07,1.61274109969035e-06,1.2289795652267409e-06,3.1689004385151743e-07,6.850529971038153e-07,-5.307610714284001e-07,1.5402570449303369e-06
-6.408368217771772e-07,4.4635678934766476e-07,-8.148192656091827e-07,5.168104424883268e-07,2.790074040694175e-07,3.3545302344899857e-07,7.848371051328138e-08,-1.5962338036805177e-06,1.1545226752979778e-07,-3.7966209613406147e-07,1.1194495982371544e-06,2.1845609830369339e-07,1.5882043694809919e-06,1.2471863608692406e-06,3.3759254095450067e-07,6.931450008601278e-07,-5.212630729775459e-07,1.547121836407024e-06
-6.479178601850053e-07,4.174291180116334e-07,-8.712355256964891e-07,4.7652762047205404e-07,3.8022125176930633e-07,3.403358899884557e-07,1.0395127070137296e-07,-1.782864034749078e-06,9.860929524304927e-08,-3.6582989714831005e-07,1.080684015993375e-06,2.2850798883546627e-07,1.5583763104677674e-06,1.260316902946935e-06,3.580751390818358e-07,6.869304663783818e-07,-4.86708885578716e-07,1.5564891092894126e-06
-6.315260837419817e-07,3.965044603129778e-07,-9.079395940452161e-07,4.552364278971218e-07,4.0606752283186687e-07,3.878154872575255e-07,1.514981962158428e-07,-1.8972570158626832e-06,8.409148267367059e-08,-3.3595286855423924e-07,1.0407589745056074e-06,2.621225825916114e-07,1.5325969867693016e-06,1.267390961897305e-06,3.733153258699506e-07,6.722352098742418e-07,-4.3812439740487865e-07,1.566371658101684e-06
-5.939726466238682e-07,3.878000833028579e-07,-9.225675132941773e-07,4.4839451004861245e-07,3.528564983880147e-07,4.6244853405101795e-07,1.9769777034065567e-07,-1.922967534746046e-06,7.593171751448564e-08,-2.871291206252987e-07,1.0072120987481462e-06,3.1199486698628585e-07,1.5099769304231661e-06,1.2578113144909263e-06,3.8825925882716374e-07,6.452639044286121e-07,-3.840137228299944e-07,1.5774509202089298e-06
-5.310753329809977e-07,3.9455645753378727e-07,-9.153579080949836e-07,4.49386123717162e-07,2.4217890388184357e-07,5.188509261299519e-07,2.4179500860093245e-07,-1.8582575414511692e-06,7.330023562720472e-08,-2.2501704262548275e-07,9.883553685496084e-07,3.737690732334705e-07,1.49366994845736e-06,1.2407694658619898e-06,4.02742468490138e-07,6.132577110755474e-07,-3.44335722326644e-07,1.5825113441936209e-06
-4.786420134934251e-07,4.180823656193595e-07,-8.885563007159614e-07,4.566438345514276e-07,1.1484316792037492e-07,5.005581566886176e-07,2.865118707098386e-07,-1.7202949747252134e-06,8.331517783361288e-08,-1.7357720115593591e-07,9.823829224014748e-07,4.747551472426934e-07,1.4575161023727773e-06,1.2299106744502914e-06,4.18769461331138e-07,5.978357532033145e-07,-3.056952594831593e-07,1.585147353935054e-06
-4.109955319345318e-07,4.566465855074154e-07,-8.457776909874781e-07,4.686307014794243e-07,7.469292944985451e-09,3.7129630112769876e-07,3.341560482909532e-07,-1.5430981234636364e-06,1.215358524830296e-07,-1.0976544412451607e-07,9.931178528516502e-07,5.840494137207413e-07,1.3962439906681366e-06,1.1956987753447404e-06,4.3743057449641127e-07,5.66371059176972e-07,-2.4992590794987576e-07,1.5872809833228472e-06
-3.6315426205724934e-07,5.04888848660057e-07,-7.916011724617728e-07,4.825778423571249e-07,-5.683362518087725e-08,1.4251718303449127e-07,3.7510756316382467e-07,-1.370458960225411e-06,1.7587538229973895e-07,-5.224810809603609e-08,1.0177709269463103e-06,6.951915219017915e-07,1.2660079584651826e-06,1.1273406846659326e-06,4.6688200864967553e-07,4.836333692388783e-07,-1.3560068319324862e-07,1.583425040886362e-06
-3.0504581189401415e-07,5.543610291063294e-07,-7.311404312959961e-07,4.976968736197947e-07,-7.677337031159951e-08,-1.3612931130361851e-07,5.088451588514138e-07,-1.2397004602595497e-06,2.652122381943439e-07,4.723743090572194e-08,1.0476766891911721e-06,8.580461012649636e-07,1.1189789125499933e-06,1.057748635779781e-06,5.197573039022184e-07,3.409166868355494e-07,2.7043701189804666e-08,1.5808913009847412e-06
-1.7999524186236103e-07,5.955698014835674e-07,-6.696387144727006e-07,5.089376978979546e-07,-7.16949689228524e-08,-3.752290653644337e-07,6.7907759291744e-07,-1.1651468650010602e-06,3.679522314500669e-07,2.4323568276771033e-07,1.1045949806684204e-06,9.763273593313382e-07,9.965807624699824e-07,9.451512322268667e-07,6.024043085641605e-07,8.896436579656898e-08,1.4362846671685342e-07,1.5385814882804083e-06
-1.0087704794216091e-07,6.204405537694956e-07,-6.127463731296766e-07,5.155412353981521e-07,-7.504485800827192e-08,-4.831480950451712e-07,7.454645163339948e-07,-1.1320153813774778e-06,4.704930143588206e-07,3.5935827957429666e-07,1.1593062614520278e-06,1.0770351098947832e-06,8.715495469661803e-07,8.504908542444721e-07,7.142021653247328e-07,-1.3489898276815542e-07,2.3561960281384045e-07,1.4606807368635088e-06
-4.8205967281356354e-08,6.227471261169759e-07,-5.674652065884359e-07,5.165832064067669e-07,-1.0792535087756712e-07,-4.021839217232723e-07,8.52640958391608e-07,-1.1057753210529732e-06,5.64125106131057e-07,4.4367501739960134e-07,1.2035082644815246e-06,1.169697422429047e-06,7.541088414451589e-07,7.91353075069521e-07,7.911661064896031e-07,-2.631538888830979e-07,3.104380861142729e-07,1.3573927640250037e-06
2.0477047480141702e-08,6.013789676990375e-07,-5.421448558287066e-07,5.133821016880395e-07,-1.679390836766562e-07,-1.1865081504867836e-07,1.0022758034569151e-06,-1.0528814713418777e-06,6.555750933625431e-07,4.97189683053253e-07,1.2579584505732494e-06,1.2207041465464875e-06,6.26145810872479e-07,7.263295601921556e-07,7.968742972420284e-07,-3.7999414038542856e-07,3.4041800701073593e-07,1.234392813425608e-06
7.219405314186462e-08,5.585107185133851e-07,-5.442882181404376e-07,5.081429146083098e-07,-2.3488461934934907e-07,3.164514789413825e-07,1.0619150698439445e-06,-9.593542315782988e-07,7.304318649442013e-07,5.715456413765893e-07,1.1785680152752465e-06,1.286712770307541e-06,4.767558617763941e-07,6.847084133759544e-07,7.302893108825635e-07,-4.903304702946365e-07,4.836662705348946e-07,1.1382524058920832e-06
1.6535106142018368e-07,4.99971158665823e-07,-5.762026217769333e-07,5.004270491922804e-07,-2.715442524071091e-07,8.076093977357943e-07,1.1801421529357871e-06,-8.331757808287098e-07,7.865243874718254e-07,6.726100897868937e-07,9.667303812169844e-07,1.4164920133989657e-06,3.3813314490411423e-07,6.298565242318906e-07,6.263252777192123e-07,-6.792694129581443e-07,6.41111735229943e-07,1.090506003577261e-06
3.083148413818034e-07,4.3290935904700073e-07,-6.319568452132448e-07,4.905950247223924e-07,-2.7133291762743534e-07,1.2152144596529945e-06,1.286574990722239e-06,-6.947231572336797e-07,9.044894401133489e-07,7.429708763264085e-07,7.663367167594709e-07,1.5420480761770406e-06,2.2231621557020757e-07,5.719785588821217e-07,5.252880709706591e-07,-8.083322569963485e-07,7.306586649951683e-07,1.0920089935405076e-06
4.275333345674183e-07,3.648788182014808e-07,-6.989539406744529e-07,4.779225355754163e-07,-2.4948869887280306e-07,1.4519235664066063e-06,1.4113540808933775e-06,-5.63363593711746e-07,1.023008778897918e-06,7.787814151106283e-07,5.757364160403735e-07,1.6554091504041404e-06,8.773348774245281e-08,5.236614187964528e-07,4.2524448659908966e-07,-9.088789242322795e-07,8.215621954596055e-07,1.090239212771412e-06
5.140943290879132e-07,3.0222783365820516e-07,-7.640080141843389e-07,4.606283173752977e-07,-2.2615618695128485e-07,1.448791027147183e-06,1.534719787506051e-06,-4.478293022607801e-07,1.1105178286693488e-06,8.089743986136259e-07,3.797229191662924e-07,1.767055007563047e-06,-1.229459471917666e-08,4.198501150701682e-07,3.353191322134517e-07,-9.407715567125536e-07,9.470647877282389e-07,1.0877867241445764e-06
6.191254002849482e-07,2.4733862998128073e-07,-8.197328284351288e-07,4.3797442963393605e-07,-2.1874180323536149e-07,1.4646268647717217e-06,1.6259639109622565e-06,-3.4593652643895586e-07,1.200251083005531e-06,8.162797304022267e-07,2.2229203805847428e-07,1.86890878146083e-06,-1.0765987303188768e-07,3.3916295674651084e-07,2.72087712055571e-07,-9.501239304791446e-07,1.0704410334175127e-06,1.119346345232359e-06
6.703331973729698e-07,1.9894702972179895e-07,-8.667365600094544e-07,4.107998337932712e-07,-2.2386390084115476e-07,1.4569288840946972e-06,1.695177213003566e-06,-2.5118702669827414e-07,1.2659349933638153e-06,8.144913299766222e-07,1.0554768548234911e-07,1.940195822804679e-06,-1.7337332502296435e-07,2.8551760155755664e-07,2.730496258742225e-07,-9.612540200342058e-07,1.2166353698910365e-06,1.2026468060863947e-06
7.38389785351587e-07,1.5238012955760442e-07,-9.106283286535257e-07,3.797786380920823e-07,-2.212194750301259e-07,1.2994070462627508e-06,1.7801774295955343e-06,-1.6055467925418604e-07,1.3065859384714091e-06,8.634332339513833e-07,-1.1031413764247021e-08,2.0636395252111735e-06,-2.0723507423260273e-07,2.46665245289901e-07,3.154446449417428e-07,-1.0065016253908586e-06,1.353712495877763e-06,1.3329625201825682e-06
8.570150371048424e-07,1.0259310372228194e-07,-9.563240653889338e-07,3.474006898714676e-07,-1.9180053233463183e-07,1.07723416041158e-06,1.8906692579101093e-06,-7.85929273091939e-08,1.3894691416733586e-06,9.054204170028903e-07,-1.2188641931574087e-07,2.15637745940241e-06,-2.530459744502815e-07,2.32553987185776e-07,3.895637248449564e-07,-1.0895942699809514e-06,1.4449318823523756e-06,1.4350831869704556e-06
9.150863254249385e-07,4.6372817044219897e-08,-1.0040670511109756e-06,3.185851997196845e-07,-1.350484881680686e-07,9.404281024806904e-07,1.992847759564242e-06,-1.6492724920862277e-08,1.4473471048342807e-06,9.128695959016671e-07,-1.950041100814324e-07,2.2325801330167415e-06,-2.8338218592928596e-07,2.4028469492326794e-07,4.823210513726757e-07,-1.0922280062200694e-06,1.5140876131355684e-06,1.518836372861424e-06
9.447514480769346e-07,-1.6583225721721417e-08,-1.049002245992696e-06,2.970410322536028e-07,-6.714071233846552e-08,8.125413606292589e-07,2.064462080192145e-06,1.4576919824057969e-08,1.4681735550724832e-06,8.95956840493891e-07,-2.919181894671241e-07,2.2538566846711835e-06,-3.053798862624677e-07,2.4685099029273195e-07,5.760670661627872e-07,-1.0612274577054595e-06,1.5464458953009793e-06,1.5807110213654384e-06
9.627346286355228e-07,-8.445399557088346e-08,-1.083545156301184e-06,2.8634451259705406e-07,-1.4819721566943203e-08,7.655623452815515e-07,2.144460835105893e-06,1.0296432379495795e-08,1.4654167691800099e-06,8.435136818026633e-07,-3.9444420965847944e-07,2.265213978695546e-06,-3.1334242911302055e-07,2.2602652402295312e-07,6.992176179719512e-07,-1.0040171596476216e-06,1.516168414534495e-06,1.6349295043167464e-06
9.334102246711437e-07,-1.5427994737606192e-07,-1.1012341797115815e-06,2.881850228422733e-07,9.999727357819195e-11,8.149137520480859e-07,2.165031214098169e-06,-2.3074452311180076e-08,1.4526454286022793e-06,7.757082792654763e-07,-4.922424277080369e-07,2.2706035378870548e-06,-3.1636225133573593e-07,2.2306480908551567e-07,8.287993842311907e-07,-9.081381198733937e-07,1.467473220957077e-06,1.682969946910516e-06
9.130235970795219e-07,-2.2234561598537074e-07,-1.0989912007424615e-06,3.0186545807035925e-07,-3.2340935033877547e-08,9.36562508437199e-07,2.1177732154631197e-06,-7.016563746367993e-08,1.4229461800470037e-06,6.908140953703183e-07,-5.9761072689995e-07,2.2738051785264273e-06,-2.849130017525526e-07,2.1990193914390036e-07,9.671191330401967e-07,-8.167354656616577e-07,1.4355456564563823e-06,1.7232067560138937e-06
9.252188944085782e-07,-2.735300000494038e-07,-1.0781706998958494e-06,3.2582833456833184e-07,-9.115423032943383e-08,1.130041207152915e-06,2.0940057273600177e-06,-1.1208194770687638e-07,1.400936320333332e-06,5.952115811310606e-07,-6.697058078063283e-07,2.334056050996502e-06,-2.745112986655286e-07,2.065166968022293e-07,1.1210472801189456e-06,-7.102031933072063e-07,1.414348195923295e-06,1.7659599495053028e-06
9.344369459425641e-07,-3.0668467767643116e-07,-1.0422000328275356e-06,3.561799725300031e-07,-1.402724026515206e-07,1.3397350739974096e-06,2.0403443366024277e-06,-1.3250020390939744e-07,1.3849650834148595e-06,5.253454666407838e-07,-7.392849191941043e-07,2.4024628099345327e-06,-2.305552940206335e-07,2.0812473481122474e-07,1.2709534175623343e-06,-6.118861371679257e-07,1.37588247442085e-06,1.8121950768671306e-06
9.470249772902471e-07,-3.214779009637001e-07,-9.95808226466017e-07,3.9010695946326484e-07,-1.4237011400011997e-07,1.5318350368295302e-06,1.969321365238079e-06,-1.2087382416576244e-07,1.3950761520663082e-06,4.6855521846478426e-07,-8.054371908362495e-07,2.4559960914392092e-06,-1.266450690309763e-07,2.1325609037716683e-07,1.4126040416335506e-06,-4.880027841628123e-07,1.3456982865888035e-06,1.8663353061201872e-06
9.526358493580596e-07,-3.252492531914681e-07,-9.445948139861715e-07,4.2584644356529256e-07,-9.391622228982211e-08,1.6891667714487182e-06,1.927474517828243e-06,-7.341729618211921e-08,1.4225662377462385e-06,4.2902572252988805e-07,-8.794485663552105e-07,2.494178513267862e-06,-3.862016687816038e-08,2.406798951523001e-07,1.548249245138474e-06,-3.481693023583731e-07,1.3138239695552873e-06,1.926746643764097e-06
9.494419663477942e-07,-3.1767165877764723e-07,-8.939568998933146e-07,4.6102451944961654e-07,7.831625501280878e-09,1.7870969576748583e-06,1.8892497603025508e-06,5.912003585871386e-09,1.4539013830194055e-06,3.9524852965122054e-07,-9.34367650761114e-07,2.525048641435264e-06,7.995667244908864e-08,2.728637148663661e-07,1.6729489635923072e-06,-1.886999147745303e-07,1.3129283262926761e-06,1.994188087730421e-06
9.420716689845193e-07,-2.9631045968549133e-07,-8.4801457173546e-07,4.947505375186359e-07,1.2805808301345044e-07,1.7999450766306202e-06,1.8376322274646561e-06,1.0368279877666951e-07,1.4795001017180085e-06,3.6816011162525057e-07,-9.637217172288775e-07,2.5571467133453294e-06,2.166783358814884e-07,3.4701298819985946e-07,1.7830618652703301e-06,-2.8142342955353702e-09,1.3469450335062775e-06,2.0649620559459264e-06
9.625109979341188e-07,-2.6224938082824775e-07,-8.075031936371869e-07,5.269522875211936e-07,2.1693566276948642e-07,1.699312187549296e-06,1.8125798518454584e-06,1.9931193518434288e-07,1.486351726137099e-06,3.60039895067873e-07,-9.220283349455561e-07,2.6097068947985547e-06,3.459160330934891e-07,4.569811669234076e-07,1.8642705523806447e-06,1.6926999233995043e-07,1.3973775973487441e-06,2.1418828638857804e-06
9.854355561707273e-07,-2.1282423117658076e-07,-7.688325227460608e-07,5.574011629563235e-07,2.407826950613145e-07,1.4580882567266732e-06,1.7916242228642056e-06,2.7544051330869787e-07,1.4928119224410011e-06,3.639281408719521e-07,-8.479478399515739e-07,2.6675579035129428e-06,4.8648640773385e-07,5.76955771191556e-07,1.9194897869428582e-06,3.516134944640437e-07,1.4646591550014187e-06,2.2246688832919616e-06
1.0046348689002316e-06,-1.6996459522893147e-07,-7.243689255319949e-07,5.878127265410916e-07,1.8325890936574832e-07,1.0796403631052538e-06,1.748263401023567e-06,3.2920497798440736e-07,1.4834838067478953e-06,3.836301670362517e-07,-7.946118986090838e-07,2.7120427316697622e-06,6.372392725985264e-07,7.137562787580076e-07,1.948776097046631e-06,5.223990751187792e-07,1.5398122462349062e-06,2.309940321810102e-06
1.0440651134670032e-06,-1.252290490424693e-07,-6.642624143466218e-07,6.220803185340064e-07,6.990931715071255e-08,6.122085368686552e-07,1.6934164265488e-06,3.7297086274841855e-07,1.4633773992514929e-06,4.2262335414473257e-07,-6.747971072050831e-07,2.7487726437757494e-06,7.694627393756468e-07,8.445332645409637e-07,1.9752782586841537e-06,6.613725358753856e-07,1.6311386924077e-06,2.3748637751120268e-06
1.0880031451103962e-06,-6.863786917969154e-08,-5.790231917730403e-07,6.590621087825593e-07,-4.873577536260498e-08,1.353369273292267e-07,1.612944587170329e-06,4.2155822205400325e-07,1.4429009121391033e-06,4.792731732753425e-07,-6.008988210807651e-07,2.771949325533453e-06,8.666034267973846e-07,9.692306813176064e-07,2.0052199820518225e-06,7.516792956192495e-07,1.737284280466869e-06,2.430008622758243e-06
1.144815862329216e-06,2.238631275926222e-08,-4.6300839171363415e-07,6.970224275213615e-07,-1.1838555686396716e-07,-2.565918324379781e-07,1.5120278940669152e-06,4.756724803490669e-07,1.4231857926475015e-06,5.809919086275507e-07,-5.968621113912892e-07,2.77063756801993e-06,9.352881184222889e-07,1.0574097344310413e-06,2.034690895837777e-06,7.869651663958947e-07,1.857317332125888e-06,2.433183202710543e-06
1.2195054953965123e-06,1.4291926038822673e-07,-3.176631047981808e-07,7.247584687098006e-07,-1.0933031902715263e-07,-4.881477055637017e-07,1.413814827181135e-06,5.205886350610391e-07,1.4147758064568488e-06,7.293639619639822e-07,-6.328284976710153e-07,2.7398107966239408e-06,9.516778137589618e-07,1.0907572846265035e-06,2.069351408323177e-06,7.558331832533831e-07,1.9806582548623875e-06,2.3873552113361053e-06
1.3015380914162474e-06,2.7378029487469415e-07,-1.5255578050053154e-07,7.179148446227181e-07,-1.880151172292781e-08,-5.180056285516963e-07,1.3450160361880747e-06,5.387285279029912e-07,1.420493152650018e-06,9.042560342364203e-07,-6.753917994411103e-07,2.6756995471833257e-06,9.369466514550399e-07,1.0859841342683757e-06,2.102625187072704e-06,6.738795034866111e-07,2.1037114280681627e-06,2.3603726795457272e-06
1.3753684417509095e-06,3.988981546008249e-07,1.6309470007840006e-08,6.66466933117245e-07,1.3167665203819415e-07,-3.534567676321141e-07,1.3149872801528451e-06,5.279499113401086e-07,1.4392679632510365e-06,1.0459445634703447e-06,-6.906720883175486e-07,2.568820138083907e-06,8.991445500493944e-07,1.0769174928095866e-06,2.1426763343394626e-06,6.096030750465105e-07,2.2174808807030408e-06,2.358542447324062e-06
1.4359993133495777e-06,4.636978197566944e-07,1.7046561938214702e-07,6.0807884551708e-07,3.3456027932316515e-07,-3.447608221188667e-08,1.3337668607860734e-06,5.109457829626802e-07,1.4638333151810382e-06,1.1078489122689848e-06,-5.998147257828339e-07,2.427859502027351e-06,8.466996459889669e-07,1.0730771273076073e-06,2.18008005957587e-06,5.21508460171469e-07,2.3123656795745647e-06,2.3104271491288664e-06
1.4736352332376543e-06,5.032267878844665e-07,2.9470674857923695e-07,5.546956089295853e-07,5.441292242147694e-07,3.709858825303938e-07,1.3908294070218923e-06,5.240207763874453e-07,1.4935650131367238e-06,1.1398960744181794e-06,-4.125176224393154e-07,2.264732817860059e-06,8.253492006047641e-07,1.0811619599397488e-06,2.204552539309648e-06,4.4548205459263256e-07,2.378189424924885e-06,2.2455220482850074e-06
1.4870113030308713e-06,5.507515670212341e-07,3.8179720334380883e-07,5.118645170247864e-07,7.173955704640471e-07,7.548590418365744e-07,1.4604762630561022e-06,5.930474788335664e-07,1.5232761655841717e-06,1.1601130098230467e-06,-2.9092500050175277e-07,2.0957536684662687e-06,8.260386626928139e-07,1.0959015503005481e-06,2.200880148086304e-06,3.964043007837186e-07,2.365222530298058e-06,2.16306697739053e-06
1.4798976377139287e-06,6.048497105684777e-07,4.3453046368366295e-07,4.689807012432911e-07,8.26666140052323e-07,1.0780632230208497e-06,1.5212709435124773e-06,7.143018266096503e-07,1.5439191016581369e-06,1.2608541677570869e-06,-1.7086859749291276e-07,1.943798315667361e-06,8.221159929540759e-07,1.1176491328620384e-06,2.1331980732992574e-06,3.508693581728942e-07,2.358998244851028e-06,2.0710795075588235e-06
1.4582579633414103e-06,5.853591000290511e-07,4.627734254595586e-07,4.4518017090758363e-07,8.663397316579875e-07,1.2144814089974062e-06,1.5520438350292044e-06,8.550165027338196e-07,1.5523786789494656e-06,1.2970980949661617e-06,-2.086365472968517e-09,1.8189181815029477e-06,8.34052479928771e-07,1.1300873146617146e-06,2.027736122130959e-06,3.084468028435615e-07,2.336752215874189e-06,1.9821802865026185e-06
1.432654786341134e-06,5.512662251910834e-07,4.798908678554342e-07,4.366313290380298e-07,8.372979691810806e-07,1.2311610104057974e-06,1.5510374818887082e-06,9.726854980006852e-07,1.5456441179987255e-06,1.2596523779348706e-06,1.6339701820063222e-07,1.7389739830185496e-06,8.53949591501672e-07,1.1344898385068733e-06,1.9722663423609557e-06,2.61406485435986e-07,2.2849641863225896e-06,1.9230851743065023e-06
1.4107416059004078e-06,5.535369535316775e-07,4.963426301852415e-07,4.3783408098086037e-07,7.615897328367461e-07,1.2727859942702354e-06,1.5301956292899956e-06,1.0356223775905434e-06,1.5240809715946138e-06,1.2167181014254389e-06,3.0017294197280336e-07,1.6759828628424749e-06,8.683140883562618e-07,1.1363768039192485e-06,1.8180389430987693e-06,1.927278277652098e-07,2.185425780048718e-06,1.9008426003715625e-06
1.3974380014950226e-06,5.899672130209095e-07,5.170241520440316e-07,4.3728741689574615e-07,6.748952093343948e-07,1.2933656148214294e-06,1.5032100300814357e-06,1.0308683744380878e-06,1.4917868278236754e-06,1.160390281510993e-06,3.21254755697888e-07,1.6389018600360547e-06,8.82195117458312e-07,1.1228237687439286e-06,1.6540258110043822e-06,6.808109513540156e-08,2.0970836058277544e-06,1.908442544298095e-06
1.3914666481728238e-06,6.52511956485676e-07,5.410071703816296e-07,4.4069032044800304e-07,5.972122425744868e-07,1.0242637504423948e-06,1.4785456920893265e-06,9.632539963247217e-07,1.4540948487153404e-06,1.1381183525294234e-06,3.364609955211077e-07,1.6136774791992006e-06,8.874992505741703e-07,1.0970625806311734e-06,1.5283853951398817e-06,-5.728435385827176e-08,2.029091426429371e-06,1.9378869577827013e-06
1.3900263062676914e-06,7.231121134911587e-07,5.618649291238097e-07,4.273302135724258e-07,5.580223842463085e-07,6.237985342436078e-07,1.4548936596927364e-06,8.538576684176917e-07,1.417480013237667e-06,1.1301124572272953e-06,4.0148270303143845e-07,1.5922866636161235e-06,8.768473393553055e-07,1.0651294934735278e-06,1.4458039654547196e-06,-1.7187446120945388e-07,1.973958572517921e-06,1.9662148035799003e-06
1.384467404105485e-06,7.837541508615436e-07,5.720027718460273e-07,4.098357215230661e-07,5.70617199808332e-07,2.7693029980989813e-07,1.4271582441577559e-06,7.369095522485059e-07,1.3876594567496718e-06,1.110080472616236e-06,3.9229579950116715e-07,1.5662643775751222e-06,8.58002670539842e-07,1.038232894999557e-06,1.383057703614842e-06,-2.3359892028038143e-07,1.935217848126076e-06,1.9886409712270044e-06
1.369653456985014e-06,8.208866845301589e-07,5.672760394745423e-07,3.9597186650293493e-07,6.206360625784401e-07,1.0242711327587107e-07,1.3905923043272877e-06,6.51320343797845e-07,1.367787768194065e-06,1.0833746754080956e-06,4.0667420002891455e-07,1.5310217864743601e-06,8.443194859100765e-07,1.0193090040130974e-06,1.3464053410616938e-06,-2.933949007066771e-07,1.9105345043835094e-06,2.0018368943252605e-06
1.3447974122117512e-06,8.31181501524018e-07,5.514871693994812e-07,3.919192123729009e-07,6.692184852632049e-07,-8.230192760686876e-08,1.3473316584063573e-06,6.275746772735928e-07,1.3572651110237359e-06,1.0333582853407913e-06,4.0895093837527703e-07,1.490319847833685e-06,8.360466945800866e-07,1.004555943648668e-06,1.3347502176105721e-06,-2.6366862563975596e-07,1.8938911486065593e-06,2.000853993024194e-06
1.312366284248259e-06,8.176778175238931e-07,5.320548413601234e-07,4.050607974810504e-07,6.719206222760271e-07,-2.460050082095206e-07,1.3030466980724955e-06,6.757697956284285e-07,1.3536557203504774e-06,9.807785193499765e-07,3.989325117824524e-07,1.4532386901389457e-06,8.332552480176643e-07,9.941219023392869e-07,1.3266994139382906e-06,-2.1786822802817518e-07,1.8775378463406365e-06,1.988103259009398e-06
1.2805451046980665e-06,7.908103542047249e-07,5.183915703486688e-07,4.295513356389383e-07,6.0138672747019e-07,-3.151619151227287e-07,1.2612355078251404e-06,7.80532801390506e-07,1.3546699121879907e-06,9.432662353321123e-07,4.374830674059606e-07,1.426794177399727e-06,8.342409352559395e-07,9.789349487817665e-07,1.3109879171469989e-06,-1.7217169119982463e-07,1.8567693809336413e-06,1.9660273906715823e-06
1.255805220249401e-06,7.663104362163249e-07,5.175602889776207e-07,4.6345440755892706e-07,4.6548699989120104e-07,-1.6598542205023714e-07,1.2228444265697258e-06,9.114141707473476e-07,1.3585932723693086e-06,9.327471870204047e-07,5.164348320831111e-07,1.4164318801856731e-06,8.33751345857609e-07,9.61992871562068e-07,1.2639367543703097e-06,-1.4617244437696975e-07,1.8258917848604436e-06,1.9414758761339313e-06
1.2413305926327072e-06,7.578855097037792e-07,5.299574195034768e-07,5.18543839441996e-07,2.918215495238464e-07,9.945853858325017e-08,1.1843185263848989e-06,1.0389967389315922e-06,1.3641047116302163e-06,9.539914907717094e-07,6.436833613317983e-07,1.4226529694365906e-06,8.336884529177808e-07,9.46271888230012e-07,1.1554867193320056e-06,-1.681177490323983e-07,1.7815484765876553e-06,1.9222479992421897e-06
1.2351353024042344e-06,7.755605519285532e-07,5.506459825194003e-07,5.883581289048284e-07,1.3947532612431835e-07,3.8857359496907886e-07,1.1424009981413686e-06,1.1443752072164258e-06,1.3700191467163163e-06,9.97452641302272e-07,8.095814769486952e-07,1.441317402601787e-06,8.319055932976857e-07,9.233411077629123e-07,1.0196683090638547e-06,-2.0896291652127602e-07,1.722561862196012e-06,1.916914922043884e-06
1.2310398909426776e-06,8.238689584626146e-07,5.702124024833844e-07,6.637640237208415e-07,5.499860574426903e-08,6.72721323730894e-07,1.0960653096256929e-06,1.2184425021177825e-06,1.3760665138491198e-06,1.0280910174552955e-06,9.926342564722535e-07,1.4664455228974676e-06,8.661309262910106e-07,8.975325082208942e-07,8.819303145033461e-07,-2.5405297633846295e-07,1.6471432588985972e-06,1.932167842113158e-06
1.219967769920709e-06,8.978012017896439e-07,5.771489577619303e-07,7.715791784310572e-07,4.691440366959286e-08,9.545099187336708e-07,1.050028074944757e-06,1.2541398365593673e-06,1.3839957052239256e-06,1.0107732537652318e-06,1.1244836209169645e-06,1.4902726299202963e-06,9.74650007104975e-07,8.662338068755368e-07,7.65729862420104e-07,-2.3115915420083041e-07,1.5537415769998933e-06,1.9653273198560997e-06
1.1916639211566004e-06,9.83133135388537e-07,5.604454591601841e-07,8.650262023838876e-07,9.265512595626137e-08,1.164499534475644e-06,1.0176645521282801e-06,1.2436559038811303e-06,1.3978348195008084e-06,9.430343069170612e-07,1.0978833983331656e-06,1.5037182667313753e-06,1.1313779115987791e-06,8.535201569964947e-07,7.219618866724464e-07,-1.4437862282050377e-07,1.440862722931607e-06,2.0081187979934347e-06
1.138732226322696e-06,1.0680100159475323e-06,5.12632857901364e-07,9.574158022443742e-07,1.569377958292494e-07,1.3102184531229495e-06,1.0173490332695577e-06,1.17858615649318e-06,1.4226182550709498e-06,8.623293282502396e-07,1.0047702480687526e-06,1.5031178046550259e-06,1.2497190982300896e-06,8.720520717057431e-07,7.426011502646112e-07,-6.250088129921857e-08,1.3080162824576142e-06,2.026890425744029e-06
1.0591215914554846e-06,1.13252484017128e-06,4.319616643096674e-07,1.0530643220440987e-06,2.146171905747592e-07,1.4156997580679846e-06,1.0669283071087916e-06,1.0553297338704452e-06,1.46185855984687e-06,8.078798911408984e-07,9.059492988743984e-07,1.4897573731860874e-06,1.3520860233653246e-06,9.095360841067722e-07,7.541460727727773e-07,-3.907397305894111e-09,1.1569017405166383e-06,1.9833684576931853e-06
9.581455575258401e-07,1.121680078359077e-06,3.232584671487452e-07,1.134824970810854e-06,2.4670571469772484e-07,1.479534184067057e-06,1.178196170459187e-06,8.828567316337865e-07,1.5153451337537321e-06,7.529002761641948e-07,8.6743196711535e-07,1.4640015501954488e-06,1.4325955482965835e-06,9.6506889962053e-07,7.541508252080095e-07,6.561436804205241e-08,9.9348882037618e-07,1.9097298737153786e-06
8.479935829003448e-07,1.1339934388895783e-06,1.98481012278501e-07,1.2133174000662468e-06,2.587670166208873e-07,1.512303676425812e-06,1.3499308388465381e-06,6.903959985236569e-07,1.5787920925771104e-06,5.529687397357441e-07,7.183623124106406e-07,1.434050168913066e-06,1.6152679726800458e-06,9.931713179828732e-07,7.513975642776577e-07,1.389610221822019e-07,8.273958421657432e-07,1.8273949008425075e-06
7.439359842335592e-07,1.137889925668755e-06,7.52423689411091e-08,1.2926719344878914e-06,2.689474710762353e-07,1.498616128757365e-06,1.5624564674312901e-06,5.253804321301667e-07,1.645359967075526e-06,3.4758726333833665e-07,4.836700182102689e-07,1.4075560476616255e-06,1.7996582240002437e-06,1.0670821490437332e-06,7.958487646935554e-07,2.527365946831698e-07,6.70622056325962e-07,1.7693203504522411e-06
6.613749909995124e-07,1.066890683384779e-06,-2.826702447700743e-08,1.395944081733853e-06,3.067749684349008e-07,1.4399970666839295e-06,1.783903458650994e-06,4.3810788604328074e-07,1.7078798297309348e-06,2.006614655040294e-07,2.78817005377121e-07,1.3919657144978503e-06,1.933635830655963e-06,1.1541878414316856e-06,8.931022427149575e-07,3.938111782706946e-07,5.352961341334047e-07,1.698775512866794e-06
6.095351661639238e-07,9.68379341819899e-07,-1.0058474060873262e-07,1.5257921007419094e-06,4.0067264797805996e-07,1.3654366377423434e-06,1.978161424268186e-06,4.587232919206032e-07,1.760792038945071e-06,8.508912487493059e-08,7.506033901391638e-08,1.3950205107866262e-06,2.0594732740463918e-06,1.2112365989011456e-06,9.82127349044287e-07,5.176706950740067e-07,4.3007358612236706e-07,1.6021422810089737e-06
5.88165166575013e-07,8.850104564722517e-07,-1.419759130786071e-07,1.6380651110124177e-06,5.725986105906537e-07,1.3127327079165044e-06,2.1187646676748724e-06,5.784032492470236e-07,1.8015258224338908e-06,-2.975555336997524e-09,-1.1731056947525286e-07,1.4192014296770363e-06,2.159886582339585e-06,1.2649821213724235e-06,1.0625603288561327e-06,6.166035379419948e-07,3.589940222498461e-07,1.5123953033025489e-06
5.89224729811456e-07,8.21681984898842e-07,-1.621192625574508e-07,1.7279428926102027e-06,8.226616148194552e-07,1.311072041703903e-06,2.1976344612200383e-06,7.672280823735729e-07,1.8309587277738421e-06,-8.637588358607703e-08,-2.496724121060395e-07,1.4627745319603704e-06,2.285636042547576e-06,1.2968916517889724e-06,1.1615815990922252e-06,7.712091835044154e-07,3.213822950928162e-07,1.4656288648862208e-06
5.996835072768872e-07,7.773663012585037e-07,-1.750853151699783e-07,1.8112246480888632e-06,1.128866749299167e-06,1.3652948896050541e-06,2.2219021674169018e-06,9.783546995999082e-07,1.8523982038272655e-06,-3.761038330250939e-08,-3.6045646072699664e-07,1.5173702125800738e-06,2.2963278758764804e-06,1.3144828283726924e-06,1.1553221947491202e-06,9.373393823834277e-07,3.120512505240356e-07,1.4574700530182397e-06
6.075923784468594e-07,7.546772183582927e-07,-1.926500175396938e-07,1.8955213941474576e-06,1.4573211286448034e-06,1.4590368700465894e-06,2.209916841530807e-06,1.159893845717722e-06,1.869524977664538e-06,3.609479095229533e-08,-4.5314269620542564e-07,1.5775459888040476e-06,2.2667703044730945e-06,1.323744677276518e-06,1.1265944971341753e-06,1.0342778722637358e-06,3.245183801370694e-07,1.4545710800640341e-06
6.06901447459395e-07,7.521129048858196e-07,-2.1894726174427774e-07,1.984433891840638e-06,1.7585630983982967e-06,1.5683907942314453e-06,2.1838218144716524e-06,1.276435913458307e-06,1.884692191490803e-06,6.475082497772157e-08,-5.353881438634032e-07,1.6397359817072993e-06,2.2663121444933393e-06,1.3255109896659784e-06,1.1229102698814351e-06,1.0979443044080203e-06,3.5196595142871585e-07,1.4395490935474285e-06
5.98281249550219e-07,7.6779999290519e-07,-2.514166172468947e-07,2.076141570968194e-06,1.9883510058880966e-06,1.6752664280623696e-06,2.1668811936940798e-06,1.3214286485832473e-06,1.8984685313969582e-06,9.300288779624526e-08,-6.291911070314559e-07,1.6993074559964907e-06,2.2774745431568844e-06,1.330582665409846e-06,1.1376195075999476e-06,1.085390424611784e-06,3.8806492263670276e-07,1.432915302113866e-06
5.885481043692214e-07,7.994807160072379e-07,-2.7944284382254693e-07,2.154691637659538e-06,2.1119356859511195e-06,1.7678656263020126e-06,2.172099681845039e-06,1.3200085335209363e-06,1.9103374586127846e-06,1.2991915645581992e-07,-7.141187001741048e-07,1.7526078035610255e-06,2.2826202269441066e-06,1.3477519782538557e-06,1.180165675105499e-06,1.0906005702115475e-06,4.284572934878647e-07,1.4283630332266504e-06
5.873207920398382e-07,8.433261355200284e-07,-2.911664702446955e-07,2.2112450133866843e-06,2.1106361833692905e-06,1.8384726728316875e-06,2.2011983925039082e-06,1.3175938251807332e-06,1.919855228778479e-06,1.741955490519443e-07,-7.768545882641851e-07,1.7983681413162435e-06,2.2792606377032785e-06,1.3730230810589255e-06,1.2524510079991598e-06,1.0977568133470673e-06,4.6951388696152156e-07,1.466317089696804e-06
6.031944686082074e-07,8.935431988235208e-07,-2.7671329159364936e-07,2.2574559368308947e-06,1.984422923621014e-06,1.8821813230111195e-06,2.2520296934717912e-06,1.3431571751738174e-06,1.9273339492993397e-06,2.3121142028872837e-07,-8.051403594709204e-07,1.8357652937524804e-06,2.2634762985458422e-06,1.3955353300655043e-06,1.342294071458756e-06,1.0943182515886122e-06,5.107186835246216e-07,1.5547114777857467e-06
6.409410839260707e-07,9.432298558961203e-07,-2.3408092676704632e-07,2.3027619639635245e-06,1.752845444051557e-06,1.896280737797718e-06,2.3140511659280984e-06,1.3994115279737009e-06,1.933734680382213e-06,2.9943952912161114e-07,-8.011810827284683e-07,1.8643261611071135e-06,2.2331216935565054e-06,1.417553809443752e-06,1.441746973706346e-06,1.1412906025833554e-06,5.523829509915747e-07,1.6414569789108472e-06
6.99536169120145e-07,9.856918585968034e-07,-1.6834963799268334e-07,2.3341145519458806e-06,1.4523867399087494e-06,1.8851491749911222e-06,2.374342890596914e-06,1.470940289483646e-06,1.9403897007767627e-06,3.739581321801999e-07,-7.754680430442931e-07,1.8831229621052118e-06,2.188528654853019e-06,1.4346396043583029e-06,1.541287981061495e-06,1.2039653665969596e-06,5.949119514606841e-07,1.72418723167506e-06
7.7263369442977e-07,1.0147220404961844e-06,-8.935765720502742e-08,2.3295883412320214e-06,1.1330876122237812e-06,1.864472364509368e-06,2.4240181666948127e-06,1.5365526595203956e-06,1.94904466955512e-06,4.441465118209108e-07,-7.432721922876764e-07,1.890830186439271e-06,2.1364933703993473e-06,1.4479973941569186e-06,1.6405354235421494e-06,1.2698686144241109e-06,6.377512598156904e-07,1.7777255321960428e-06
8.483298328893134e-07,1.0263506858857707e-06,-9.660020933137038e-09,2.3164702213627377e-06,8.50879016667702e-07,1.855952560605668e-06,2.4602348270252958e-06,1.5878610115358229e-06,1.9618325647590525e-06,4.995510008203173e-07,-7.193595363567809e-07,1.883826809505918e-06,2.0865446410618773e-06,1.4595819315826462e-06,1.7295751157718592e-06,1.358326318275402e-06,6.779857615723806e-07,1.8025455458740984e-06
9.160250685507771e-07,1.0186435482898092e-06,5.962122853919768e-08,2.2968907476433147e-06,6.553249372649007e-07,1.872908422273399e-06,2.484819855545036e-06,1.6323220566080394e-06,1.9805132156338997e-06,5.3270181153649e-07,-7.070828748158915e-07,1.862821318934231e-06,2.0440772248762183e-06,1.4676214340270432e-06,1.8042603944560029e-06,1.437062909635559e-06,7.109075101275625e-07,1.8112581328680367e-06
9.683331556203064e-07,9.947031294070626e-07,1.0914294279960616e-07,2.256201564761212e-06,5.851376177325484e-07,1.9164956849430456e-06,2.500522965814144e-06,1.6874527708146807e-06,2.0050688878715766e-06,5.296616346687265e-07,-7.078524548286883e-07,1.8309090680761347e-06,2.012957585592817e-06,1.4699558309073273e-06,1.8545446293696814e-06,1.5142936875056773e-06,7.310586768355303e-07,1.8074594507827814e-06
1.000167621445054e-06,9.609860506850794e-07,1.3377534792281236e-07,2.217245462294152e-06,6.61002542543089e-07,1.9743656489289626e-06,2.5104755523055538e-06,1.7638300525412353e-06,2.033073348148575e-06,5.060144269839081e-07,-7.172753124969724e-07,1.790369629299747e-06,1.998040656489023e-06,1.4658791586266056e-06,1.8800371311448434e-06,1.5859144263988326e-06,7.317151736561679e-07,1.8033487706140466e-06
1.0104945654336751e-06,9.236217848197785e-07,1.324792125165005e-07,2.176068862188229e-06,8.70959188802731e-07,2.0329202373218773e-06,2.5172522433296027e-06,1.8658631931274363e-06,2.059617015473034e-06,4.668620723910229e-07,-7.317604136150916e-07,1.743966425032312e-06,1.9973323138949442e-06,1.455939475866849e-06,1.8871468503493723e-06,1.6365293251707634e-06,7.131643633796362e-07,1.799320180955086e-06
9.981228383280686e-07,8.87650357172365e-07,1.069342975219095e-07,2.1264325965496974e-06,1.1693597820635012e-06,2.084826210072216e-06,2.5237378967260228e-06,1.9882151287442515e-06,2.0796357523896594e-06,4.13075904905225e-07,-7.467824397109977e-07,1.6936337984643227e-06,2.0074090867086292e-06,1.4408801111417959e-06,1.8799315428449241e-06,1.6675730652419875e-06,6.783972786462756e-07,1.7952669122411844e-06
9.684627761182886e-07,8.54961366517579e-07,5.88648751570247e-08,2.075697769220024e-06,1.4889850990448291e-06,2.121443636014481e-06,2.5305687097332085e-06,2.1154186073785487e-06,2.0903452820185855e-06,3.5216375459894145e-07,-7.587823014167966e-07,1.64070708449826e-06,2.0249922996824165e-06,1.4206571314393927e-06,1.8663208719248167e-06,1.6776832405648272e-06,6.304652024393725e-07,1.792252753787098e-06
9.241268457351946e-07,8.24522311158107e-07,-6.58779411994373e-09,2.034238312549852e-06,1.7641017370751221e-06,2.131419371558226e-06,2.533037736385774e-06,2.2236227387080567e-06,2.0920228737279273e-06,2.8707878585686053e-07,-7.688960892585609e-07,1.5840269327388879e-06,2.0466880327573872e-06,1.3977320919072576e-06,1.847284641694813e-06,1.6706290523281364e-06,5.744241623774812e-07,1.7892433199853435e-06
8.684959909345451e-07,7.934964018961322e-07,-8.269719716610032e-08,1.9854926069425172e-06,1.955137332702522e-06,2.105194808654252e-06,2.5226726499261e-06,2.2771208943647006e-06,2.088181461042743e-06,2.2024843951337193e-07,-7.756809861007407e-07,1.5238839504782525e-06,2.064027199583372e-06,1.3663251454266518e-06,1.8263739328445252e-06,1.65270406292203e-06,5.136575523704965e-07,1.7845069343761004e-06
8.080928389533178e-07,7.586966857717081e-07,-1.549691215860722e-07,1.9271297070762817e-06,2.0517271582506843e-06,2.0392918132660657e-06,2.4895980938119315e-06,2.24555385300778e-06,2.0824253676851797e-06,1.5542671926812136e-07,-7.756180169160811e-07,1.4604482794854417e-06,2.0737646194765874e-06,1.3253210524158362e-06,1.8065234638655225e-06,1.635551038552538e-06,4.5083875809260254e-07,1.7761405252941226e-06
7.485941820503341e-07,7.175349220090832e-07,-2.176143652465391e-07,1.879211846681156e-06,2.068093957623715e-06,1.934943891273804e-06,2.4293930458513037e-06,2.1184883782703692e-06,2.0759407435256847e-06,9.996311702527804e-08,-7.719728075103402e-07,1.3982520992755134e-06,2.0685774688952067e-06,1.2767175900899903e-06,1.7890847198295882e-06,1.6134674101315205e-06,3.8882857062927806e-07,1.7629535330433122e-06
6.976267750192872e-07,6.682777997126356e-07,-2.640360611657949e-07,1.827329300417862e-06,2.031029088299003e-06,1.7972661874042958e-06,2.347099009851924e-06,1.914480483425186e-06,2.0674880681822447e-06,5.416602077753816e-08,-7.653931532737184e-07,1.3401921213701333e-06,2.0476532355120066e-06,1.233813732680645e-06,1.7758898299409453e-06,1.584692145878477e-06,3.377259963280764e-07,1.7431231923761982e-06
6.626983277263e-07,6.157838102079854e-07,-2.8995246278070774e-07,1.7770981653204227e-06,1.963613263551833e-06,1.6345871071291415e-06,2.253187862056331e-06,1.6632357662405283e-06,2.0551391924645255e-06,2.2486798499657076e-08,-7.546419266926627e-07,1.2892858079230975e-06,2.016387364429561e-06,1.1996667143679895e-06,1.7607056030215003e-06,1.5520520349997142e-06,2.959562326912471e-07,1.7163988976630526e-06
6.49596651983301e-07,5.657578944748927e-07,-2.9568000149168946e-07,1.7355274097401047e-06,1.8751347994231332e-06,1.461021206988624e-06,2.159920105397643e-06,1.398302935217582e-06,2.038227642891811e-06,9.924398457638234e-09,-7.387199394857605e-07,1.2499729325450227e-06,1.9811849130845775e-06,1.1701113027454866e-06,1.7410123434499957e-06,1.5122015720946499e-06,2.6337345030128536e-07,1.6837131731263433e-06
6.587940514672503e-07,5.23245153042283e-07,-2.826307218075445e-07,1.6980455142551465e-06,1.7622199221660014e-06,1.3009157503643693e-06,2.0762059221047075e-06,1.1463186927248505e-06,2.0179375274443175e-06,1.5842568856645672e-08,-7.1491612494709e-07,1.2212694364906018e-06,1.94773263013764e-06,1.14887743953806e-06,1.71759756051762e-06,1.466927136833743e-06,2.406719482475198e-07,1.6489744621059066e-06
6.863114796400826e-07,4.917330851367942e-07,-2.591072694071737e-07,1.6709264159035052e-06,1.6241258783012722e-06,1.1871459849641693e-06,2.004682228718954e-06,9.239242349426338e-07,1.9965488817148734e-06,3.6405364210450164e-08,-6.818944920440166e-07,1.201337243115923e-06,1.9147710259889873e-06,1.1375120915393745e-06,1.6888856948688424e-06,1.4194272909327705e-06,2.2293853647083612e-07,1.6200800546939244e-06
7.235689070038522e-07,4.7051232542928626e-07,-2.3817974509809383e-07,1.6447801740107198e-06,1.4691875788992096e-06,1.1505090516565602e-06,1.945683892094464e-06,7.273764157539563e-07,1.9756972479699877e-06,6.54222169953706e-08,-6.440265955308064e-07,1.1834534494258786e-06,1.88956788940194e-06,1.1339604912794567e-06,1.6681659045688224e-06,1.3738689381969426e-06,2.0707828676111972e-07,1.601049412925937e-06
7.572044277981999e-07,4.5547822332068976e-07,-2.3664185034429017e-07,1.6141962434843027e-06,1.3167220518536867e-06,1.2064402883105357e-06,1.8999846157825881e-06,5.464022867029532e-07,1.9557059203834705e-06,9.222725810778614e-08,-6.068483213754862e-07,1.1597593622818964e-06,1.891217296575327e-06,1.1393267347090253e-06,1.6498158749828168e-06,1.3371709907644456e-06,1.88812318281298e-07,1.593694004396889e-06
7.746808698868799e-07,4.39612621320306e-07,-2.6467241301303316e-07,1.5807195479682514e-06,1.1904075425449995e-06,1.3377373958573017e-06,1.8656409174857502e-06,3.651804735357289e-07,1.9362400636182506e-06,1.0864555916226112e-07,-5.739558671512536e-07,1.124895603385737e-06,1.9030888214294686e-06,1.1542770314903026e-06,1.6350022289541016e-06,1.3207668140208754e-06,1.6533464555507025e-07,1.597234932159342e-06
7.677492373921537e-07,4.209440372784483e-07,-3.2489385056496566e-07,1.5435638702344083e-06,1.1100015710237233e-06,1.494279410073849e-06,1.8337775221239564e-06,1.7128639517978226e-07,1.917248629429933e-06,1.1187590059594196e-07,-5.48399933456688e-07,1.0791838706104756e-06,1.924082042693867e-06,1.1772179406937166e-06,1.6239867537681447e-06,1.3268889228369653e-06,1.3715850295921935e-07,1.6082867355735006e-06
7.371567901998588e-07,3.94933143088105e-07,-4.065601064734538e-07,1.5066481541074183e-06,1.0852593372197182e-06,1.6096671269456045e-06,1.7903272012360542e-06,1.3569444646511717e-09,1.8993355192992842e-06,1.0538427309483211e-07,-5.281644369251944e-07,1.0293494745632127e-06,1.954851074836914e-06,1.1950292513509108e-06,1.604889619306355e-06,1.3499319510509202e-06,1.0726957398261949e-07,1.6233654591636537e-06
6.947868251925883e-07,3.6182568927139013e-07,-4.880373286186061e-07,1.4718521379951862e-06,1.1103881778624589e-06,1.6261985405947025e-06,1.7235133305614634e-06,-1.2084987371997964e-07,1.88304705325653e-06,9.888748095199327e-08,-5.068302480862707e-07,9.866136367927565e-07,1.978883850737562e-06,1.2039401647247674e-06,1.5808322309479137e-06,1.381428070375981e-06,8.051825563416071e-08,1.6392843822503863e-06
6.573280629239966e-07,3.266077389511246e-07,-5.462022894475471e-07,1.4412718744736059e-06,1.1658141945183271e-06,1.519984862100733e-06,1.633192520797106e-06,-1.7191437783539324e-07,1.8687738210223774e-06,1.0362697811764417e-07,-4.758865177241169e-07,9.609060371152903e-07,1.9904908563372704e-06,1.2201531551289944e-06,1.5472339531266484e-06,1.4090194910745767e-06,6.226829043977589e-08,1.6524205795509545e-06
6.420821256842398e-07,2.9274385006324096e-07,-5.652343421767121e-07,1.416299901105531e-06,1.2229455667695477e-06,1.3123030593821011e-06,1.5350846815401963e-06,-1.4860109400571408e-07,1.8573192598808817e-06,1.271250105359492e-07,-4.318230851513316e-07,9.569615650677458e-07,1.974430331839465e-06,1.23712532643065e-06,1.525324864365366e-06,1.4270652946526206e-06,5.829166032052697e-08,1.6601297198265412e-06
6.581301302865009e-07,2.630073952502169e-07,-5.434355514930701e-07,1.4001295231620522e-06,1.2604284747631352e-06,1.0631795269432797e-06,1.4554463588841106e-06,-4.871130872688807e-08,1.8493980427654848e-06,1.7118280450205182e-07,-3.7351187210586374e-07,9.728536298722126e-07,1.952281808883592e-06,1.2474993619372464e-06,1.5109199734072373e-06,1.4335934915640777e-06,7.258938513360694e-08,1.6609012224260652e-06
7.03749013824852e-07,2.3730305566003942e-07,-4.939321141615038e-07,1.3895378979830767e-06,1.2720471826034205e-06,8.47839128222092e-07,1.4196631799012033e-06,1.1931630964696672e-07,1.8447499483336457e-06,2.315828857548765e-07,-3.056625175309194e-07,1.0065657515347166e-06,1.9182905704335244e-06,1.2708220409162212e-06,1.5020144035797998e-06,1.4282444972994233e-06,1.0692667545009179e-07,1.6506757454592364e-06
7.707813431529747e-07,2.13829842371359e-07,-4.355518293784129e-07,1.3780714445216335e-06,1.2651941257940935e-06,7.362162691632644e-07,1.4440724413149387e-06,3.437591320627898e-07,1.8414813155978218e-06,3.004952447840673e-07,-2.424397745279462e-07,1.0532372744706395e-06,1.877328600959097e-06,1.3016698701272897e-06,1.5033446671134372e-06,1.4155715308905437e-06,1.6201550461556226e-07,1.6337772283684821e-06
8.44099546897312e-07,1.9153273229198717e-07,-3.9054630578826183e-07,1.3697361091797461e-06,1.2463517004805105e-06,7.652530391315617e-07,1.5301296146968396e-06,5.777758955468904e-07,1.8362926780947622e-06,3.688486645443267e-07,-1.9677372611011465e-07,1.1132628543848718e-06,1.8318802450087545e-06,1.3065235868391432e-06,1.5025877412326619e-06,1.3968532090090566e-06,2.3348217654967367e-07,1.6164383556142346e-06
9.078698991174038e-07,1.6972847726259674e-07,-3.7030452076511836e-07,1.3611905514135222e-06,1.2089725005888213e-06,9.335132347326927e-07,1.6626954783485639e-06,7.418569064417699e-07,1.8251777736638433e-06,4.2864500783602084e-07,-1.7859883354363017e-07,1.1813621183969097e-06,1.8096464710873671e-06,1.328966567205166e-06,1.501346153476041e-06,1.3741080658364404e-06,3.1924760454485235e-07,1.6032345837528195e-06
9.477957215008175e-07,1.4817417978618988e-07,-3.862204224661512e-07,1.3491729778087156e-06,1.1397410191161211e-06,1.2014994686004623e-06,1.8149230716703632e-06,8.002089274442762e-07,1.8040301900718043e-06,4.7344100835924635e-07,-1.9053293420639837e-07,1.230258055552063e-06,1.8215559873385313e-06,1.37341929888545e-06,1.5311598001162336e-06,1.3481443031793378e-06,4.1303036643996325e-07,1.593364271668424e-06
9.521083143450941e-07,1.250476922219021e-07,-4.388327038978967e-07,1.3327253648598702e-06,1.0310802243163389e-06,1.506068359939819e-06,1.953090820010935e-06,6.579792082578673e-07,1.7695762320153513e-06,5.004198084275947e-07,-2.2629221769818246e-07,1.257449755029148e-06,1.8999209553758617e-06,1.430684555567613e-06,1.5806085756020224e-06,1.3234631792902986e-06,5.051399845440156e-07,1.589142729291708e-06
9.089248949520777e-07,9.273404263246072e-08,-5.256885388290179e-07,1.3054219226269737e-06,8.900121278136916e-07,1.7852925254116533e-06,2.0471386825635833e-06,4.105051610652656e-07,1.7206652475445928e-06,5.034154419144849e-07,-2.7245880468984163e-07,1.210774020431045e-06,2.0672290363410055e-06,1.5203773068960121e-06,1.6568607409158453e-06,1.3095503620204244e-06,5.857920449378139e-07,1.5856980677606186e-06
8.368174551845393e-07,4.396113783150432e-08,-6.509655974154275e-07,1.268416327060883e-06,7.449822458737964e-07,1.9917165434187624e-06,2.081515807725225e-06,2.345514123684835e-07,1.6589830258411595e-06,4.794206147621616e-07,-3.146520062000948e-07,1.1129708431438474e-06,2.193737823524444e-06,1.5836167245402472e-06,1.834832335152296e-06,1.3194267938570372e-06,6.434406587268884e-07,1.6128505918341435e-06
7.291289105099e-07,-5.042030926765802e-09,-8.089021098394787e-07,1.2235156019729854e-06,6.370287364888528e-07,2.1000045296642073e-06,2.058934646216581e-06,1.885348836224081e-07,1.5880716788369656e-06,4.4110872662593484e-07,-3.445399133417387e-07,1.0403418924581363e-06,2.2648073785340274e-06,1.604875900027767e-06,1.930622857789904e-06,1.3481141311151105e-06,6.715840849865635e-07,1.698154111097843e-06
5.945977365445908e-07,-6.860917180114815e-08,-9.986367926653212e-07,1.1697363056407087e-06,6.060974061316102e-07,2.1040573211409094e-06,1.994041851864844e-06,1.9101094135181528e-07,1.509787620221878e-06,3.8881051476525373e-07,-3.6030814753228035e-07,1.025049526340381e-06,2.3477933287501156e-06,1.6244474626448437e-06,1.971528630436631e-06,1.3997488531909939e-06,6.678324371189681e-07,1.8069498118668315e-06
4.5579201451292343e-07,-2.0231091277883773e-07,-1.1552637182082622e-06,1.10937256251847e-06,6.786372799399082e-07,2.0128858973830073e-06,1.9089557191734125e-06,2.2842541940488672e-07,1.4247133901841026e-06,3.270436041776332e-07,-3.6559710576697745e-07,9.700081550943782e-07,2.376062095903997e-06,1.621640954170575e-06,2.0027174211696945e-06,1.4757333090946883e-06,6.437363752749e-07,1.9290735941526193e-06
3.268584088192495e-07,-3.267506912149681e-07,-1.2466727266347515e-06,1.0478318222811622e-06,8.556756824399866e-07,1.8517550219479777e-06,1.8223915658180027e-06,7.362160640554268e-08,1.33714174724481e-06,2.604073787943823e-07,-3.631627438337801e-07,8.416260040256918e-07,2.4660042541301696e-06,1.6258192977582463e-06,2.042124620051942e-06,1.5671106458058436e-06,6.039861262087691e-07,2.0538827459742432e-06
2.552388174898026e-07,-4.3593773815547896e-07,-1.2440353811810213e-06,9.933154597820257e-07,1.1101258696860396e-06,1.6587219958314568e-06,1.747411193580488e-06,-2.1590448013052436e-07,1.2522897133359681e-06,2.048081015382207e-07,-3.5399897672663337e-07,6.867791919209175e-07,2.5967524257871252e-06,1.612668401945893e-06,2.1646675912894596e-06,1.6704948403286482e-06,5.587898053263694e-07,2.174714727995403e-06
2.64859195040791e-07,-4.99674349586255e-07,-1.2324036749072162e-06,9.544299419619275e-07,1.3979923063633621e-06,1.4855402578289507e-06,1.6908908538511003e-06,-4.2770288931184804e-07,1.1755609163451156e-06,1.765606777308751e-07,-3.275618233685969e-07,6.200869459801448e-07,2.6655902386791712e-06,1.591900060984283e-06,2.3308061642669125e-06,1.7781486905110982e-06,5.17104871074135e-07,2.2801216317183036e-06
2.729586244426783e-07,-5.257326253212155e-07,-1.236996699919651e-06,9.382293039890296e-07,1.6778967092499377e-06,1.383291828486649e-06,1.654162989145387e-06,-5.892490614967591e-07,1.1139563058601101e-06,1.7782421895480644e-07,-2.834638638854473e-07,5.543007813311107e-07,2.6741483227802733e-06,1.5980335894059803e-06,2.3992357927317756e-06,1.879642660075305e-06,4.860433034374481e-07,2.3672551595236208e-06
2.7765371421688027e-07,-5.532851132031717e-07,-1.227929005769793e-06,9.426290139178078e-07,1.9265026100409846e-06,1.3901854068659652e-06,1.6410568525784994e-06,-7.08428934107234e-07,1.0677007373878117e-06,2.0906596889063444e-07,-2.2486283965056486e-07,5.10195174203111e-07,2.6371284088004888e-06,1.5810520360700853e-06,2.4502611590229862e-06,1.9633344572123654e-06,4.7369557074134974e-07,2.4498186973984047e-06
3.449243114951746e-07,-5.766396319608301e-07,-1.18495406366239e-06,9.6086466494506e-07,2.1397588604049924e-06,1.5211297427653335e-06,1.6512830038347917e-06,-8.103556046119345e-07,1.0316575636860028e-06,2.5533916433587873e-07,-1.710635618501353e-07,5.193137394659215e-07,2.6171386443950162e-06,1.5562313791148475e-06,2.487834059124208e-06,2.02921494221461e-06,4.80473248225837e-07,2.520444738953468e-06
4.5395134594817897e-07,-5.176600029405415e-07,-1.079269957711884e-06,9.785138339465686e-07,2.3242079679227953e-06,1.7363005953411122e-06,1.6854259482298685e-06,-8.620159089393007e-07,1.0009480762603154e-06,2.9934281166970365e-07,-1.2615861731289945e-07,5.662652570890679e-07,2.6069510010093286e-06,1.528832328907684e-06,2.5872030911702103e-06,2.0959011731040813e-06,5.028018383507098e-07,2.588131475643264e-06
5.611835155218448e-07,-4.6240397973063987e-07,-9.403988377167736e-07,9.930396201417798e-07,2.489261161575709e-06,2.0210625809552806e-06,1.7402056673698184e-06,-7.871708961070719e-07,9.707253632139326e-07,3.3095920786990805e-07,-8.879102816388802e-08,6.247273924069914e-07,2.5632801810340826e-06,1.5089407683029163e-06,2.6523870221272522e-06,2.158340727462891e-06,5.213564941756427e-07,2.6497774293396536e-06
6.32441979294133e-07,-4.609988320750467e-07,-8.420890301861451e-07,9.963871862948098e-07,2.634367626212748e-06,2.3164868012635844e-06,1.81797325740124e-06,-6.717775407676232e-07,9.375145504937784e-07,3.539953977823574e-07,-6.393759338731622e-08,6.46964620512677e-07,2.5726117649780635e-06,1.5093027264001143e-06,2.6487101935148315e-06,2.21294253429901e-06,5.369382765881305e-07,2.697005082922529e-06
6.835694591731017e-07,-4.748704344884657e-07,-7.532646898290198e-07,9.919840925062213e-07,2.742812781829556e-06,2.5675299670004264e-06,1.923238368195768e-06,-5.011317894601943e-07,9.009000547310453e-07,3.7632040784457355e-07,-4.248656483965644e-08,6.58618551170135e-07,2.534396886311164e-06,1.5141186525909448e-06,2.6686535370994297e-06,2.2356891318041723e-06,5.488625861421086e-07,2.7299879162845433e-06
7.402519459368154e-07,-4.860452114776325e-07,-6.791880673599698e-07,9.845124670377237e-07,2.7908554054568385e-06,2.765466121719922e-06,2.0451567934260286e-06,-3.809085022580889e-07,8.620463871068645e-07,4.0941662665244556e-07,-2.0208585114817482e-08,6.842779687914334e-07,2.4465899223267494e-06,1.5351746891070863e-06,2.6825026601261605e-06,2.259229857335712e-06,5.535231949415488e-07,2.7363702120346213e-06
8.193772627719007e-07,-4.872020721859225e-07,-5.98084262395158e-07,9.66815384315123e-07,2.762710262186648e-06,2.8936888322964387e-06,2.1669612235122955e-06,-3.3199665136480024e-07,8.213724872004957e-07,4.670012606643352e-07,7.400829737773125e-09,7.19927543218916e-07,2.3182463267781554e-06,1.5399844121771208e-06,2.6161350670617357e-06,2.2358929019797194e-06,5.566766934591668e-07,2.691216476992841e-06
8.793210980090722e-07,-4.7149672123750404e-07,-4.950565853573569e-07,9.478787658107888e-07,2.658388138445981e-06,2.952520637393337e-06,2.268271480224914e-06,-3.4447418898033043e-07,7.797288545414186e-07,5.511121361494893e-07,6.227799517464536e-08,7.921102916238792e-07,2.196281724504846e-06,1.535734485979057e-06,2.4862078247451014e-06,2.162023383999217e-06,5.818996766507111e-07,2.6471242512042654e-06
9.535658120554114e-07,-4.624053305733394e-07,-3.680961269029003e-07,9.239497421367603e-07,2.494443902815493e-06,2.9393404514663487e-06,2.3272524542509753e-06,-4.625476787625092e-07,7.382915441902845e-07,6.406883163645891e-07,1.4618187781121916e-07,8.713507033954005e-07,2.1275767129519985e-06,1.4837297134597517e-06,2.3433219239235345e-06,2.0418014822887478e-06,6.277181890563103e-07,2.610761360788087e-06
1.034521274227762e-06,-4.5671617596618436e-07,-2.3327748416307238e-07,9.038636357993738e-07,2.2965413672898316e-06,2.895914334278975e-06,2.3459518124165142e-06,-5.909432664913259e-07,7.139570638887466e-07,7.367542798025404e-07,2.40570724745496e-07,9.648180203753641e-07,2.0851933556361646e-06,1.3853910613365e-06,2.2238218309101187e-06,1.9312249459286725e-06,6.93136909417796e-07,2.5997725854982985e-06
1.1081600421950475e-06,-4.4596444689001144e-07,-1.1889652684208049e-07,8.943341256814558e-07,2.0970876544267514e-06,2.7947767448747185e-06,2.3118954659068765e-06,-6.565964612211542e-07,7.114717930943814e-07,8.342646136086563e-07,3.5836497998902346e-07,1.0577013730847095e-06,1.9763307068314592e-06,1.3023589445222047e-06,2.181711707557019e-06,1.8284229597671714e-06,7.478207057898448e-07,2.5890189001765798e-06
1.1824223059569374e-06,-4.3591430064520863e-07,-3.2412874282665807e-08,9.012911492797196e-07,1.920910846957909e-06,2.642545592446153e-06,2.21990116690277e-06,-6.49840865485787e-07,7.270949713305727e-07,9.247556080758795e-07,4.90809380949422e-07,1.1345419632971681e-06,1.8555267805694988e-06,1.2460752408797892e-06,2.1859464673582685e-06,1.746976552353441e-06,7.909485807885813e-07,2.5839234597462322e-06
1.2335555307434685e-06,-4.2099049552950476e-07,1.7310227667976922e-08,9.179233909071505e-07,1.7849725562031213e-06,2.4702020620388955e-06,2.0698269191190505e-06,-5.561364772396753e-07,7.594022796867718e-07,9.750394816684908e-07,6.189431068804435e-07,1.1750342038475529e-06,1.7909250368059407e-06,1.191108265351637e-06,2.1867433352266126e-06,1.7048539314010293e-06,8.210352654647443e-07,2.6203178196737496e-06
1.2479849595145784e-06,-3.878622883536531e-07,-5.2095351819581794e-08,9.478239398343582e-07,1.692149796113315e-06,2.260940153221381e-06,1.925028095756875e-06,-3.7146950230322474e-07,8.02636434667189e-07,9.576040614517563e-07,6.842199170392607e-07,1.1989694101425566e-06,1.6454551805699818e-06,1.1382326781342106e-06,2.1787375005330074e-06,1.689053952412812e-06,8.606642285696648e-07,2.6407999806312603e-06
1.2523375508047435e-06,-3.420399936003475e-07,-1.1880203455218713e-07,9.992450555608372e-07,1.629556203311853e-06,2.11198770664996e-06,1.8463321075970853e-06,-1.817940346765221e-07,8.645081218483629e-07,9.162565314473823e-07,6.798312008558897e-07,1.2192323363767572e-06,1.5319258980373542e-06,1.0965856412572538e-06,2.1448278717255114e-06,1.6841131600417341e-06,9.134378140621794e-07,2.6206911854569474e-06
1.2767594858704277e-06,-2.8190061467166685e-07,-1.4035397123538745e-07,1.0799639604490992e-06,1.5776249388983352e-06,2.029909671052662e-06,1.8800081413149482e-06,-2.3816648203676313e-08,9.36678557786541e-07,8.806148856448816e-07,6.10205638343069e-07,1.2315291440149629e-06,1.4653629369933621e-06,1.093400152845349e-06,2.1045772853843258e-06,1.7469271753518212e-06,9.69475308172874e-07,2.635725273532415e-06
1.298187400421078e-06,-1.9645957491859573e-07,-2.3283066876489022e-07,1.1721252028827488e-06,1.5172803081154343e-06,1.994573598949647e-06,2.1058373720120353e-06,1.4468660212966345e-07,1.0438799473146057e-06,9.261157180439809e-07,5.184470790401087e-07,1.3198190797275877e-06,1.3824917605786256e-06,1.0378312994348324e-06,2.0494933261966723e-06,1.7785383805763186e-06,1.095360103625823e-06,2.6153311414434005e-06
1.4178809680285382e-06,-8.888734577165003e-08,-2.8748129730567886e-07,1.2640130674944836e-06,1.438831189073117e-06,2.0303677345832094e-06,2.266684662670992e-06,3.157183101778563e-07,1.1793551556543388e-06,1.0411421810205777e-06,4.5518452147689e-07,1.4101948940483723e-06,1.3371450915320587e-06,1.0100392142521958e-06,2.009418610391396e-06,1.7236335555679298e-06,1.1726235086099234e-06,2.506209609685517e-06
1.51160399154712e-06,2.8099483815696034e-08,-1.5279717581033976e-07,1.309804120212542e-06,1.3421638805864766e-06,1.9657762057302117e-06,2.3828183041663376e-06,3.0984902952093655e-07,1.2625247387402637e-06,1.1540731335919085e-06,3.8148096199618385e-07,1.5007199500410193e-06,1.2599570770441773e-06,9.765104932775313e-07,2.0080354677499842e-06,1.6526970273548066e-06,1.242060105497582e-06,2.4234812556871775e-06
1.5658466478822617e-06,1.64792396269965e-07,-2.500222947218488e-08,1.302755086204843e-06,1.2372382789445012e-06,1.8119221266759634e-06,2.475535479633728e-06,1.323391613319455e-07,1.3209068550679428e-06,1.2443647270820709e-06,3.1794792391152047e-07,1.5699137562306766e-06,1.1677297842392234e-06,9.258925743567741e-07,1.9887902283261725e-06,1.5849419345425497e-06,1.3347208239281863e-06,2.362668015675018e-06
1.5998659843151468e-06,2.99919551676871e-07,7.757501184633996e-08,1.2894258967001937e-06,1.1399330606576414e-06,1.766748880275442e-06,2.5252875033291806e-06,-1.1042550052186114e-07,1.365484529578126e-06,1.318024189901434e-06,2.4087389035991016e-07,1.6202534964368478e-06,1.1154888477147336e-06,8.878029589867315e-07,1.9773773435269345e-06,1.5382875875138495e-06,1.3957673183922322e-06,2.27540565375525e-06
1.630105537929451e-06,3.958996918572337e-07,2.0886066321757868e-07,1.265539326455593e-06,1.0693547699724633e-06,1.909717168569437e-06,2.5880167240883707e-06,-3.6876183365744416e-07,1.3966591881423753e-06,1.3272667936291504e-06,1.5730090242512806e-07,1.660585422096848e-06,1.0880684746028556e-06,8.783810910761388e-07,1.9045403990927762e-06,1.5518621904560076e-06,1.449511109410355e-06,2.2085536229822372e-06
1.632649990933355e-06,4.6154171817202877e-07,3.052569024502393e-07,1.2388923718979406e-06,1.04330259586494e-06,2.205845028195106e-06,2.730484580831591e-06,-4.888802887983058e-07,1.4399053267943515e-06,1.331291241211647e-06,5.507039973930782e-08,1.7115825529473736e-06,1.078506865701729e-06,8.612772597659431e-07,1.8284680826214998e-06,1.5458898008110677e-06,1.4777565515815333e-06,2.1104222721693342e-06
1.6148593860451933e-06,4.98380321758126e-07,4.5096415505311595e-07,1.1755163385141911e-06,1.0672125666588171e-06,2.45747625713353e-06,2.8195547913784006e-06,-5.220136576580665e-07,1.5533613349899386e-06,1.3504952259925426e-06,-9.359206522424102e-08,1.8159165462410903e-06,1.0801050653149327e-06,8.450623325422859e-07,1.7816675497265878e-06,1.5230677945876811e-06,1.5150778399675468e-06,2.000076655479406e-06
1.643877939382338e-06,5.32946945169657e-07,5.933350834993716e-07,1.1050856369766023e-06,1.1277845450995018e-06,2.5181020295862943e-06,2.7484799855633614e-06,-4.4923495520626283e-07,1.6609822284457868e-06,1.4058793730638498e-06,-3.065652690360629e-07,1.9127137296356047e-06,1.0528546112857954e-06,8.133017149749408e-07,1.7726009812465516e-06,1.4604406843730668e-06,1.5165922557289684e-06,1.982306133581598e-06
1.6474015818185993e-06,5.775056850229044e-07,6.825432039091483e-07,1.0649359616267674e-06,1.195563022056658e-06,2.513736624406173e-06,2.66160557338073e-06,-3.8694697118721236e-07,1.7469460239420846e-06,1.4633088695507268e-06,-5.001261369726058e-07,1.9854235366534058e-06,1.0063263710155097e-06,7.635898962674709e-07,1.6951619874469667e-06,1.4342107889624674e-06,1.5022039159979942e-06,1.999528362360676e-06
1.6643877407946123e-06,6.376178718874812e-07,7.559446417521811e-07,1.0367547264033764e-06,1.2374033819046804e-06,2.5108727003114896e-06,2.6891751834591595e-06,-3.5099894269951266e-07,1.8149710124459246e-06,1.4900889238013466e-06,-6.34169200443717e-07,2.016646364958482e-06,9.887815917472933e-07,7.378622970077996e-07,1.6038729302867205e-06,1.3737210385934499e-06,1.5303398885519638e-06,2.003172883171696e-06
1.6936448914167665e-06,7.109597297120225e-07,8.315748116049466e-07,1.021830427791721e-06,1.2372357074782617e-06,2.4986389393454243e-06,2.794902828733876e-06,-2.9867341625334196e-07,1.8906214495090316e-06,1.5302037782674256e-06,-8.083405889826163e-07,2.0281406216545587e-06,9.592511728170297e-07,7.153818132250558e-07,1.5819794722686762e-06,1.2914055216050518e-06,1.5500174050958823e-06,2.0382566723137833e-06
1.6834830548697256e-06,7.899780792904066e-07,8.851487176779136e-07,1.0236805463723718e-06,1.2046544150036558e-06,2.343034093668802e-06,2.993137797884688e-06,-1.4091658652711662e-07,1.929735702097039e-06,1.6030531118606048e-06,-9.528745690712621e-07,2.1268579150349365e-06,9.256376400774131e-07,6.886824988476754e-07,1.597548961002401e-06,1.1877125811442737e-06,1.5688751065218733e-06,2.0548879603224485e-06
1.7647941308374696e-06,8.752941770436667e-07,9.90096002463934e-07,1.0515515120443677e-06,1.1705736670734354e-06,2.2286288764758062e-06,3.0244990110421584e-06,-4.9054178421056486e-08,1.9596770136259535e-06,1.6826250900966974e-06,-1.0916846645765407e-06,2.2069265278928568e-06,8.775431635789221e-07,6.674256276923275e-07,1.6903902622540129e-06,1.1073245680413582e-06,1.5979561781808753e-06,2.0551209445674077e-06
1.8463510636091866e-06,9.412144418705883e-07,1.0637527378691977e-06,1.1120673866714646e-06,1.1786298562040989e-06,2.0923056898812785e-06,2.9782558791272507e-06,1.4668076174838725e-08,2.019011225546378e-06,1.7407498096846092e-06,-1.1735526662768e-06,2.2659770667541956e-06,8.226911057348212e-07,6.419202634846524e-07,1.7748027724290756e-06,1.0953524048844558e-06,1.6056615928385556e-06,2.1074639129520647e-06
1.910425344214003e-06,9.845167135729805e-07,1.0933236258862936e-06,1.1743724713332608e-06,1.2297332908656765e-06,1.9834895512585645e-06,3.025299618086757e-06,7.190840476741374e-08,2.0578146869661403e-06,1.770139052476286e-06,-1.088410190068094e-06,2.2908761684531477e-06,7.50253028231303e-07,5.977330548587106e-07,1.8370056032032553e-06,1.0427812399417755e-06,1.6398943564661845e-06,2.174370417693697e-06
1.943693627091935e-06,1.0009142358935468e-06,1.1176099216193293e-06,1.2092567293488218e-06,1.2983501451116119e-06,1.9348782875227765e-06,3.1636557604049566e-06,2.1497742479605221e-07,2.083723152057424e-06,1.7410262804264908e-06,-1.003095541188458e-06,2.2881526615571042e-06,6.750548843700839e-07,5.67148279194705e-07,1.8873094446353127e-06,1.0811495731118285e-06,1.6944336340044123e-06,2.179013648582206e-06
1.9691660234782397e-06,9.877854445384908e-07,1.142680202048846e-06,1.230530717552956e-06,1.3422046974524679e-06,1.9229026164581237e-06,3.241113763109813e-06,5.120013811917175e-07,2.125066429469064e-06,1.757560412594412e-06,-9.837685651224698e-07,2.295300379103932e-06,6.427771080108896e-07,5.593509849204397e-07,1.857420045673512e-06,1.1029336539046761e-06,1.7591847988570332e-06,2.1576123910925096e-06
2.016546283967678e-06,9.484792637259175e-07,1.1521430412940243e-06,1.2139521646549837e-06,1.314021884369602e-06,1.978669619538948e-06,3.2479239946427907e-06,8.966181938103978e-07,2.159188169191505e-06,1.8119103474326787e-06,-1.0008183084834647e-06,2.344521726187829e-06,6.526145164931435e-07,5.374863300163001e-07,1.7741565490494196e-06,1.2207360104697344e-06,1.8156159584128762e-06,2.103607321351461e-06
2.060819307732095e-06,8.794614028520306e-07,1.1321082757293947e-06,1.1671420605705706e-06,1.1941477789911264e-06,2.0283728530938763e-06,3.242855435171498e-06,1.2635607820415865e-06,2.166579070861893e-06,1.8702023083016735e-06,-1.0291598118614865e-06,2.3922236605954845e-06,5.782689925430292e-07,5.254693174487049e-07,1.6616793534464368e-06,1.3030080741971007e-06,1.8617440718952162e-06,2.015493892225871e-06
2.1031691990033528e-06,7.88631208183849e-07,1.1261556521269848e-06,1.103667186088036e-06,9.922952777451606e-07,2.0294494535604382e-06,3.1579793306124974e-06,1.5248438021884662e-06,2.1580802900545265e-06,1.937841787615397e-06,-1.0802650340124826e-06,2.425092850661195e-06,4.5575460661893314e-07,5.031944581849552e-07,1.5391854426788098e-06,1.2386848249869468e-06,1.8849798443832925e-06,1.999331283807721e-06
2.171340364332099e-06,6.870384021162459e-07,1.0780923241780192e-06,1.021860469779623e-06,7.416360462662948e-07,1.9832789052255786e-06,2.96560754339518e-06,1.6455708935811412e-06,2.1393565949775443e-06,2.0022370436695506e-06,-1.0498776625245457e-06,2.4161735416008143e-06,3.0784454538007e-07,4.772092299860735e-07,1.4142310145212908e-06,1.131999695523179e-06,1.8829424057189652e-06,1.9586102769484044e-06
2.18545757342182e-06,5.995085927869757e-07,9.947636785391127e-07,9.295839038523634e-07,4.849858690055374e-07,1.962357091584342e-06,2.7376402145829897e-06,1.5878454303622026e-06,2.059659080658628e-06,2.052533650235119e-06,-9.357408244052858e-07,2.3515245908062385e-06,2.1367596234139547e-07,4.839860644472662e-07,1.2785144652944716e-06,1.055507655290442e-06,1.8606461334514681e-06,1.8406809315608518e-06
2.156858698060225e-06,5.310454373014999e-07,9.124529036585864e-07,8.372850203891131e-07,2.680568700776608e-07,1.998713135083773e-06,2.521405359361632e-06,1.3624070474124863e-06,1.9671646792053164e-06,2.088638919209146e-06,-7.022991534235521e-07,2.2687933062229673e-06,1.6508496673033003e-07,5.080569769257803e-07,1.1702829613183897e-06,9.591280545341582e-07,1.869921841209725e-06,1.7000641532444432e-06
2.127579898876373e-06,4.770087617654789e-07,8.249910997253587e-07,7.597586949430647e-07,1.2290126040834594e-07,2.077732178519496e-06,2.3256377892832165e-06,1.0274354458903162e-06,1.8728964154010944e-06,2.101818986726694e-06,-4.6052490693560094e-07,2.180016833059054e-06,1.5736680117107347e-07,5.229266931926496e-07,1.1291812314539122e-06,8.70769517976502e-07,1.8809292447943025e-06,1.597262642921612e-06
2.0683629696458908e-06,4.3992429332469197e-07,7.429198318501995e-07,7.037716996506094e-07,6.769243970131829e-08,2.17284719741613e-06,2.218487396548486e-06,5.990550146712451e-07,1.7749180830708712e-06,2.1000969408120453e-06,-2.205987534933322e-07,2.098785307524695e-06,1.1665044365277356e-07,5.145877328409843e-07,1.1826482251860847e-06,8.189291288426775e-07,1.8910428413119013e-06,1.4977533493048306e-06
2.0097971182059177e-06,4.2146678022482763e-07,6.707354232882449e-07,6.849348191734461e-07,1.091220844926386e-07,2.231182720693734e-06,2.1900440894464854e-06,1.8126695642916476e-07,1.7081917562478155e-06,2.0881964212228288e-06,-1.3563707617728341e-08,2.02861601501645e-06,8.815110410598154e-08,4.872889546933004e-07,1.2321131950312137e-06,7.796250635802765e-07,1.8960705603356346e-06,1.4311699304829176e-06
1.9745526666124757e-06,4.1093976298216957e-07,6.285298712259663e-07,7.16664055312242e-07,2.388278988606957e-07,2.2299795635947157e-06,2.2064615441514912e-06,-8.139730384245018e-08,1.6278550173313672e-06,2.0799616953859904e-06,4.8721454329244945e-08,1.981039815878065e-06,5.081658867513993e-08,4.6986269868338284e-07,1.2879435388688616e-06,7.245590639997839e-07,1.9002434113120495e-06,1.3496743002393987e-06
1.9338050536690726e-06,4.081569876625943e-07,6.089083594742435e-07,7.406758313249774e-07,4.374024104706727e-07,2.180180288353529e-06,2.2493847519175394e-06,-1.7445935824590107e-07,1.5771245788168575e-06,2.090725358704007e-06,9.499710080808077e-08,1.9834653890529593e-06,3.710677773323995e-08,3.9140090817143606e-07,1.3118382773325739e-06,6.845773813701066e-07,1.9254020022083867e-06,1.253304935834104e-06
1.8810050854303999e-06,4.1392845695861293e-07,6.213459641832572e-07,7.488384667341109e-07,6.841744926635435e-07,2.1192160522312597e-06,2.294074680909023e-06,-1.2339079049690802e-07,1.536175171314048e-06,2.1087286351680217e-06,2.469041335298089e-07,2.032505328446414e-06,6.463137489798862e-08,3.030018851537967e-07,1.301531735543401e-06,6.654266451124507e-07,1.974353377455916e-06,1.1582241415371343e-06
1.8789591268678728e-06,4.2306140835620404e-07,6.627754411654594e-07,7.741597055060218e-07,9.43760298821444e-07,2.0657111705176016e-06,2.3168220445628846e-06,2.8363565577412115e-08,1.5327692696980023e-06,2.1298346378290226e-06,3.434959966399826e-07,2.120237682905887e-06,5.748084161550892e-08,2.4762760138445304e-07,1.3184186565305284e-06,6.609875496019071e-07,2.0180127965607174e-06,1.0944857678115507e-06
1.924613572530724e-06,4.4060175220667145e-07,7.174742363780229e-07,7.81779384236366e-07,1.2097794406576514e-06,2.03564978919107e-06,2.3190038427123135e-06,2.0247757402150652e-07,1.5557464301400561e-06,2.1531457361750293e-06,4.147096595613724e-07,2.2399955236637305e-06,3.323244023277916e-08,2.033633712006145e-07,1.3824304608602382e-06,6.881801228927635e-07,2.0457825101686106e-06,1.0819008263068462e-06
2.0018924718952835e-06,4.6864848613936224e-07,7.80006639234212e-07,7.850097706244371e-07,1.4927081664326243e-06,2.0323131042536395e-06,2.3273785063007358e-06,3.474971238259164e-07,1.593316901785374e-06,2.174210306124741e-06,4.491332635582423e-07,2.3754354708648175e-06,-8.201747732751545e-09,1.7057159965118358e-07,1.4440248303054114e-06,7.354312874796677e-07,2.0816006104153875e-06,1.1094132765626008e-06
2.0827632195115874e-06,5.032686313122557e-07,8.371998799617973e-07,8.204445457667979e-07,1.759884885176569e-06,2.046430164179444e-06,2.3481531988661493e-06,4.4658931136371983e-07,1.6418725738010272e-06,2.179106784694458e-06,3.9931689946214375e-07,2.5104307547803114e-06,-1.8949903547882946e-08,1.2888961278549448e-07,1.5044412196523738e-06,7.78944380994787e-07,2.0925791817439294e-06,1.162602665284967e-06
2.146837681534783e-06,5.401258587643035e-07,8.910218355051234e-07,8.926560548698163e-07,1.982371177795972e-06,2.083854386338137e-06,2.3963531247019767e-06,4.838968064398724e-07,1.6896131879753233e-06,2.1672494893346797e-06,3.090666812332283e-07,2.624640843587383e-06,-4.897802402717111e-08,1.2237912074118755e-07,1.5874457011570796e-06,8.194894812373945e-07,2.08092945154192e-06,1.2296007121664459e-06
2.1945309060066357e-06,5.825067451360495e-07,9.334081707519642e-07,9.870176502090533e-07,2.136432476905989e-06,2.1441237065931583e-06,2.46956187797232e-06,4.651598545168988e-07,1.735063173951137e-06,2.1409702234709812e-06,2.1839329723103208e-07,2.712024621346686e-06,-4.857127607722975e-08,1.470856433800687e-07,1.6325090871202896e-06,8.624985666529729e-07,2.0599595182039516e-06,1.271934662239808e-06
2.2361188341848586e-06,6.255905806762282e-07,9.607905119216199e-07,1.1068217032258778e-06,2.201090146737252e-06,2.233112926220812e-06,2.5460302036259457e-06,4.353397785099498e-07,1.7767030946154045e-06,2.101227036949877e-06,1.6000646459230812e-07,2.7562399384386756e-06,-5.181297569863492e-08,1.5693291289975873e-07,1.6851795347539742e-06,9.085109288139818e-07,2.018970982878778e-06,1.2950483326561222e-06
2.2848097724921477e-06,6.67057221010786e-07,9.900455000437058e-07,1.1974241658214568e-06,2.175271438386913e-06,2.3551355017522115e-06,2.620072761571662e-06,4.2675949143315994e-07,1.8093471476080208e-06,2.05968838606008e-06,1.5934523786939693e-07,2.7767491028148966e-06,-8.270228694060351e-08,1.600989631022283e-07,1.7534282704334643e-06,9.651355016417657e-07,1.967755530739265e-06,1.305144310418688e-06
2.324690514944076e-06,7.019598749759007e-07,1.0258418236678874e-06,1.22561563447068e-06,2.0742001994588496e-06,2.4773270467237617e-06,2.6761108269707326e-06,4.5913743422827403e-07,1.8225935816031697e-06,2.022914693672032e-06,1.9432672947234915e-07,2.788670339733402e-06,-9.853072141628995e-08,1.444885040114023e-07,1.8157462251734788e-06,1.021523141951068e-06,1.921734475607913e-06,1.2914074479624196e-06
2.353328723848123e-06,7.332690460739477e-07,1.0713233622963993e-06,1.2496706011088036e-06,1.955592586563221e-06,2.5865620500508268e-06,2.694606082143669e-06,5.405293634691551e-07,1.8135748803014199e-06,1.99758372154797e-06,2.381748705045607e-07,2.7822670960555354e-06,-1.1870987828855243e-07,1.0980534808657705e-07,1.8861634193619512e-06,1.07751337609456e-06,1.8866936321833287e-06,1.2687085379969474e-06
2.3774257635999495e-06,7.669521095509025e-07,1.124713014190524e-06,1.2941366142406493e-06,1.7983391193000666e-06,2.6900536840429594e-06,2.675391132564092e-06,6.590116518743772e-07,1.78184941272995e-06,2.008218701368936e-06,2.6986063382839026e-07,2.762825319623031e-06,-1.4944341674187714e-07,7.394842558855582e-08,1.9527249954550533e-06,1.1269508244851412e-06,1.85640654400195e-06,1.2452059191905787e-06
2.4035561631933705e-06,8.086555375931293e-07,1.1871669755140639e-06,1.2796189076067099e-06,1.6448818957748727e-06,2.772102622458835e-06,2.6221773896546803e-06,8.097059033405476e-07,1.728983616629562e-06,2.0302029631754395e-06,3.0278282834950936e-07,2.7361218556326393e-06,-1.6787189217049102e-07,4.897377909584119e-08,1.989093972439123e-06,1.1633449329144706e-06,1.8401468411061103e-06,1.225292957425948e-06
2.4309380662837947e-06,8.596075096050647e-07,1.2590814352912828e-06,1.2649147160571751e-06,1.5399503339056491e-06,2.8005617581303896e-06,2.547430580511906e-06,9.905012996527586e-07,1.6618226170116252e-06,2.0515928770574444e-06,3.287559870400595e-07,2.7064740036616497e-06,-1.671770637388863e-07,6.0035510156159965e-09,2.006530483015398e-06,1.1930923870408931e-06,1.8331578393294655e-06,1.2143206711420911e-06
2.4553609043444615e-06,9.180133139192937e-07,1.3420334802083374e-06,1.2682300201669712e-06,1.4823006011947508e-06,2.831560939523981e-06,2.473669781678771e-06,1.1958071559164895e-06,1.5877932676731889e-06,2.0797783274747427e-06,3.480596222388571e-07,2.6754774178152516e-06,-1.7296134391741052e-07,-2.6247179837830673e-08,2.0047146771813017e-06,1.217849738488178e-06,1.8230257724717212e-06,1.2104630357690978e-06
2.4919382172536612e-06,9.824563232896122e-07,1.4349271326181288e-06,1.270479262154025e-06,1.4798930549458178e-06,2.85139825971312e-06,2.4196733113444012e-06,1.4005265187783708e-06,1.5154291906592806e-06,2.104756855402572e-06,3.7709286719086693e-07,2.647979464757267e-06,-1.702082385358827e-07,-4.2599113782778917e-08,1.966785410549255e-06,1.2276739864645277e-06,1.817012748066586e-06,1.212972183135685e-06
2.5200619875384886e-06,1.0484759761756874e-06,1.5279162392312366e-06,1.2972633071077594e-06,1.5174056667294905e-06,2.8285426070082537e-06,2.393785485658884e-06,1.5823898410676036e-06,1.4534827418990087e-06,2.1302289537717947e-06,4.2431615165929343e-07,2.620452320525357e-06,-1.6249095726718728e-07,-5.4968205438584523e-08,1.8988791983475553e-06,1.2259179261820363e-06,1.81908349217228e-06,1.2183091854066292e-06
2.5335117278605345e-06,1.113031147573497e-06,1.6125480476415624e-06,1.3315544720828107e-06,1.5964112705448837e-06,2.8726305105099432e-06,2.398310164039782e-06,1.7217724298267431e-06,1.409406582548682e-06,2.1551151016402395e-06,5.02151043740631e-07,2.5804128388470394e-06,-1.3554207083457982e-07,-6.522606926512294e-08,1.8041811517778057e-06,1.2085526183880148e-06,1.8494984534346436e-06,1.2237955144410349e-06
2.5355563196092487e-06,1.1708917380047182e-06,1.6819751444390962e-06,1.361606640414871e-06,1.663388524563489e-06,2.86451938867054e-06,2.4297814044476598e-06,1.8079614016597554e-06,1.388721970563593e-06,2.1796809303112343e-06,6.166046844398596e-07,2.548820568826469e-06,-9.259947430734397e-08,-7.750099467210477e-08,1.6946913216944864e-06,1.1725508695109713e-06,1.9048214749192973e-06,1.2288477720330333e-06
2.5236278068366036e-06,1.2183010161570705e-06,1.7306550717905985e-06,1.3799534897995975e-06,1.7653835217371975e-06,2.7619043157957403e-06,2.4758902659636465e-06,1.8451816562853286e-06,1.3939024355377104e-06,2.199439886738396e-06,7.572126119812745e-07,2.527923163678352e-06,-4.25855328885643e-08,-9.243656771849256e-08,1.5845358412258742e-06,1.1296506258751389e-06,1.9596356735813644e-06,1.2334927374886554e-06
2.5140255272904535e-06,1.2538384545198168e-06,1.7562492544114818e-06,1.400212341641331e-06,1.9121023487624956e-06,2.6351506419643963e-06,2.5229039573129108e-06,1.8371331376713735e-06,1.4232844339700062e-06,2.2238834478225704e-06,9.032144427535927e-07,2.5133234421085137e-06,8.880508511279517e-09,-1.1694851317979026e-07,1.4906257687828508e-06,1.095100075028337e-06,2.032234588729605e-06,1.2399099322498012e-06
2.5090124371262445e-06,1.2786348028463724e-06,1.756935382440012e-06,1.4183977196678824e-06,2.085975496714091e-06,2.445491834023288e-06,2.56006411277791e-06,1.7922732631411467e-06,1.4714480840148709e-06,2.248599126458684e-06,1.0364909337895675e-06,2.510080698098793e-06,6.219471724004386e-08,-1.522154112803806e-07,1.3990690192264687e-06,1.075464458590808e-06,2.107056522313549e-06,1.2446658507236022e-06
2.5042868757081736e-06,1.2935757988084865e-06,1.731107271082164e-06,1.42746156928948e-06,2.293710206267143e-06,2.2886391739337794e-06,2.5849843967849695e-06,1.7273001076646426e-06,1.5315869808991844e-06,2.2523298814616354e-06,1.1421208396883275e-06,2.4985587727161376e-06,1.047798695628811e-07,-1.9688026411447042e-07,1.3205450064201342e-06,1.0772552029945244e-06,2.1670542243501324e-06,1.2479744888758028e-06
2.4893857618841065e-06,1.2982784017149892e-06,1.6818040657622597e-06,1.4256438300126868e-06,2.4985006641791023e-06,2.1901916582252335e-06,2.6069664887399936e-06,1.6507687421066118e-06,1.59810783584303e-06,2.237426988558455e-06,1.215824585796984e-06,2.4788466897568783e-06,1.4572827062582097e-07,-2.500718379077331e-07,1.2607338651687787e-06,1.102455117126147e-06,2.218028169215132e-06,1.2561454360521008e-06
2.462028261455293e-06,1.2931283669658458e-06,1.6088464862208262e-06,1.4114158849088172e-06,2.6564126538013107e-06,2.1308821301941683e-06,2.6378395430048454e-06,1.59886816631783e-06,1.667121236463919e-06,2.205283990654591e-06,1.258692539931636e-06,2.4479481153029753e-06,1.9501684542574846e-07,-2.986430020278674e-07,1.210795543318057e-06,1.1355915971048988e-06,2.250866333050909e-06,1.265546946560066e-06
2.4212496008446762e-06,1.2784342776011823e-06,1.5150770801956498e-06,1.3868595957228603e-06,2.7194101319730623e-06,2.0969782634449714e-06,2.685557408946998e-06,1.6166892427712966e-06,1.7347911831063219e-06,2.155748514234812e-06,1.2751981835646355e-06,2.4006870947937712e-06,2.465739591604401e-07,-3.463454435908265e-07,1.174436300592872e-06,1.1785278873634464e-06,2.2569052794468236e-06,1.2712540146990517e-06
2.368107122821884e-06,1.251996609076601e-06,1.4067391268326409e-06,1.3556852672136058e-06,2.671366495050187e-06,2.0794854883246856e-06,2.7459175047244302e-06,1.6899301740202372e-06,1.7958998785558692e-06,2.0930716371952934e-06,1.2722057860293854e-06,2.3405725262011912e-06,3.054060169141339e-07,-3.931843323639001e-07,1.1407351392479283e-06,1.2262960862124507e-06,2.240339350616468e-06,1.269099137809998e-06
2.307719321771891e-06,1.21246714877938e-06,1.29241243085208e-06,1.31924393791312e-06,2.5032437628140526e-06,2.1187756168092955e-06,2.7983628847578817e-06,1.7854393489255022e-06,1.844384614572702e-06,2.0114696045967622e-06,1.2556932666150533e-06,2.2710268668483685e-06,3.777523265542599e-07,-4.522351657239228e-07,1.1071590633832955e-06,1.271538976621991e-06,2.2382146582115643e-06,1.2525847140048178e-06
2.2426145055418837e-06,1.1591594203653213e-06,1.180179561271768e-06,1.278835512957115e-06,2.245382098902439e-06,2.2023897661902227e-06,2.8182404477518326e-06,1.8554655341345738e-06,1.8752875907034218e-06,1.9178218654228428e-06,1.2300169625929256e-06,2.19505559971874e-06,4.3406090072085537e-07,-5.036891159441483e-07,1.0766086963836201e-06,1.3099658014412788e-06,2.2065213256500814e-06,1.2177629073526222e-06
2.181710862070886e-06,1.091141163148487e-06,1.0769946264205409e-06,1.2358560521515208e-06,1.9466258626644873e-06,2.318653341283817e-06,2.7863407692116887e-06,1.845194004863183e-06,1.8865465684662527e-06,1.8196339407782342e-06,1.2035132402617575e-06,2.1133526984413542e-06,4.759293098081902e-07,-5.123553680364359e-07,1.0496088573855532e-06,1.3325542581757407e-06,2.146712629681938e-06,1.164320958061418e-06
2.1282432056953083e-06,1.0123802952904023e-06,9.882883676329417e-07,1.1913579957925672e-06,1.6486700065862555e-06,2.4446926264577076e-06,2.694435043493098e-06,1.7246972655294222e-06,1.8794996517150329e-06,1.7234202429739903e-06,1.1848763822559598e-06,2.0305835142317666e-06,5.114556381081425e-07,-4.982188375893159e-07,1.0275657975753438e-06,1.3319044700276216e-06,2.0763112253760092e-06,1.0939804266579337e-06
2.0787652363871152e-06,9.287881805908041e-07,9.178233870727635e-07,1.1473934979336042e-06,1.3959477058725157e-06,2.528902588840671e-06,2.5482851255028546e-06,1.5437884425691313e-06,1.8579112710558707e-06,1.639155693812219e-06,1.1807163309875709e-06,1.946082127601921e-06,5.353166313207594e-07,-4.5476809758665245e-07,1.011110181289551e-06,1.3058253044102512e-06,1.987662723033477e-06,1.0088131374375619e-06
2.0457832030298208e-06,8.468643655093883e-07,8.689112863374719e-07,1.1061541451290617e-06,1.2204592253436944e-06,2.5253622169324953e-06,2.3658070433944824e-06,1.3188562861355765e-06,1.8263775859824842e-06,1.5710292953608415e-06,1.1966125818935066e-06,1.8630734665256162e-06,5.517717990399501e-07,-4.0989209514931476e-07,9.95540838737582e-07,1.2525456019282998e-06,1.8895345531242773e-06,9.167129406919163e-07
2.033376404860462e-06,7.735035801193203e-07,8.416426387826541e-07,1.0685838717784877e-06,1.1293899216122955e-06,2.40949206849334e-06,2.1723456244485224e-06,1.0352100484158602e-06,1.7892023478476037e-06,1.5276614619204056e-06,1.2328061232508354e-06,1.79123304550885e-06,5.590285803033663e-07,-3.836911812417758e-07,9.714027846758595e-07,1.1731882475320208e-06,1.7963535046636691e-06,8.276763216757148e-07
2.021080243928608e-06,7.145297394989021e-07,8.328777718758956e-07,1.0350686772811345e-06,1.1143007918317077e-06,2.1729435095628214e-06,1.9961526788320715e-06,7.622209302265312e-07,1.7500297226092058e-06,1.5106931190515156e-06,1.2852927992301084e-06,1.732569312774116e-06,5.511175036271874e-07,-3.9101274436869555e-07,9.294343159788616e-07,1.0728787632794077e-06,1.722622015085932e-06,7.520980628689547e-07
2.0192088602521334e-06,6.735735995776661e-07,8.350036933755019e-07,1.0055235322973638e-06,1.1425318106447721e-06,1.8381532212400899e-06,1.8629570739727663e-06,5.530355484830543e-07,1.7117456442471952e-06,1.5211372759378041e-06,1.3482705740509597e-06,1.6895383199801144e-06,5.238907004149679e-07,-4.205348087384522e-07,8.622423076952188e-07,9.52948761189928e-07,1.6515190148820916e-06,6.961629343647642e-07
2.031305396123503e-06,6.514313187925405e-07,8.420397955694949e-07,9.791281426644034e-07,1.1771550882136891e-06,1.473739389992331e-06,1.7874160357534096e-06,4.4735191389308295e-07,1.676003765650052e-06,1.5544104199848675e-06,1.4151814959607528e-06,1.664292836715184e-06,4.865263904995119e-07,-4.4198220351492106e-07,7.739288380040574e-07,8.228976905400873e-07,1.6213240528848539e-06,6.59882048744893e-07
2.051192807870094e-06,6.455368306483639e-07,8.474360709347027e-07,9.546523612029853e-07,1.1957628765424567e-06,1.1554845801259989e-06,1.7670955026734553e-06,4.746550633116674e-07,1.642272523860091e-06,1.602635641576497e-06,1.477370880445866e-06,1.6523417635313e-06,4.399488969931013e-07,-4.932055577018566e-07,6.836197329472007e-07,6.949675569875388e-07,1.6267018600053626e-06,6.392875838335955e-07
2.079419160187449e-06,6.496049876199193e-07,8.466126596627989e-07,9.30308090302442e-07,1.1875994504766563e-06,9.430744535727896e-07,1.7822813590899565e-06,6.156708686946456e-07,1.6072883883126819e-06,1.6607377410168103e-06,1.5251688733298836e-06,1.6507859245793787e-06,3.905043709573634e-07,-5.179377713608512e-07,6.032781113516402e-07,5.790087737675654e-07,1.6369058418760183e-06,6.234537607626205e-07
2.1089282333302553e-06,6.555729029967229e-07,8.347630701051731e-07,9.047101728341368e-07,1.153222248900705e-06,8.626792099277824e-07,1.8047191073718024e-06,7.95447439139259e-07,1.5660058223567096e-06,1.7166729394165539e-06,1.549254254414869e-06,1.6522168573840239e-06,3.4378260100318705e-07,-5.921997712525694e-07,5.448545293340383e-07,4.938083776111065e-07,1.6504041578002687e-06,6.04711041751205e-07
2.1278445007335693e-06,6.542977848836977e-07,8.050043869722583e-07,8.762943825756206e-07,1.0996138142885862e-06,8.931901350612995e-07,1.8119091596318928e-06,9.777974952676246e-07,1.5137491709004687e-06,1.7606620109691456e-06,1.5424401513139118e-06,1.6484138256242385e-06,2.995072995536101e-07,-6.75017061170398e-07,5.172429511360715e-07,4.4436025371701726e-07,1.6537397712886437e-06,5.780864330288265e-07
2.1291855556542128e-06,6.387088437474191e-07,7.532374631454657e-07,8.43225595779326e-07,1.0415976644427262e-06,9.818938415748678e-07,1.7952755652953385e-06,1.161883459848411e-06,1.4480552549789315e-06,1.7854437692676558e-06,1.5020573231592402e-06,1.6258525155124217e-06,2.6453818406994733e-07,-7.311774694407611e-07,5.188607967679032e-07,4.248734182348446e-07,1.6395515156631365e-06,5.406776029016549e-07
2.1149755932000497e-06,6.025485015791351e-07,6.810741958887515e-07,8.030412517219589e-07,9.989788060387825e-07,1.0707238379711687e-06,1.757762134200356e-06,1.2950177967950449e-06,1.3694785008993528e-06,1.788262981509612e-06,1.4310098940805908e-06,1.5835982236027889e-06,2.412672860851835e-07,-7.801086428697055e-07,5.462152673550316e-07,4.1882347981342835e-07,1.6068327211589936e-06,4.911402414236108e-07
2.0820500179452843e-06,5.439757191750507e-07,5.956104934706257e-07,7.544109663104613e-07,9.920856366349075e-07,1.1214784208726284e-06,1.7064187992048911e-06,1.3432500986154342e-06,1.281562998028778e-06,1.7648288993424905e-06,1.337702185510839e-06,1.525230916011701e-06,2.2572789652984017e-07,-8.009315976194092e-07,5.906294481694716e-07,4.1842600436947586e-07,1.5608043381641819e-06,4.292548371254547e-07
2.0304234759453982e-06,4.6601189600372745e-07,5.063077454649925e-07,6.975606904063415e-07,1.0306953169058042e-06,1.1325946849268096e-06,1.6463723378708824e-06,1.2851035129870719e-06,1.1896392252606105e-06,1.7311114237557311e-06,1.2341034795044231e-06,1.4544900269056585e-06,2.2458804862218423e-07,-7.971297893759486e-07,6.407352438806099e-07,4.156711538046064e-07,1.49182825906301e-06,3.5560344357843195e-07
1.9703043235132483e-06,3.769191902970244e-07,4.26050682985554e-07,6.3409166688575e-07,1.1118615119357223e-06,1.1364193279067608e-06,1.5792793444851206e-06,1.1047348011523278e-06,1.0983435123061156e-06,1.6966742943415045e-06,1.1321671271760315e-06,1.380189892842948e-06,2.390281793558393e-07,-7.926185040714436e-07,6.854286487077459e-07,4.023902676896064e-07,1.4021654900366916e-06,2.710423947448093e-07
1.915594000554291e-06,2.849290657705535e-07,3.626495128729263e-07,5.667634621351215e-07,1.2279408185818722e-06,1.1788093931416111e-06,1.504556032316644e-06,8.230674552355173e-07,1.0094979383856486e-06,1.6585517126438995e-06,1.040537190589102e-06,1.30775590349807e-06,2.6168809524470113e-07,-7.757244109077245e-07,7.178724883395601e-07,3.7654050961915673e-07,1.298439336582675e-06,1.8137198029463308e-07
1.8681811728820421e-06,1.9707591806526874e-07,3.1907277977796025e-07,4.990000223245285e-07,1.3723470297866249e-06,1.2929513348302977e-06,1.422775835307741e-06,4.943326860000896e-07,9.22240795717554e-07,1.6212041398023589e-06,9.635877405938378e-07,1.2404078439467471e-06,2.8879746017055876e-07,-7.590582474249281e-07,7.338887563689219e-07,3.3695929492079814e-07,1.1805800594121103e-06,9.04838433219574e-08
1.8328606137800276e-06,1.1889829137970195e-07,2.94527465566041e-07,4.340824856777885e-07,1.5381612121724102e-06,1.4806457528319022e-06,1.3382100764612455e-06,1.7109257833200744e-07,8.350565332485893e-07,1.5874261042148574e-06,9.026533693664359e-07,1.179805693068149e-06,3.164214899073063e-07,-7.50892922735308e-07,7.310098028318375e-07,2.8214928133628495e-07,1.057455029280341e-06,3.032361909578902e-09
1.8081902442715108e-06,5.2311881202293084e-08,2.832766570517277e-07,3.750738787391242e-07,1.7110168025470988e-06,1.707065308542247e-06,1.2580786599584233e-06,-9.930340957074339e-08,7.474063724410723e-07,1.5565389996384045e-06,8.574884370930136e-07,1.1357357317392928e-06,3.24536675730125e-07,-7.487424510186065e-07,7.111211329794176e-07,2.1624556907392646e-07,9.332289268970261e-07,-7.628892902657141e-08
1.7941722575176586e-06,-2.3233945880620603e-09,2.7750456560290326e-07,3.2361287210862214e-07,1.8650400802099558e-06,1.9113554521978777e-06,1.189773739085885e-06,-2.674494433290587e-07,6.596098814047059e-07,1.528701123275146e-06,8.26691147928638e-07,1.0936123707306055e-06,3.194657482143664e-07,-7.548366627132658e-07,6.754743998232829e-07,1.4579149280170578e-07,8.108452267610085e-07,-1.4650787556776034e-07
1.7823441256707257e-06,-4.639702183524679e-08,2.704962837698816e-07,2.7943261312214433e-07,1.9686008697529146e-06,2.0284391030508033e-06,1.1382460601026292e-06,-3.161869452588695e-07,5.721544064315843e-07,1.5034975585082773e-06,8.077431518140502e-07,1.0505990404180328e-06,3.0958228187568263e-07,-7.689316914969802e-07,6.292066721549563e-07,7.699019636574192e-08,6.941773815916792e-07,-2.0873720021079628e-07
1.7691237849815215e-06,-8.207733487731381e-08,2.571188821721108e-07,2.408438915885707e-07,1.9976759266707074e-06,2.0129673403409326e-06,1.1051613742644885e-06,-2.610798668185016e-07,4.86000046697234e-07,1.4715998480073869e-06,7.972954730915208e-07,1.0083720464943161e-06,2.93962577273648e-07,-7.870700125971574e-07,5.780999557655833e-07,1.1866299766795933e-08,5.842866723218109e-07,-2.644603765234488e-07
1.7534365846133194e-06,-1.1168901839544908e-07,2.346141415441647e-07,2.0532224748374161e-07,1.948346641863245e-06,1.8545112026488907e-06,1.089533539555928e-06,-1.4134321029207762e-07,4.034535469973261e-07,1.4312727100883003e-06,7.915454693720158e-07,9.629140890782208e-07,2.798038870108766e-07,-8.044959927380053e-07,5.273591430556968e-07,-4.876907779008938e-08,4.813034431154301e-07,-3.1493036724392207e-07
