0,1,2,3,4,5,6,7,8,9,10,11,12,13,14,15,16,17
8.691995221466869e-08,-8.915247312272766e-08,5.684764331337975e-08,-1.4352700453973808e-07,-3.5210093773482013e-07,1.9708814903755128e-07,3.147945017520492e-07,7.590662153006568e-07,4.39422104150837e-07,1.8200351384305629e-07,2.1192578550022116e-08,-1.1331262746183799e-07,2.898805426969863e-07,-6.924094669833705e-08,-9.65397613180376e-09,7.642777892880317e-08,-9.349507099061262e-08,-3.043172819401514e-07
1.063833833972217e-07,-5.961792430031049e-08,7.494936679960879e-08,-1.5968067383548547e-07,-2.79497902498423e-07,1.9884224389408185e-07,4.819329729843043e-07,6.508532974261376e-07,4.024144023579975e-07,1.43791975492353e-07,1.7960394918256298e-08,5.582575257372346e-08,2.993343657802168e-07,-7.652823503759181e-08,9.608226487176838e-09,7.343429092950038e-08,-1.0618288592659795e-07,-3.5285159010922054e-07
1.026018129589146e-07,-1.739153369828859e-08,5.2876299019521094e-08,-1.855064800144603e-07,-1.9919261074742168e-07,1.6866900248758622e-07,4.775358399523632e-07,5.821501008193687e-07,3.5579902162722005e-07,1.27158483963691e-07,2.0286583024094207e-08,1.8553004519869318e-07,2.796639073477076e-07,-2.5855811668037038e-08,2.1105738049541375e-08,8.97511470036127e-08,-1.0719003510134743e-07,-3.629922593071918e-07
8.81598996587593e-08,2.987620176805166e-08,3.727148032036182e-08,-1.9351435667984528e-07,-1.1976127750139394e-07,1.8675406728405164e-07,3.6788474662607894e-07,5.003801214889968e-07,3.103191796167762e-07,8.723376654580828e-08,1.2233166440050617e-08,2.857366905919574e-07,2.616872407748394e-07,9.912615772242291e-09,5.2649977840251635e-08,1.482102205735183e-07,-9.904109844659521e-08,-3.182693281721624e-07
6.854725066664721e-08,4.8428573145706e-08,3.784875530143888e-08,-1.6639904315338023e-07,-4.4570518310670305e-08,1.9412856497974537e-07,2.1796819852485434e-07,4.1122530646003426e-07,2.536412619784271e-07,3.129829035382648e-08,1.800016280661415e-08,2.9182287932779676e-07,2.444635240932465e-07,2.2675910450953646e-08,7.255998520333453e-08,1.7919183852384155e-07,-9.994073118933501e-08,-2.4579834692279737e-07
5.6803129630893115e-08,9.340244219549816e-09,5.2009683574920134e-08,-1.638890216483022e-08,2.094023488741575e-08,2.0584024532863945e-07,2.457991855667556e-07,3.798795859879608e-07,2.1050838094744028e-07,2.57213367191599e-09,4.881107952405296e-08,2.5305177105706156e-07,2.2598546305262031e-07,1.7318186647690873e-08,8.792093735597946e-08,1.6790782355239552e-07,-9.225521007124656e-08,-1.8007458353893797e-07
5.4521375331714354e-08,-1.0714447178002868e-08,6.401305433644018e-08,8.17829467035521e-08,7.245491663980034e-08,1.9602517531922878e-07,2.4044036195404734e-07,2.408271751803405e-07,1.673394314547926e-07,-1.0613297643152338e-08,6.083113511239136e-08,1.8450030401142047e-07,1.837875806307407e-07,-2.0493800044147583e-08,9.037488599589835e-08,1.210191768901412e-07,-8.245861941903594e-08,-1.2954842362234736e-07
5.7754627481765236e-08,1.9816896552825468e-08,8.953182300914799e-08,1.1723655534043457e-07,1.032912226921695e-07,1.895664642595966e-07,1.7585482858231092e-07,1.0751453999926318e-07,1.1726337989242201e-07,-3.0914038180628545e-08,5.553989985242285e-08,1.1583666369779096e-07,1.1646125542596024e-07,-9.42167550987563e-08,8.819306943249464e-08,8.521787426897413e-08,-7.437228880896407e-08,-7.948924346934015e-08
5.888472265611615e-08,1.1262031645150921e-08,7.073808636724183e-08,2.4396067326503637e-07,1.1496603603143609e-07,1.5900166743542903e-07,1.204386424034091e-07,3.387603361371115e-09,4.904082708252076e-08,-5.329489262793907e-08,4.7937879300120985e-08,-7.31484179421274e-08,3.1160423145142876e-08,-1.5226057935815607e-07,8.37455970273341e-08,3.2185929965660204e-08,-4.097725206087652e-08,-2.670150166747775e-08
3.5570536167804565e-08,-1.8505667826088605e-09,-1.3078119683037166e-08,2.417630542256267e-07,1.1356811961441545e-07,6.879060469429214e-08,-3.4118251293962624e-08,-2.1823694785775762e-07,-3.674003758374088e-08,-8.14225346894768e-08,4.012110422384399e-08,-2.1451778408912272e-07,-6.641537246429346e-08,-1.7239694876704125e-07,7.168392356641562e-08,-3.05472066907074e-08,2.290174602363048e-08,3.8388593037658205e-08
-6.597347112731487e-09,-1.2014579363671161e-08,-6.315666108803658e-08,1.409629151024922e-07,1.0546469737002993e-07,-7.066932063819073e-08,-2.0527992055538804e-07,-4.14298272949631e-07,-1.3327960174560866e-07,-9.685815218628425e-08,1.4766204518632629e-08,-2.3163385293036536e-07,-1.5871881412684596e-07,-1.393177314615754e-07,1.933010150656252e-08,-9.375401560405457e-08,5.088526599834983e-08,1.28824780271376e-07
-6.51827162868555e-08,3.1293949010902997e-09,-6.068862789323716e-08,3.5165102899349445e-08,9.87810295700228e-08,-1.878191326790325e-07,-3.107792665245222e-07,-4.882147155317115e-07,-2.3335505096034865e-07,-1.0773094215606889e-07,-2.364644714579522e-08,-2.3102716166962001e-07,-2.434238263156449e-07,-5.34980380782313e-08,-2.9195368548342557e-08,-1.1588552767018686e-07,4.4441859446481535e-08,2.3586063456298325e-07
-1.2083494926854974e-07,1.9186391337790426e-08,-5.996471423063041e-08,3.558942823766591e-08,9.679167772054822e-08,-2.559415637455909e-07,-4.0107894082668373e-07,-5.451227679996066e-07,-2.899331812419133e-07,-1.0606629785204771e-07,-6.824008303306345e-08,-2.2671135173624072e-07,-3.1337480786447836e-07,5.404446268455261e-08,-9.387223270330978e-08,-1.094439736191342e-07,5.064166640287054e-08,3.497176969155544e-07
-1.53730209102148e-07,2.8264515544289538e-08,-5.7900970454963347e-08,8.970816433434755e-09,9.715130105546319e-08,-3.3960380784296575e-07,-4.62751121429088e-07,-5.966338639926944e-07,-4.1230050697672003e-07,-7.280444416145416e-08,-8.868890466989237e-08,-2.1281595654651785e-07,-3.6704650115987626e-07,1.5786834712840364e-07,-1.3552602331333583e-07,-1.6608793116434084e-07,1.3616423615362447e-07,4.004947012221729e-07
-1.8082215096485122e-07,3.048994788990194e-08,-1.1016209548990591e-07,4.3549010765368276e-08,9.374572474489173e-08,-4.1290575498972964e-07,-5.706015515596647e-07,-6.616777767297166e-07,-5.474665616341073e-07,-2.9804533470757296e-08,-7.75020859809062e-08,-1.1073605055122328e-07,-3.897970583981504e-07,2.4085745241394047e-07,-1.5579965791635916e-07,-2.2138058498745326e-07,2.0874274113679579e-07,4.2743286109745825e-07
-1.889793174293691e-07,-9.052672558747715e-09,-1.7113500320225047e-07,-8.396404258521926e-08,7.796828646653564e-08,-4.977666048246928e-07,-6.580402261568642e-07,-7.110996009630104e-07,-6.526730489659962e-07,1.5450969097158243e-08,-9.960266744084487e-08,4.1599096468611666e-08,-3.9364792261817334e-07,3.011318711140915e-07,-1.7312518385183865e-07,-2.3624684090056997e-07,2.821356768528589e-07,4.193232916424232e-07
-1.7967939154195523e-07,-2.3234011337575526e-08,-1.5328107900178497e-07,-2.403014108802108e-07,4.7279316134619334e-08,-5.269212841994975e-07,-6.111503526505932e-07,-6.727807592470948e-07,-7.444220930141106e-07,5.394034419063011e-08,-1.4678602062935858e-07,1.0828573703675034e-07,-3.90011862354418e-07,3.46098341903581e-07,-2.2243418360135874e-07,-2.2975463294501303e-07,3.303699446548599e-07,4.0462486445006576e-07
-1.7062587907316381e-07,-3.9891541373278685e-08,-1.460288433850852e-07,-1.9525968966111033e-07,-2.536856925827815e-10,-5.303007439455942e-07,-5.096136970221244e-07,-6.319576561866913e-07,-7.532508807091517e-07,8.91801162266881e-08,-1.828567287374002e-07,1.1308454638542316e-07,-3.797894172497381e-07,3.942661138932269e-07,-2.4638145315175097e-07,-1.791222952298201e-07,3.2845332350281177e-07,3.6935186009567055e-07
-1.2766944499958165e-07,-6.040922433122915e-08,-1.627910585238809e-07,-8.328386006459136e-08,-6.304765366990552e-08,-5.360704766814544e-07,-4.125204491765563e-07,-6.406204272897875e-07,-7.721217301500649e-07,1.1451727093204039e-07,-1.9352672965262799e-07,1.5009841723449358e-07,-3.7015659117505974e-07,4.5294236659876154e-07,-3.021443804260218e-07,-9.973109327308713e-08,3.53856987544431e-07,3.4783161217977606e-07
-6.97385439845642e-08,-5.658015546140651e-08,-1.65841672779381e-07,-1.070649433840208e-07,-1.355026867678211e-07,-5.131060536035633e-07,-3.2020441935783347e-07,-6.69961694688153e-07,-8.118820672981159e-07,1.276637113146381e-07,-1.669625485761381e-07,3.903605243460475e-08,-3.584219799371637e-07,5.19746737476688e-07,-3.368826022566671e-07,-3.7083514376737544e-08,4.1558942355757723e-07,3.4511008215376774e-07
-1.3593748307679843e-08,-5.034948080149994e-08,-1.8610748264666173e-07,-2.462032411848362e-07,-2.1060887399119017e-07,-5.193096261554304e-07,-3.0204029091001373e-07,-6.784995681885917e-07,-8.084323946067576e-07,1.333542626942119e-07,-1.4303645721420963e-07,-7.61686504234549e-08,-3.4329916720644406e-07,5.899104753653069e-07,-3.5745043883470853e-07,-2.438053191988353e-08,4.6199780291898803e-07,3.505118128485549e-07
5.0982807000936675e-08,-3.371912666327245e-08,-1.7379845367096352e-07,-3.216396630632159e-07,-2.7908886629185527e-07,-5.493796500459311e-07,-3.2322813874357384e-07,-7.106258833055841e-07,-7.824104840968735e-07,1.2597080420423334e-07,-1.3358859265410472e-07,-1.6551521880021726e-07,-3.2288402986870274e-07,6.567048369980926e-07,-3.535761021078159e-07,-5.6217625412603695e-08,4.905861972903562e-07,3.6901606269137806e-07
9.099563361996758e-08,6.749400296648856e-09,-1.279794148412123e-07,-3.523840183079216e-07,-3.2768046735393534e-07,-5.851860453647648e-07,-3.720322875409903e-07,-7.685743344250729e-07,-8.567103249220142e-07,1.205171572190003e-07,-1.3152849304659849e-07,-2.178864811462737e-07,-2.975474372999069e-07,7.165643790218031e-07,-3.5469939578739515e-07,-1.0636284370348495e-07,5.02003726913248e-07,3.894183048858023e-07
1.1137464720060445e-07,8.01598175504752e-08,-6.039699889621899e-08,-3.654309249938409e-07,-3.502974528450989e-07,-6.210947131373801e-07,-4.478365287604135e-07,-8.498073407453342e-07,-9.256877481396933e-07,1.2868179494909328e-07,-1.5116564992930914e-07,-1.949452054538116e-07,-2.5834991429118265e-07,7.668893219268411e-07,-3.7751116868497696e-07,-1.5475538014962447e-07,5.018211692613988e-07,4.115863093994728e-07
1.2288718198416165e-07,1.3689560784110262e-07,-3.080121521907252e-08,-2.64943022610506e-07,-3.4933805379613745e-07,-6.273851771224853e-07,-5.201966549425433e-07,-9.184509164291576e-07,-9.186831236022209e-07,1.533157596110577e-07,-1.7844107093153078e-07,-1.0480658733610215e-07,-2.0260743823982114e-07,8.023131876052305e-07,-3.644985750090942e-07,-1.823870037214237e-07,5.088161544260564e-07,4.258152263872969e-07
1.237382405635544e-07,2.3123068257379634e-07,3.83736149422498e-08,-1.0474146474405543e-07,-3.328517970291865e-07,-5.991150014727434e-07,-6.108461035507297e-07,-9.605328479035675e-07,-9.130028264336035e-07,1.910328153742366e-07,-2.0364845974782394e-07,-1.0144419557653563e-08,-1.4024443084850686e-07,8.11263890878579e-07,-3.827266061434135e-07,-1.8572180424748633e-07,4.879533917914066e-07,3.842040474935172e-07
1.2501947944349905e-07,3.425295624713033e-07,1.1670678751736014e-07,6.682328291525976e-08,-3.1460815414237174e-07,-5.496229586987149e-07,-7.138895697908387e-07,-1.0237787093100556e-06,-9.23918150132381e-07,2.3372091340729728e-07,-2.098019675212719e-07,7.056332152753196e-08,-1.0350067165909105e-07,7.865216137299533e-07,-3.850880744481547e-07,-1.748400410759024e-07,4.490688631457877e-07,3.890393143601369e-07
1.2899498611427758e-07,4.0704352526953457e-07,1.5425288175219074e-07,1.492269399439444e-07,-3.057092568731835e-07,-4.795742480024714e-07,-8.195528000456407e-07,-1.0228792884383427e-06,-9.591669132212304e-07,2.7262040102011924e-07,-1.7293938986061813e-07,1.4221156905519037e-07,-1.1385791156956542e-07,7.309014968071536e-07,-3.5412452556640866e-07,-1.5111445497275523e-07,4.20331916939188e-07,3.7318845731900937e-07
1.3726038353797787e-07,4.40380044191166e-07,1.4960951109538756e-07,1.536593004494708e-07,-3.0767528292143997e-07,-3.9514372338482627e-07,-9.204133367005293e-07,-1.0000997945952688e-06,-9.96977039541996e-07,3.022351015294116e-07,-1.1043465826599815e-07,2.0935117106059416e-07,-1.4237980118757026e-07,6.591343571294766e-07,-3.075044223082179e-07,-1.2079231652645125e-07,3.9463063025363305e-07,3.276926249690245e-07
1.5439100356813105e-07,4.488587027043646e-07,1.780526925081229e-07,1.1052704391900395e-07,-3.115829190276382e-07,-3.0327986759091024e-07,-9.958255277647679e-07,-9.477588327976817e-07,-1.0128274258275653e-06,3.2601231908528747e-07,-2.870422151137926e-08,2.7280169401861457e-07,-1.6156605451722507e-07,5.934185843283451e-07,-2.2545943529396397e-07,-9.079030954356734e-08,3.6005402577415486e-07,2.869929854210883e-07
1.8419164127690323e-07,4.74251337681243e-07,1.996719471439703e-07,3.8116467868251886e-08,-3.0212892674923075e-07,-2.0577480424573578e-07,-1.0298639297802313e-06,-7.736997765322957e-07,-9.208448974595169e-07,3.476628327331905e-07,6.861388359014091e-08,3.44855387661389e-07,-1.7119742806457712e-07,5.523944779205272e-07,-1.1131851945343492e-07,-6.274747587015525e-08,3.291965963355784e-07,2.706505595595226e-07
2.2583100571542764e-07,4.904096695824877e-07,2.0360007531242234e-07,-1.3461308447765011e-08,-2.7058285336165994e-07,-1.0927515608790448e-07,-1.014103943723661e-06,-5.716955101994269e-07,-8.335227536521707e-07,3.706253461839462e-07,1.4974407160128758e-07,4.307559718190562e-07,-1.729341097664496e-07,5.414074830724297e-07,1.3281805968309146e-08,-3.929817437764226e-08,3.0516686585534386e-07,2.4552131570545324e-07
2.718953941257352e-07,5.400675507862364e-07,2.3273305539667748e-07,-4.520027727979865e-08,-2.136439580843033e-07,-2.3915074769858654e-08,-9.543758049531834e-07,-4.1095415494523577e-07,-7.737009972697239e-07,3.959461544055711e-07,1.9913732191103843e-07,5.221243680361822e-07,-1.476210567418184e-07,5.497822556113363e-07,1.1004059811864218e-07,-2.2813738002455003e-08,2.796703510383768e-07,2.0116796935426236e-07
3.1082027392298434e-07,6.275952998673422e-07,2.7231116061100855e-07,-4.704800172808145e-08,-1.4101996695834516e-07,4.024941011578997e-08,-8.713553985714572e-07,-2.7887680306964434e-07,-6.944120025301402e-07,4.1945538662804705e-07,2.3113699556640037e-07,5.996727108277922e-07,-1.30017175703998e-07,5.581417616605302e-07,1.8905948551775835e-07,-1.601348777224443e-08,2.6311432226290774e-07,1.7787003261020764e-07
3.3217049829455274e-07,7.126687716011536e-07,3.094932383080582e-07,-4.0232933829282295e-09,-7.120499537953134e-08,7.444146406880897e-08,-7.907035729292139e-07,-2.2871739942803644e-07,-6.641261990287102e-07,4.3664294367192816e-07,2.509474247254439e-07,6.425961201406402e-07,-1.160399996963133e-07,5.494173033694231e-07,2.3051214650325213e-07,-2.0695032946968486e-08,2.3546616855466626e-07,1.7998073197641737e-07
3.327881174913351e-07,7.364930047162628e-07,3.43240613637364e-07,7.487646682990656e-08,-1.931344143631659e-08,7.614394375604133e-08,-7.314964305308533e-07,-2.3545589536013364e-07,-6.222773182294762e-07,4.4556898816988587e-07,3.0769941384210726e-07,6.398190556115866e-07,-1.1397247348850204e-07,5.191865366505708e-07,2.3892939058401963e-07,-3.495045888220509e-08,1.932243154921159e-07,1.976946032399688e-07
3.188273001819113e-07,7.099030928990269e-07,3.616541836809834e-07,1.7985424932765608e-07,7.588153083945519e-09,5.209259378524562e-08,-6.987859430368482e-07,-2.7148100657357936e-07,-5.581584593609106e-07,4.4675637422375745e-07,3.110293419820056e-07,5.96600710621312e-07,-1.238065237820834e-07,4.785779926378123e-07,2.358862807160949e-07,-5.283986872798399e-08,1.5054400487320864e-07,2.1355055865603386e-07
3.0250456805470617e-07,7.018463559970864e-07,3.6964702260649266e-07,2.9593563930358074e-07,1.384504965112968e-08,1.5346073327233217e-08,-6.834744921379108e-07,-3.247723994992428e-07,-5.402405755859281e-07,4.4241372991428046e-07,2.8633362233952956e-07,5.325741812625231e-07,-1.3646854023297186e-07,4.4946422241275314e-07,2.2237762633635578e-07,-6.676853120266261e-08,1.227673806462842e-07,2.4300949160141336e-07
2.953069066429499e-07,7.019916796414031e-07,3.749408494653546e-07,4.0205482001598536e-07,8.837990172734932e-09,-2.031122393146804e-08,-6.68571739454503e-07,-3.683584893784955e-07,-5.579009515184574e-07,4.3474454368720964e-07,2.7795424178848264e-07,4.722096850668927e-07,-1.4691088390680402e-07,4.492516486149827e-07,2.0261675053786189e-07,-7.21484376486362e-08,1.2013867639545303e-07,2.720644066331806e-07
3.017531863439288e-07,7.050469336745221e-07,3.8225534977618155e-07,4.836281611546627e-07,6.1709050164184456e-09,-4.318252947335389e-08,-6.383266514785709e-07,-3.9856781992693465e-07,-6.23255035589054e-07,4.234913286036977e-07,2.6784888049471777e-07,4.3329533951733e-07,-1.5298488554924596e-07,4.80342334278519e-07,1.9422881826289418e-07,-7.113009163677548e-08,1.3746218062080186e-07,3.0128929626412955e-07
3.1611945366314466e-07,7.151959346021319e-07,3.8449057780203e-07,5.244574198849967e-07,1.0725463250135391e-08,-5.161207944483274e-08,-5.855074924901332e-07,-4.1771826534416623e-07,-7.246686796820953e-07,4.0587751318443937e-07,2.4808289124948015e-07,4.2054367585955016e-07,-1.570543408967962e-07,5.330747388302245e-07,1.6718850032905672e-07,-6.972531657017354e-08,1.594956167019958e-07,3.300744661608123e-07
3.2587895317262687e-07,7.351708561568395e-07,3.7469165644011345e-07,5.179570900140128e-07,2.0114927743656882e-08,-5.092846522222178e-08,-5.131340183711857e-07,-4.274569880473855e-07,-8.149638173982736e-07,3.7629759424922204e-07,2.3816058294888803e-07,4.279079428988994e-07,-1.6376708658701512e-07,5.901544894716538e-07,1.1585756661847267e-07,-7.906283647920178e-08,1.650316423159704e-07,3.4867049596627375e-07
3.195452403955413e-07,7.445288876474185e-07,3.4751550644277163e-07,4.6830271173787085e-07,3.131265342460382e-08,-4.676787840972378e-08,-4.3054717544113716e-07,-4.2766353114928744e-07,-8.95767552159452e-07,3.348987452178177e-07,2.2636346454826022e-07,4.4660263277405164e-07,-1.7755685964592774e-07,6.374219287372715e-07,4.589091371125317e-08,-1.0554620741334371e-07,1.5176707971996067e-07,3.644705702350898e-07
2.937127565010809e-07,7.353210831537211e-07,3.0416577766576433e-07,3.9105153415717724e-07,4.383717251714335e-08,-4.188097411580432e-08,-3.4748465473063154e-07,-4.1871112319345896e-07,-9.440583331395937e-07,2.832038826491028e-07,2.1044588834100045e-07,4.720669965412326e-07,-1.9990660346134195e-07,6.767040065435426e-07,-4.226736025109794e-08,-1.4563050346638496e-07,1.2880722943502168e-07,3.7136043418268775e-07
2.5548589330896607e-07,7.12568823862693e-07,2.5626617987337505e-07,3.09484344748433e-07,6.412398962199886e-08,-3.385152152460955e-08,-2.7045433860559145e-07,-4.049448349839761e-07,-9.627985563180032e-07,2.2722158878361976e-07,2.0063770682946098e-07,5.051432278335981e-07,-2.256040162958909e-07,7.074805755285736e-07,-7.987618724149326e-08,-1.9030896526779785e-07,1.112741316289477e-07,3.6970298063711695e-07
2.1827870794193377e-07,6.849933708960596e-07,2.121115964521253e-07,2.464914193062907e-07,1.019986823257761e-07,-1.8286667897741653e-08,-2.032460038711172e-07,-3.849217176732712e-07,-9.636304342250707e-07,2.084442781077444e-07,2.0221113340133206e-07,5.474376217238547e-07,-2.480058482943754e-07,7.23043050712396e-07,-5.430815901730055e-09,-2.2192083450031306e-07,1.1435400641883262e-07,3.685628660994612e-07
1.9675083672256828e-07,6.680709079909991e-07,1.7781525880439796e-07,2.0628503502581107e-07,1.6568217376726577e-07,6.345565687551526e-09,-1.5031294958379748e-07,-3.632238314758231e-07,-9.28400215792129e-07,2.1913164418980014e-07,2.2321076692585285e-07,5.945117232762135e-07,-2.6293626981819763e-07,7.282084956626858e-07,1.396473236965405e-07,-2.252314494538657e-07,1.3958843354859045e-07,3.734684528539998e-07
1.9821597610633434e-07,6.751701272101081e-07,1.541853106069905e-07,2.071193011772799e-07,2.5496532217690266e-07,3.5055018492360854e-08,-1.197498329867716e-07,-3.474570037165694e-07,-8.714033307894465e-07,2.3011238458069133e-07,2.6555358209129556e-07,6.322684824054163e-07,-2.608837044928758e-07,7.285280737475479e-07,2.7831538337790867e-07,-1.9337645191006707e-07,1.747240433815818e-07,3.8166437967808846e-07
2.2025814158369257e-07,7.106353181381445e-07,1.324795102857437e-07,2.505578991523454e-07,3.5608456752757007e-07,5.885862115884611e-08,-1.2255569892981932e-07,-3.5335983460236554e-07,-8.05726255951852e-07,2.513679343530235e-07,3.180487065568118e-07,6.407582659897067e-07,-2.53893747834442e-07,7.006398805547889e-07,3.425436130175655e-07,-1.311082612778842e-07,2.0012010736719634e-07,3.8731532370447336e-07
2.514007204159926e-07,7.683853529872404e-07,1.0820491858584094e-07,3.258990053392725e-07,4.522326982474816e-07,6.806517382409203e-08,-1.672551824851628e-07,-3.9386909946212363e-07,-7.106220238371447e-07,2.8779374053763735e-07,3.6626646847539503e-07,6.046517814113772e-07,-2.5092372607275154e-07,6.549527740880036e-07,4.5186769943292966e-07,-5.034972096000725e-08,2.0041138426324606e-07,3.8324538639706584e-07
2.800898159660174e-07,8.34870025500477e-07,1.0090998233282355e-07,4.230371876418559e-07,5.268034633375339e-07,5.8647186970813705e-08,-2.52860281302918e-07,-4.65499177079293e-07,-5.960083146108734e-07,3.254503458439909e-07,3.99464973577432e-07,5.237605270416789e-07,-2.5499901873785917e-07,5.874838495612805e-07,5.608443192294273e-07,3.5045452114244e-08,1.744872700238226e-07,3.62823175612987e-07
3.0041131116239937e-07,8.985410660013612e-07,1.0516707138892603e-07,5.19737187886618e-07,5.637402232906197e-07,3.733052531275244e-08,-3.6532009407879986e-07,-5.537997848812983e-07,-4.840194559721793e-07,3.3550240826191117e-07,4.1546392997088965e-07,4.15968793278828e-07,-2.5407672614040417e-07,4.65153180954258e-07,5.857840662790252e-07,1.2015658147988786e-07,1.3643437414306661e-07,3.3293888904931157e-07
3.150806029039311e-07,9.52040338768213e-07,1.3079874759874121e-07,6.173543629380245e-07,5.642871971499287e-07,1.4811478576592664e-08,-4.805735550658839e-07,-5.853726960108011e-07,-3.160834023226632e-07,3.285715719190517e-07,4.199060068483405e-07,3.100849766532849e-07,-2.1779457170199383e-07,3.4200392381155165e-07,6.507798427127883e-07,2.067524549167755e-07,1.0757701948261942e-07,3.033224641648944e-07
3.313142361654199e-07,9.942563981456486e-07,2.0503835054951118e-07,7.078099177040248e-07,5.510251776371723e-07,7.627982834716673e-09,-5.726896356951642e-07,-4.627103557666285e-07,-2.1966519198399958e-07,3.2498760087289247e-07,4.238819364315762e-07,2.3266091134849158e-07,-1.3296521386323383e-07,2.2963876736752496e-07,7.466462442234712e-07,3.0302476632616184e-07,1.0453273042393777e-07,2.8134428610140545e-07
3.566843165397299e-07,1.02877343699006e-06,2.315171697898811e-07,7.977400593764305e-07,5.343182604742134e-07,3.12828398339911e-08,-6.225334313917868e-07,-2.467209790545238e-07,-1.325720613910029e-07,3.3544641893199007e-07,4.2654124645302157e-07,1.961804063443118e-07,-4.2287591214692716e-08,1.3456949772955413e-07,8.051781087602951e-07,4.136334141213197e-07,1.301530457020288e-07,2.7280919751107625e-07
3.866593200604076e-07,1.0586956114874749e-06,2.4519414306579766e-07,8.6530291168552e-07,5.230616613124303e-07,8.663241163152668e-08,-6.228986787807938e-07,-2.3242117811065538e-08,-3.8988761288335904e-08,3.5773800491959046e-07,4.332260398919076e-07,1.9524845450665875e-07,3.7200978083592454e-08,8.011313202770393e-08,8.556123348685932e-07,5.242012705502597e-07,1.7444221249144227e-07,2.727148752197526e-07
4.1721124270703224e-07,1.0858831729977584e-06,3.3353638056517014e-07,9.338943507045171e-07,5.253648819725222e-07,1.603249317195982e-07,-5.785369306654454e-07,8.118874656277452e-08,1.6170486650358284e-08,3.887217758869522e-07,4.412055555855654e-07,2.129402428611644e-07,1.2364138427072158e-07,3.2938646978284767e-08,8.870454515775603e-07,6.290442101152067e-07,2.1883878571046874e-07,2.7109107283369107e-07
4.431811375629068e-07,1.1092359965751335e-06,4.375972112919941e-07,1.0112970325366608e-06,5.365176856857892e-07,2.403402685499662e-07,-5.019263190703019e-07,2.1768925204792356e-07,1.4781398083866022e-07,4.1779937324458923e-07,4.407841795539972e-07,2.3291349988550982e-07,1.703535835467041e-07,-2.534704119134163e-08,9.308212187476942e-07,6.83163644629226e-07,2.49951462689103e-07,2.5712165916574333e-07
4.568015325862412e-07,1.1285923924875727e-06,5.433738691831287e-07,1.0898667321513213e-06,5.563853436439915e-07,3.1699356414277306e-07,-4.0716985473731636e-07,3.720768184111164e-07,2.6792817166112745e-07,4.444608286172574e-07,4.2999529269932764e-07,2.490220483773591e-07,1.9992353433121536e-07,-9.550139763014896e-08,1.0245616453451873e-06,7.000548126178339e-07,2.6624243573799405e-07,2.2722237355102436e-07
4.618181441250788e-07,1.145135616335288e-06,6.406236252969555e-07,1.1773071549028487e-06,5.786695493295075e-07,3.870778416305176e-07,-3.049594928525581e-07,5.639690907324297e-07,4.034602197797182e-07,4.784841784796343e-07,4.158290690142491e-07,2.667430077844866e-07,2.622672711576442e-07,-1.695191145179072e-07,1.15410925877817e-06,7.269248000306596e-07,2.794573025866571e-07,1.883222468937326e-07
4.536779174182157e-07,1.1611177728942445e-06,7.026911870505513e-07,1.2032726534955852e-06,6.025158311955118e-07,4.581658298838441e-07,-2.010609826732599e-07,7.846306290076955e-07,5.10786264914349e-07,5.060863658594518e-07,3.9580932356719685e-07,2.9700886301943426e-07,3.233918723573498e-07,-2.415506538139063e-07,1.2739485449332824e-06,7.996186983085849e-07,3.046373959469069e-07,1.4274210451533932e-07
4.4706391601991904e-07,1.176947476470523e-06,7.450769129238012e-07,1.1913966101665397e-06,6.224016126453265e-07,5.299279575025443e-07,-9.876598530240958e-08,9.648631143083785e-07,5.390344790976511e-07,5.326218624499514e-07,3.636172853009916e-07,3.4740654840736206e-07,3.8744352019922643e-07,-3.0005893506819886e-07,1.3394773931355482e-06,8.283213512701123e-07,3.490195219479811e-07,9.795829159673456e-08
4.383368502494512e-07,1.189437247537665e-06,7.682734994678811e-07,1.1291033023913303e-06,6.156019645752881e-07,5.669730532581488e-07,-2.795001981945784e-09,1.100887275241255e-06,6.081643079804476e-07,5.390175038675111e-07,3.391471914843678e-07,4.177442990442811e-07,4.314823136481717e-07,-3.433381335609987e-07,1.2651343492247798e-06,8.020657518812025e-07,4.0852986855011875e-07,6.254249097468037e-08
4.113087169652613e-07,1.191377907260316e-06,7.709953369701846e-07,9.941672460862666e-07,5.801337893958651e-07,5.655508738470765e-07,7.925464056401406e-08,1.09990340540059e-06,6.499552778762403e-07,4.7588895664138264e-07,2.977264858213932e-07,4.961844513484663e-07,4.180600530513962e-07,-3.80376399266255e-07,1.2209905857194127e-06,7.661392508301343e-07,4.50027250598213e-07,2.6717943342762516e-08
3.63295408060512e-07,1.165850954106606e-06,7.696265896519955e-07,9.887862193285781e-07,5.240139010172277e-07,4.875389093313099e-07,1.3978544428394815e-07,9.479779804270576e-07,6.915724824874772e-07,4.358462528414431e-07,2.568148346986683e-07,5.647302519583953e-07,4.169845551187932e-07,-4.174581273202213e-07,1.205332381194068e-06,7.472263093711269e-07,4.6071450460409223e-07,1.2291019222916338e-08
3.303043643943994e-07,1.1036630962144947e-06,7.507869275674271e-07,1.002313723224809e-06,4.455609164215079e-07,3.691072509162161e-07,1.762268454600655e-07,9.13874525628112e-07,7.321197385924349e-07,4.1754164303614475e-07,2.5372834120795723e-07,6.101830995386828e-07,4.1850605594397173e-07,-4.5515584616669145e-07,1.1993572844243296e-06,7.373395179775878e-07,4.3791478185882313e-07,3.8549302847475595e-08
3.1210255359633056e-07,1.0212715187207377e-06,7.067876701907819e-07,1.001329146249569e-06,3.4310079706937213e-07,3.4044784969081475e-07,1.9387403729261845e-07,1.029044020074363e-06,7.587855721390568e-07,4.0589280145236084e-07,2.299104783287741e-07,6.250940492173932e-07,4.1358283012589734e-07,-4.872226352914924e-07,1.2162872671140312e-06,7.737146207742677e-07,3.935019519359012e-07,1.0553957003344457e-07
3.1237722418664046e-07,9.276744951272349e-07,6.448992723209794e-07,1.0365392108717488e-06,2.4979676173408955e-07,3.204889923237121e-07,2.0399309918919914e-07,1.1492417009754902e-06,7.9976281647186e-07,4.133548291865968e-07,1.6335324177469887e-07,6.082320164247856e-07,4.1784434473111154e-07,-5.016824388985324e-07,1.2076518694132654e-06,8.130338828650967e-07,3.603420855978915e-07,1.9634176374663285e-07
2.8924626347643684e-07,8.405986531988832e-07,5.956329503136008e-07,1.0700836240141063e-06,2.537976231967347e-07,2.172064555629665e-07,2.182150062339127e-07,1.234548997821918e-06,7.956527440469463e-07,4.1175682196780734e-07,1.2639349807829847e-07,5.626383946982059e-07,4.2569471957450323e-07,-4.927297750517671e-07,1.1975445945857768e-06,8.186555624422986e-07,3.3306839501705496e-07,2.763083395336377e-07
2.5621971364881794e-07,7.747412335130143e-07,5.759487872232567e-07,9.968173575909794e-07,3.244618698895492e-07,8.908411402097168e-08,2.424412557343274e-07,1.1972403589568989e-06,7.676311631346837e-07,4.1226029538328413e-07,1.1947814505387985e-07,4.926747675550574e-07,3.8415846026732624e-07,-4.6636621301992014e-07,1.1635228975096166e-06,7.87671890824302e-07,3.034311109637038e-07,3.364731261874899e-07
1.9720474517962038e-07,7.347078258981765e-07,5.83616892201155e-07,8.97719762291005e-07,4.6018514926271026e-07,-3.174663486918828e-08,2.7378077638684584e-07,1.1293165886652232e-06,6.710337386788825e-07,4.31844237326957e-07,1.1759228786007852e-07,4.053169774741646e-07,3.3291612545769946e-07,-4.323621012045817e-07,1.1707884104513876e-06,7.208652127086862e-07,2.398611199617403e-07,3.7178047526058946e-07
1.6566675297428368e-07,7.112963178665083e-07,6.083135724874482e-07,8.193645440652102e-07,6.048631121127299e-07,-1.7211247180856853e-07,3.027069007194479e-07,1.0528866728056931e-06,5.644375176325192e-07,4.6237925743360574e-07,1.6524533713477607e-07,3.134215904798391e-07,2.952020267074767e-07,-3.9742696586506785e-07,1.1371869593166937e-06,6.27425891200985e-07,1.548969050069026e-07,3.8248903736333243e-07
2.3507065586499332e-07,7.023427664007121e-07,6.146786811701116e-07,7.856346886904175e-07,7.032000872189547e-07,-2.5257440582916736e-07,3.1938288868678833e-07,9.004469719774619e-07,4.822573222759216e-07,5.01573312880065e-07,1.76083054692896e-07,2.353542940523602e-07,2.499809717541058e-07,-3.5777419973299785e-07,1.1419617972311183e-06,5.211473215876151e-07,6.781218373584592e-08,3.758135245906398e-07
2.5941681643227005e-07,7.315678130237817e-07,5.715505418160839e-07,7.915985296152132e-07,7.954911012367854e-07,-2.871613212621723e-07,3.195680286386177e-07,7.86422647144838e-07,3.7665715748656224e-07,5.327098242754729e-07,1.908532766660708e-07,1.9005223718028445e-07,2.080775446127847e-07,-3.013749559161704e-07,1.0977558704330874e-06,4.205397625887117e-07,-1.1066127242104766e-08,3.655337844706906e-07
2.7625152914723867e-07,7.539252767458939e-07,4.98565457790881e-07,9.610254273856077e-07,9.193560141206187e-07,-2.856243936507845e-07,3.055484161945562e-07,6.632423384916266e-07,2.8010517549531957e-07,5.700813410987778e-07,2.030167918220737e-07,1.9195645394253118e-07,1.4742377945011424e-07,-2.2169815080082697e-07,1.029376473133903e-06,3.410216625384178e-07,-1.2739163503789443e-08,3.615977618409436e-07
3.170560846074289e-07,7.784011654794309e-07,4.4404683728658483e-07,1.1403480668843428e-06,1.0504871326139577e-06,-2.1993577373688718e-07,2.818412803979651e-07,5.098070919800397e-07,1.9099972393188712e-07,6.049522663386745e-07,1.898127404221681e-07,2.453678054415514e-07,7.95372318625392e-08,-1.1590923537798905e-07,1.0332539077446778e-06,2.879915415848638e-07,1.6546443212594325e-08,3.6674921822445065e-07
3.404850979458726e-07,8.189091238749294e-07,4.6170368302697983e-07,1.1746501279208307e-06,1.1068504729620518e-06,-2.0124287434020535e-07,2.4993338965073584e-07,3.7409453130112975e-07,1.236176513921711e-07,6.102224674771253e-07,2.169171163370339e-07,3.4143047374126503e-07,2.733804941699908e-08,6.990057697766399e-09,9.805614220960656e-07,2.571082004760155e-07,3.338448527503773e-08,3.8040805362324873e-07
3.720263825326718e-07,8.459649544258177e-07,5.170050724022703e-07,1.141598480946845e-06,1.1499691991312865e-06,-2.1141750436429878e-07,2.0685577250327262e-07,2.3360804611216986e-07,6.642492710299329e-08,6.419204736297398e-07,2.537927047084298e-07,4.60581732797314e-07,-1.779919816311262e-08,1.3336410097349716e-07,9.277291669730946e-07,2.3572213990608954e-07,5.68716082401342e-08,3.8667161988578164e-07
4.1739045976913956e-07,8.842044438904972e-07,5.654257270197185e-07,1.1490006634843244e-06,1.2102409585506377e-06,-2.215550874541564e-07,1.487199034968683e-07,1.0649587561763332e-07,4.696205141113393e-09,6.86988069557966e-07,3.2706301937341914e-07,5.653428378769827e-07,-3.0718509440941944e-08,2.4692372169302345e-07,9.042932671293183e-07,2.108269637701351e-07,6.479607103749377e-08,3.8545399448886034e-07
4.810069300894774e-07,9.440364650805983e-07,5.994125191911619e-07,1.2960405127595323e-06,1.2697428479310654e-06,-1.782582608991459e-07,7.60290749497268e-08,6.289997006261136e-09,-5.273194365765806e-08,7.310035987439808e-07,3.8527134250361917e-07,6.416267037930603e-07,-5.061573576476355e-08,3.267585244383969e-07,8.679558594223166e-07,1.7531876285722902e-07,7.826089418190833e-08,3.681143818998878e-07
5.123916728873899e-07,1.0513864339850284e-06,6.403359056491654e-07,1.3700376268642878e-06,1.3516821485606585e-06,-7.465253148777151e-08,-3.431895342463484e-09,-3.4128363101597624e-08,-9.155726559077095e-08,7.657206596965904e-07,4.510194856743083e-07,6.996867763508912e-07,-5.443935140162536e-08,3.902152786822834e-07,8.295649365183145e-07,1.2929893917739828e-07,1.0139621320227406e-07,3.1926601924550745e-07
5.385062702925814e-07,1.185839771762233e-06,6.795736048257067e-07,1.4706388930422368e-06,1.4198901387754347e-06,6.940706740629157e-08,-7.577637630454354e-08,-5.0248232406892614e-08,-8.217884295382024e-08,8.029285398982738e-07,5.067964229130482e-07,7.337765009322169e-07,-3.920663124391468e-08,4.477674944195362e-07,8.494929741041377e-07,7.724233988060132e-08,1.1835611979868157e-07,2.714962941926699e-07
5.750263702194459e-07,1.289607211477346e-06,7.496571458024695e-07,1.4894313171709182e-06,1.4663299573615679e-06,2.546457645077292e-07,-1.253573102608646e-07,-5.1299026460104806e-08,-1.9295639207249193e-08,7.990859379583015e-07,5.128380319858848e-07,7.443547319790153e-07,-4.3760388839713624e-08,5.034968710909847e-07,8.722326367590847e-07,2.2286273526517112e-08,1.386129185093545e-07,2.351110432858898e-07
6.00229599571389e-07,1.3625560125392804e-06,7.691421083040768e-07,1.5210522273071472e-06,1.4849415456994872e-06,3.497770325063213e-07,-1.4044038506783805e-07,-3.6055204731895534e-08,4.5004570164376326e-08,8.129298442354387e-07,5.042763697731113e-07,7.253246193351916e-07,-6.063847446396342e-08,5.54250156742198e-07,8.702212347596545e-07,-3.721661465236017e-08,1.519004821770033e-07,2.0088624063379525e-07
6.291301749496151e-07,1.3966875941040804e-06,8.35604882594533e-07,1.542674491687128e-06,1.5079826733029796e-06,4.3564886725834953e-07,-1.1770793775546132e-07,-1.4573406371699416e-08,1.0548875884851776e-07,8.321122449082853e-07,5.026508784486242e-07,6.699348024230783e-07,-1.0203407133691706e-07,5.885749457825042e-07,8.018882043413862e-07,-1.0605011124076002e-07,1.5014751196997187e-07,1.7626177447139336e-07
6.816417832834388e-07,1.4846014727486653e-06,8.810754453414221e-07,1.6580448953095723e-06,1.5289623887865546e-06,5.33967654448111e-07,-6.31718046007779e-08,3.6259291335887955e-08,1.77757969772898e-07,8.377702763911156e-07,5.349664386020298e-07,5.798593989831694e-07,-1.643731091658891e-07,5.896633915773957e-07,6.91149634566722e-07,-1.8678000823851406e-07,1.3703062641021107e-07,1.5353390797773046e-07
7.066887122805482e-07,1.5590410993123853e-06,9.254117356913957e-07,1.7123272156137425e-06,1.5394845416626103e-06,5.399930522331212e-07,1.0571921226183686e-08,1.2873189690824517e-07,2.6777621637574733e-07,8.382103272579062e-07,5.906974937895085e-07,4.854477575135794e-07,-2.2125629534286188e-07,5.590361534344061e-07,5.718941238016123e-07,-2.7704367313616063e-07,1.1431236784364196e-07,1.304258137992802e-07
7.290161206228414e-07,1.5586550117947447e-06,9.647946956628469e-07,1.810529012874651e-06,1.5652679258957347e-06,4.647113788119613e-07,8.803330105078326e-08,2.618070044284756e-07,3.4195724249557163e-07,8.546006145771474e-07,6.224012519803183e-07,3.8325028594425843e-07,-2.6951265839740106e-07,5.310033992795035e-07,4.640105145812832e-07,-3.7084229400688846e-07,8.611856074816435e-08,1.0906506380878197e-07
7.474554059530744e-07,1.563331302550076e-06,1.0185337177275836e-06,1.8793911325155777e-06,1.590124417482653e-06,3.755045404281455e-07,1.5309341635687923e-07,4.131894908195282e-07,3.729445307986149e-07,8.749902689593401e-07,6.439876539718784e-07,2.3708090020505322e-07,-3.022869206825072e-07,4.821600967794654e-07,4.0328073837714155e-07,-4.620934668071368e-07,5.43098771612307e-08,8.596840268355169e-08
7.417215290397403e-07,1.5729122055848861e-06,1.087642976106389e-06,1.9683247750661122e-06,1.674059288692328e-06,2.9475330298310045e-07,1.9073240631805807e-07,5.670050013322427e-07,3.503099018893021e-07,8.735299212624648e-07,6.433488445704385e-07,6.245315033070731e-08,-3.1562923209652633e-07,4.1241021973122e-07,3.3714103973624e-07,-5.483484469935011e-07,1.64081950152343e-08,6.030446810764207e-08
7.285161768439135e-07,1.590109751014028e-06,1.1287592402973057e-06,2.0363986320814806e-06,1.7161145670851365e-06,2.0380865804095915e-07,1.9071040193418424e-07,7.006257576814657e-07,3.0901389458024544e-07,8.606214722986126e-07,6.039968272598153e-07,-1.2685887141043145e-07,-3.188089788229883e-07,3.347013495766225e-07,2.6908386675802484e-07,-6.304068991879126e-07,-2.8830997912411706e-08,3.08168521281798e-08
7.113701670898009e-07,1.6074490673504354e-06,1.1557458293702685e-06,2.0767780177321587e-06,1.719580057282559e-06,1.1415839509937916e-07,1.5291230713915154e-07,7.941082655185634e-07,2.8647785468014613e-07,8.416780998464966e-07,5.586725025220191e-07,-2.8219751003844444e-07,-3.105079271620631e-07,2.507558492935704e-07,2.0633692326066768e-07,-7.096105421870465e-07,-7.604676942821433e-08,-8.789119444389955e-10
6.604360095797081e-07,1.6635777060471493e-06,1.1228403230690155e-06,2.062285899953572e-06,1.6235723258648993e-06,2.8300053300553643e-08,9.015574157222461e-08,8.444654827798799e-07,2.1645010174451603e-07,8.062479327633288e-07,5.143701238337463e-07,-3.662023416715141e-07,-2.902650470146231e-07,1.85888936392073e-07,1.4831470508473408e-07,-7.856633646619903e-07,-1.1307149181763267e-07,-2.775808071499499e-08
6.105510851922818e-07,1.754428397022618e-06,1.0424095523263265e-06,1.946165033296313e-06,1.5901262009379327e-06,-5.650444419925967e-08,2.4415559704705088e-08,8.561587457602485e-07,1.3773554706586661e-07,7.701681170964477e-07,4.79540401956003e-07,-3.639337515289298e-07,-2.588097041412518e-07,1.689352195578452e-07,9.6493081724923e-08,-8.592649210255217e-07,-1.2729462772933242e-07,-4.253439881699551e-08
5.607922035277768e-07,1.8526068598464034e-06,9.921577174498408e-07,1.8625210399437067e-06,1.581017000152471e-06,-1.4535523420339516e-07,-2.2744474014414364e-08,8.422777161003096e-07,7.012486761208662e-08,7.232462450931309e-07,4.6294849635618275e-07,-3.958762977266775e-07,-2.1537653344710834e-07,2.0351954191569475e-07,4.608030162763207e-08,-9.266063151712846e-07,-1.1396288435052426e-07,-4.2481287559843016e-08
5.581216267091513e-07,1.9573004490884757e-06,9.906930553571864e-07,1.8174309470287228e-06,1.5198668728110838e-06,-2.064697321098749e-07,-3.991185105224556e-08,8.179153311696914e-07,-2.45205736484011e-08,6.888051025110602e-07,4.545888976493678e-07,-5.271521132498051e-07,-1.659005135566238e-07,2.565376565465654e-07,-3.7900372530832916e-09,-9.831221395950052e-07,-8.016672838618035e-08,-3.1680115171697546e-08
5.821375145891725e-07,2.0583530351460747e-06,1.021869797510861e-06,1.7615204540849069e-06,1.4386096432122713e-06,-2.431524035602383e-07,-2.980545562452555e-08,7.940498346921328e-07,-1.0901857169414716e-07,6.680007681952445e-07,4.513018078366332e-07,-5.398803399028439e-07,-1.19096419191709e-07,3.231661902795845e-07,-6.119019266578091e-08,-1.0335118728560176e-06,-4.0945774326079364e-08,-1.9839482775865925e-08
6.012576024177028e-07,2.147479039764445e-06,1.0615724814982074e-06,1.7297764649229768e-06,1.3419939106338692e-06,-2.6664862777322696e-07,-5.656176995284953e-09,7.773020751023638e-07,-1.8657462057078733e-07,6.394184921408501e-07,4.410327567233958e-07,-4.891212732297182e-07,-8.258495443521671e-08,3.790140242762715e-07,-1.1521492212495864e-07,-1.0820930103601892e-06,-1.000508202453531e-08,-1.5470747632794494e-08
6.11714659929435e-07,2.2217779599178854e-06,1.0879585410409283e-06,1.6749667578841356e-06,1.2634393218011766e-06,-2.779734223468112e-07,1.6965934811126473e-08,7.718049629559462e-07,-2.6420331802280733e-07,6.070124301596241e-07,4.3240096052995185e-07,-4.613377139699127e-07,-6.018079765188469e-08,4.0700395477418105e-07,-1.6314264564690683e-07,-1.1324990021844477e-06,8.349168577031367e-09,-2.211774541517631e-08
6.061957092977774e-07,2.282037941499628e-06,1.1032986248275323e-06,1.6035666024272641e-06,1.2150118765224329e-06,-2.880377197965595e-07,2.752917157041993e-08,7.805012568903142e-07,-3.285019079677768e-07,5.673156429702744e-07,4.1649461288699077e-07,-4.049710003025668e-07,-5.02342489937084e-08,4.2094893240968253e-07,-2.0108781603830958e-07,-1.1864314219127618e-06,2.0498022396698302e-08,-3.5921286990148587e-08
6.052291868610176e-07,2.3293591060031626e-06,1.1278513539733947e-06,1.5366819659435356e-06,1.2349209326138735e-06,-3.064954404789862e-07,2.3116397833169894e-08,8.046465417922877e-07,-3.757092961701357e-07,5.26608009082246e-07,3.9701005102434733e-07,-3.386647620691092e-07,-4.742776492565612e-08,4.3139159705726136e-07,-2.2377368000894248e-07,-1.2394049737301823e-06,3.7537028811670536e-08,-4.901111813426403e-08
6.082659056828801e-07,2.3749304418131085e-06,1.1588306124926861e-06,1.5109536707406675e-06,1.2590874115974305e-06,-3.238618008935716e-07,5.76550483584854e-09,8.417724449872404e-07,-4.1794539958368563e-07,4.909129253906023e-07,3.9012043245022997e-07,-2.943953623356095e-07,-4.672532567563549e-08,4.4912413306669447e-07,-2.3808158304227012e-07,-1.2860243352422363e-06,6.650536415074907e-08,-5.4779298191147635e-08
6.160550232117818e-07,2.429414144144148e-06,1.1998218335010003e-06,1.5032982168856995e-06,1.3369786479269185e-06,-3.3748704964892483e-07,-2.25931021154531e-08,8.837090116909178e-07,-4.546925901916e-07,4.674386254692483e-07,3.9481124829086164e-07,-2.367406565131097e-07,-4.693270342615797e-08,4.793494272838131e-07,-2.51735508918497e-07,-1.3240946669986225e-06,1.0495065136098501e-07,-5.123589459199888e-08
6.407258280635072e-07,2.491677524693112e-06,1.2433283272682805e-06,1.4921046854190992e-06,1.4209939870353246e-06,-3.614611241511367e-07,-6.367506085761564e-08,9.164287304288305e-07,-4.883931868880232e-07,4.494833628067652e-07,4.1049401748038995e-07,-1.7391026945488763e-07,-5.137386870026794e-08,5.198423760585613e-07,-2.7463259747393787e-07,-1.3583174559933635e-06,1.4305448354783908e-07,-4.1439079613381926e-08
6.646267277727725e-07,2.5551697449956305e-06,1.2778020385751663e-06,1.4842697511133893e-06,1.4540803671766608e-06,-3.996991080309097e-07,-1.2251915062851253e-07,9.22976905453974e-07,-5.296945448355541e-07,4.2324128488014645e-07,4.3122558521539715e-07,-1.1290757770129359e-07,-6.51970600881188e-08,5.549427620776633e-07,-3.199210606355165e-07,-1.3887158811832385e-06,1.7214569965454678e-07,-2.969543287658686e-08
6.773793555239035e-07,2.6107514929923807e-06,1.2986858995266027e-06,1.4701002895071299e-06,1.4537374936355247e-06,-4.5966489530239124e-07,-2.040025585434873e-07,8.887432347905029e-07,-5.805817588609223e-07,3.9340427015099765e-07,4.4859731553455607e-07,-4.5029739725806154e-08,-9.117386323632714e-08,5.812367307047728e-07,-3.8884343464731464e-07,-1.4217238937926378e-06,1.9267370651385893e-07,-1.740886965978334e-08
6.774281330085836e-07,2.653482052887475e-06,1.3049922730245314e-06,1.4666548662433842e-06,1.410273251544107e-06,-5.444181339917522e-07,-3.0905814681369695e-07,8.069408597204168e-07,-6.412365117210062e-07,3.628975401869254e-07,4.5702368584217757e-07,2.5289781420055904e-08,-1.269187601348765e-07,6.067713888534446e-07,-4.700346147882382e-07,-1.4566682236200658e-06,2.1542013574520852e-07,-1.230280358556645e-09
6.661000267716218e-07,2.6847551686032566e-06,1.3063323596723166e-06,1.4870642987021628e-06,1.3384690571896975e-06,-6.456383772686791e-07,-4.333299259853917e-07,6.815821655022715e-07,-7.07189589717009e-07,3.3873791089706143e-07,4.62971107111189e-07,1.01653618656077e-07,-1.6542730370227092e-07,6.445432628919914e-07,-5.46003488104339e-07,-1.4602136457936515e-06,2.552208849826342e-07,2.4475815708347188e-08
6.509423222593745e-07,2.711687142952308e-06,1.3097931426687226e-06,1.5358799549686562e-06,1.2545316584224736e-06,-7.509078115029876e-07,-5.689768744072847e-07,5.259185415697149e-07,-7.724858504591754e-07,3.3035828750542883e-07,4.724162128186358e-07,1.9218737284216333e-07,-1.9872007609269927e-07,7.075527663978854e-07,-6.026989658196181e-07,-1.423211290470502e-06,3.2107748854839397e-07,6.305587492630207e-08
6.42255757117408e-07,2.7382615003401856e-06,1.3247216713888342e-06,1.6030606685514388e-06,1.1586759449089157e-06,-8.524779930855648e-07,-7.082939936930136e-07,3.567443374125343e-07,-8.267998723610435e-07,3.3826731307429174e-07,4.870328992673465e-07,2.9450374680892444e-07,-2.2249733436250295e-07,7.946496193323443e-07,-6.313477715496944e-07,-1.3581893386016802e-06,4.089844745472513e-07,1.1241813443265456e-07
6.386709373176343e-07,2.7641885875267642e-06,1.3526204430683578e-06,1.6864494943873285e-06,1.0485606310055557e-06,-9.457843865104754e-07,-8.468272017953437e-07,1.8815459401949276e-07,-8.683445918761212e-07,3.552790055914423e-07,5.045480911696279e-07,3.9621584777541897e-07,-2.387358133040945e-07,8.896015778779475e-07,-6.368455069162722e-07,-1.2532576928860324e-06,5.023983097211488e-07,1.644514183701626e-07
6.339723162347371e-07,2.785066783190828e-06,1.3851891323246667e-06,1.7781885196582396e-06,9.329334580973915e-07,-1.0296241273405265e-06,-9.83877841792919e-07,2.8456140405359533e-08,-9.007194419701988e-07,3.733908136173121e-07,5.162658338545841e-07,4.79549822881681e-07,-2.5423510312383495e-07,9.687755933651888e-07,-6.340088181318637e-07,-1.1325125374815543e-06,5.806322251430904e-07,2.0846588974520035e-07
6.219797593982075e-07,2.79405039762924e-06,1.4127053855483848e-06,1.8578066766989304e-06,8.110665000555372e-07,-1.1085772385885963e-06,-1.1199706138415964e-06,-1.1818972722519333e-07,-9.275428257558007e-07,3.8312777486731117e-07,5.150028409922952e-07,5.298894391670697e-07,-2.7598265885300127e-07,1.0138067529165702e-06,-6.329829897075414e-07,-1.0352944553017262e-06,6.299533597198985e-07,2.3673390016254625e-07
5.982417970465853e-07,2.787584470310412e-06,1.4280881102282923e-06,1.9201928435481208e-06,6.813516740449205e-07,-1.1828267432469383e-06,-1.2533033735923337e-06,-2.481614766988091e-07,-9.522147718388827e-07,3.880857867113724e-07,4.994583827956598e-07,5.438451063325861e-07,-3.066141575805884e-07,1.021221988497384e-06,-6.371489221057871e-07,-9.655986414531192e-07,6.503139895822408e-07,2.478147314667132e-07
5.668454959487693e-07,2.7686680625569083e-06,1.432093061184813e-06,1.9676708800221207e-06,5.492058538475045e-07,-1.2480911940858362e-06,-1.3781496147108298e-06,-3.5663897148639514e-07,-9.737057078926433e-07,3.890391964664163e-07,4.7510334842775114e-07,5.304889641202764e-07,-3.429024555946038e-07,1.0027927290002627e-06,-6.41131464349333e-07,-9.126635715041761e-07,6.539490360131296e-07,2.471368478515004e-07
5.374489868080809e-07,2.7451815983426832e-06,1.4324741023558683e-06,2.0005963193187587e-06,4.292920395472691e-07,-1.3004129423113054e-06,-1.4866844400607915e-06,-4.3871043833988424e-07,-9.896124504860174e-07,3.899948480332108e-07,4.518372502840184e-07,5.055165315971745e-07,-3.773263841190815e-07,9.770297924483682e-07,-6.340754058919854e-07,-8.57710568683617e-07,6.571190488971567e-07,2.432610245497315e-07
5.197074699623402e-07,2.7268878119481115e-06,1.438379925335805e-06,2.0268174472158974e-06,3.253447386703382e-07,-1.334691185364132e-06,-1.5734980150593067e-06,-4.922159539874112e-07,-9.991141314854592e-07,3.9790610407239945e-07,4.376997465739599e-07,4.823511238614225e-07,-4.0319324388991347e-07,9.58814092204679e-07,-6.073279989780507e-07,-7.973913759209632e-07,6.699033343466897e-07,2.4344951263525947e-07
5.179309917041071e-07,2.72026716521176e-06,1.4543704770114226e-06,2.052656859359501e-06,2.386839435134073e-07,-1.3527414134449618e-06,-1.6404134737067758e-06,-5.207677565913376e-07,-1.0046963901193896e-06,4.125235978831024e-07,4.349437420071974e-07,4.653193706994694e-07,-4.176516424036339e-07,9.518620986303262e-07,-5.602768249390797e-07,-7.317161468977172e-07,6.900531463600821e-07,2.494236634232327e-07
5.277281116082468e-07,2.7253443213698893e-06,1.4769352002987335e-06,2.0779443918580497e-06,1.6301563110833008e-07,-1.3630990804549043e-06,-1.6983294803005727e-06,-5.336474888548053e-07,-1.0121907309429207e-06,4.304525282683999e-07,4.3699299381675237e-07,4.4868122086844265e-07,-4.2332648300703987e-07,9.485044626055506e-07,-5.020656447774866e-07,-6.650658358404594e-07,7.04995991911422e-07,2.5752469896439443e-07
5.360226533501557e-07,2.7363343870611497e-06,1.4963640917528885e-06,2.0995489430531714e-06,9.503031445442031e-08,-1.3757218966201323e-06,-1.7636886219566444e-06,-5.431840226136447e-07,-1.02815624077803e-06,4.450285120904566e-07,4.329524969354349e-07,4.2219421325174013e-07,-4.253464779021363e-07,9.363229043996699e-07,-4.463499688582723e-07,-6.083561339298829e-07,7.00845627488662e-07,2.6219221183676216e-07
5.310659698524696e-07,2.74386404664097e-06,1.5025089315104842e-06,2.112743077640492e-06,2.710766039549627e-08,-1.400675664209015e-06,-1.8504776812891264e-06,-5.595053565992211e-07,-1.0559592380604367e-06,4.524510135825834e-07,4.157656867306348e-07,3.799613656802779e-07,-4.292736159438375e-07,9.099562680014389e-07,-4.002632149453802e-07,-5.692057376480151e-07,6.724372127632254e-07,2.5999103641896053e-07
5.086156166206552e-07,2.741708095995624e-06,1.4905936339230233e-06,2.1110755561007426e-06,-4.505955394449605e-08,-1.4398497008882636e-06,-1.962140926234572e-06,-5.859083161515054e-07,-1.093570371323463e-06,4.493134316843394e-07,3.8526414401472736e-07,3.271695261478205e-07,-4.374743423424957e-07,8.756806162756611e-07,-3.66746867354604e-07,-5.490984438223152e-07,6.277369742680733e-07,2.5251323353406037e-07
4.7381026838979154e-07,2.728678635165272e-06,1.463847013547537e-06,2.0906598129592086e-06,-1.1544493498814232e-07,-1.4859518677164673e-06,-2.0883247585703825e-06,-6.18202579597097e-07,-1.1344140122337746e-06,4.4051399937466784e-07,3.48915263536865e-07,2.8052437902850226e-07,-4.4755183655072065e-07,8.499421207603402e-07,-3.4264903055461186e-07,-5.431881248727579e-07,5.84336734312904e-07,2.4567424932935427e-07
4.391338428400826e-07,2.708113419002243e-06,1.4315950907470813e-06,2.0546950612662807e-06,-1.8526069976542172e-07,-1.5265692047595493e-06,-2.208749195418925e-06,-6.478818008752055e-07,-1.1703535703812808e-06,4.3481203229638437e-07,3.180331293609469e-07,2.6144914473700614e-07,-4.555045486527327e-07,8.526821986556667e-07,-3.21707111498753e-07,-5.422980552246771e-07,5.603844390473761e-07,2.46057046905716e-07
4.168975597847101e-07,2.6859005643830617e-06,1.404139181285295e-06,2.0094757200024293e-06,-2.4220518479241705e-07,-1.5506556270514948e-06,-2.3025671674742933e-06,-6.673248547860579e-07,-1.1956169370289414e-06,4.383685117171859e-07,3.015241815927738e-07,2.848785110271152e-07,-4.574733410436633e-07,8.931089660190785e-07,-3.0172792669458754e-07,-5.372511917270503e-07,5.63877677515015e-07,2.573915122882815e-07
4.123447783687534e-07,2.666242693249207e-06,1.3870945680024602e-06,1.9622855396915156e-06,-2.805703409499908e-07,-1.5559895284270303e-06,-2.3582118887247985e-06,-6.735090180507028e-07,-1.2094745920216184e-06,4.5378694075647084e-07,3.009855932320805e-07,3.497030084639294e-07,-4.5416080498329317e-07,9.640403292532117e-07,-2.86430607271711e-07,-5.297958451200638e-07,5.871956124723176e-07,2.763783521044355e-07
4.21127721813532e-07,2.649741445221402e-06,1.3781050736957013e-06,1.918895490599458e-06,-2.9904764867103455e-07,-1.5477447038373874e-06,-2.3781614615167996e-06,-6.695074752616551e-07,-1.2165651370081874e-06,4.767507215111379e-07,3.1006202825574366e-07,4.372360499088526e-07,-4.516917522925652e-07,1.0430725058912446e-06,-2.8409788032948353e-07,-5.226226588028555e-07,6.110173753966314e-07,2.937514230634014e-07
4.302837740429371e-07,2.6327610391619686e-06,1.3686461597512589e-06,1.8811769663929153e-06,-3.110671762892221e-07,-1.5374516313306487e-06,-2.37616812784126e-06,-6.616359476708177e-07,-1.224827816214534e-06,4.989905497521775e-07,3.178451094176162e-07,5.196199258341787e-07,-4.5863398573087633e-07,1.1053103394256791e-06,-3.017427531512321e-07,-5.17883589785311e-07,6.154991759125929e-07,2.993041595658329e-07
4.265552770304754e-07,2.6110013289155933e-06,1.3499354282438322e-06,1.8484730583304598e-06,-3.3098893618087307e-07,-1.5359482106008163e-06,-2.3691497784925804e-06,-6.554703070676635e-07,-1.2408772215331957e-06,5.136810545882472e-07,3.1461945652071126e-07,5.734597686671791e-07,-4.812799726165301e-07,1.1352388280182986e-06,-3.4033768261323835e-07,-5.257130608461298e-07,5.917339277268714e-07,2.8702967814994447e-07
4.0460185366681484e-07,2.58265490735182e-06,1.318794415467176e-06,1.8193948985076974e-06,-3.6399415954296407e-07,-1.546135553632139e-06,-2.3687615189303755e-06,-6.53344593480524e-07,-1.2668935004939803e-06,5.164392384080817e-07,2.974508209820693e-07,5.906181223473479e-07,-5.200116304912516e-07,1.1347624769916087e-06,-3.928423486070868e-07,-5.484140161617204e-07,5.465672547892361e-07,2.5995508098586255e-07
3.694223806429378e-07,2.5504077323548e-06,1.2796946457184895e-06,1.7931244193871284e-06,-4.081125685061826e-07,-1.5638465127078135e-06,-2.377086059812392e-06,-6.54014462332364e-07,-1.2993125079102124e-06,5.114919360935469e-07,2.7091291848250674e-07,5.803844605897185e-07,-5.690294970510053e-07,1.1181158272719919e-06,-4.4355855422317643e-07,-5.806231468352506e-07,4.987604898760743e-07,2.2789857921334256e-07
3.3364950002070324e-07,2.5193114662107588e-06,1.242241125171529e-06,1.769737126752117e-06,-4.5105145414190156e-07,-1.5796531145098633e-06,-2.3880415795086446e-06,-6.545945131578149e-07,-1.3302511731602269e-06,5.067250477941595e-07,2.436201847022099e-07,5.626383129813965e-07,-6.191311458960392e-07,1.1053507779713163e-06,-4.780263746791055e-07,-6.13764598589048e-07,4.6901435688802655e-07,2.0273102278896107e-07
3.100945645921965e-07,2.4942652720447485e-06,1.2157051786295162e-06,1.7489406728710629e-06,-4.779113631556492e-07,-1.5845896469137387e-06,-2.3930688581123444e-06,-6.529303446512104e-07,-1.3518575443038922e-06,5.085674923647263e-07,2.2310345430961007e-07,5.562853057603667e-07,-6.624716737805102e-07,1.1106997284118853e-06,-4.892488814727718e-07,-6.371634942077307e-07,4.6906220285320177e-07,1.9237324279408608e-07
3.0434083693102193e-07,2.4764439220668186e-06,1.2033912590870614e-06,1.7292541594028488e-06,-4.79660393206923e-07,-1.5741476184556972e-06,-2.387642356661775e-06,-6.493776185557449e-07,-1.3605404816933483e-06,5.197616808721962e-07,2.114769535551648e-07,5.692237941826742e-07,-6.964109601378629e-07,1.1345403107717853e-06,-4.817825163029856e-07,-6.453212550562525e-07,4.953456162983724e-07,1.968304515390306e-07
3.110829896848192e-07,2.459829085116315e-06,1.1998720617135477e-06,1.707410189982335e-06,-4.598993308129983e-07,-1.5499359100063066e-06,-2.3747136656528894e-06,-6.475032003111654e-07,-1.3584969055079975e-06,5.365834005587731e-07,2.0503108248746213e-07,5.951105972608176e-07,-7.243991024754653e-07,1.163745610671466e-06,-4.71889042297454e-07,-6.411268143334847e-07,5.313149813515567e-07,2.087435267716543e-07
3.176207065187925e-07,2.4333927166148626e-06,1.1932361315529526e-06,1.6790523388418066e-06,-4.2941370493542e-07,-1.517037613698497e-06,-2.362839438881924e-06,-6.5286422673726e-07,-1.3516126842192386e-06,5.517491996890315e-07,1.9760734060638638e-07,6.18338495097418e-07,-7.540071284682806e-07,1.1814062268750561e-06,-4.782019878898803e-07,-6.350358615974894e-07,5.573775097791255e-07,2.173748622507903e-07
3.114716074971812e-07,2.386934107535807e-06,1.1714221226708572e-06,1.640891535788066e-06,-4.031139590309224e-07,-1.4825133173051929e-06,-2.3600056963981417e-06,-6.699028187718916e-07,-1.3461045317639163e-06,5.586501674275885e-07,1.854397396109911e-07,6.236944207430316e-07,-7.919514058407353e-07,1.1785141762766871e-06,-5.100351357440558e-07,-6.351759767764512e-07,5.618866603625473e-07,2.1447910992650314e-07
2.8796359460388283e-07,2.3170473573272463e-06,1.1284492168805182e-06,1.5926188662336827e-06,-3.9215819724408447e-07,-1.4502434141906172e-06,-2.367135874921432e-06,-6.985068578495909e-07,-1.3450686568466393e-06,5.555251322909473e-07,1.706418594983358e-07,6.04709968052666e-07,-8.404125558043232e-07,1.1594729048398218e-06,-5.667631704034544e-07,-6.452216536677431e-07,5.463308514269215e-07,1.9771041305477593e-07
2.53102416896072e-07,2.2299708411162276e-06,1.0670282853795552e-06,1.5372698370999506e-06,-3.9765395292444345e-07,-1.4196897325214815e-06,-2.3755947859005237e-06,-7.32639277141988e-07,-1.3482396599800447e-06,5.4467028996774e-07,1.6028671235578039e-07,5.66208918212882e-07,-8.960816715081767e-07,1.1407420139688125e-06,-6.3649075658587e-07,-6.641521066865286e-07,5.223139771375646e-07,1.7116893938521145e-07
2.1992696983250623e-07,2.140611570490531e-06,9.966339435968706e-07,1.4809278067984284e-06,-4.1015273378786856e-07,-1.388368037962048e-06,-2.37052021979876e-06,-7.625058772850716e-07,-1.3533577828045369e-06,5.30871318737668e-07,1.6205605378664938e-07,5.201282834286818e-07,-9.518288154052114e-07,1.1396833971831648e-06,-7.039904708016617e-07,-6.855269767661149e-07,5.027531708036055e-07,1.4252521618900998e-07
2.011945286124239e-07,2.0657960438969257e-06,9.282507011664905e-07,1.4303648152681571e-06,-4.196889970330735e-07,-1.3541782607958455e-06,-2.338349033722468e-06,-7.796185874206747e-07,-1.3588801561971624e-06,5.179475920398446e-07,1.7882825634003271e-07,4.772880180863584e-07,-1.00131031769552e-06,1.164808127702879e-06,-7.603247367043951e-07,-7.038066829697146e-07,4.924721822593497e-07,1.1805822072576654e-07
2.0191087340820654e-07,2.0163003235252177e-06,8.684334109335995e-07,1.3904380982148747e-06,-4.184625982541173e-07,-1.3186803098982012e-06,-2.2743731068517122e-06,-7.820483580764214e-07,-1.366876062367784e-06,5.051641551432737e-07,2.0505933272709128e-07,4.40201114467778e-07,-1.0425122440628995e-06,1.2094355974568316e-06,-8.060070425028808e-07,-7.120885742864017e-07,4.840838702643455e-07,9.962604447532235e-08
2.160770829250266e-07,1.9934152632671316e-06,8.163618269622914e-07,1.362139499728571e-06,-4.0586896518285623e-07,-1.289012549416341e-06,-2.185968940004869e-06,-7.758422640837318e-07,-1.3833627451546898e-06,4.874220228188742e-07,2.2793003461262592e-07,4.0173720137101224e-07,-1.0787419451621182e-06,1.2552646309355368e-06,-8.502686053169823e-07,-7.193711721870897e-07,4.6211619000277875e-07,8.411935657413953e-08
2.301158074216126e-07,1.989967206715667e-06,7.658033638649551e-07,1.3422372383576493e-06,-3.8456609997918046e-07,-1.2745271425224751e-06,-2.089512047882393e-06,-7.715027900252598e-07,-1.4156291211587604e-06,4.5817237677719076e-07,2.3337469315209925e-07,3.5066191456542435e-07,-1.1159771498952135e-06,1.2825678100806188e-06,-9.038089544678057e-07,-7.32977804285362e-07,4.1346061454041036e-07,6.654377205634955e-08
2.311856910798932e-07,1.995366287104276e-06,7.107394544246244e-07,1.3255603941606667e-06,-3.574995960464929e-07,-1.2809272353477673e-06,-2.0027739227091633e-06,-7.773735532725326e-07,-1.4673144000457966e-06,4.138292235373691e-07,2.1340076193951486e-07,2.800329069921567e-07,-1.158257030746986e-06,1.2817667141978524e-06,-9.71391228253922e-07,-7.926381150508711e-07,3.3724472798629804e-07,4.440735628202003e-08
2.1488400622271705e-07,2.002409002763612e-06,6.507025009504368e-07,1.308116170945931e-06,-3.254895879639426e-07,-1.3075950979310797e-06,-1.9373503914521098e-06,-7.94512341087941e-07,-1.5350499521395439e-06,3.57006312871803e-07,1.7030711532249738e-07,1.9256432961447609e-07,-1.2044163087600343e-06,1.2583379020869246e-06,-1.0470004184457828e-06,-9.043452338024619e-07,2.473259297855457e-07,1.9632450885526774e-08
1.8748827323102324e-07,2.010290455111472e-06,5.92125423770282e-07,1.2893978012142052e-06,-2.8545303859518116e-07,-1.346804499294746e-06,-1.8951920618660249e-06,-8.165129234033501e-07,-1.6093754925621642e-06,2.9603006558560725e-07,1.154211681537672e-07,9.984286137902228e-08,-1.2482313907130557e-06,1.2295135734786454e-06,-1.1175336092974294e-06,-1.0084048748579767e-06,1.6612902398259874e-07,-1.9676626899228274e-09
1.6180640282077584e-07,2.0231847081394237e-06,5.449484540474492e-07,1.271876541356876e-06,-2.347767383806067e-07,-1.3860712169396877e-06,-1.8703273587212389e-06,-8.338107141666544e-07,-1.6788581620843657e-06,2.4056538437927655e-07,6.291224976072088e-08,1.6355503470429937e-08,-1.281956597229735e-06,1.213565580340168e-06,-1.1682455895177756e-06,-1.107001436193646e-06,1.1359785245722309e-07,-1.4045246501454314e-08
1.4949655183647425e-07,2.0456443399447614e-06,5.166940216051686e-07,1.2586783451059249e-06,-1.733579461507935e-07,-1.415248760696269e-06,-1.8541270966156966e-06,-8.397173583879921e-07,-1.7350170000217772e-06,1.969661830936073e-07,2.2740093555599433e-08,-4.835126028804546e-08,-1.3003756233953406e-06,1.2190832093385882e-06,-1.19072734772007e-06,-1.2050874296069975e-06,9.716872313032202e-08,-1.3748695550405746e-08
1.541035198002016e-07,2.077417198476162e-06,5.076801909515352e-07,1.2509876139959386e-06,-1.0652702859033613e-07,-1.4304292219915091e-06,-1.8410465117639073e-06,-8.341454072109233e-07,-1.7754712281626284e-06,1.6517616606089954e-07,-4.2943018640833055e-09,-9.511912060366837e-08,-1.3040750202043435e-06,1.2397595498059244e-06,-1.187957313389822e-06,-1.2817718090794981e-06,1.0827600300828297e-07,-3.6213862786671432e-09
1.690724221986501e-07,2.1129863647080247e-06,5.105939570127413e-07,1.2468294587686885e-06,-4.3830325434237135e-08,-1.435085632885458e-06,-1.8315850319155376e-06,-8.240765932920148e-07,-1.8041696321728538e-06,1.3928812305601013e-07,-2.5319436010328147e-08,-1.345606930149348e-07,-1.2991010585810612e-06,1.259121205818928e-06,-1.1714939577480854e-06,-1.3480830517143153e-06,1.2806066889179365e-07,9.47629536974985e-09
1.8218008717088382e-07,2.1433968067227742e-06,5.150037745011492e-07,1.242344986060876e-06,4.369259553433663e-09,-1.4382576545652926e-06,-1.8309203950905939e-06,-8.196261048875842e-07,-1.8286937738540582e-06,1.1179925304310069e-07,-4.978491218374515e-08,-1.8032297777977553e-07,-1.2936888290032196e-06,1.2607535727708055e-06,-1.1540216506962643e-06,-1.4089899150440956e-06,1.3901220292143105e-07,1.8629578529006903e-08
1.834987943958946e-07,2.162333622523567e-06,5.139824506174373e-07,1.2348959742085067e-06,3.235433374239499e-08,-1.4475233294096304e-06,-1.8447574227347507e-06,-8.288784404445391e-07,-1.8560460649178867e-06,7.845661979560817e-08,-8.332699040161816e-08,-2.4083863967280374e-07,-1.2931999838445789e-06,1.2381451784761128e-06,-1.1425040077060317e-06,-1.4652103331521441e-06,1.3493665632899774e-07,2.116450681935322e-08
1.7156999208038625e-07,2.1705510937694345e-06,5.085198322748868e-07,1.2254005203509786e-06,4.192278858737867e-08,-1.4652164281761914e-06,-1.8755958775537347e-06,-8.53977367314911e-07,-1.889150182190604e-06,4.082360353244026e-08,-1.2386753365746182e-07,-3.1510166812959776e-07,-1.2972857804196082e-06,1.199945422743356e-06,-1.1324174840420718e-06,-1.5209536795757875e-06,1.2277800230965732e-07,1.9987412164715553e-08
1.539467316476294e-07,2.175938900694587e-06,5.06945056267352e-07,1.2189378374156535e-06,4.075947906292657e-08,-1.4876305148434666e-06,-1.921537700245146e-06,-8.90549260512181e-07,-1.926366204099051e-06,5.294920513832761e-09,-1.628616498267414e-07,-3.945777416813445e-07,-1.3004568729018274e-06,1.1618779815890065e-06,-1.1131496087456661e-06,-1.5695184477731129e-06,1.1621631596396007e-07,2.1129901921875868e-08
1.423293221370419e-07,2.1894655236511586e-06,5.199426267692089e-07,1.2227101207414656e-06,4.095962087316234e-08,-1.5077208475705539e-06,-1.9776878794921053e-06,-9.308391020213515e-07,-1.9637283190835457e-06,-2.0559857503826663e-08,-1.9039135071211505e-07,-4.693800258232024e-07,-1.2951005686261988e-06,1.1369800488753756e-06,-1.0754417553363626e-06,-1.60705489887228e-06,1.255474119265136e-07,2.9300561360327764e-08
1.4535746034902006e-07,2.218786381992243e-06,5.538243662599099e-07,1.2424509619921613e-06,4.989490588956457e-08,-1.5197818910275935e-06,-2.0389414251694768e-06,-9.68137209029751e-07,-1.9972589510678814e-06,-3.256443857680956e-08,-2.0110315114325237e-07,-5.347028011704343e-07,-1.2763639150323563e-06,1.129491497218563e-06,-1.0173647225644155e-06,-1.6329706205430851e-06,1.502125155273132e-07,4.389020572150128e-08
1.6320974828827753e-07,2.263563702830198e-06,6.059937834279094e-07,1.2788163497311678e-06,6.896500471627837e-08,-1.5226430224568087e-06,-2.1023087266879617e-06,-1.0002154788051127e-06,-2.026306948109855e-06,-3.26673407919401e-08,-1.9744266334874204e-07,-5.932796632225409e-07,-1.2446962244143977e-06,1.131225015757043e-06,-9.474034068381646e-07,-1.6500213771807693e-06,1.7858839522646314e-07,5.887802245529278e-08
1.8746864222715695e-07,2.31450971853264e-06,6.651771324065781e-07,1.3258496118930943e-06,9.169029692582799e-08,-1.519254606308834e-06,-2.166923114245202e-06,-1.0292444595410883e-06,-2.052305505132828e-06,-2.8135489312675576e-08,-1.8809256866863977e-07,-6.5184854937803e-07,-1.205354923951639e-06,1.1283884116651352e-06,-8.798120247534911e-07,-1.6646787739011565e-06,1.9551650928677606e-07,6.636277581390856e-08
2.064821562626429e-07,2.3583103252574184e-06,7.16641986658911e-07,1.3722706493020601e-06,1.1050933504174514e-07,-1.515168695799408e-06,-2.231539474485707e-06,-1.0590046935622833e-06,-2.075895903567346e-06,-2.7629804711548195e-08,-1.8226881441190134e-07,-7.139986067973169e-07,-1.1651167924648254e-06,1.112294210239755e-06,-8.269548450902677e-07,-1.6838183346124773e-06,1.9258055172684536e-07,6.152189164104567e-08
2.126528486954725e-07,2.3841630914166233e-06,7.493277932449317e-07,1.405769731928399e-06,1.207936848222496e-07,-1.5148084317902064e-06,-2.2917663740849727e-06,-1.0908957460083988e-06,-2.0951036550335653e-06,-3.652497040351452e-08,-1.838812845191448e-07,-7.74872474391341e-07,-1.128478517527001e-06,1.0866082787740654e-06,-7.929204591608478e-07,-1.7093804495885573e-06,1.7391383210550863e-07,4.6075279491304574e-08
2.068545808383766e-07,2.3889529267118313e-06,7.608182904072126e-07,1.4186065561259882e-06,1.2349542240057028e-07,-1.5146749113777255e-06,-2.3397616861634585e-06,-1.1215108115452814e-06,-2.104867238123238e-06,-5.4654812741461634e-08,-1.8973186989408136e-07,-8.218957112646772e-07,-1.0958856627998062e-06,1.0654843137403989e-06,-7.724080418872515e-07,-1.7374242410974107e-06,1.539593350482229e-07,2.7437808541044097e-08
1.9747389759461478e-07,2.3790990267661437e-06,7.577076282909004e-07,1.41100348332307e-06,1.2595589294171469e-07,-1.5084794108754823e-06,-2.367151219214701e-06,-1.1435437553415749e-06,-2.100262488178056e-06,-7.669602440607593e-08,-1.9223544227711762e-07,-8.415513154631969e-07,-1.0647207270169676e-06,1.0658464738883728e-06,-7.557456313350725e-07,-1.7604805912292905e-06,1.4868607253356403e-07,1.5085370152906253e-08
1.950434117133637e-07,2.36566617873205e-06,7.515912573154701e-07,1.3909349596011261e-06,1.3613497828398923e-07,-1.4918900770541974e-06,-2.369656274717613e-06,-1.1494946869319192e-06,-2.07883636126492e-06,-9.581369470729143e-08,-1.848627679812914e-07,-8.284972755509369e-07,-1.0321587391113871e-06,1.094885285265066e-06,-7.349581649831259e-07,-1.7715017876479973e-06,1.6554530989157275e-07,1.5145509625429674e-08
2.0552783760115062e-07,2.35937078885046e-06,7.530615154842861e-07,1.3706688811571381e-06,1.5884028877854281e-07,-1.4653562974451736e-06,-2.3508133477885147e-06,-1.1361751278809303e-06,-2.0439241463457073e-06,-1.0756030204222637e-07,-1.672479985017767e-07,-7.914806512594612e-07,-9.978761005081428e-07,1.1433043529832255e-06,-7.091851890176694e-07,-1.7688157861144187e-06,1.9823695118778978e-07,2.6716961000887907e-08
2.2664340314460677e-07,2.365779399046744e-06,7.669477363214417e-07,1.3617238917236012e-06,1.9145756948201603e-07,-1.4400950326225607e-06,-2.3222571098454167e-06,-1.1071353072459943e-06,-2.004501568477792e-06,-1.1176033843797268e-07,-1.4633963088524248e-07,-7.515784817248697e-07,-9.648336838219086e-07,1.189603867522177e-06,-6.84988067464039e-07,-1.757596791114258e-06,2.2998711103522637e-07,4.2190533913156214e-08
2.494241805613464e-07,2.382960836809043e-06,7.914249585673688e-07,1.371418223243593e-06,2.2489811089992955e-07,-1.4275155525563854e-06,-2.2995528350795018e-06,-1.0711558394348917e-06,-1.97187712391113e-06,-1.116611790175731e-07,-1.32568193586276e-07,-7.327651363222717e-07,-9.373338297384691e-07,1.2114516101355348e-06,-6.702143934732748e-07,-1.7470394988284608e-06,2.4358154603799214e-07,5.1515801215170895e-08
2.64334974768226e-07,2.40483980110566e-06,8.212203562976457e-07,1.4007303772221072e-06,2.47547434390732e-07,-1.4324146767325201e-06,-2.295274119471503e-06,-1.038061453311757e-06,-1.9551302231479015e-06,-1.108198112981938e-07,-1.3346913856238166e-07,-7.499004808862083e-07,-9.175468402289159e-07,1.1987224091510854e-06,-6.692326899960923e-07,-1.7448268846040466e-06,2.316997847574787e-07,4.802221326528067e-08
2.6753162221140076e-07,2.425579477151264e-06,8.517642225596335e-07,1.4453784828080314e-06,2.514107084230153e-07,-1.4606790207023199e-06,-2.3130380264109086e-06,-1.0143161531987404e-06,-1.956675356306622e-06,-1.1043278412910328e-07,-1.4887311629116613e-07,-8.008864764825215e-07,-9.035038471522982e-07,1.1594573132336923e-06,-6.79319770871182e-07,-1.7528588368897591e-06,2.012137424458244e-07,3.210449862120109e-08
2.630605737729491e-07,2.4426767961214273e-06,8.813994648320641e-07,1.4977309515787346e-06,2.3553850801747306e-07,-1.5045517543491725e-06,-2.345839170492239e-06,-1.0007455755628592e-06,-1.971776361845612e-06,-1.088171598451409e-07,-1.7081505328889254e-07,-8.67098633162733e-07,-8.896890629731179e-07,1.11489821636944e-06,-6.912829529448495e-07,-1.766179632916765e-06,1.6943780914370783e-07,1.0964235355917484e-08
2.600252815922555e-07,2.456914908951475e-06,9.107509441736419e-07,1.5485414667886075e-06,2.059400958807533e-07,-1.5495862835540845e-06,-2.3796945801091102e-06,-9.93249169198099e-07,-1.990826738887543e-06,-1.0331971470776064e-07,-1.8797836012486698e-07,-9.217645644036864e-07,-8.700837485871889e-07,1.0882369910996986e-06,-6.958985883079202e-07,-1.776150398683371e-06,1.5456504994641445e-07,-5.42331457614417e-09
2.66637748959857e-07,2.469593854763757e-06,9.399374182862035e-07,1.5885697691053004e-06,1.724756554388281e-07,-1.5837123778889728e-06,-2.4007615048681013e-06,-9.859413841406434e-07,-2.0041272977371802e-06,-9.292162357470436e-08,-1.9207832779472544e-07,-9.422741197003887e-07,-8.421526839054568e-07,1.092479188213726e-06,-6.892242549222996e-07,-1.7760913553476445e-06,1.655733063847028e-07,-9.710436599109863e-09
2.847599344035966e-07,2.479308537964554e-06,9.662846549897004e-07,1.6100697290733414e-06,1.4528473284099794e-07,-1.5985439607606108e-06,-2.4021229733069025e-06,-9.748759727468682e-07,-2.0060232212695252e-06,-7.985517265096513e-08,-1.8246731490716415e-07,-9.203755746930425e-07,-8.090218053014853e-07,1.1231188046048687e-06,-6.727931039766648e-07,-1.7656200455623063e-06,1.9731278550192145e-07,-1.1590741570106405e-09
3.082318213883449e-07,2.4812939614930463e-06,9.842765422869477e-07,1.6084571342430888e-06,1.3031000988522607e-07,-1.5944446570785952e-06,-2.38638727908809e-06,-9.5979930867104e-07,-1.9960734784392416e-06,-6.88749348965323e-08,-1.6597569608576895e-07,-8.646755785763061e-07,-7.784046357964138e-07,1.1621140826381941e-06,-6.578050485937766e-07,-1.7511647124653258e-06,2.3413266580284297e-07,1.4539831710254708e-08
3.2655279889896714e-07,2.470082832582277e-06,9.88347847827544e-07,1.5835517500801971e-06,1.2863695287841014e-07,-1.5795559089980249e-06,-2.3626204409223046e-06,-9.429813670881582e-07,-1.977994788118858e-06,-6.432682643990224e-08,-1.519715283198862e-07,-7.939432743975219e-07,-7.583605443642945e-07,1.1897885289707823e-06,-6.597913684504634e-07,-1.7419786645440555e-06,2.601617751755279e-07,2.982067769663307e-08
3.317610148203344e-07,2.443858636824792e-06,9.767760478047704e-07,1.5403513344450357e-06,1.377270040609925e-07,-1.5632304423167562e-06,-2.339796842682088e-06,-9.26103973139408e-07,-1.956432858382301e-06,-6.699853869730547e-08,-1.4594460934405055e-07,-7.255954308503505e-07,-7.526401565680292e-07,1.1971909263567746e-06,-6.791463599709075e-07,-1.7440558161171472e-06,2.692244895867824e-07,4.02273513318323e-08
3.2389321645361684e-07,2.4073890628024853e-06,9.5401834518723e-07,1.4879725504104238e-06,1.548310360133223e-07,-1.5482200206005758e-06,-2.321111233118346e-06,-9.079347814134215e-07,-1.9341149467008e-06,-7.272245454595221e-08,-1.459455536166365e-07,-6.666460583232966e-07,-7.584957310011582e-07,1.190970609159635e-06,-7.077559494852966e-07,-1.7565824272093812e-06,2.67981454182326e-07,4.691437364408287e-08
3.113567741969434e-07,2.370966724075455e-06,9.296540535001158e-07,1.4374299415096312e-06,1.7896554716326154e-07,-1.534341562607424e-06,-2.3025026233572784e-06,-8.84653426002826e-07,-1.9108836407786593e-06,-7.375011220333922e-08,-1.4368993505499516e-07,-6.121463158646011e-07,-7.679934282409866e-07,1.1887772771669824e-06,-7.328248706521793e-07,-1.7720754464799975e-06,2.709535332070672e-07,5.5514024155679095e-08
3.061572983114298e-07,2.345606210685299e-06,9.142008196814246e-07,1.3984520448628834e-06,2.0929919008952008e-07,-1.5197571133708285e-06,-2.2758431390885973e-06,-8.525209604103047e-07,-1.8844323581912583e-06,-6.25732549679711e-08,-1.2989310757884223e-07,-5.512575077551084e-07,-7.721198007134048e-07,1.2078766060256608e-06,-7.408087278104792e-07,-1.780100063665056e-06,2.9100032759827564e-07,7.18684604346536e-08
3.170822024353974e-07,2.337909172476501e-06,9.139001392921055e-07,1.3765907498053347e-06,2.432503076132009e-07,-1.4996043586670462e-06,-2.234705174573413e-06,-8.110498802050172e-07,-1.852950221296905e-06,-3.5922818410235604e-08,-1.007005333410981e-07,-4.769006862336585e-07,-7.667351151169035e-07,1.2542916109179155e-06,-7.283388134018379e-07,-1.7732643053933477e-06,3.3093272996169846e-07,9.761041577001814e-08
3.44029185371603e-07,2.3463821452792846e-06,9.271928731980114e-07,1.3711913184420103e-06,2.746034020036398e-07,-1.4759921446273437e-06,-2.1793849976249125e-06,-7.645780144003867e-07,-1.8175759546999107e-06,2.699562110867339e-09,-6.101022583491676e-08,-3.928172892994634e-07,-7.535079908773796e-07,1.318228065378712e-06,-7.034698335605073e-07,-1.7513107281901125e-06,3.8130726869956775e-07,1.281793539315946e-07
3.7798394582347666e-07,2.362114083077471e-06,9.45397355632378e-07,1.3759415011275946e-06,2.9478116616927397e-07,-1.4531867494974438e-06,-2.1180679932400275e-06,-7.211886595647423e-07,-1.7828756219583728e-06,4.4202566820278276e-08,-2.3187820510115432e-08,-3.130386029928103e-07,-7.403718485931688e-07,1.3791464359972683e-06,-6.777202017593007e-07,-1.7210378227539333e-06,4.2597537717890783e-07,1.5477198835225238e-07
4.0632778131066485e-07,2.3736821746840957e-06,9.575146486742377e-07,1.3816848340512397e-06,2.9658688550497533e-07,-1.436873561835478e-06,-2.0631031012578744e-06,-6.890433224488311e-07,-1.7543367021878849e-06,7.858034527765733e-08,1.1017701332773107e-09,-2.5384319388950137e-07,-7.363503892586248e-07,1.4179530185987916e-06,-6.634706895417259e-07,-1.691321818340124e-06,4.51858232445946e-07,1.692308439587149e-07
4.20121728446015e-07,2.3733023306469748e-06,9.558065642726035e-07,1.3803902343622604e-06,2.789265713472481e-07,-1.4319400071337126e-06,-2.02460470186064e-06,-6.725172975584974e-07,-1.7348393096967452e-06,1.0005740266913566e-07,7.556795351271456e-09,-2.2386583954872777e-07,-7.489805908076214e-07,1.4301295539918206e-06,-6.67079813164552e-07,-1.6707673848032536e-06,4.5653774983804415e-07,1.6858115297134084e-07
4.19117645855619e-07,2.361057751621213e-06,9.403277172259702e-07,1.3679444138546642e-06,2.486912570819581e-07,-1.4352745640619208e-06,-2.0053465044882927e-06,-6.703858419737708e-07,-1.722818298861613e-06,1.0973650928301875e-07,4.5827562144578735e-10,-2.190211097623741e-07,-7.78294750041862e-07,1.423604051945871e-06,-6.881492966813378e-07,-1.6598014741758934e-06,4.489176453061015e-07,1.562474137010938e-07
4.1122106376225706e-07,2.3438395930408218e-06,9.172747334400005e-07,1.3449577614945112e-06,2.1802991754038438e-07,-1.4404717909512861e-06,-1.999778186287136e-06,-6.767869910159869e-07,-1.712918555514295e-06,1.1429330076991599e-07,-8.76738818315543e-09,-2.2514495780078722e-07,-8.183081827310166e-07,1.4142923955691513e-06,-7.16108113541463e-07,-1.6532152797723214e-06,4.4295540477951653e-07,1.3952458449745538e-07
4.072185707277594e-07,2.3310240209657837e-06,8.950087122493336e-07,1.3154114734112745e-06,1.9831979341083568e-07,-1.4391589087516322e-06,-1.9975066635775707e-06,-6.839046651246895e-07,-1.6987186265527916e-06,1.2168450127434617e-07,-8.436581249278322e-09,-2.2652324221314965e-07,-8.618339537684065e-07,1.4165936201087684e-06,-7.401432710841397e-07,-1.6452986673870416e-06,4.4839305756841123e-07,1.2507440116962793e-07
4.1363851015747993e-07,2.3288620826603043e-06,8.791778267453808e-07,1.2839731162004635e-06,1.948662044998236e-07,-1.425807616066866e-06,-1.9892914604359447e-06,-6.851627358659974e-07,-1.6764051358355205e-06,1.3616236670295958e-07,6.274962547956727e-09,-2.152718448931326e-07,-9.022702283108274e-07,1.4308579814211662e-06,-7.591487860786757e-07,-1.6319359183261933e-06,4.6393664948787063e-07,1.1491581906415143e-07
4.2882373967907453e-07,2.336335353664443e-06,8.691159363744697e-07,1.2535643167134841e-06,2.048910890406747e-07,-1.4007139566307524e-06,-1.9719976623431095e-06,-6.778739804296644e-07,-1.6477504691902355e-06,1.5560639550080733e-07,3.0446284042474915e-08,-1.958306447201706e-07,-9.402755356465269e-07,1.4478002377365807e-06,-7.784645505363942e-07,-1.6172119263223975e-06,4.777684811423261e-07,1.0548537332368928e-07
4.4352626721405323e-07,2.345534177815855e-06,8.587680370475386e-07,1.2249249105998245e-06,2.198496153766991e-07,-1.3684036250912034e-06,-1.9492457196055115e-06,-6.638562542348825e-07,-1.6193649420510522e-06,1.7286686349050277e-07,5.194365896637153e-08,-1.815545287854518e-07,-9.805838042319366e-07,1.4525226848791082e-06,-8.074798055092902e-07,-1.6098735219471036e-06,4.7549098393506164e-07,9.038696271322357e-08
4.4693459596174994e-07,2.3460802625898535e-06,8.408992333567315e-07,1.197573713256355e-06,2.3070176727506408e-07,-1.3400784310052655e-06,-1.9274796962018245e-06,-6.476509790164571e-07,-1.5991313828937383e-06,1.8034106922340147e-07,5.820442847178893e-08,-1.856291688291552e-07,-1.027607077975995e-06,1.4366700373829768e-06,-8.504471315093628e-07,-1.6178494343071157e-06,4.50158318088638e-07,6.49674383640928e-08
4.3417662248607093e-07,2.3313654044040683e-06,8.121914493029471e-07,1.1713730362464156e-06,2.33139015499527e-07,-1.3230176009278435e-06,-1.9106587647865973e-06,-6.336459316765972e-07,-1.5917746792480573e-06,1.7456797358685366e-07,4.356585421159447e-08,-2.124054599668453e-07,-1.0816201996644066e-06,1.401820601156964e-06,-9.045404722889507e-07,-1.643565638777074e-06,4.0760502761618126e-07,2.984307198398182e-08
4.0981668772832377e-07,2.3023461200165514e-06,7.755962481431303e-07,1.1482900647258425e-06,2.3016976558664252e-07,-1.3172341309623808e-06,-1.8975107452790367e-06,-6.239853630297582e-07,-1.5965708555227626e-06,1.5852905827138226e-07,1.2419974336219491e-08,-2.5459141498636844e-07,-1.1374881107152981e-06,1.361702819526176e-06,-9.586423491653703e-07,-1.6824411177169314e-06,3.6388003229814703e-07,-8.816506103468595e-09
3.858848197045899e-07,2.2673810681402547e-06,7.394151007973715e-07,1.1319689333295312e-06,2.3055386216724432e-07,-1.317909200322842e-06,-1.8828947346334893e-06,-6.18006816196598e-07,-1.6087707622701518e-06,1.4022905733373024e-07,-2.4155686646236006e-08,-2.976820800126199e-07,-1.1869789295303472e-06,1.3329632094107191e-06,-9.964004596808813e-07,-1.724872116617879e-06,3.366039802561648e-07,-4.2381798009247294e-08
3.7540350965316533e-07,2.2377252484416784e-06,7.130213755581485e-07,1.1255199906625055e-06,2.4339566313149034e-07,-1.3165894965925811e-06,-1.8618738420574321e-06,-6.131575933544345e-07,-1.6227354618090363e-06,1.2682547062549128e-07,-5.4885435326121265e-08,-3.287063556906132e-07,-1.222850886051482e-06,1.3304407647093637e-06,-1.0130513962709673e-06,-1.7606810970928978e-06,3.3495630545832076e-07,-6.440578658660808e-08
3.848677194019059e-07,2.221423449336141e-06,7.016441736117217e-07,1.1313699230383773e-06,2.7197219452629194e-07,-1.3088344614146582e-06,-1.8338501416164852e-06,-6.071809350517202e-07,-1.6359369742006928e-06,1.2112019508339387e-07,-7.468315112939791e-08,-3.4396029830742874e-07,-1.2431074341756578e-06,1.3538441765915248e-06,-1.0102762338249584e-06,-1.7840706025832564e-06,3.5394967862741235e-07,-7.433966922783705e-08
4.1000736037949205e-07,2.2181886457805358e-06,7.033010166683655e-07,1.1469680579805654e-06,3.1048365126463053e-07,-1.2963623504546528e-06,-1.804415878931255e-06,-6.005606044228948e-07,-1.6505818307221962e-06,1.1986640293318774e-07,-8.720476282862645e-08,-3.50936126932102e-07,-1.2520312817345285e-06,1.388047968523361e-06,-1.00173367287356e-06,-1.7997292894113223e-06,3.769933712992989e-07,-7.775662050364428e-08
4.3770466701988145e-07,2.2195689816404174e-06,7.09660415876622e-07,1.1665728458063996e-06,3.460719533881932e-07,-1.286269963759995e-06,-1.7834835105213455e-06,-5.971410774402729e-07,-1.671473423444655e-06,1.1548935037776379e-07,-1.0176899957457526e-07,-3.631703439908509e-07,-1.258079754616085e-06,1.412305111192717e-06,-1.0030903521533396e-06,-1.8146687031437566e-06,3.858219095900019e-07,-8.259722172048529e-08
4.5339833849165623e-07,2.214541862667169e-06,7.107884269634587e-07,1.1842402165949968e-06,3.6549618763728485e-07,-1.2868389610801156e-06,-1.7800805447677135e-06,-6.019399079157523e-07,-1.7041736545620365e-06,1.0125624710445707e-07,-1.2703516142543008e-07,-3.913233294807738e-07,-1.269645375563978e-06,1.4140443537344426e-06,-1.0227546630031437e-06,-1.8414106783805065e-06,3.713783660684273e-07,-9.404514804964547e-08
4.4908738800767127e-07,2.196245874779658e-06,7.010646668733912e-07,1.1958757751895272e-06,3.621477425942095e-07,-1.3030645630028303e-06,-1.796618932252806e-06,-6.177878332233413e-07,-1.7501445790018764e-06,7.535544379997568e-08,-1.6498739168648302e-07,-4.361493541555603e-07,-1.2898115359686967e-06,1.3954649896998908e-06,-1.0604926105044834e-06,-1.8651833571794058e-06,3.387033311320099e-07,-1.1147416122846174e-07
4.278457914287727e-07,2.1660950360952913e-06,6.813361546876071e-07,1.2013607815093738e-06,3.392524641072118e-07,-1.3307548389068982e-06,-1.826196890698857e-06,-6.433915241323201e-07,-1.8048873772716032e-06,4.19390312259513e-08,-2.0926588872489567e-07,-4.87373002975748e-07,-1.3158325065247174e-06,1.3713615267154293e-06,-1.1067299103445116e-06,-1.8843366056954962e-06,3.0359974530647666e-07,-1.2918722194155453e-07
4.0151875754401443e-07,2.1329844801171554e-06,6.577596409353317e-07,1.2037139991996483e-06,3.080034644086901e-07,-1.3588365890451783e-06,-1.8545154098963706e-06,-6.738001961468653e-07,-1.859875130975828e-06,8.81382699504615e-09,-2.483006089016747e-07,-5.286481553483438e-07,-1.3407556974625472e-06,1.361455349287002e-06,-1.1451081908326346e-06,-1.894874404160778e-06,2.836394698644833e-07,-1.4019248448074474e-07
3.838696712776241e-07,2.1082129371824007e-06,6.393617052596121e-07,1.2055091384816166e-06,2.8175137869882607e-07,-1.3773798103446572e-06,-1.8652875306276006e-06,-7.028620708760018e-07,-1.9057649017407912e-06,-1.64284122760752e-08,-2.7216786971394595e-07,-5.456813016409879e-07,-1.3573164219641457e-06,1.3764019153410497e-06,-1.1732260099736e-06,-1.8862587944859998e-06,2.883255710695776e-07,-1.408148225890481e-07
3.8284978170243443e-07,2.0984855552157513e-06,6.317221528705914e-07,1.2095573191977054e-06,2.6906928995642786e-07,-1.3740610588882746e-06,-1.8465191819124212e-06,-7.264404439396764e-07,-1.936692606943669e-06,-3.058454930880575e-08,-2.781484448690088e-07,-5.332442354634755e-07,-1.3628541325177474e-06,1.4142022007016212e-06,-1.1789889182161422e-06,-1.8768579796440382e-06,3.135819830789452e-07,-1.333449146781781e-07
3.9559465323417364e-07,2.101644888283799e-06,6.344859914387664e-07,1.2158070044636975e-06,2.6973250046596096e-07,-1.344409928467025e-06,-1.794827775314332e-06,-7.444052366399209e-07,-1.9523624614037885e-06,-3.717900967288284e-08,-2.7257346841681384e-07,-4.971080290281293e-07,-1.359958882838932e-06,1.4590896366238288e-06,-1.1711401659469598e-06,-1.8393794876936227e-06,3.4436043187684747e-07,-1.2480839587877322e-07
4.103334813940529e-07,2.1072482104526257e-06,6.409942860078783e-07,1.2207514250450068e-06,2.7586525119766263e-07,-1.2915183504143462e-06,-1.7159096513655196e-06,-7.598186176928175e-07,-1.957922789610272e-06,-4.211590868313783e-08,-2.673695748038236e-07,-4.4962454369573236e-07,-1.355361569889791e-06,1.4907028910240638e-06,-1.1574373873474103e-06,-1.7818912496444825e-06,3.642337140385405e-07,-1.2258879848345898e-07
4.140221556783727e-07,2.1012709240734866e-06,6.437220047721345e-07,1.2207853947680374e-06,2.7741307009847845e-07,-1.218499434500758e-06,-1.621544078017729e-06,-7.747691240104939e-07,-1.956535645058489e-06,-5.055681793711352e-08,-2.727058476372056e-07,-4.021242628223783e-07,-1.3560372525004735e-06,1.4943603720360775e-06,-1.1245810259257093e-06,-1.706537493810301e-06,3.6568052370877654e-07,-1.2969729356479623e-07
4.000574660696968e-07,2.072546861374976e-06,6.398612931325701e-07,1.214667645566962e-06,2.683037268923894e-07,-1.1283610811046893e-06,-1.5257245992658026e-06,-7.909839290353526e-07,-1.94701965974495e-06,-6.348134132774725e-08,-2.9123023430968345e-07,-3.597165066363614e-07,-1.3653199952645857e-06,1.4692431795739212e-06,-1.07299346752556e-06,-1.6118147588041226e-06,3.5439114529680115e-07,-1.420925179569732e-07
3.7227820830708545e-07,2.017974774938378e-06,6.346104401137882e-07,1.2061245175572016e-06,2.4928996629406137e-07,-1.026826657451311e-06,-1.4422112836964319e-06,-8.060904821240233e-07,-1.9244589510398027e-06,-7.568824415745961e-08,-3.169908918096452e-07,-3.2329552980487794e-07,-1.3812774448638842e-06,1.4269138002700508e-06,-9.96352143357596e-07,-1.529834205131449e-06,3.454682741575183e-07,-1.5157762939181265e-07
3.4311788857488447e-07,1.9435287666123714e-06,6.371463985402975e-07,1.2035009700075186e-06,2.2563982348597885e-07,-9.237680229302226e-07,-1.38350545213719e-06,-8.169518485465849e-07,-1.883087092498127e-06,-8.087349585846036e-08,-3.3937597938206706e-07,-2.904702364806638e-07,-1.3977175159792521e-06,1.3834577763315049e-06,-8.858124831584202e-07,-1.4665168044707236e-06,3.5409780272367885e-07,-1.4968660907408724e-07
3.25051027606665e-07,1.8614871355065182e-06,6.552403817520764e-07,1.21649698545549e-06,2.0192214015784504e-07,-8.131084836622824e-07,-1.3600522905841296e-06,-8.2356901284265e-07,-1.8227674839521436e-06,-7.45717395005435e-08,-3.4942420715914905e-07,-2.663814277549793e-07,-1.4072556256740158e-06,1.3481721516739921e-06,-7.25731752235304e-07,-1.4142360596980547e-06,3.8563531675035785e-07,-1.3223210930569082e-07
3.2305762990737236e-07,1.7849503451902153e-06,6.907284906097365e-07,1.250250777889387e-06,1.7732430198271438e-07,-7.269248507401752e-07,-1.3792115547964188e-06,-8.293685377597159e-07,-1.7484064611662718e-06,-5.593812119756135e-08,-3.4567557636679296e-07,-2.643475530520005e-07,-1.4045387662664855e-06,1.3185862110808438e-06,-5.448118078805778e-07,-1.330548468999818e-06,4.3080446609673897e-07,-1.0218007478723079e-07
3.3471550762308366e-07,1.7221128397924867e-06,7.365743872629415e-07,1.3020619728689107e-06,1.454119522770638e-07,-7.159442654616905e-07,-1.444117422777176e-06,-8.41790123393924e-07,-1.6721726096745513e-06,-3.017322030833417e-08,-3.3568058325857226e-07,-2.8815088714931516e-07,-1.3894128521120517e-06,1.2820044673057645e-06,-3.571106672007184e-07,-1.192100270376659e-06,4.697606176151526e-07,-6.855437310253606e-08
3.490934427826664e-07,1.6739428135686888e-06,7.805657501577557e-07,1.3619743187417608e-06,9.891085507986738e-08,-6.79918573537829e-07,-1.5522730429495707e-06,-8.689583599437657e-07,-1.6076791252245686e-06,-6.02824733941018e-09,-3.3147589257073803e-07,-3.6389680163437263e-07,-1.365838947479787e-06,1.2244154687945653e-06,-1.8086009155389145e-07,-1.0306902087642272e-06,4.832831758044818e-07,-4.043803199468695e-08
3.541547720303148e-07,1.6361301740317215e-06,8.106209418461785e-07,1.4169914708606756e-06,3.58936198874737e-08,-6.751626100349078e-07,-1.6942958195148146e-06,-9.149091496958707e-07,-1.5634953407449642e-06,9.947264810844372e-09,-3.4258783487327427e-07,-5.11016469151105e-07,-1.3388065859860629e-06,1.1401344726717748e-06,-3.720987873992278e-08,-9.125151340989707e-07,4.6381278554908086e-07,-2.2938876875143686e-08
3.4333709498432073e-07,1.6042305434445786e-06,8.251993455706326e-07,1.4574273171978793e-06,-3.754632803995093e-08,-7.387442963399465e-07,-1.854433886899099e-06,-9.755334080630496e-07,-1.5405615540762967e-06,1.5597194387050137e-08,-3.6984386348471346e-07,-6.806590923994443e-07,-1.3102002185561025e-06,1.0362683746500529e-06,7.828778209644462e-08,-8.280086049836835e-07,4.1926030921151034e-07,-1.542593906792811e-08
3.188799447285122e-07,1.5768799725536848e-06,8.254992791946326e-07,1.4807869451359393e-06,-1.1038626783308075e-07,-8.223046915540777e-07,-2.0137994897545173e-06,-1.0403701145552056e-06,-1.5313806029828864e-06,1.4091399445610172e-08,-4.044311057027079e-07,-8.347053610275584e-07,-1.2783610500841248e-06,9.310153849038104e-07,1.7239808057001774e-07,-7.437480876984852e-07,3.680705125380259e-07,-1.2531380490505792e-08
2.903516445508878e-07,1.5557456146631436e-06,8.211833992410449e-07,1.4912821203258658e-06,-1.7268688186169766e-07,-8.905581016984657e-07,-2.1550819379354686e-06,-1.0970263183855057e-06,-1.5246669709110164e-06,1.1097255528282943e-08,-4.3364102128237903e-07,-9.715772432014868e-07,-1.238550327462678e-06,8.431456424849357e-07,2.478734489371289e-07,-6.636206176373112e-07,3.2914920273375745e-07,-8.721426277635482e-09
2.6808082444310864e-07,1.5428640137225389e-06,8.225298231969174e-07,1.496217965010291e-06,-2.2004872175381965e-07,-9.197560398733424e-07,-2.266665520996842e-06,-1.1364396374373103e-06,-1.5105485787565802e-06,1.1623656897362555e-08,-4.4817356481811877e-07,-1.0739492540881005e-06,-1.1903498173527442e-06,7.835092172761665e-07,2.958058698580211e-07,-5.874341632212106e-07,3.1208160609858323e-07,-1.8101602117041713e-09
2.584299548378766e-07,1.5371690208104984e-06,8.291168823775606e-07,1.5003674607949211e-06,-2.546680163378682e-07,-9.341908905927946e-07,-2.3447886514002603e-06,-1.1596136582183529e-06,-1.4869786797349385e-06,1.6003117240101695e-08,-4.45336344034388e-07,-1.1312920112137526e-06,-1.1369877170603715e-06,7.500655688177926e-07,3.276980025940617e-07,-5.270082008657473e-07,3.12853551893514e-07,7.07013873442359e-09
2.5571238397339144e-07,1.5341267845593232e-06,8.364746072697844e-07,1.5042603490134547e-06,-2.8318919508728545e-07,-9.369110545939422e-07,-2.392948138074476e-06,-1.1710171819735456e-06,-1.4609487687226571e-06,2.5673617581254876e-08,-4.3189398403752116e-07,-1.1529522996937175e-06,-1.0853288689614829e-06,7.289188772869056e-07,3.386518514556711e-07,-4.796635997670228e-07,3.178106227527721e-07,1.2765741258669234e-08
2.505527257443962e-07,1.5253190133781624e-06,8.351914517097731e-07,1.5053892880284592e-06,-3.126097628789706e-07,-9.324244432073217e-07,-2.418449119912448e-06,-1.1783934957952134e-06,-1.426594949369262e-06,3.55092531328002e-08,-4.178156254502312e-07,-1.1520002872853963e-06,-1.044289760448789e-06,7.055172769781562e-07,3.171031704354703e-07,-4.48946836249501e-07,3.1360510277450324e-07,9.853625640816364e-09
2.3535434001373265e-07,1.5045117192848726e-06,8.214082353995865e-07,1.5002801930948329e-06,-3.462396918192117e-07,-9.355206217886394e-07,-2.427734622090747e-06,-1.196787809778523e-06,-1.388781640896559e-06,4.137791501259845e-08,-4.102525216451007e-07,-1.1382742205770573e-06,-1.0186019118673653e-06,6.742439797729812e-07,2.648286646605756e-07,-4.3808803829798837e-07,2.963088112736254e-07,-7.744350293335655e-11
2.1036480848701746e-07,1.4716866325051222e-06,7.961074484589591e-07,1.4884081640793577e-06,-3.813714218221913e-07,-9.436755047186372e-07,-2.423458621992645e-06,-1.2183023993935402e-06,-1.3538333218764853e-06,4.6240503524419956e-08,-4.0875070752734696e-07,-1.1138717413390342e-06,-1.0069636268715605e-06,6.422403793068245e-07,1.924697130194274e-07,-4.4160671058904087e-07,2.752804584340615e-07,-1.4207280616251303e-08
1.8315284838300173e-07,1.4326922933426877e-06,7.606203608988633e-07,1.4734127314999081e-06,-4.105242046289832e-07,-9.53473578084455e-07,-2.4052618084339198e-06,-1.2419992554932468e-06,-1.3189157124712146e-06,5.4505016488981164e-08,-4.053443005992046e-07,-1.0748347972336991e-06,-1.0020628514096318e-06,6.232773509961636e-07,1.1912093792661043e-07,-4.518198445287514e-07,2.6489287859443327e-07,-2.158639214422418e-08
1.620900687716222e-07,1.397920076644407e-06,7.272785848805973e-07,1.4618512087146268e-06,-4.2769384388812776e-07,-9.604610218098382e-07,-2.373591864321414e-06,-1.2662016158731596e-06,-1.2854318973843001e-06,8.005365886477017e-08,-3.947700894278789e-07,-1.0175468707634327e-06,-9.923901795984682e-07,6.279165511308424e-07,8.732900135589988e-08,-4.5756063059870055e-07,2.7688759243319736e-07,-7.848358111483598e-09
1.6390823310405295e-07,1.3751381377216002e-06,7.062090483445481e-07,1.4607445975816242e-06,-4.2922871977248494e-07,-9.596864583504553e-07,-2.33385573735216e-06,-1.2766602888102742e-06,-1.2420316611365338e-06,1.1559563344322414e-07,-3.7458792775209047e-07,-9.457988734946851e-07,-9.701246563123278e-07,6.516905108771357e-07,1.1758238665761936e-07,-4.4902361238615645e-07,3.125797458495083e-07,2.9023020159882962e-08
1.9251091756285401e-07,1.3662706393728752e-06,6.979499559212752e-07,1.473886726785016e-06,-4.1923033159399145e-07,-9.516140434928488e-07,-2.297681110384821e-06,-1.2385914839238233e-06,-1.1741733088914535e-06,1.6102123337688124e-07,-3.4993578026960997e-07,-8.737745129494691e-07,-9.325409522230861e-07,6.777302188558491e-07,1.7555794437994642e-07,-4.19158514171448e-07,3.633483829851132e-07,7.419448183576703e-08
2.339961401782587e-07,1.3668398307231936e-06,7.039247243541519e-07,1.5008164190522383e-06,-4.103338708082338e-07,-9.369672142415784e-07,-2.2792531394686344e-06,-1.1525249629345049e-06,-1.0770587527317479e-06,2.289378846640661e-07,-3.3251430548509424e-07,-8.221537639121756e-07,-8.805564233569283e-07,6.848242557524778e-07,2.3200238227560292e-07,-3.753605689384975e-07,4.156096494683016e-07,1.1785161376315293e-07
2.7839308945662554e-07,1.3686302912057604e-06,7.209578508215986e-07,1.5365448680113728e-06,-4.1628577396963424e-07,-9.145873459275025e-07,-2.2895724064342286e-06,-9.802944688533967e-07,-9.571246337854107e-07,2.822027829935105e-07,-3.275869152020166e-07,-8.09003894436534e-07,-8.173749696079968e-07,6.564640493696865e-07,3.043766002096539e-07,-3.293281665661032e-07,4.5843575376564814e-07,1.3186369876951576e-07
3.0916881909373315e-07,1.367533300046121e-06,7.213234077789708e-07,1.573672575924627e-06,-4.5089228940395936e-07,-8.817865416271508e-07,-2.3185949062863277e-06,-7.209187322763861e-07,-7.928288701079979e-07,3.2089066963822927e-07,-3.239447446797091e-07,-8.408682329506967e-07,-7.442164917948391e-07,5.935549179337927e-07,4.056878121257051e-07,-2.900439025856917e-07,4.888721570844885e-07,8.216332603422178e-08
3.26505853964586e-07,1.3638246979660246e-06,6.95561858390884e-07,1.605437710913201e-06,-5.212331850026167e-07,-8.339280203782487e-07,-2.352800616141296e-06,-5.704537272774082e-07,-6.675640833342813e-07,3.3761767109267673e-07,-3.126702587429985e-07,-9.091459256808876e-07,-6.546192428631962e-07,5.131582101293932e-07,5.175102180871787e-07,-2.6223614559507425e-07,4.965870254775301e-07,5.61219371966223e-08
3.573072340439488e-07,1.362498277533332e-06,6.441286232090735e-07,1.6269923105543052e-06,-6.197646403891479e-07,-7.604039115236153e-07,-2.3614047401489624e-06,-4.459269001482802e-07,-5.698832486713795e-07,3.421247574753536e-07,-2.689064406830073e-07,-9.932218258393262e-07,-5.456695309897125e-07,4.361432429397216e-07,6.7389380785646e-07,-2.4396441857856914e-07,4.867790412206487e-07,4.170680877418978e-08
4.078344277817845e-07,1.3611790764892396e-06,5.091361190083198e-07,1.6354690730926542e-06,-7.133015384111327e-07,-6.68842765744532e-07,-2.227014925213962e-06,-2.2644088259342666e-07,-4.7430757199721665e-07,3.6464525732367043e-07,-1.9648387700746927e-07,-1.0680217113405084e-06,-4.458210533037528e-07,3.7693396614952695e-07,8.332101201331844e-07,-2.3117473057192266e-07,4.615969268244872e-07,3.4848684051528933e-08
4.572574091821914e-07,1.3539734605577754e-06,4.105549742305415e-07,1.6287925956834555e-06,-7.809370103304699e-07,-5.615598537925842e-07,-2.0904180335949225e-06,2.6897311881495643e-08,-3.957125113143127e-07,4.048588155742551e-07,-1.484474677351909e-07,-1.1117213376500369e-06,-3.4306517219373096e-07,3.355999891433916e-07,9.561608941630425e-07,-2.1761246663775085e-07,4.2078426131159964e-07,3.068247696629266e-08
5.237936296999781e-07,1.332949567072115e-06,3.54824293819317e-07,1.603019206173666e-06,-7.674944734956803e-07,-4.5203502419798275e-07,-1.972393679072901e-06,1.927618488921373e-07,-2.625013315482966e-07,4.4411522079297886e-07,-9.195865428309072e-08,-1.1099709618993872e-06,-2.744983891124209e-07,2.982284960393437e-07,9.75163152036932e-07,-2.0014134041311187e-07,3.729793504402448e-07,-2.9975183883272727e-08
5.863861078494967e-07,1.3187232041952687e-06,2.814031217404357e-07,1.5527284677124966e-06,-6.906628638151363e-07,-3.6430111363953175e-07,-1.7825535805873331e-06,2.4574302960718017e-07,-1.5657582250111134e-07,4.745728028785215e-07,-3.4037381321719255e-09,-1.0561976880893434e-06,-2.747714773923989e-07,2.4969666115443383e-07,9.739844644532453e-07,-1.861739350421849e-07,3.0660386520827693e-07,-1.270508648752465e-07
6.373641153878435e-07,1.3209389100575424e-06,2.381038871640224e-07,1.4740590054807059e-06,-6.293005379623069e-07,-3.1285350487058454e-07,-1.5482370135053396e-06,2.9543453694245945e-07,-6.798265741135849e-08,4.622707811241399e-07,7.44739448551284e-08,-9.508782233015827e-07,-2.499750677119097e-07,1.8535670929003958e-07,9.719344961007774e-07,-1.6947764190786418e-07,2.2460822945354213e-07,-1.7978756361986985e-07
7.067672742829267e-07,1.338429769898386e-06,1.6089984007859086e-07,1.369125338275871e-06,-5.77870876230628e-07,-3.0173161709843415e-07,-1.38643064891558e-06,3.5128648645400365e-07,1.0187880742133846e-08,4.519668390177784e-07,1.250398106115699e-07,-7.983575418052381e-07,-2.3604439637504374e-07,1.137422346097317e-07,9.668451766003126e-07,-1.491243141848503e-07,1.2759201601832225e-07,-2.0621318811430004e-07
7.786777171310047e-07,1.353215970832957e-06,8.740289690989277e-08,1.249083184688487e-06,-5.209699801943112e-07,-3.205587079859604e-07,-1.311354276843538e-06,3.8973284212554497e-07,8.101023130432062e-08,4.462766549731917e-07,1.5001376612107985e-07,-6.219456985316221e-07,-2.197489179475386e-07,5.071163644682117e-08,9.235082384957754e-07,-1.231057716631583e-07,5.175237768686753e-08,-2.2424126582667288e-07
8.497900168616389e-07,1.3708487155735521e-06,4.1736311179865025e-08,1.136010793438619e-06,-4.289198465732827e-07,-3.503598874634122e-07,-1.2897753112950572e-06,3.613420281360223e-07,1.406179317480327e-07,4.3082668766297756e-07,1.1025696859659487e-07,-4.447874038889735e-07,-2.1042638254737428e-07,9.509382803995222e-09,8.653184328630315e-07,-1.0340762223626105e-07,3.5959076168958425e-08,-2.62005186934632e-07
8.964748764137473e-07,1.382919105067246e-06,4.07474784579085e-09,1.0473576235455757e-06,-2.625911018314002e-07,-3.665308846730038e-07,-1.3032911930155774e-06,3.028521416588829e-07,1.6042579176721898e-07,4.299049050393414e-07,1.0432824121995353e-07,-2.992329586675197e-07,-2.0569678709069387e-07,-8.902110896838443e-09,7.88389134879671e-07,-8.480777122769785e-08,-1.6243326845990554e-08,-2.88476562900461e-07
8.93978417586893e-07,1.4248885852334788e-06,-1.4485109301393446e-08,9.724052122607628e-07,-1.0754019495140199e-07,-3.581952063965186e-07,-1.3227210937477681e-06,2.708408616698057e-07,1.474106002272947e-07,4.370342043877521e-07,1.236338752750217e-07,-2.759919674162008e-07,-2.507620328197151e-07,-1.6275461250506166e-08,7.035263369243755e-07,-7.502288787672128e-08,-2.7271889416150862e-08,-2.736039724946899e-07
8.977444479775682e-07,1.4782774489519882e-06,-4.357778251325069e-08,9.941940256210253e-07,-1.3768248602398286e-09,-3.3080933795966187e-07,-1.3308793020157573e-06,2.559394796071219e-07,7.739196034919626e-08,4.3165885968685804e-07,1.1095858471089861e-07,-2.453687139638185e-07,-2.9469187545406824e-07,-3.054031584101773e-08,6.55972573767652e-07,-6.921581011215e-08,5.472546471137122e-09,-2.578689344260121e-07
9.086972388462738e-07,1.5158296018987158e-06,-8.985958436982381e-08,1.0059391190635771e-06,8.758134565162279e-08,-3.062298445668038e-07,-1.320702759658609e-06,1.7835350927186473e-07,3.4332588779744102e-09,4.074453893479813e-07,9.52222722294763e-08,-2.4607670758024876e-07,-3.3841048895360996e-07,-6.343641803993556e-08,6.476053387829665e-07,-6.597471085169876e-08,4.494008302422481e-08,-2.4070095039150226e-07
9.50278712277633e-07,1.5164340309493947e-06,-8.867925074695124e-08,1.0417751203796396e-06,1.5892291607597672e-07,-2.965164283506911e-07,-1.3200021587894686e-06,1.7148977244463515e-07,-6.879861962114033e-08,3.700434568364674e-07,8.671016018141157e-08,-2.9051509084410244e-07,-3.857277875215405e-07,-1.1065760852045761e-07,6.661110584659523e-07,-6.865612925470373e-08,5.5167300006550354e-08,-2.3189747835675767e-07
9.515207230224737e-07,1.4790887997070322e-06,-7.590143675389162e-08,1.0724213325285316e-06,1.5948198443784493e-07,-2.9713195525914874e-07,-1.320516421420809e-06,2.6465941628806197e-07,-1.0701897303394177e-07,3.687669348848583e-07,6.862616265311315e-08,-3.96686041544662e-07,-4.031149732430681e-07,-1.5377272628545325e-07,6.948746448750488e-07,-6.859480501122252e-08,5.326734025818611e-08,-2.444161155813052e-07
9.307806858549143e-07,1.4230475036182856e-06,-6.205501485870409e-08,1.0855835249912176e-06,1.1518802216117813e-07,-3.034072057490913e-07,-1.2924322788640798e-06,3.6473080484995374e-07,-1.1700689702797923e-07,3.18697478701697e-07,4.0441843257230954e-08,-4.6272851144875505e-07,-3.994517167985581e-07,-1.7206995112917746e-07,7.090374574455844e-07,-7.720794967519104e-08,6.375389244174855e-08,-2.4424663344446285e-07
8.897469629722963e-07,1.3567345728807094e-06,-4.3642191334661387e-08,1.0778988875368804e-06,5.979563400247618e-08,-3.1169658762566335e-07,-1.2173333508697398e-06,4.4477311049644626e-07,-1.0233613266258162e-07,2.756797161872923e-07,1.4602487877004229e-08,-4.7377064174579703e-07,-3.8260948658916774e-07,-1.5233182230924615e-07,7.146754342458138e-07,-7.78613182322521e-08,9.43856771227764e-08,-2.270974858424348e-07
8.722747750399412e-07,1.3098000283006753e-06,-3.995623819428713e-08,1.0547809669094358e-06,3.738589657733854e-08,-3.201398286966894e-07,-1.1033382319080032e-06,5.207335367666764e-07,-1.1368663130634383e-07,2.7733936654215937e-07,-1.0154062298772468e-08,-4.5506808461461197e-07,-3.7610094742928644e-07,-1.0008839947507606e-07,6.671612028257229e-07,-6.242465583245021e-08,1.380401942721312e-07,-1.6952708037131725e-07
8.612217302126808e-07,1.269914139685425e-06,-4.549576155407348e-08,1.0268329732229786e-06,3.274362476457808e-08,-3.4318079741276557e-07,-1.0085003405162172e-06,5.611003471678865e-07,-1.9193201412207862e-07,3.036539907698963e-07,-2.2486207106773556e-08,-4.261942776317625e-07,-3.7431007124346476e-07,-3.8256733455702436e-08,6.279820563533095e-07,-4.2488916001854834e-08,1.7616577805999111e-07,-8.652129443662978e-08
8.450487820647258e-07,1.2378706618092295e-06,-4.7579980325214264e-08,1.0057276657757495e-06,2.3838166545513277e-08,-4.2826829320163425e-07,-1.0032316208163413e-06,5.58189643368046e-07,-1.7883192148828617e-07,3.132337947415134e-07,-5.3887655566735026e-08,-4.1723711806160447e-07,-3.8414649239460035e-07,9.030692383779608e-09,6.364477561889606e-07,-4.490599471196986e-08,1.9004580022051904e-07,-7.764859714376955e-09
8.217752400552099e-07,1.2186694113185708e-06,-2.7433821896341824e-08,1.0002823375795994e-06,-1.0390404336854216e-09,-5.29395910133466e-07,-1.144806915389876e-06,5.086652382110105e-07,-1.4562143997110335e-07,2.995973371289577e-07,-1.0486480398754947e-07,-4.5030616325521057e-07,-4.1113628826327107e-07,2.690988855781925e-08,6.695709968243285e-07,-9.274060230332545e-08,1.725333920272947e-07,4.516550153190691e-08
7.674443530151213e-07,1.1951780170400663e-06,1.825201156992838e-08,1.012792780468551e-06,-5.134657448428604e-08,-5.72495302708136e-07,-1.2356169562335604e-06,4.1429160599276056e-07,-1.0919620821312551e-07,2.6885391933721785e-07,-1.6476747755425216e-07,-5.304725871908915e-07,-4.428954033384484e-07,1.9842034262626394e-08,6.178105792282278e-07,-1.6014088253051434e-07,1.32031993503621e-07,7.802719995544916e-08
6.998345180647735e-07,1.1831875689992094e-06,8.484446763154381e-08,1.0382639942744142e-06,-1.2734855175662216e-07,-5.616011148671857e-07,-1.2590544159834928e-06,2.8965876963775365e-07,-5.7958692568415e-08,2.3067722352500802e-07,-2.3601385835685074e-07,-6.464826458674832e-07,-4.727343554119375e-07,6.341230556271952e-09,4.830179429890293e-07,-2.2737742736749435e-07,8.677341675633637e-08,9.80904406024312e-08
6.336342593069496e-07,1.1960016529428397e-06,1.67813109850475e-07,1.066495595961338e-06,-2.2029178940704867e-07,-5.447496188738202e-07,-1.2614954252571712e-06,1.5605429701524818e-07,-9.085640374660616e-08,2.033331368168135e-07,-2.7753820089169e-07,-7.793734885239342e-07,-4.88950210645561e-07,8.422769464786464e-09,3.7875390848412005e-07,-2.475603796648298e-07,5.342842817064954e-08,1.1400783387199255e-07
5.648078274583862e-07,1.2353552960476588e-06,2.6480174772554595e-07,1.0853339955792227e-06,-3.1610641521277765e-07,-5.863873639329144e-07,-1.3435141900715562e-06,3.330117916012385e-08,-1.749700028972107e-07,1.894282380407483e-07,-2.7823742035967644e-07,-9.130938853710569e-07,-4.850240587755239e-07,3.526407309465023e-08,3.074309311776808e-07,-2.6241460185682173e-07,3.7121517072904365e-08,1.2971160929336647e-07
5.278593467592004e-07,1.3436746715013366e-06,3.718705750292171e-07,1.0848201278962278e-06,-4.0066748022753255e-07,-7.024686470042124e-07,-1.5237527516839265e-06,-6.78597835840968e-08,-2.5483569285144246e-07,1.7365870570562852e-07,-3.0782360162584416e-07,-1.0409194790520583e-06,-4.6101360631165167e-07,7.869799559825716e-08,2.765617495059645e-07,-2.882243004311357e-07,2.921498897261283e-08,1.2531831582412797e-07
5.083005878533946e-07,1.4586987049736532e-06,4.6421542407865853e-07,1.059735463112928e-06,-4.6444764219235465e-07,-8.352624101836808e-07,-1.7705056763785872e-06,-1.4796118996263993e-07,-3.5022808378407295e-07,1.54451329499917e-07,-3.031442219917062e-07,-1.1643778044136644e-06,-4.3368985986215633e-07,1.1750013432540385e-07,2.471626101680931e-07,-2.81777145332291e-07,1.447297827857749e-08,1.239673641947411e-07
4.903889727008639e-07,1.5473964742250555e-06,5.244974277097262e-07,1.0098627418940574e-06,-5.035393535951086e-07,-9.470282537848366e-07,-1.9581572456253415e-06,-2.1391955155356328e-07,-4.4783681358618566e-07,1.269392306153729e-07,-2.6966566591804433e-07,-1.2864221066941566e-06,-4.147431199378516e-07,1.3215444725001338e-07,2.2205830751146495e-07,-3.4685277408490935e-07,-1.7309855376570643e-08,1.1091571684559514e-07
4.717782149785409e-07,1.6172208922086601e-06,5.447678294351817e-07,9.398618514569864e-07,-5.177318470037313e-07,-1.0755442736123346e-06,-2.0456504088416486e-06,-2.709345930125928e-07,-5.127028007812373e-07,9.081007822656932e-08,-2.3704984207654177e-07,-1.404380506118061e-06,-4.0873081359734856e-07,1.1789788769032955e-07,1.9753072131371002e-07,-4.572022095577258e-07,-6.331857973058092e-08,7.183953885214216e-08
4.5626110740259463e-07,1.6596003405895147e-06,5.300744017436066e-07,8.583956330807634e-07,-5.079750238892736e-07,-1.1351830055706334e-06,-2.0906539145636975e-06,-3.172263174783017e-07,-5.825363923670517e-07,5.2079187136274435e-08,-2.2791803218896132e-07,-1.5077647858014417e-06,-4.148087373141653e-07,9.316651361173787e-08,1.4973837908961173e-07,-5.68299737556382e-07,-1.0867790013167103e-07,2.630342225987498e-08
4.4697992599725645e-07,1.680487986645875e-06,4.978243046203856e-07,7.764721784491885e-07,-4.750112616991394e-07,-1.0809988299761218e-06,-2.1812152693498748e-06,-3.44494387747372e-07,-6.286388358435628e-07,1.5091118631020213e-08,-2.1128416155909477e-07,-1.5824231232236756e-06,-4.225803964281192e-07,8.024158618209823e-08,1.0439030599115393e-07,-6.776113426925993e-07,-1.3516815183038044e-07,-1.39165298159927e-08
4.5514276203581213e-07,1.7068832802715465e-06,4.613891190472002e-07,7.048681183232945e-07,-4.203164002339846e-07,-1.1033811312905422e-06,-2.2509548853343987e-06,-3.429959678814142e-07,-6.533696099918219e-07,-1.783814334882563e-08,-1.8096533569043726e-07,-1.618554218118234e-06,-4.227633591235614e-07,9.341587519247698e-08,6.882581312557512e-08,-7.669434584778629e-07,-1.3237857847134533e-07,-3.320498337794372e-08
4.824743174582086e-07,1.7417161093976672e-06,4.344000878721295e-07,6.517504391979433e-07,-3.4885248026300055e-07,-1.1721905913513758e-06,-2.2880966768909825e-06,-3.0815257707510926e-07,-6.682108145375984e-07,-4.397722048551995e-08,-1.3364510322321405e-07,-1.6172856179644004e-06,-4.10876604885646e-07,1.3569661583272347e-07,3.81279984152074e-08,-8.501386230187699e-07,-1.049753359230763e-07,-3.5894253091086676e-08
5.265032292393909e-07,1.785427134170436e-06,4.310720820425729e-07,6.211052073498968e-07,-2.709807579941966e-07,-1.2307858454416287e-06,-2.2521797030005853e-06,-2.4496115425031284e-07,-6.795633830647106e-07,-6.201853732227048e-08,-7.98411504263697e-08,-1.590676918208929e-06,-3.8769810954797095e-07,1.9374019801258936e-07,5.8936142815833076e-09,-9.16698304385705e-07,-6.898098201586362e-08,-3.0908167356685096e-08
5.781215103856928e-07,1.8334728452636555e-06,4.4716631051626066e-07,6.124529382874064e-07,-2.001267349274749e-07,-1.2491484702081136e-06,-2.18525154403501e-06,-1.6744956109253192e-07,-6.943661276806261e-07,-7.831671802591866e-08,-3.216388277228973e-08,-1.5545961133810963e-06,-3.581178342605272e-07,2.5152245599933495e-07,-2.032730036844149e-08,-9.789482224481426e-07,-4.079429213472328e-08,-2.9870795223797686e-08
6.245002330130337e-07,1.8750141384580662e-06,4.7353310234728913e-07,6.217190737173457e-07,-1.470023256760308e-07,-1.2100524440867564e-06,-2.0742381549886387e-06,-9.348286672018223e-08,-7.192017332515822e-07,-9.723000162104607e-08,4.691157826737501e-09,-1.5196458724870844e-06,-3.262594313877515e-07,3.007031748725838e-07,-6.292356891563617e-08,-1.025955450509773e-06,-2.694626408843621e-08,-3.9929371560329826e-08
6.576825227658649e-07,1.9076246989420135e-06,4.952256788384223e-07,6.427661884218235e-07,-1.1459505101679749e-07,-1.1619772968981597e-06,-1.916760758985827e-06,-3.8080677981368986e-08,-7.529537773383575e-07,-1.144552569036674e-07,3.830392081650946e-08,-1.4864603538454174e-06,-2.934403057680452e-07,3.443949494846402e-07,-1.1010515414191915e-07,-1.0773448455513172e-06,-2.144931370121897e-08,-5.459077427968008e-08
6.840551415302921e-07,1.934929324057561e-06,5.140290522723961e-07,6.702760909489884e-07,-9.734657887254579e-08,-1.1076960357570733e-06,-1.7936717650866344e-06,-8.714524881257713e-09,-7.900849760656899e-07,-1.294732751876775e-07,7.271946687249118e-08,-1.4478798966076204e-06,-2.584606356769356e-07,3.911573954539597e-07,-1.4299682831498617e-07,-1.1335138516716224e-06,-1.096113647911461e-08,-6.571259000078705e-08
7.084758507086063e-07,1.9616686204608747e-06,5.371896665529257e-07,6.999827304224817e-07,-8.511607202355583e-08,-1.053639204120581e-06,-1.6873023883693404e-06,-4.230761317602402e-09,-8.283412528126935e-07,-1.394654623005003e-07,1.0284884624907871e-07,-1.3960333059407714e-06,-2.197081967918831e-07,4.488559292862004e-07,-1.63042471421579e-07,-1.182505216005537e-06,1.4439535380063812e-08,-6.638233603105156e-08
7.356784852329035e-07,1.990192739793628e-06,5.724361841947199e-07,7.280265385287509e-07,-6.952493824124434e-08,-1.0191721533316837e-06,-1.594223298224071e-06,-1.8014451918512562e-08,-8.741251678556482e-07,-1.4306889784713003e-07,1.3411428982441552e-07,-1.3296024771019787e-06,-1.778700774402288e-07,5.156494009921327e-07,-1.5698298706807837e-07,-1.2058921508866233e-06,5.394399129020184e-08,-5.616390951363439e-08
7.663936801204885e-07,2.018440721552163e-06,6.181501731325411e-07,7.506514100129538e-07,-4.86158742670761e-08,-9.863859654564476e-07,-1.5308039414251576e-06,-4.237805708733135e-08,-9.239764776533134e-07,-1.4258306207945898e-07,1.6340182823644928e-07,-1.2561702254063315e-06,-1.36961347807788e-07,5.789166001286278e-07,-1.4377048214124144e-07,-1.2200790081395492e-06,9.70188116631588e-08,-4.1232080853494386e-08
7.928899926971868e-07,2.0404021866765274e-06,6.61686735145266e-07,7.6404603763956e-07,-2.65402345140522e-08,-9.47528618526579e-07,-1.474498300016296e-06,-7.137418039197112e-08,-9.701493808684133e-07,-1.3885007229958798e-07,1.8604376210273838e-07,-1.1877201806923546e-06,-1.0266040964490325e-07,6.248244057756995e-07,-1.3676744448197757e-07,-1.2359987079183694e-06,1.3095567090497965e-07,-2.98621137180038e-08
8.083676911112501e-07,2.050356916248134e-06,6.951671254577119e-07,7.654019147848889e-07,-8.541269514000232e-09,-8.988723326271182e-07,-1.4290012543138e-06,-1.0152818720639617e-07,-1.000604236428825e-06,-1.3878610759507707e-07,2.019101304941088e-07,-1.1325553121163057e-06,-7.883681044035343e-08,6.485048554894381e-07,-1.437050118155336e-07,-1.2568783499793305e-06,1.502153115454612e-07,-2.7858888343233025e-08
8.122797672226961e-07,2.0479350290574045e-06,7.141432405181275e-07,7.545716605828938e-07,4.537396812479922e-09,-8.648676858071945e-07,-1.3955754094931552e-06,-1.2942413053769234e-07,-1.0203251186684562e-06,-1.4131479252975966e-07,2.1287692275271029e-07,-1.089537894774365e-06,-6.499031108851491e-08,6.583909930303306e-07,-1.559703168663672e-07,-1.2756380773645336e-06,1.6012457766265948e-07,-3.536998861090074e-08
8.085286556222642e-07,2.0391253310802523e-06,7.239088336647204e-07,7.35192803348402e-07,1.802127967578981e-08,-8.511639746308887e-07,-1.3624799826926223e-06,-1.5007361701859755e-07,-1.038614680390785e-06,-1.4226872311240581e-07,2.243676212664591e-07,-1.0486464222936196e-06,-5.573030687044725e-08,6.725430002799698e-07,-1.6844187271321705e-07,-1.28321015207971e-06,1.7286043432334685e-07,-4.788577687085111e-08
8.0489032072269e-07,2.0334440062725714e-06,7.309919381486922e-07,7.135232133811045e-07,4.036943475003359e-08,-8.480513982454742e-07,-1.3196580673633844e-06,-1.5755723342089555e-07,-1.0355396376283612e-06,-1.3666205142618498e-07,2.4563067122056426e-07,-9.977082877639092e-07,-4.406033858694883e-08,7.063153519736155e-07,-1.778265331922739e-07,-1.28886987007798e-06,1.9846471566920282e-07,-5.994054970796446e-08
8.093724265483712e-07,2.039486288824735e-06,7.401080368176071e-07,6.96022374185679e-07,7.777436192762766e-08,-8.532688800561622e-07,-1.259412508505645e-06,-1.466988816105048e-07,-1.0153039273610105e-06,-1.2046520687790676e-07,2.8309229098665465e-07,-9.314242146998207e-07,-2.5762501595637334e-08,7.642196527422399e-07,-1.7992331850933389e-07,-1.2905129038708635e-06,2.3688418172883772e-07,-6.922972548195097e-08
8.216819331655361e-07,2.060545003817501e-06,7.526713912905851e-07,6.872984388895551e-07,1.3142153858950535e-07,-8.552928972624364e-07,-1.1771249755844044e-06,-1.1734798041563648e-07,-9.832991707931008e-07,-9.676498631630186e-08,3.303855084142803e-07,-8.568650490329756e-07,-3.1261775090923756e-09,8.360764208896001e-07,-1.719039328153343e-07,-1.2740997272518743e-06,2.761060307890594e-07,-7.833841149211183e-08
8.347837476194306e-07,2.0915836673901135e-06,7.639467737656074e-07,6.881041374514945e-07,1.917112243183612e-07,-8.619295560793317e-07,-1.0793527423923796e-06,-7.659181248681195e-08,-9.600341461188208e-07,-7.379881019575748e-08,3.736971041443412e-07,-7.91077343382823e-07,1.630843638206195e-08,8.99891553354448e-07,-1.637854160060856e-07,-1.2471778235890452e-06,2.987428294271963e-07,-9.320291465100874e-08
8.391500712290421e-07,2.1223599363623854e-06,7.645106745953944e-07,6.953276252538129e-07,2.458536222641398e-07,-8.842176618335526e-07,-9.770937075810058e-07,-3.225910845160556e-08,-9.417686197812771e-07,-6.094070837355978e-08,4.0033124135228274e-07,-7.516568855514503e-07,2.3666333555168672e-08,9.364216099637636e-07,-1.6199829429754957e-07,-1.2410013774792723e-06,2.927224445845324e-07,-1.2005878299872705e-07
8.276030493603787e-07,2.1414415418023848e-06,7.50127950826414e-07,7.033788563225361e-07,2.8623251160019584e-07,-8.949381417793032e-07,-8.719009997270187e-07,8.297990657376503e-09,-9.638361996411562e-07,-6.117097008142447e-08,4.0306386505471155e-07,-7.464440513017534e-07,1.388720386880068e-08,9.402396538476141e-07,-1.9005172258492192e-07,-1.2541664957103014e-06,2.590435759844342e-07,-1.5730379631688513e-07
8.015957043635576e-07,2.1401905238364682e-06,7.211818672183859e-07,7.065642923141901e-07,3.1830028635287013e-07,-8.70681019563033e-07,-7.588206914360571e-07,4.4678604412271706e-08,-9.821828416004066e-07,-7.147646102398059e-08,3.8620229988584747e-07,-7.68935118552114e-07,-1.071880814034208e-08,9.21272778160077e-07,-2.195637096248947e-07,-1.2879381800258455e-06,2.1180614442666148e-07,-2.0015094957810208e-07
7.700266006363976e-07,2.1142549449975882e-06,6.848941432495698e-07,7.011659500745051e-07,3.6029826854294524e-07,-7.820764004291893e-07,-6.246725063939133e-07,8.613207599538166e-08,-9.516310660924837e-07,-8.44215538870798e-08,3.628798460213147e-07,-8.016237786023125e-07,-4.213961485581642e-08,8.986871549970241e-07,-2.2014495706637228e-07,-1.3176126478069563e-06,1.7069348624001057e-07,-2.4191539414507843e-07
7.441848967565779e-07,2.0624724632820818e-06,6.475958562813707e-07,6.867357296319205e-07,4.290965596479748e-07,-6.465518141204844e-07,-4.6307239514561045e-07,1.4853154201988855e-07,-8.848182397824587e-07,-8.887530123602323e-08,3.4704545838257256e-07,-8.245039842657098e-07,-6.985521746091645e-08,8.888051682603838e-07,-2.0749898324020509e-07,-1.3238543992804295e-06,1.5025327046253003e-07,-2.76798098099381e-07
7.307255203728398e-07,1.9854869685439405e-06,6.127323612442219e-07,6.655687405209429e-07,5.311486825775336e-07,-5.072004641720218e-07,-2.820787055286819e-07,2.4201427553342903e-07,-8.211974742691602e-07,-7.783139942516988e-08,3.4691457688444613e-07,-8.233410150063907e-07,-8.513851201025697e-08,8.95358045013919e-07,-1.624721080937417e-07,-1.2887923601631647e-06,1.5298099940615988e-07,-3.045526803768509e-07
7.271850625630504e-07,1.8842472942194454e-06,5.79755717071117e-07,6.417206338677823e-07,6.34113868495522e-07,-3.641177928009105e-07,-1.3152919941909482e-07,3.5912734509553385e-07,-7.851466798227829e-07,-5.09596520772946e-08,3.6104751426084253e-07,-7.928990494363833e-07,-8.364016494998513e-08,9.080250170897049e-07,-8.878139879872817e-08,-1.2067027905775678e-06,1.7032661531559047e-07,-3.2809574336381663e-07
7.249824595059036e-07,1.7623569498013256e-06,5.471224480505746e-07,6.201456969389546e-07,6.960520537033815e-07,-1.4461379996822583e-07,-6.680203042691381e-08,5.017786310525203e-07,-7.678999500025086e-07,-1.3691471152261267e-08,3.806517505641609e-07,-7.341047232976032e-07,-6.542514214901065e-08,9.114670238038352e-07,-2.8337212653230723e-08,-1.1652094507727048e-06,1.909278005452008e-07,-3.4990422224149713e-07
7.153635222007885e-07,1.6284295388190315e-06,5.168071377393814e-07,6.053691060988366e-07,6.682221599781206e-07,-6.199821582959443e-09,-1.1178212950856134e-07,6.160288854609656e-07,-7.076009889061497e-07,2.8414962321411947e-08,3.9535688232235716e-07,-6.488261140044269e-07,-3.345761135698002e-08,8.951880832446159e-07,-2.7242298587800283e-08,-1.12653939774658e-06,2.0992196757838364e-07,-3.5564591405735116e-07
6.956281907388535e-07,1.496031555629102e-06,4.932979116525055e-07,5.999955369458321e-07,6.277121675005479e-07,6.769455638845116e-08,-1.5716177866353936e-07,6.181108432237164e-07,-6.161101023092097e-07,6.777701825865665e-08,3.9979100898745805e-07,-5.372587065806953e-07,7.459937482755865e-09,8.593254906148806e-07,-3.50546052170696e-08,-1.1136934532810535e-06,2.3221428427583936e-07,-3.5530174321884767e-07
