0,1,2,3,4,5,6,7,8,9,10,11,12,13,14,15,16,17
7.230882858100825e-08,3.262521132368177e-08,8.65155206289989e-08,1.091147342613477e-07,1.8264071507114066e-07,1.8905938726139662e-07,4.186181329992255e-08,1.1190956126137065e-07,-2.204988432726099e-09,1.1818590847700248e-07,-1.0988006003333856e-07,-5.464068258101175e-07,3.862239341573169e-07,-8.233312336452674e-08,2.3902852363973665e-07,-6.046376197688117e-07,-4.5170183751612793e-07,2.812691806712253e-07
5.712048790901643e-08,1.659636966002897e-08,6.287056684058689e-08,6.441909656177744e-08,1.5395895719759268e-07,1.8788382695186076e-07,-7.052112787871334e-10,6.625997938410815e-08,-8.639500028273685e-09,6.497720410524105e-08,-1.1032184980850886e-07,-5.157725016333668e-07,3.3042110811296154e-07,-8.467189496362356e-08,2.005955290387289e-07,-6.56210052068975e-07,-4.294571106466988e-07,2.288983280116588e-07
5.22379375255079e-08,3.9696094580624605e-09,3.9836511900544215e-08,2.448661952274172e-08,1.0959953195799529e-07,1.7832205596576586e-07,-4.5481022994042724e-08,8.900265945423701e-09,-1.906194788089e-08,1.7226135090537034e-08,-1.0341256055979361e-07,-4.4309190131542596e-07,2.4863946096207334e-07,-8.492879464943263e-08,1.6399123077513784e-07,-6.395805730383074e-07,-3.776065866356141e-07,1.527818262109942e-07
5.081028825505756e-08,-4.411868569568007e-09,1.8858267903795866e-08,-6.56857062142052e-09,5.508737125283737e-08,1.5792985481453752e-07,-8.937399485032435e-08,-5.118111619165151e-08,-3.1836126602739886e-08,-2.3563700023174354e-08,-8.977070522541384e-08,-3.361971602976027e-07,1.488064854042906e-07,-8.228810907001236e-08,1.3042822051585613e-07,-5.482320418610265e-07,-2.9670767896421716e-07,5.078326737419097e-08
5.095964204930912e-08,-8.780580405238974e-09,3.803881659275459e-10,-2.7052120654229384e-08,-2.371747154021902e-09,1.3057377127206513e-07,-1.2758730571122377e-07,-1.0436176839367701e-07,-4.5613589813162315e-08,-5.682824642377149e-08,-7.094311310686092e-08,-2.0849986610342128e-07,4.251683730805637e-08,-7.636581166806472e-08,1.0005032724842758e-07,-3.910665310592823e-07,-1.9317794122386153e-07,-7.49288502206099e-08
4.810583196814033e-08,-9.978694981083337e-09,-1.5239812578038606e-08,-3.7106166028176506e-08,-5.410052560314478e-08,9.799610340775378e-08,-1.530724295970388e-07,-1.4131117052778135e-07,-5.895658171378845e-08,-8.334878970490372e-08,-4.8543982017261925e-08,-7.738651784346133e-08,-5.706298689971112e-08,-6.684202077648728e-08,7.205210558438415e-08,-1.896612746325608e-07,-7.749012074114118e-08,-2.1071221574166724e-07
3.815644009187112e-08,-8.973121710783938e-09,-2.73695703660493e-08,-3.790678617456739e-08,-9.174118776168487e-08,6.26416383298909e-08,-1.606010025495568e-07,-1.5453497898861027e-07,-6.866134600445046e-08,-1.0086446263424967e-07,-2.3953430476290254e-08,4.3548342814917545e-08,-1.3742942352250228e-07,-5.324899185517089e-08,4.482654760514112e-08,2.6898876191473897e-08,3.770351029720279e-08,-3.115282685086574e-07
2.020155914517581e-08,-6.621006473299815e-09,-3.5252624911090334e-08,-3.1161423210911994e-08,-1.0940603913421073e-07,2.4866327157996262e-08,-1.4667054101886033e-07,-1.4003046540026342e-07,-7.096462483899951e-08,-1.0649008613263227e-07,1.5863837491967886e-09,1.4433439801340587e-07,-1.887245382745202e-07,-3.501790643953872e-08,1.6551355520543162e-08,2.281390724964731e-07,1.396922049933994e-07,-3.356982266776864e-07
-4.5325537546122805e-09,-3.5650077154791664e-09,-3.7705339129234746e-08,-1.88519016945316e-08,-1.0488006181930716e-07,-1.3268162089480682e-08,-1.0785656207991738e-07,-9.867828909458618e-08,-6.258836134033166e-08,-9.568595315351322e-08,2.670139496649839e-08,2.191695352263548e-07,-2.0570795715305378e-07,-1.1871154837986335e-08,-1.4001713711209586e-08,3.878034553881892e-07,2.1777289864127763e-07,-2.8700865734216666e-07
-2.9178965952647055e-08,-3.6430665306000757e-10,-3.494217755889476e-08,-3.6332645534451023e-09,-8.065285128979156e-08,-5.0538784620147136e-08,-4.8390894932271394e-08,-3.712174275851178e-08,-4.1654702356048356e-08,-6.582846381563535e-08,4.957119517846416e-08,2.6600334038124563e-07,-1.8948819442566582e-07,1.5484757835124592e-08,-4.69605820619758e-08,4.876925794966244e-07,2.6473620575024834e-07,-2.2487688082607926e-07
-4.599903499787083e-08,2.252554404322294e-09,-2.7798846865359266e-08,1.0698192028738626e-08,-4.3833152783798644e-08,-8.690568046593681e-08,2.34622035153237e-08,3.2720235919180616e-08,-9.520980029974646e-09,-1.9762177782519446e-08,6.806946052557267e-08,2.8557889947116596e-07,-1.4800307166960943e-07,4.487191177312832e-08,-8.113306857505506e-08,5.196180442916377e-07,2.7803140442225007e-07,-1.8956799234889652e-07
-5.8796566780863694e-08,3.3826388284931513e-09,-1.8152637678626886e-08,1.9452127411718964e-08,-5.041809506470852e-09,-1.2206508966682527e-07,9.448413451479544e-08,9.578948117853957e-08,2.873724789561812e-08,3.299991409572139e-08,8.04289091308378e-08,2.8179124460495686e-07,-9.481038799961357e-08,7.283202088853308e-08,-1.143251148083398e-07,4.858144389728228e-07,2.6051639587233907e-07,-1.5240013838341617e-07
-6.42215043690237e-08,2.2434261362258066e-09,-8.84876860707932e-09,1.7946224823020343e-08,2.2822856761656922e-08,-1.5560976465103163e-07,1.532587688953888e-07,1.365255987164086e-07,6.73261708332939e-08,7.683134697962075e-08,8.594711280748121e-08,2.6106670295309137e-07,-4.631373767342212e-08,9.558068634921799e-08,-1.440582120388793e-07,3.985307521750143e-07,2.2073811502128164e-07,4.969398820543019e-08
-6.430848907006926e-08,-1.3213071542763486e-09,-2.2950608073344595e-09,3.0616799882072716e-09,2.7474656457312475e-08,-1.8446107106738054e-07,1.905317942209236e-07,1.4214064858168076e-07,9.738778899036704e-08,9.88241372468459e-08,8.549065244695192e-08,2.321933221845797e-07,-1.7856546353873206e-08,1.105394418023145e-07,-1.6884333696031095e-07,2.7929262027248895e-07,1.7202042788622271e-07,2.5308678559360215e-07
-6.316853639071183e-08,-6.3399887936985106e-09,1.57953265209042e-10,-2.498742977495606e-08,3.496827603139633e-10,-2.0468166103928453e-07,1.9913362666059923e-07,1.055602783493075e-07,1.1301759899817794e-07,9.113295243151475e-08,8.153756277187598e-08,2.050929398200108e-07,-1.933618453131861e-08,1.1778420823278959e-07,-1.8937619613877437e-07,1.5632613134103039e-07,1.2947732129596135e-07,3.566600534677024e-07
-5.96953642092876e-08,-1.071392735432656e-08,-1.0143702033550385e-09,-6.191101188531367e-08,-5.99063964064195e-08,-2.1174275156118118e-07,1.7700662390506947e-07,2.7413482019059443e-08,1.1323394232392908e-07,5.219428124391612e-08,7.749302965058927e-08,1.8857604753366794e-07,-5.187479744140893e-08,1.2047478074373487e-07,-2.0882561563341015e-07,5.927212180320894e-08,1.0545279154747831e-07,4.135478005143761e-07
-5.266822802045255e-08,-1.1883537144510111e-08,-3.738346761955517e-09,-1.0036954109656596e-07,-1.49075044959065e-07,-2.0510194992045591e-07,1.315827722527395e-07,-8.368848703765484e-08,1.0096570321425541e-07,-9.970420442416708e-09,7.66545552626048e-08,1.8764755385132138e-07,-1.0747137646553047e-07,1.237486658825664e-07,-2.313845309306724e-07,1.1989307663821141e-08,1.059397157699344e-07,4.1857038593212306e-07
-4.207055985922601e-08,-7.80608580123123e-09,-4.915865415986406e-09,-1.3242896366086858e-07,-2.5699129898479203e-07,-1.8849990091923402e-07,6.779079731977419e-08,-2.1313371069368283e-07,8.280378314356233e-08,-8.112763754657021e-08,8.135700234440877e-08,2.014321117111514e-07,-1.726153206440724e-07,1.3236410447603862e-07,-2.5964563508570276e-07,2.6110382111385888e-08,1.3017931078167118e-07,4.2075197628603426e-07
-3.11542283944013e-08,2.2040108495650407e-09,-1.8013572535610882e-09,-1.525350677103508e-07,-3.698094190623276e-07,-1.6937891812189687e-07,-7.2501387545561e-10,-3.440873628241309e-07,6.60278204973454e-08,-1.4907889856142724e-07,9.245516154907417e-08,2.2300500331702264e-07,-2.3405816981557435e-07,1.483748137611475e-07,-2.927064933753259e-07,9.831706349587343e-08,1.731949630698541e-07,3.098937557107302e-07
-2.496225072245837e-08,1.724325115512318e-08,6.862607956431306e-09,-1.59382623726566e-07,-4.7392748067476325e-07,-1.572400130300306e-07,-5.954955992070291e-08,-4.6169857625493943e-07,5.5914681531303443e-08,-2.07772940251516e-07,1.0914776695870642e-07,2.4159445170652896e-07,-2.829168564362845e-07,1.7045907924540996e-07,-3.2641786464523144e-07,2.1238930813336006e-07,2.2908550510430607e-07,1.6613627027054703e-07
-3.289972884370951e-08,3.532266444700073e-08,2.109583992835636e-08,-1.5570612247649131e-07,-5.579562927375679e-07,-1.620256152276264e-07,-1.0195549484222218e-07,-5.566381484653837e-07,5.398856021855672e-08,-2.5784584716264924e-07,1.290011698631244e-07,2.463822775768424e-07,-3.154279937908928e-07,1.9520508264474408e-07,-3.5537895262326707e-07,3.44752397924167e-07,2.927123619298925e-07,7.804212148296817e-08
-6.08011904480819e-08,5.417575778623492e-08,3.984982913614217e-08,-1.467183964790552e-07,-6.150553597117004e-07,-1.8876597798616015e-07,-1.2514892660669444e-07,-6.257746291837761e-07,5.999889416091907e-08,-3.048332681753302e-07,1.481769330897651e-07,2.3054319667728431e-07,-3.318079732314836e-07,2.1912949966374175e-07,-3.7514022446592056e-07,4.7072077182474144e-07,3.5984204120134086e-07,2.683762056660881e-08
-1.0868957187405656e-07,7.201735798833332e-08,6.106664430249442e-08,-1.3818407952288345e-07,-6.435845160603907e-07,-2.3585989809010307e-07,-1.3224552174391859e-07,-6.71920306759785e-07,7.207534693656724e-08,-3.532621606739904e-07,1.6216084817536536e-07,1.943778216101738e-07,-3.351254402842781e-07,2.401745501334253e-07,-3.832161106266381e-07,5.701716113216523e-07,4.269500394141572e-07,-2.6283985374223706e-09
-1.704278674479418e-07,8.806853150621488e-08,8.328164987810782e-08,-1.3474249617371603e-07,-6.467048160984581e-07,-2.952268899213967e-07,-1.2951288166343053e-07,-7.018518767086137e-07,8.818586096172323e-08,-4.022984058008768e-07,1.669323146703299e-07,1.4639123424731433e-07,-3.3065391324990804e-07,2.5825952143843124e-07,-3.792854543556999e-07,6.313110458629839e-07,4.908225010726068e-07,-6.022003651455909e-09
-2.3518895237724935e-07,1.0260323868938812e-07,1.0630128610457807e-07,-1.388209370872018e-07,-6.307702142802979e-07,-3.545970774873866e-07,-1.2370152458421577e-07,-7.238295085654932e-07,1.0702377279444023e-07,-4.45955111455547e-07,1.6018471180877796e-07,1.0129099362324317e-07,-3.246544034386365e-07,2.750714316297245e-07,-3.657456076207249e-07,6.519843299538211e-07,5.477933917184302e-07,1.0956515341503777e-08
-2.8861088619380185e-07,1.166161900201129e-07,1.2891897374748228e-07,-1.501248790543847e-07,-6.045056708611622e-07,-4.0029295217145065e-07,-1.1858076237877609e-07,-7.458496592246534e-07,1.2837391499402454e-07,-4.747186414883785e-07,1.423073573334957e-07,7.4725232870247e-08,-3.2237649415470564e-07,2.9329600082557253e-07,-3.4843518379495436e-07,6.39031661454605e-07,5.935764065749269e-07,4.481270620462856e-08
-3.1468604341630485e-07,1.3139075987129188e-07,1.5096377238099547e-07,-1.6555705519633802e-07,-5.773500816621515e-07,-4.2223746657116387e-07,-1.1727027812526695e-07,-7.737489386898541e-07,1.5168726947494482e-07,-4.807574755127086e-07,1.1670497151347038e-07,7.648177650696684e-08,-3.2644701013007056e-07,3.1534050411880573e-07,-3.3639221007056174e-07,6.05877918175333e-07,6.238828842995263e-07,8.94485769590059e-08
-3.094066609168875e-07,1.4802044447892058e-07,1.7227737494242792e-07,-1.8006835366403778e-07,-5.567436534613875e-07,-4.115220854634677e-07,-1.2227455061636013e-07,-8.098372207239522e-07,1.7718398286395068e-07,-4.640520616323477e-07,8.908057860843005e-08,1.0602964356726763e-07,-3.3664920205653427e-07,3.4205616506817143e-07,-3.392424814438547e-07,5.689611739422659e-07,6.359290015427323e-07,1.3810548567247046e-07
-2.7168526561712597e-07,1.6705845533912946e-07,1.9210866160983276e-07,-1.8841562837720284e-07,-5.471779453910958e-07,-3.708585208008065e-07,-1.2917441843081824e-07,-8.520497914290727e-07,2.0540447352830054e-07,-4.3131882389536316e-07,6.58420542998298e-08,1.533895602987496e-07,-3.509020779679126e-07,3.7232395530546214e-07,-3.6335464149034767e-07,5.437315760763263e-07,6.302114295920929e-07,1.8204678918085786e-07
-2.1083410090346544e-07,1.8849349799068163e-07,2.1039346415248895e-07,-1.868984685883977e-07,-5.48832880631059e-07,-3.085973372631967e-07,-1.327097397426788e-07,-8.956990231923434e-07,2.3673038879331571e-07,-3.9574486756476345e-07,5.230878384415489e-08,2.043110631473242e-07,-3.6650612166617037e-07,4.037482936732512e-07,-4.090289770066978e-07,5.411373032030433e-07,6.110259731174899e-07,2.1236832981576797e-07
-1.418858039690269e-07,2.119074781573208e-07,2.2757458701355648e-07,-1.7426049448201926e-07,-5.575833158169939e-07,-2.3269304999680843e-07,-1.2795022399600745e-07,-9.34657608997665e-07,2.72282318166483e-07,-3.692764697069702e-07,5.1621062855968426e-08,2.462998160587341e-07,-3.8098474458693694e-07,4.3391748731704655e-07,-4.707589446656082e-07,5.660215628450831e-07,5.853487952603995e-07,2.2490986728047777e-07
-7.854621838697485e-08,2.3664723725074296e-07,2.4447348232663115e-07,-1.5145091105311317e-07,-5.677580603428907e-07,-1.5251044477309973e-07,-1.046729981084718e-07,-9.630772542096752e-07,3.119100836453588e-07,-3.6196902186697544e-07,6.463728213569459e-08,2.726024477476096e-07,-3.9247609383626906e-07,4.6143357053345516e-07,-5.398564676468596e-07,6.177244864740951e-07,5.607921665205091e-07,2.1898801087334355e-07
-3.161601593091516e-08,2.619570219052479e-07,2.619987279917803e-07,-1.2075224749341804e-07,-5.735186262016013e-07,-7.392027196466596e-08,-6.443290242031182e-08,-9.7723479343865e-07,3.5490156861482416e-07,-3.7826939086908605e-07,9.021847257615271e-08,2.829984332562102e-07,-4.0014284486628445e-07,4.861227369140536e-07,-6.077393834925329e-07,6.914946841014706e-07,5.434374106035111e-07,1.988583328490609e-07
-7.485284187371856e-09,2.870279447221481e-07,2.8141823497583303e-07,-8.496109567042546e-08,-5.697686029513474e-07,-1.6725123160195697e-10,-8.692380822863191e-09,-9.759804593124353e-07,3.9950996500826115e-07,-4.16233937785032e-07,1.2554032181736067e-07,2.822099464768551e-07,-4.0442060537080936e-07,5.085319938249353e-07,-6.680520597497021e-07,7.797609976823491e-07,5.365714289683833e-07,1.6921369741629746e-07
-9.391369632874427e-09,3.1103422694718456e-07,3.030744930135783e-07,-4.6848725012599145e-08,-5.540231126549426e-07,6.686599097964461e-08,6.009495137190005e-08,-9.605443070533282e-07,4.4360066096225403e-07,-4.696876794236347e-07,1.6657705104633013e-07,2.7749722942207736e-07,-4.0666993440821027e-07,5.293042075495599e-07,-7.166853786077241e-07,8.735662306616739e-07,5.411266024077004e-07,1.3441524502890602e-07
-3.45633252560119e-08,3.332482406528084e-07,3.2686029215182897e-07,-8.782707125193616e-09,-5.25855087261966e-07,1.2664958878768116e-07,1.3700148439339705e-07,-9.336129260347316e-07,4.856541290807251e-07,-5.285129924925139e-07,2.0880605532873498e-07,2.762895348957354e-07,-4.0840480747422897e-07,5.488213059917779e-07,-7.507883383336095e-07,9.643051105088543e-07,5.570998834418118e-07,9.928783131795664e-08
-7.892670851985726e-08,3.5323131487431323e-07,3.5251086257325663e-07,2.7612729244743943e-08,-4.861348976109985e-07,1.8078083046643373e-07,2.1967357898465597e-07,-8.982587688952199e-07,5.254152880589886e-07,-5.824623850246346e-07,2.4816364187343104e-07,2.841370234028827e-07,-4.1046706107527013e-07,5.671633498156543e-07,-7.682097818732296e-07,1.0453024753633656e-06,5.84580001700963e-07,6.72911627238788e-08
-1.3635789666717336e-07,3.709909981998845e-07,3.794858095412194e-07,6.156094474385519e-08,-4.368942861996159e-07,2.311830398106738e-07,3.055914349643764e-07,-8.572563543769332e-07,5.63342964851386e-07,-6.232833277653084e-07,2.8196858387978625e-07,3.032219116484764e-07,-4.126884099042151e-07,5.841400425720307e-07,-7.681191836598923e-07,1.112570848041599e-06,6.235321947462097e-07,4.0073250775277714e-08
-2.004553914928639e-07,3.869440019817993e-07,4.074028687459357e-07,9.274538572820436e-08,-3.811244347904378e-07,2.78304838010531e-07,3.928965339837109e-07,-8.132886949160132e-07,5.999494647122277e-07,-6.475578082948168e-07,3.091477945923692e-07,3.3183992642211377e-07,-4.144407389491119e-07,5.991654538962441e-07,-7.521233376227005e-07,1.1643372747765004e-06,6.727808258065805e-07,1.756407097903938e-08
-2.663091665163551e-07,4.017220380854091e-07,4.354893828128732e-07,1.2087415274891537e-07,-3.2266401116473975e-07,3.215436872652882e-07,4.7611225102281e-07,-7.695808219838366e-07,6.35284983009434e-07,-6.560015052696934e-07,3.2974973280877224e-07,3.652385124071368e-07,-4.1556476010758325e-07,6.111648320808982e-07,-7.245323418359959e-07,1.200290653673437e-06,7.295141073519263e-07,-2.1443926915353155e-09
-3.2878415438268106e-07,4.159629764845196e-07,4.6238342135488553e-07,1.4577469691299262e-07,-2.6592973805584314e-07,3.59668496270448e-07,5.508931708531283e-07,-7.297564249669039e-07,6.683058256348285e-07,-6.541225154080326e-07,3.444009356526642e-07,3.974575858168313e-07,-4.1683053691335726e-07,6.187911164304787e-07,-6.910935149136296e-07,1.2215351246078374e-06,7.900224964157151e-07,-2.2191084180031483e-08
-3.83380907483524e-07,4.301328535034961e-07,4.868912588341173e-07,1.675471369497667e-07,-2.1504513700696875e-07,3.907576322539691e-07,6.155831524075475e-07,-6.967286596192454e-07,6.975373601475231e-07,-6.482468450895658e-07,3.540957001656559e-07,4.2335433421154874e-07,-4.19556966371402e-07,6.209249262839674e-07,-6.567608409113204e-07,1.2312187234423913e-06,8.512873635390937e-07,-4.645831783952685e-08
-4.263829137549768e-07,4.4451378148600464e-07,5.07874648592095e-07,1.870181740789498e-07,-1.7231179154385913e-07,4.14531259308072e-07,6.698860077264674e-07,-6.712701710855582e-07,7.224256632027392e-07,-6.433236304582374e-07,3.6019983142089843e-07,4.4020718248983216e-07,-4.2480857183850773e-07,6.172316692661204e-07,-6.237974531734494e-07,1.2349728513037048e-06,9.123692157234436e-07,-7.733919864360515e-08
-4.5329829389913587e-07,4.593670868331628e-07,5.248625267770067e-07,2.0587878109898227e-07,-1.3759428465265475e-07,4.3086343856606795e-07,7.167561391133056e-07,-6.513609855787137e-07,7.434254244674409e-07,-6.42572517567084e-07,3.6425148561200114e-07,4.483962807375539e-07,-4.32876058554545e-07,6.084675505357963e-07,-5.91551383030469e-07,1.2399768754588943e-06,9.742689735084158e-07,-1.1628954815171302e-07
-4.62503718521627e-07,4.7498109730298135e-07,5.382644673756986e-07,2.2612884530924664e-07,-1.0827891233610896e-07,4.425396309667164e-07,7.591070787866652e-07,-6.331115042138238e-07,7.614802687803268e-07,-6.462584605029764e-07,3.6739873950203944e-07,4.510359061211525e-07,-4.4315934903873463e-07,5.964076445608668e-07,-5.578609467464314e-07,1.2527754960320421e-06,1.0383501095722373e-06,-1.631502287984473e-07
-4.520830145477151e-07,4.915472233261392e-07,5.488207742040092e-07,2.493070451809273e-07,-8.087066812076535e-08,4.5160148786425587e-07,8.016955842968632e-07,-6.122633819284826e-07,7.773947269645058e-07,-6.521562906887347e-07,3.698137067889971e-07,4.5291863145023916e-07,-4.541079862145757e-07,5.835459705183019e-07,-5.209523719434718e-07,1.2770423308284628e-06,1.104626687545767e-06,-2.1655218731806835e-07
-4.1986676752373237e-07,5.089967442701174e-07,5.572454876234538e-07,2.758098982018725e-07,-5.2816005815918336e-08,4.5776782730721865e-07,8.446013756471537e-07,-5.863226146573013e-07,7.905559437565894e-07,-6.567178874544658e-07,3.7034043007739884e-07,4.5906023500383927e-07,-4.6330389451545286e-07,5.726522428171731e-07,-4.811040784013565e-07,1.3117317730325638e-06,1.1704133507409545e-06,-2.746393368922779e-07
-3.644540593372656e-07,5.26790515737036e-07,5.637973391472918e-07,3.044816141620911e-07,-2.400100528305919e-08,4.615618580238242e-07,8.851902581126954e-07,-5.562076816569126e-07,7.988528388061421e-07,-6.547775031776391e-07,3.6655429150684865e-07,4.733059977412643e-07,-4.6772470481382595e-07,5.662430655669148e-07,-4.4158382789235633e-07,1.3507857108692827e-06,1.2299837621295552e-06,-3.344507965546658e-07
-2.8544970840762164e-07,5.438745665724759e-07,5.681815196964519e-07,3.3284571212665014e-07,3.204232028971731e-09,4.6269804860425435e-07,9.205814896843573e-07,-5.263284099804068e-07,7.987277000813094e-07,-6.40936668878298e-07,3.55534786908741e-07,4.975798066765204e-07,-4.640076877107318e-07,5.661390460755201e-07,-4.082545070933499e-07,1.3848408388723916e-06,1.2758780012733433e-06,-3.9154367930007596e-07
-1.842366595153185e-07,5.590363234068074e-07,5.698755417867741e-07,3.5806866353925023e-07,2.375567296846054e-08,4.622696249168492e-07,9.478739957351406e-07,-5.031731686551709e-07,7.871099256093504e-07,-6.091717264964034e-07,3.35144383324279e-07,5.316733137780324e-07,-4.4900556238253296e-07,5.730890930538179e-07,-3.88091314937465e-07,1.404175012712595e-06,1.3011911659577287e-06,-4.3852511959361956e-07
-6.407232240851946e-08,5.714334365222434e-07,5.690577946808439e-07,3.7777975829893615e-07,3.1389296622730846e-08,4.637092265585929e-07,9.636500178650102e-07,-4.933477008752179e-07,7.631659829087948e-07,-5.546642284493357e-07,3.0520253896031307e-07,5.733213535564057e-07,-4.2078544010952223e-07,5.863996096885914e-07,-3.8696665179406925e-07,1.4018753823400146e-06,1.3020406041920485e-06,-4.6747279023193324e-07
6.785550171317936e-08,5.810322772946082e-07,5.669047212539625e-07,3.905993504832374e-07,2.0659181790961717e-08,4.71296780527459e-07,9.648479996311344e-07,-5.013344183645165e-07,7.293734805557247e-07,-4.761264661950536e-07,2.68138852512754e-07,6.187326413336089e-07,-3.7963257982981494e-07,6.038452987466897e-07,-4.068255173079518e-07,1.3763526283136266e-06,1.279655370703305e-06,-4.736929836687218e-07
2.0292470233887864e-07,5.88788539574318e-07,5.652650993805262e-07,3.9643641657501646e-07,-1.141199525827348e-08,4.890591888538286e-07,9.555418508702041e-07,-5.286382839629765e-07,6.910046840567715e-07,-3.7723620747547984e-07,2.285944080947559e-07,6.633630975887849e-07,-3.286347288580206e-07,6.220931015048808e-07,-4.4392497304341526e-07,1.3317906331987776e-06,1.2405866174712037e-06,-4.5651143553047023e-07
3.31828914883843e-07,5.962866156989432e-07,5.659301194537724e-07,3.9613709179120197e-07,-6.381418713373097e-08,5.189020868817039e-07,9.408373427282835e-07,-5.744290600489776e-07,6.543661583621103e-07,-2.674067658760498e-07,1.9176647974641696e-07,7.024789568804205e-07,-2.734554618270933e-07,6.375556537532741e-07,-4.900511819732004e-07,1.275940023523318e-06,1.1941315327915798e-06,-4.215119611565985e-07
4.458656024642655e-07,6.049556491112174e-07,5.698113156578042e-07,3.911598569089609e-07,-1.3153506181073478e-07,5.591384901404056e-07,9.26462837635151e-07,-6.354964082960827e-07,6.239033147472118e-07,-1.5937810623730623e-07,1.6152006579252604e-07,7.315929815566842e-07,-2.210365873321794e-07,6.473774088109905e-07,-5.362975395481877e-07,1.2168724238792648e-06,1.1486008435672572e-06,-3.8013590788741947e-07
5.389878421848759e-07,6.154267427990008e-07,5.765349321109471e-07,3.8328786629618744e-07,-2.0640070317755087e-07,6.046580028093834e-07,9.182371116202651e-07,-7.063093597377423e-07,6.012814723556407e-07,-6.62649165540878e-08,1.3948261652329414e-07,7.469220317456293e-07,-1.778109603236189e-07,6.500650546795313e-07,-5.766709462005554e-07,1.1605340797282292e-06,1.108925031206284e-06,-3.4330575429822084e-07
6.069021614585374e-07,6.27366346709374e-07,5.849294224228464e-07,3.744494288812536e-07,-2.788016879184451e-07,6.479444126968842e-07,9.187011630831021e-07,-7.789613906356863e-07,5.863884258292677e-07,2.120696104792301e-09,1.253468597409839e-07,7.458940841182482e-07,-1.4825072518560795e-07,6.455237029112896e-07,-6.091725345401931e-07,1.1099961356041336e-06,1.0768382983224885e-06,-3.1567623432768584e-07
6.497415389558161e-07,6.398138303646962e-07,5.93911351470271e-07,3.6658931408831505e-07,-3.395910871010223e-07,6.822766915199023e-07,9.282452405487167e-07,-8.443412293303267e-07,5.780518599997701e-07,3.996146844441757e-08,1.1793213334237525e-07,7.278712033323548e-07,-1.3385228837785694e-07,6.348248388934171e-07,-6.345359604940064e-07,1.0662830550528027e-06,1.0526597013751402e-06,-2.9868135421696936e-07
6.697288292588668e-07,6.518146300444951e-07,6.027972196465814e-07,3.6138255117498283e-07,-3.819751549880315e-07,7.053780547557127e-07,9.474379045376924e-07,-8.942792745312997e-07,5.753714704884615e-07,4.658718246211819e-08,1.1619107280715229e-07,6.948449635333176e-07,-1.329097795387393e-07,6.199647293867881e-07,-6.545700594617773e-07,1.0297032169386365e-06,1.0366601514050017e-06,-2.888546454718634e-07
6.704028444270076e-07,6.629033194042438e-07,6.115942714793771e-07,3.5993675800750606e-07,-4.027484038987568e-07,7.179454543162472e-07,9.772555425220713e-07,-9.235662860437131e-07,5.777165327446896e-07,2.653275340697402e-08,1.1957708362371763e-07,6.516204570653847e-07,-1.4162181196760202e-07,6.034929296594353e-07,-6.713678980000207e-07,1.000721550672389e-06,1.0291609933390142e-06,-2.829024085266722e-07
6.565742360091069e-07,6.732248854560245e-07,6.209024236044608e-07,3.626306593375078e-07,-4.034256879357853e-07,7.252569373638693e-07,1.0168039819894856e-06,-9.310806745125187e-07,5.849233577030228e-07,-1.243935489504657e-08,1.2799371623051687e-07,6.053309662920594e-07,-1.560478444884905e-07,5.880623902619827e-07,-6.870082213120498e-07,9.802189194971061e-07,1.0299407382375487e-06,-2.779327157642418e-07
6.331875725221871e-07,6.833544707688324e-07,6.315208420319637e-07,3.6926605274539884e-07,-3.889947347247441e-07,7.340695895633769e-07,1.0637066489132017e-06,-9.193300496584698e-07,5.974544545907669e-07,-6.093260609897133e-08,1.4148542614389423e-07,5.639884916798453e-07,-1.7372182593929612e-07,5.759829253905856e-07,-7.036176879237143e-07,9.688842777062702e-07,1.0373986827497869e-06,-2.7213348888565875e-07
6.056383206850416e-07,6.938342968078218e-07,6.439842139727216e-07,3.791058319983436e-07,-3.6655235094515405e-07,7.488717506930986e-07,1.1151939136251514e-06,-8.938384583863938e-07,6.157746923089585e-07,-1.0992708169082175e-07,1.5961319728977954e-07,5.341309324285958e-07,-1.938429695045921e-07,5.688430191229379e-07,-7.234117817176659e-07,9.661676650904397e-07,1.0481225251905609e-06,-2.641205078893669e-07
5.789736524103539e-07,7.046896067521416e-07,6.581549781481924e-07,3.9089966549629914e-07,-3.435094123337115e-07,7.689613767250232e-07,1.164455197907131e-06,-8.614687535751267e-07,6.399199547527507e-07,-1.5225842666396707e-07,1.8111634263654456e-07,5.18745710365194e-07,-2.1592153645046123e-07,5.673844142706197e-07,-7.480255721414355e-07,9.700018953009468e-07,1.057797399399705e-06,-2.5209281191988854e-07
5.569042514998839e-07,7.153209053521572e-07,6.731551093791712e-07,4.031046322615094e-07,-3.2551318313506127e-07,7.924384570827429e-07,1.2082397405450459e-06,-8.281601491138943e-07,6.691199252644488e-07,-1.8362330696795942e-07,2.042523332554845e-07,5.164023840183257e-07,-2.3834298586501448e-07,5.715291655961293e-07,-7.773575944960538e-07,9.77525626115714e-07,1.0630030283356048e-06,-2.3621371778143496e-07
5.397684435190309e-07,7.247404761548009e-07,6.87521321834075e-07,4.140211874555669e-07,-3.1565501533139124e-07,8.147374981677128e-07,1.2440894764464141e-06,-7.975199430051803e-07,7.01975010249816e-07,-2.0402464259917626e-07,2.2734929471205021e-07,5.216303614379827e-07,-2.5834604857841105e-07,5.80287638617475e-07,-8.089218167077268e-07,9.860607134798241e-07,1.0628341603553376e-06,-2.1656730276437242e-07
5.243080593431261e-07,7.319880196509567e-07,6.998065764984204e-07,4.2202868055914763e-07,-3.1388287918261566e-07,8.293818473700543e-07,1.2707144106380887e-06,-7.703444423638749e-07,7.369227914308724e-07,-2.179277250801282e-07,2.493514129550839e-07,5.26589289935929e-07,-2.730205555800076e-07,5.917525500640023e-07,-8.380036288208455e-07,9.943229450775068e-07,1.060050588239949e-06,-1.9439854581201185e-07
5.052307439300736e-07,7.366882437976824e-07,7.090757991289034e-07,4.2622343038559535e-07,-3.1785677517012833e-07,8.31735060156794e-07,1.290177749648528e-06,-7.450412209026705e-07,7.723934979712389e-07,-2.3300347737810812e-07,2.7019193850475133e-07,5.235131398059712e-07,-2.804412232286802e-07,6.034233464737504e-07,-8.585991882281669e-07,1.003207747234781e-06,1.0611153265869195e-06,-1.7110181680286924e-07
4.772498290784281e-07,7.394343874135209e-07,7.152736643650595e-07,4.2690431131709373e-07,-3.237409347028864e-07,8.188253735992586e-07,1.3036149180326523e-06,-7.189131935763597e-07,8.071543636406463e-07,-2.5793057954762635e-07,2.9041433243101426e-07,5.067623287006402e-07,-2.8083788780822156e-07,6.125915851847003e-07,-8.65150431506364e-07,1.0148854895987358e-06,1.0744248037979704e-06,-1.492792398834134e-07
4.3778212241108575e-07,7.416900148446824e-07,7.191505036892208e-07,4.2539199094678944e-07,-3.276494887999307e-07,7.913522479023853e-07,1.3123177916808084e-06,-6.901609656911726e-07,8.403659717302902e-07,-2.998016102325492e-07,3.102652256690465e-07,4.7420564735003715e-07,-2.772155404701267e-07,6.167060827699102e-07,-8.540976759309175e-07,1.0310505822450863e-06,1.1077534052322959e-06,-1.331490313727743e-07
3.886263221494329e-07,7.453502975923845e-07,7.218215710438179e-07,4.234661661859987e-07,-3.2687749698609055e-07,7.542361996554252e-07,1.3166129427579968e-06,-6.592686820439806e-07,8.707129555162806e-07,-3.617883401490939e-07,3.2912214668059666e-07,4.278981915903917e-07,-2.746277922910174e-07,6.138907624892563e-07,-8.245732668147274e-07,1.0517427259152222e-06,1.1660174584194818e-06,-1.2682378798541287e-07
3.3566866371183067e-07,7.520693965961256e-07,7.243474831936283e-07,4.2275231961296454e-07,-3.2042191763397835e-07,7.153030409635821e-07,1.3159801028973603e-06,-6.289851142878574e-07,8.962270281512142e-07,-4.420345470080011e-07,3.4543861399824696e-07,3.7323971469464854e-07,-2.783947147155481e-07,6.034017472848072e-07,-7.786957555456048e-07,1.074630875903881e-06,1.2493491307210696e-06,-1.341423855148997e-07
2.867955233783098e-07,7.62443435812636e-07,7.271233597169964e-07,4.2404651415785014e-07,-3.0925525899715943e-07,6.821439665182834e-07,1.3081946456048363e-06,-6.032216613153859e-07,9.146512969402078e-07,-5.33999404977354e-07,3.5716823829301784e-07,3.16722128500779e-07,-2.9198512586216065e-07,5.857632092570152e-07,-7.213933559637182e-07,1.0950315303133625e-06,1.352203482276058e-06,-1.585216730501454e-07
2.4797072018096735e-07,7.75608876479376e-07,7.296378554690027e-07,4.2730798454215336e-07,-2.9557555324234255e-07,6.59834680001566e-07,1.2915970169454057e-06,-5.846949447718248e-07,9.242023494103712e-07,-6.284429986049961e-07,3.62644100347697e-07,2.6370526954355434e-07,-3.153935815334835e-07,5.626172583801859e-07,-6.593324324606184e-07,1.1071325442917277e-06,1.4642198873649032e-06,-1.9803740535305964e-07
2.214249040738378e-07,7.89560087735553e-07,7.308223406097783e-07,4.320835096920608e-07,-2.817351186978231e-07,6.492978957120419e-07,1.2661961349562898e-06,-5.730750940640193e-07,9.242327492799663e-07,-7.153325708576502e-07,3.6115204445346685e-07,2.171688423159921e-07,-3.450315767752644e-07,5.362789238252502e-07,-5.99599459185485e-07,1.1052923210864802e-06,1.5720031379489145e-06,-2.476546720304021e-07
2.0485925181925644e-07,8.017481746208035e-07,7.293121345858458e-07,4.375530456879711e-07,-2.693230519006185e-07,6.469377117277641e-07,1.2324788433415634e-06,-5.652544346016984e-07,9.154190964781545e-07,-7.852006119794518e-07,3.5270364190141204e-07,1.7783783268469898e-07,-3.750267595558686e-07,5.091728175430093e-07,-5.484743630370075e-07,1.0849697667854511e-06,1.6615996360270793e-06,-3.0004499252125077e-07
1.9248483774391135e-07,8.097393194309243e-07,7.237287755324926e-07,4.425878970396592e-07,-2.5886551028550834e-07,6.451178578340889e-07,1.192469117352868e-06,-5.564967178583279e-07,8.987864914219016e-07,-8.298062432095085e-07,3.377277213578178e-07,1.4578955346309076e-07,-3.988401595502873e-07,4.835969603126357e-07,-5.100177845184721e-07,1.0442171633185197e-06,1.7219737300855797e-06,-3.4685492726841933e-07
1.7861788528723856e-07,8.120433735142113e-07,7.133279758567515e-07,4.46451338429443e-07,-2.495991468839438e-07,6.362413043757758e-07,1.1482692503252305e-06,-5.414745280074076e-07,8.760285128990693e-07,-8.422116423721841e-07,3.171133554804661e-07,1.222873571875682e-07,-4.111429534289503e-07,4.617133241055263e-07,-4.854858037173602e-07,9.84969064660971e-07,1.747713852191082e-06,-3.810041883244222e-07
1.6118313335167585e-07,8.087634404815583e-07,6.985656459006257e-07,4.4959800651580513e-07,-2.3949622151830057e-07,6.166180548825984e-07,1.1035068279171548e-06,-5.157594165534404e-07,8.497373808912516e-07,-8.182350230515037e-07,2.922217204742181e-07,1.1032902728920487e-07,-4.1022553696017563e-07,4.4523658225429986e-07,-4.7472885349694024e-07,9.127886977340641e-07,1.7392391955017323e-06,-3.9815321152924567e-07
1.4365818115798601e-07,8.016572679444167e-07,6.811989624554695e-07,4.539411177310318e-07,-2.2667977804948377e-07,5.882045851590158e-07,1.0616796247457925e-06,-4.777918345964873e-07,8.227670969588617e-07,-7.586915746362995e-07,2.649537320501045e-07,1.1412176911793089e-07,-3.9962215680064626e-07,4.349524603342456e-07,-4.78327922927798e-07,8.356394148782579e-07,1.7015020994766174e-06,-3.975960243080342e-07
1.3470159040368384e-07,7.936463335674761e-07,6.639963682122779e-07,4.626235052298528e-07,-2.0997222160693926e-07,5.581190275922299e-07,1.0239980175575065e-06,-4.3001076345829415e-07,7.980545187398287e-07,-6.705015763895234e-07,2.379459508237916e-07,1.3798846656753958e-07,-3.8753089119803956e-07,4.304950243165685e-07,-4.986143939065623e-07,7.622015176706089e-07,1.6422842614239426e-06,-3.815898975178887e-07
1.4542758709138372e-07,7.877952320463862e-07,6.49829992395893e-07,4.788341253271964e-07,-1.9010589990335545e-07,5.36691952052149e-07,9.933630971646303e-07,-3.789746521753779e-07,7.77717288903237e-07,-5.666411976732413e-07,2.141798758849859e-07,1.8430827930809825e-07,-3.841539404286061e-07,4.3031172857731755e-07,-5.389542259515702e-07,6.990581015620762e-07,1.5700753353533066e-06,-3.5658296305785546e-07
1.8428611999202256e-07,7.860051458527941e-07,6.402521392915147e-07,5.039292811629013e-07,-1.701576372695271e-07,5.340473879866013e-07,9.685530707213849e-07,-3.340757784380936e-07,7.620882126157441e-07,-4.634680468145033e-07,1.959574096414834e-07,2.5116392393783866e-07,-3.9776343035002555e-07,4.3184111548978526e-07,-6.010753481587418e-07,6.48082338883143e-07,1.4926642005182608e-06,-3.314206404712429e-07
2.532512131534483e-07,7.88308829375876e-07,6.348119126456948e-07,5.364277413025931e-07,-1.5425430435026834e-07,5.559951038620652e-07,9.469339548650448e-07,-3.0427286339312146e-07,7.500164984264215e-07,-3.762139226767626e-07,1.8420587238974457e-07,3.3157382116710874e-07,-4.3103689471395373e-07,4.321513761963077e-07,-6.816935899124257e-07,6.062314705541165e-07,1.4171531615880177e-06,-3.134269711474721e-07
3.4674996807282344e-07,7.932153748444065e-07,6.314784798095012e-07,5.724540673039055e-07,-1.4558927043771494e-07,6.029515032491443e-07,9.251100340859648e-07,-2.944585172907024e-07,7.401046435157591e-07,-3.1485781105576855e-07,1.7850572899844058e-07,4.1505728189101936e-07,-4.799967794045493e-07,4.2877082703718155e-07,-7.716545103921964e-07,5.673337123308345e-07,1.3497981190398438e-06,-3.0769863543518695e-07
4.534711090001663e-07,7.985161380325203e-07,6.274952133803963e-07,6.06867404366744e-07,-1.450992711327218e-07,6.690556136663234e-07,8.990322390234253e-07,-3.041713221346539e-07,7.310343290420522e-07,-2.823231515600475e-07,1.7769706460314453e-07,4.90878671658755e-07,-5.361125356548303e-07,4.2028753317573754e-07,-8.587675600826618e-07,5.247616984315961e-07,1.295063756027196e-06,-3.16351608827978e-07
5.601981012278283e-07,8.020646632144583e-07,6.203537186195924e-07,6.34826096879073e-07,-1.5150677005689176e-07,7.435310002653237e-07,8.659902718779175e-07,-3.2835338615746406e-07,7.223335998135011e-07,-2.7510711375300323e-07,1.809886099790953e-07,5.515953696021831e-07,-5.896047145632769e-07,4.0673454166579627e-07,-9.318404382608201e-07,4.745487061504856e-07,1.2552965137277565e-06,-3.3757978523050344e-07
6.558582774032261e-07,8.024761373114812e-07,6.087361868425898e-07,6.536904365132577e-07,-1.6167605323206567e-07,8.14326659629225e-07,8.25473884950921e-07,-3.587258664018182e-07,7.147534531004693e-07,-2.853336069705762e-07,1.8876829610443112e-07,5.947855858469256e-07,-6.322252282435232e-07,3.8962237563649497e-07,-9.836428333043534e-07,4.172934564161785e-07,1.2311693336701373e-06,-3.672199885207488e-07
7.343051967746878e-07,7.994813909069967e-07,5.928651374036249e-07,6.63819169807678e-07,-1.716244468876336e-07,8.712256462236695e-07,7.803367794293901e-07,-3.862945043227745e-07,7.096972163526158e-07,-3.040818783688787e-07,2.0220558941547386e-07,6.218738858631478e-07,-6.589645579659145e-07,3.713118952959705e-07,-1.0123131210668462e-06,3.5738784335006094e-07,1.222035008063463e-06,-3.997824218959363e-07
7.936174419470009e-07,7.938002531107821e-07,5.740793351575429e-07,6.677391327349162e-07,-1.775651679769362e-07,9.071210009514883e-07,7.342198963555481e-07,-4.0390601428938496e-07,7.084381956472323e-07,-3.2414825262752855e-07,2.2220485566000778e-07,6.35516631539524e-07,-6.683809929877981e-07,3.5402068243753124e-07,-1.0210687038781194e-06,3.0068141981539423e-07,1.2261901411527176e-06,-4.300671350333924e-07
8.352946098819806e-07,7.867828778931438e-07,5.541405499259011e-07,6.686602594437372e-07,-1.7661688696923818e-07,9.178020511627949e-07,6.916897751010774e-07,-4.0758775861553416e-07,7.114995119401669e-07,-3.418259391904302e-07,2.48611306305386e-07,6.373908627682855e-07,-6.620564639164665e-07,3.389581082216573e-07,-1.0168655610701088e-06,2.518745621308649e-07,1.240735232401075e-06,-4.5428894687833946e-07
8.625654778522273e-07,7.798787785042179e-07,5.345206787457872e-07,6.689163501496677e-07,-1.6741367179109798e-07,9.031346807371593e-07,6.563989445920247e-07,-3.9708855416148944e-07,7.181592409809014e-07,-3.5771020420780613e-07,2.7965850505330747e-07,6.270763377618171e-07,-6.441405477750199e-07,3.2576452367113975e-07,-1.0090350390134066e-06,2.121251898806678e-07,1.2608344059176313e-06,-4.7037681456667557e-07
8.784131965895519e-07,7.739998390496445e-07,5.159078894881808e-07,6.690029481636387e-07,-1.5027390029770767e-07,8.640252177254376e-07,6.297453059451643e-07,-3.757001897168781e-07,7.264601754156465e-07,-3.746599721917228e-07,3.118871634306804e-07,6.026586414504736e-07,-6.20732219689202e-07,3.125575256164829e-07,-1.007452926045655e-06,1.7853180329059413e-07,1.2799444365108738e-06,-4.783620189053565e-07
8.849294934946377e-07,7.692057218616522e-07,4.982875089953568e-07,6.679222366229952e-07,-1.2725323923661085e-07,8.039342132175765e-07,6.114922634122884e-07,-3.488031450923998e-07,7.339553156499736e-07,-3.9818094555530646e-07,3.4096938448421835e-07,5.629791261222872e-07,-5.985512711109983e-07,2.967983638193877e-07,-1.0198425843680113e-06,1.4630278253239953e-07,1.2917625286843396e-06,-4.803764118426128e-07
8.832928595983733e-07,7.648053533306102e-07,4.812945745801318e-07,6.642008365682826e-07,-1.016744245783832e-07,7.293231162521278e-07,5.997097606665654e-07,-3.2194527363798664e-07,7.386945751082973e-07,-4.3264475742099257e-07,3.6296025259846264e-07,5.097358185060296e-07,-5.833334946624798e-07,2.764527003191338e-07,-1.049520297541275e-06,1.1165689093865656e-07,1.292375453914399e-06,-4.799457354098443e-07
8.739366948810309e-07,7.595693145966815e-07,4.643597431259698e-07,6.565409491335773e-07,-7.719051893596007e-08,6.486830235960645e-07,5.905761762812099e-07,-2.993715165741067e-07,7.39863274987209e-07,-4.776515255429747e-07,3.7545556348616303e-07,4.478773760799603e-07,-5.782439513706093e-07,2.5083342378956854e-07,-1.094438967292582e-06,7.391038629416213e-08,1.2818974328701578e-06,-4.812023357508926e-07
8.567250407389715e-07,7.521228430011184e-07,4.4690243683317115e-07,6.443257460454055e-07,-5.7127757393983345e-08,5.697401566469722e-07,5.829171351910764e-07,-2.8260219254386086e-07,7.383688569739718e-07,-5.293021702743518e-07,3.7854526837161845e-07,3.842744923689002e-07,-5.825909207585351e-07,2.2094033519967572e-07,-1.1473450815548351e-06,3.642312622670126e-08,1.2655893536079041e-06,-4.878381184218724e-07
8.315655225544992e-07,7.415462979025022e-07,4.2866951961677444e-07,6.279495961970488e-07,-4.33223147824754e-08,5.004738119312957e-07,5.760878062757445e-07,-2.6996079232390543e-07,7.366001593782192e-07,-5.814550900032708e-07,3.7485223674297284e-07,3.2528618400199137e-07,-5.92106396374094e-07,1.890757938022376e-07,-1.197470867028002e-06,5.510830765506682e-09,1.2530383995521805e-06,-5.024068075566698e-07
7.982455827856459e-07,7.276654125621e-07,4.096810901799102e-07,6.082574550766636e-07,-3.5516965122876573e-08,4.4275833787772194e-07,5.701352437262966e-07,-2.5825634989179533e-07,7.369705055374339e-07,-6.292068289040675e-07,3.682184820042879e-07,2.7449759636249044e-07,-6.012028206594578e-07,1.5777768170446127e-07,-1.2336830571506512e-06,-1.246518699374894e-08,1.2549390251364158e-06,-5.261745522416131e-07
7.559612603466002e-07,7.1085460144803e-07,3.8983661194809297e-07,5.856739323493864e-07,-3.1975749275148155e-08,3.962349145021675e-07,5.646041294582646e-07,-2.4512024832227334e-07,7.405912822325095e-07,-6.716548646051395e-07,3.6207252567553976e-07,2.322390323060614e-07,-6.055983424937264e-07,1.2880279377107374e-07,-1.2475953507214967e-06,-1.3730210766548352e-08,1.2793328499668955e-06,-5.595809592777386e-07
7.038278208360901e-07,6.917318065330376e-07,3.6874105016715825e-07,5.600271997731287e-07,-3.0431045803128074e-08,3.5848069918995726e-07,5.571456140670535e-07,-2.3029219731301775e-07,7.466616334543111e-07,-7.116742351689164e-07,3.5841089842569247e-07,1.9681612484675515e-07,-6.039386222432253e-07,1.0269701011853013e-07,-1.2357417743786534e-06,1.4403763740484317e-09,1.3287144347761157e-06,-6.018066759624082e-07
6.418939278484003e-07,6.708835695727153e-07,3.4575835579616265e-07,5.307812021315782e-07,-2.883921741223347e-08,3.252407913492989e-07,5.442414766373778e-07,-2.1605239111790352e-07,7.525980351473265e-07,-7.534845519631407e-07,3.573038281211205e-07,1.660315660794479e-07,-5.981534328129349e-07,7.884591778652452e-08,-1.2005300333442517e-06,2.8257106575721518e-08,1.3988548058843756e-06,-6.509219401072286e-07
5.724277416416073e-07,6.486958123381801e-07,3.2024116118646874e-07,4.974864901581417e-07,-2.594903731828718e-08,2.9454342190958793e-07,5.217894912914858e-07,-2.0673903044399136e-07,7.549122928648379e-07,-8.000947336546821e-07,3.571192769679656e-07,1.3851541597319982e-07,-5.9226611685765e-07,5.5999120041676095e-08,-1.1490356432772997e-06,5.9046279557246344e-08,1.4806807563613791e-06,-7.046699061889124e-07
5.014546674306316e-07,6.255599066678285e-07,2.9213056687739616e-07,4.6076045210633387e-07,-2.1112996828366694e-08,2.669292677503158e-07,4.87865379900718e-07,-2.0684360934912346e-07,7.508295759933501e-07,-8.535620205220936e-07,3.5565325168769363e-07,1.1484852321253135e-07,-5.901690705850945e-07,3.321160145318227e-08,-1.08994264260407e-06,8.68686956012892e-08,1.5643513996017638e-06,-7.605711330257146e-07
4.3929729897514934e-07,6.02243196508994e-07,2.6252896167984447e-07,4.2313966939116535e-07,-1.3495473936502124e-08,2.483355622704423e-07,4.430942346394132e-07,-2.187601523999302e-07,7.396776483573589e-07,-9.134308299256213e-07,3.513404162709869e-07,9.782854917063182e-08,-5.939816493787058e-07,1.061901120224747e-08,-1.0308295470224018e-06,1.0844150031027595e-07,1.6424287792248907e-06,-8.155076928449683e-07
3.9924421690572663e-07,5.799420111066666e-07,2.336831629118456e-07,3.890123891655029e-07,-1.958734737444737e-09,2.4444128273309286e-07,3.911223481636399e-07,-2.415901674386995e-07,7.233108955709772e-07,-9.715219879657372e-07,3.438608278179539e-07,9.176997961812818e-08,-6.035038079708175e-07,-1.0312996950394267e-08,-9.768138850788666e-07,1.2481162566918404e-07,1.711014870403816e-06,-8.670341888577226e-07
3.9437666412551486e-07,5.601200682246173e-07,2.0852386360061447e-07,3.6376067466226047e-07,1.4748412026524102e-08,2.6168803803809535e-07,3.387730783597637e-07,-2.7402253256972234e-07,7.057272949502869e-07,-1.0193561268330089e-06,3.3418841578706653e-07,1.01285938405204e-07,-6.161035665528726e-07,-2.6935740850628027e-08,-9.300233177682481e-07,1.4013986875316572e-07,1.7696108816463341e-06,-9.130694505679517e-07
4.3405863971309676e-07,5.443170617006621e-07,1.898888825407581e-07,3.523723120857629e-07,3.8023495103288036e-08,3.039976547880107e-07,2.943265836005136e-07,-3.0832417520384483e-07,6.917699189688647e-07,-1.04848720579892e-06,3.23964619233344e-07,1.294636985425692e-07,-6.270851367457966e-07,-3.605377534774979e-08,-8.898273292127493e-07,1.588520171314194e-07,1.8198331288269327e-06,-9.512928957241772e-07
5.2023995618776e-07,5.337165243703279e-07,1.7933290177408784e-07,3.5743485876489615e-07,6.896203859543064e-08,3.7039410704204623e-07,2.646360913921641e-07,-3.334069774306981e-07,6.854406876706149e-07,-1.050848074438607e-06,3.144293084485729e-07,1.7582944500392214e-07,-6.307463759205529e-07,-3.5072638037443035e-08,-8.535562908710523e-07,1.825023503418745e-07,1.863726360915882e-06,-9.806515158755358e-07
6.444681873128578e-07,5.28622385335045e-07,1.7614791052527752e-07,3.776196489402438e-07,1.0789261118752763e-07,4.5546504193724206e-07,2.525772584704002e-07,-3.4495379172465994e-07,6.882678038946349e-07,-1.0261595311344528e-06,3.0588061651138947e-07,2.35393162150145e-07,-6.216063075888714e-07,-2.3086205542161518e-08,-8.169023790300386e-07,2.086136362008357e-07,1.9030355717678468e-06,-1.0012929793403678e-06
7.876531162604936e-07,5.282669081794536e-07,1.7736080357760725e-07,4.077638144253253e-07,1.5421176995130288e-07,5.486218914076929e-07,2.57243132057925e-07,-3.3988466081869944e-07,6.991150037110328e-07,-9.785941793018152e-07,2.978428705217163e-07,2.9924261471605956e-07,-5.955862155304027e-07,-1.4158581824739043e-09,-7.742648735237055e-07,2.3155669148365208e-07,1.937906915300136e-06,-1.0142457553218897e-06
9.234581589249284e-07,5.308918268440309e-07,1.786449436503122e-07,4.4010888776935577e-07,2.062644758275383e-07,6.360528834577091e-07,2.741436673088989e-07,-3.1752512996456673e-07,7.145718695197171e-07,-9.150612737028359e-07,2.89257619497441e-07,3.564232072851763e-07,-5.512135229558595e-07,2.6482816869494468e-08,-7.196878594374749e-07,2.441952700950997e-07,1.9706209557342777e-06,-1.020900761687637e-06
1.0254323861210987e-06,5.340064380076248e-07,1.758235560095317e-07,4.6629419467317276e-07,2.6112308884379064e-07,7.034033774505861e-07,2.96005387814729e-07,-2.8059111236075987e-07,7.297239073677501e-07,-8.436324071581293e-07,2.7871650706078343e-07,3.9711775880346503e-07,-4.904721265134379e-07,5.584687833652981e-08,-6.482121236832773e-07,2.4009183412280015e-07,2.001126660047399e-06,-1.0216948637795689e-06
1.0757074463768308e-06,5.349946972786281e-07,1.6644054145853631e-07,4.798272765899894e-07,3.150487513887125e-07,7.399369773695025e-07,3.1455163683159283e-07,-2.3220165867461934e-07,7.398013431991279e-07,-7.716151007957675e-07,2.6500025671262807e-07,4.1615996555177147e-07,-4.191623544546947e-07,8.19370842460814e-08,-5.57784154657039e-07,2.1562637223296733e-07,2.027862997099838e-06,-1.0149447490907768e-06
1.0707051118243697e-06,5.318780484778776e-07,1.5042654644966806e-07,4.778785761822766e-07,3.635650021099883e-07,7.425874295619771e-07,3.229824624311631e-07,-1.764336737959058e-07,7.415097279634196e-07,-7.013876664596225e-07,2.475620976628479e-07,4.148108233403017e-07,-3.4656002097410035e-07,1.0120945298490446e-07,-4.516338851286561e-07,1.7080177678767084e-07,2.0485101897473227e-06,-9.962241908831339e-07
1.020678022879805e-06,5.23840112500525e-07,1.2964200531027247e-07,4.6162988663554634e-07,4.0114432767988024e-07,7.156802647991065e-07,3.1677749479703023e-07,-1.1795949887779815e-07,7.334552348949363e-07,-6.38342798003535e-07,2.2683847567900799e-07,3.998758768015758e-07,-2.833106752550719e-07,1.1207247012191614e-07,-3.3922078435707434e-07,1.0914165208648145e-07,2.0591032594367357e-06,-9.606202325603943e-07
9.443128984679896e-07,5.114341315923517e-07,1.0703217517380801e-07,4.3547959287522875e-07,4.2155559057571756e-07,6.696402563677701e-07,2.9299890823483274e-07,-6.751190337415464e-08,7.161518496986308e-07,-5.912943509682245e-07,2.0439658249533043e-07,3.8062506717801847e-07,-2.3516070565531875e-07,1.1522704214814471e-07,-2.3449486073307126e-07,3.7039476276842155e-08,2.05716627271879e-06,-9.0457191803502e-07
8.612574616919055e-07,4.963195769867637e-07,8.667179789947353e-08,4.050509697226736e-07,4.1874841257998196e-07,6.166457803788308e-07,2.516226984718321e-07,-3.5343515391392845e-08,6.912583304420726e-07,-5.612857046945162e-07,1.8238499456089254e-07,3.645340760662487e-07,-2.0592919553537674e-07,1.1320556994564824e-07,-1.5274608537436932e-07,-3.8403747291496436e-08,2.0420916515959425e-06,-8.283961534715354e-07
7.852696041747545e-07,4.804134228266393e-07,7.031990727599562e-08,3.7431353986067933e-07,3.8786043813185305e-07,5.649461835478397e-07,1.9393637740981433e-07,-3.728015861215078e-08,6.604207876936128e-07,-5.52350118035041e-07,1.624275775889742e-07,3.540835740799785e-07,-1.983643202181294e-07,1.090798595538365e-07,-1.0704894479513363e-07,-1.1202323463258222e-07,2.0146556266426025e-06,-7.407731291258251e-07
7.210600975128877e-07,4.650525427694256e-07,5.7514467987402395e-08,3.4397328536581493e-07,3.2276152336898754e-07,5.161007683848967e-07,1.214890555823949e-07,-7.899843488155106e-08,6.248768551074054e-07,-5.673748849495973e-07,1.4504006619312738e-07,3.4686482235809037e-07,-2.0808070996599616e-07,1.0514174912878246e-07,-1.0412681855175162e-07,-1.8093252009103545e-07,1.9765661720401764e-06,-6.565232268361195e-07
6.658072749357751e-07,4.507917352232923e-07,4.63178223380365e-08,3.1216676488562947e-07,2.2685963962117492e-07,4.6406430859191107e-07,3.713668439501584e-08,-1.5975433820011746e-07,5.858130544179466e-07,-5.809912557106439e-07,1.2980541431715493e-07,3.384971337525315e-07,-2.3163663201052712e-07,1.0226713672448696e-07,-1.4049084986822965e-07,-2.423002198945399e-07,1.9320992899773163e-06,-5.950657809940268e-07
6.130940294946183e-07,4.3767691201638305e-07,3.5569256037436733e-08,2.76370144518201e-07,1.0638501605538718e-07,4.0701807815235197e-07,-5.8170148399229556e-08,-2.756839663993927e-07,5.442414964549987e-07,-6.054383224258838e-07,1.1577940468979211e-07,3.2589612216839697e-07,-2.6610495548324835e-07,1.0014641502871741e-07,-2.0051131604899492e-07,-2.9049734948781e-07,1.89892018582171e-06,-5.721780349816529e-07
5.570083589689057e-07,4.2572406440586007e-07,2.5759386445778706e-08,2.3552085922732922e-07,-2.7465214837501997e-08,3.379504581712999e-07,-1.6104676625557085e-07,-3.8647126842203394e-07,5.006896765849619e-07,-6.449384060872533e-07,1.0213744585894847e-07,3.091018147113678e-07,-3.095252999874281e-07,9.829870935039845e-08,-2.5777057132894426e-07,-3.153335433932263e-07,1.8894319024891276e-06,-5.688491978674413e-07
4.955776993071772e-07,4.1552537808669655e-07,1.5870573042223543e-08,1.9157590844719915e-07,-1.6737634363224522e-07,2.5883835963909995e-07,-2.6908161161412365e-07,-4.89457816285069e-07,4.55483315777529e-07,-6.838193231007162e-07,8.890603263835987e-08,2.9093154683277206e-07,-3.591675255024811e-07,9.728342412444459e-08,-2.808252864747396e-07,-3.031846403548634e-07,1.9283909051329736e-06,-6.451250182791373e-07
4.3269021006307533e-07,4.0859315848968484e-07,7.304434290905217e-09,1.4947089350872464e-07,-3.0681888669889326e-07,1.8179953729591897e-07,-3.81233033532109e-07,-6.105564966708845e-07,4.0899241083634066e-07,-7.033602910083013e-07,7.712254924044018e-08,2.749332119051862e-07,-4.0963974978996897e-07,9.927973898518098e-08,-2.425415273417929e-07,-2.4151850651943897e-07,2.1120023734689605e-06,-7.79317843463421e-07
3.779478294987244e-07,4.0712332963933307e-07,2.0998198048073266e-09,1.1549126300410431e-07,-4.4195537664869243e-07,1.20159190633097e-07,-5.016406457507043e-07,-7.20272960141856e-07,3.619766096063807e-07,-6.942864266559802e-07,6.85039677321165e-08,2.63598178991603e-07,-4.564497903615948e-07,1.0733301487602013e-07,-1.2918662538346954e-07,-1.2424488197656136e-07,2.282568306015083e-06,-9.393095134182839e-07
3.445479116701699e-07,4.133360433286072e-07,2.8441270350314096e-09,9.544101212747293e-08,-5.690358510411316e-07,9.021049794190113e-08,-6.392383043674314e-07,-7.736293540827717e-07,3.158257791060133e-07,-5.928140751988497e-07,6.495319024178426e-08,2.5807151807371996e-07,-4.50511305842785e-07,1.2626333092218775e-07,5.427924437307094e-08,4.48884941996762e-08,2.4976549167179504e-06,-1.084369127222482e-06
3.449183962720975e-07,4.2859146448813685e-07,1.2443394799152717e-08,9.358432058122455e-08,-6.447978526427283e-07,9.539633735705421e-08,-7.982179829391797e-07,-7.643238590460257e-07,2.7274932608507826e-07,-3.9437140704160925e-07,6.757898479475362e-08,2.5847840052009495e-07,-3.899683230994103e-07,1.617705974749835e-07,2.8402510974238613e-07,2.5173363515150317e-07,2.766752219833531e-06,-1.1915030486960053e-06
3.8466840270560136e-07,4.525498731615109e-07,3.742922924063353e-08,1.1258083152447509e-07,-6.809180924511161e-07,1.3729915809472211e-07,-9.765627929248452e-07,-6.550644439709463e-07,2.3609954704769177e-07,-3.3373481697493303e-07,7.539808936168003e-08,2.636807023457367e-07,-2.7757072726965125e-07,2.1695480513804282e-07,5.228233820137598e-07,4.7427957749528704e-07,3.080631159305478e-06,-1.2067893674161834e-06
4.577673619427181e-07,4.828849657777285e-07,7.60172134934867e-08,1.5395880485919379e-07,-6.57235957844164e-07,1.518674132742033e-07,-1.1393679376420748e-06,-4.2532649849865906e-07,2.1123783941689059e-07,-2.963969085136807e-07,8.463472645249376e-08,2.7170201230363857e-07,-1.0410611487577735e-07,2.985186659763448e-07,7.305870380775747e-07,6.873979371570501e-07,3.2499296397953e-06,-1.093617145928568e-06
5.461116215971877e-07,5.157129259708466e-07,1.0431122058745821e-07,2.1791032270967213e-07,-5.822960873757364e-07,9.436146488943316e-08,-1.245671971370409e-06,-3.263268070240225e-07,2.056669276304052e-07,-2.7676094580315313e-07,8.918360232692949e-08,2.7355197359581867e-07,4.00776189177733e-08,4.073469727754765e-07,8.767635564275727e-07,8.677244367571656e-07,3.288797415105351e-06,-1.001604849707242e-06
6.244895529708177e-07,5.464418870412638e-07,1.4338902115734803e-07,3.0198558741565786e-07,-5.727166810315677e-07,-1.6576259063885014e-08,-1.2564537619120212e-06,-3.4722149491941453e-07,2.271069124145808e-07,-2.8837076288267513e-07,8.23449961571723e-08,2.5931702282717476e-07,1.1719720928486031e-07,5.082438117774639e-07,9.494409097917488e-07,9.975499638595937e-07,3.2579186617207975e-06,-9.274509157927819e-07
6.695442788973935e-07,5.707586125875024e-07,1.9802718800471493e-07,3.998140230174931e-07,-5.724578224081802e-07,-1.6356645797264903e-07,-1.2489468605057265e-06,-3.3632052617729055e-07,2.7943362073538724e-07,-1.293047684038182e-07,5.921327944154993e-08,2.198462033382475e-07,1.9359347785926653e-07,5.977120289766794e-07,9.563498977122538e-07,1.067043730420768e-06,3.2606463047703057e-06,-8.601392232045768e-07
6.689663696774491e-07,5.854325152852045e-07,2.585936377100087e-07,5.009375270933399e-07,-5.542432685735473e-07,-2.57849110767722e-07,-1.2508694967552494e-06,-2.518127326338408e-07,3.586397929250969e-07,5.3090266544323456e-08,1.8306803244097458e-08,1.4851099916528603e-07,3.530278087353416e-07,6.921518458747107e-07,9.171386611324218e-07,1.0741700144540155e-06,3.2905674618962345e-06,-7.46762694477407e-07
6.262001958993114e-07,5.886900869159085e-07,3.1553159282886936e-07,5.920453093647571e-07,-4.112550197671522e-07,-4.62194180195729e-07,-1.2677616560324765e-06,-1.382968344158438e-07,4.5218780656381563e-07,8.412177826325835e-08,-3.7355904044266765e-08,4.666274036515194e-08,5.118982218704446e-07,7.694768063922972e-07,8.522051236070547e-07,1.0232490448488228e-06,3.2462804448445642e-06,-5.2910444715306e-07
5.581192615332787e-07,5.803291584349494e-07,3.5453876663508055e-07,6.595625714040077e-07,-2.5257935941615613e-07,-7.075734987927441e-07,-1.2134740105216224e-06,-1.3457645536417926e-07,5.423547190088632e-07,6.885101377619374e-08,-1.0357339407082249e-07,-8.246165187135139e-08,6.015700738432607e-07,8.145593167036666e-07,7.747642831486953e-07,9.233482916910981e-07,3.167287269755967e-06,-2.615605610726737e-07
4.86965983850128e-07,5.617520443074005e-07,3.801882923606235e-07,6.930441799438881e-07,-2.1939894153547087e-07,-9.195927110903731e-07,-1.166361482432044e-06,-1.601794253871927e-07,6.117847291647235e-07,1.4391019496992931e-08,-1.7246011083026267e-07,-2.2622996224834297e-07,6.097422464257941e-07,8.290505239883133e-07,6.895146619573324e-07,7.867470694084085e-07,2.962687202429047e-06,-7.089393695797632e-08
4.3107730321275565e-07,5.358361344086245e-07,3.803243065061759e-07,6.881422545312503e-07,-2.6264163774224257e-07,-1.1525995574071094e-06,-1.1497680998408642e-06,-1.641827830186132e-07,6.487624084867138e-07,-2.6260381834520977e-08,-2.3664875497639184e-07,-3.8128687318038073e-07,5.952986570074513e-07,8.122915751700521e-07,5.972694345560645e-07,6.281335557483776e-07,2.723473955327223e-06,-2.9354251858661595e-08
3.9941542348976756e-07,5.065821854842968e-07,3.601580847129611e-07,6.480644037560126e-07,-3.591738711078605e-07,-1.3122849620563476e-06,-1.123783608281e-06,-2.0578600256057482e-07,6.502968970044463e-07,-2.3694251979310202e-08,-3.0189833021652873e-07,-5.384150447274215e-07,5.649399902302338e-07,7.76468303231719e-07,5.010794779320125e-07,4.641630435681627e-07,2.495821534323513e-06,-4.663936110885629e-08
3.91413907145629e-07,4.783840668962573e-07,3.491706961970648e-07,5.827489575932836e-07,-4.0827938553787804e-07,-1.3935738485078002e-06,-1.1157626705857873e-06,-1.9909176479521974e-07,6.216680903027008e-07,1.7329954565936596e-08,-3.3536135143512536e-07,-6.410543767280406e-07,5.016182146612119e-07,7.394344790649574e-07,4.084646606434508e-07,3.1140001098595337e-07,2.2755249429265394e-06,-3.0625555974393694e-08
3.997226052150919e-07,4.5483087596819937e-07,3.475516934782872e-07,5.057777006938672e-07,-4.2984474620853925e-07,-1.441105974291513e-06,-1.1721269792931728e-06,-1.4506117442996883e-07,5.731552620034172e-07,5.0028873913470685e-08,-3.4269729754705364e-07,-6.641942494109732e-07,4.903591256539978e-07,6.949197494720512e-07,3.2870213747459377e-07,1.8277783835744332e-07,2.1467234209830753e-06,2.9894480184190078e-09
4.1336202713954835e-07,4.3758467317114236e-07,3.394962638433036e-07,4.302819940494329e-07,-5.292184460415802e-07,-1.488107542128033e-06,-1.3366879454842554e-06,-2.2742682352099115e-07,5.158613515414012e-07,5.716390848226324e-08,-3.3296914762889467e-07,-6.390155764199983e-07,5.019954605506338e-07,6.433565868254411e-07,2.682912540546877e-07,8.485644724475746e-08,2.0930832081080276e-06,8.435128305585079e-10
4.2066122078200166e-07,4.260656101325943e-07,3.52765211005865e-07,3.6545395608232296e-07,-6.583896218758166e-07,-1.5463606304512134e-06,-1.5171844710096326e-06,-4.159120808035283e-07,4.586633876249646e-07,1.4706802462849451e-08,-3.205831315395517e-07,-6.098356996481581e-07,4.870903367693207e-07,5.980507172827342e-07,2.2777738016482993e-07,1.7151576930228673e-08,2.1017949805156e-06,-8.006861895946796e-08
4.1192834260677145e-07,4.1809315349792706e-07,3.3911592521742936e-07,3.14826421194071e-07,-8.204582978176413e-07,-1.5978257623353376e-06,-1.6668719419994388e-06,-6.213514831609794e-07,4.071177485081208e-07,-5.728680013782088e-09,-2.9690697648893777e-07,-5.720073439512484e-07,4.2869506805229134e-07,5.578227701724912e-07,2.014987167714631e-07,-2.6342801302893747e-08,2.137594150814331e-06,-1.4618556175913857e-07
3.8143856602390856e-07,4.110914699875504e-07,3.143789348587037e-07,2.766700279314807e-07,-9.93700234437408e-07,-1.6734078235298776e-06,-1.7832540248523991e-06,-8.062196531538369e-07,3.638211532266432e-07,-9.569596138551207e-09,-2.6743930919467337e-07,-5.359245353130205e-07,3.766783325575586e-07,5.161130715758167e-07,1.7983954888233458e-07,-5.427494606270862e-08,2.1677666578610775e-06,-2.5413860985519634e-07
3.282727228288009e-07,4.0324345786836886e-07,2.858597384905699e-07,2.4596545213524685e-07,-1.1685465905462123e-06,-1.7534014386794665e-06,-1.879381048124131e-06,-9.630228299643168e-07,3.2940505086285e-07,-2.753144933570552e-08,-2.39886067237183e-07,-5.482112195778953e-07,3.000350027061927e-07,4.690980840047977e-07,1.5222601167779324e-07,-7.51986626262139e-08,2.1879394428728806e-06,-3.9147970483579197e-07
2.5628227043162426e-07,3.94146028859812e-07,2.5375788151731437e-07,2.1709371830110108e-07,-1.297698274873155e-06,-1.833345250119288e-06,-1.9574152768414515e-06,-1.0544110591945747e-06,3.037640330406356e-07,-6.730720610291706e-08,-2.1527107560762573e-07,-5.879044056856283e-07,2.0525651118286792e-07,4.1322432282627254e-07,1.0971227531985292e-07,-9.553482083788126e-08,2.187185738929352e-06,-4.733326367172218e-07
1.7389507545906387e-07,3.848927009232164e-07,2.3550197862724737e-07,1.863991675241664e-07,-1.3864703209860252e-06,-1.9149762219567363e-06,-2.021366938300322e-06,-1.1553835098776525e-06,2.8718780048305784e-07,-1.3029973216285614e-07,-1.939523215195254e-07,-6.533646668675303e-07,1.4586185929353787e-07,3.4719610498239356e-07,4.6689161351546285e-08,-1.18463465662264e-07,2.167101058400973e-06,-5.236708962290606e-07
9.341737235894498e-08,3.7760736751387174e-07,2.279803194480365e-07,1.5356317761712596e-07,-1.4560095361675317e-06,-1.9837881274663338e-06,-2.0742484523538764e-06,-1.2711437444900618e-06,2.806406597063468e-07,-2.2327889301587147e-07,-1.7568720771149099e-07,-7.42172637324087e-07,6.262515523571303e-08,2.7263332105721554e-07,-3.866953160297296e-08,-1.4428418731082315e-07,2.129662377753925e-06,-5.450434823467134e-07
2.8701911487675338e-08,3.745589273797104e-07,2.1115307123954815e-07,1.2120992748459158e-07,-1.5114904376850898e-06,-2.039431234338115e-06,-2.1182903865607275e-06,-1.3983376302104535e-06,2.85128900442937e-07,-3.3837614067484043e-07,-1.6039791876678393e-07,-8.330015244160012e-07,-4.393364238330107e-08,1.937654665696576e-07,-1.4494469434595674e-07,-1.7176119821842711e-07,2.078107136621661e-06,-5.420292838788894e-07
-8.953456147414624e-09,3.77238032727456e-07,1.882025088020591e-07,9.321033977076884e-08,-1.5677745884551307e-06,-2.076446295722424e-06,-2.155093192834052e-06,-1.5097274813347105e-06,3.0056462298859865e-07,-4.5182577934511805e-07,-1.483409476314852e-07,-9.194477342508036e-07,-1.608265381879208e-07,1.1615677218904663e-07,-2.684200118730306e-07,-1.9956168357942187e-07,2.0134328537637752e-06,-5.403959631798382e-07
-1.5283274969688592e-08,3.857513845359586e-07,1.6756974515611403e-07,7.260601567272078e-08,-1.6219440428609497e-06,-2.0913075238369372e-06,-2.185947236434097e-06,-1.6026800769193338e-06,3.2485009336815643e-07,-5.763774360907985e-07,-1.39939533132026e-07,-9.927964438762763e-07,-3.018573021675013e-07,4.4813422256196247e-08,-4.038719084658854e-07,-2.2720062140965086e-07,1.9455632329114435e-06,-5.381617610927419e-07
4.397046159316618e-09,3.987776679000826e-07,1.5415330976241512e-07,6.033170124409069e-08,-1.6711129498719457e-06,-2.0875213127910637e-06,-2.2117122028323703e-06,-1.6909031065070613e-06,3.5406951767997877e-07,-6.987615176082888e-07,-1.3540698686074841e-07,-1.0493310765868294e-06,-4.457966025523535e-07,-1.7348087005351953e-08,-5.444231092307264e-07,-2.5464078355952454e-07,1.8780449008509089e-06,-5.331629099961256e-07
3.623788129022128e-08,4.141801047321617e-07,1.4768710386972543e-07,5.5360615093041164e-08,-1.7161005800795266e-06,-2.0725381237740445e-06,-2.2325504056965656e-06,-1.7716347965728477e-06,3.8382195544933685e-07,-7.864341378046865e-07,-1.341871269374785e-07,-1.0932311803720855e-06,-5.541857309487388e-07,-6.985059405456395e-08,-6.807723420272683e-07,-2.808320539622461e-07,1.8139520984593885e-06,-5.297282304728037e-07
6.200561888390741e-08,4.299434505899368e-07,1.4539668624705274e-07,5.567507307944857e-08,-1.7555601567323858e-06,-2.0556148039441473e-06,-2.2473912567293067e-06,-1.8512430230881802e-06,4.104858250697656e-07,-8.443327522581387e-07,-1.3469591620169587e-07,-1.1302975653798222e-06,-6.367394038559365e-07,-1.13964349772757e-07,-8.013158705657124e-07,-3.0278707392536486e-07,1.7615158780242203e-06,-5.288143888927996e-07
6.451477280455333e-08,4.44929613590987e-07,1.45510070847409e-07,5.9261679361707915e-08,-1.7876197302764697e-06,-2.043244033962322e-06,-2.2541358190746708e-06,-1.9106555912743105e-06,4.3162413679857813e-07,-8.833366923835461e-07,-1.3456253715232098e-07,-1.1646645913562536e-06,-7.005775631354937e-07,-1.5157645927236927e-07,-8.938443840889112e-07,-3.158839765535824e-07,1.7272463834177621e-06,-5.303663515501847e-07
3.266229086919146e-08,4.5917554921105865e-07,1.4805299219004297e-07,6.472087052086374e-08,-1.8108457337807982e-06,-2.037515837748551e-06,-2.25136859865498e-06,-1.9455840067641273e-06,4.4556804714610317e-07,-9.266865833749203e-07,-1.3123012935578633e-07,-1.1965684675413754e-06,-7.353633620248637e-07,-1.8419598041737178e-07,-9.483027118669177e-07,-3.153710455835286e-07,1.7182841707420954e-06,-5.346189380545385e-07
-3.534368585797669e-08,4.7363290048067095e-07,1.5903706011993738e-07,7.124700002356607e-08,-1.8250913791589562e-06,-2.035941089234564e-06,-2.2381339143780374e-06,-1.9604108534684785e-06,4.505453724442187e-07,-9.802087782923278e-07,-1.2286160470950801e-07,-1.222481994164973e-06,-7.541351097328832e-07,-2.1246957521053114e-07,-9.595663222191307e-07,-2.987483800858079e-07,1.7384167407988619e-06,-5.418751048883748e-07
-1.313172471267876e-07,4.895285618208097e-07,1.7805837229839424e-07,7.831363445087507e-08,-1.8319063715229024e-06,-2.032575136700281e-06,-2.217681139271962e-06,-1.9703728498336124e-06,4.442015858360381e-07,-1.0333419972864349e-06,-1.0908213907204359e-07,-1.2370654137548463e-06,-7.597380707072316e-07,-2.3611794743927673e-07,-9.289560049059195e-07,-2.67558775798363e-07,1.7853676984760798e-06,-5.525131781991625e-07
-2.390407108540879e-07,5.077539335085394e-07,2.007821015704858e-07,8.566521894783063e-08,-1.8338283718793259e-06,-2.020502190514793e-06,-2.1949123206342055e-06,-1.9803967071425003e-06,4.2402402949081976e-07,-1.0749828619908323e-06,-9.112533787944315e-08,-1.2359362114858687e-06,-7.507647646733836e-07,-2.541984618832282e-07,-8.641621406652404e-07,-2.2759133659398706e-07,1.851285824328625e-06,-5.658742085941203e-07
-3.389494849090836e-07,5.284384958954341e-07,2.239230717958565e-07,9.339939642272625e-08,-1.8333344466309969e-06,-1.9946097812791725e-06,-2.1756229499216914e-06,-1.991155144827256e-06,3.885648673317298e-07,-1.0964807890375372e-06,-7.161120657394706e-08,-1.218537850738208e-06,-7.299588941481026e-07,-2.6584223498471546e-07,-7.780587143442156e-07,-1.878096334096133e-07,1.9238931879849946e-06,-5.8058768692756e-07
-4.1483556616652327e-07,5.506962586804781e-07,2.4516823405787767e-07,1.0169841022468509e-07,-1.8322573965941219e-06,-1.9549222922742825e-06,-2.164457207322964e-06,-2.0043924200863002e-06,3.3839119255379934e-07,-1.1004728583907036e-06,-5.405264498173897e-08,-1.1898135704201206e-06,-7.033250783395982e-07,-2.711712039114534e-07,-6.862576296029479e-07,-1.5812519681440782e-07,1.989090912039536e-06,-5.94584021289761e-07
-4.59773574142658e-07,5.726643849663536e-07,2.628976902741e-07,1.10275435559119e-07,-1.8310643107416066e-06,-1.9081465922335698e-06,-2.162989204214769e-06,-2.015270645498113e-06,2.768010270940105e-07,-1.0852474104265747e-06,-4.2073837340054745e-08,-1.1595011361749542e-06,-6.667411429321859e-07,-2.717867313100543e-07,-6.035196593882234e-07,-1.467279894738317e-07,2.034480815375505e-06,-6.066193359022084e-07
-4.779358637770118e-07,5.918586210944022e-07,2.758261874420646e-07,1.177504865702756e-07,-1.828975835049033e-06,-1.8610036369887413e-06,-2.17047860008239e-06,-2.020547374868335e-06,2.0971891570198283e-07,-1.052600263921438e-06,-3.871714064096404e-08,-1.1391364691651878e-06,-6.195098947523978e-07,-2.705609238795348e-07,-5.403077967079574e-07,-1.5846059336769307e-07,2.0524198722684422e-06,-6.170318046999113e-07
-4.809233883296134e-07,6.058020052433323e-07,2.8265628354887733e-07,1.2153706770876193e-07,-1.824578654968701e-06,-1.8260977318357794e-06,-2.1849432259506044e-06,-2.0167152018504644e-06,1.447216289853263e-07,-1.0033741390745913e-06,-4.593165455854637e-08,-1.137614228148196e-06,-5.66103200294611e-07,-2.707048901864518e-07,-5.007710422743689e-07,-1.9436733293255812e-07,2.0416056689080493e-06,-6.258712884280372e-07
-4.805348444839517e-07,6.128946457989517e-07,2.820354857149119e-07,1.1885719990846745e-07,-1.8163101717632013e-06,-1.8109975331518526e-06,-2.205260069592972e-06,-2.0008750187147823e-06,8.977782263551404e-08,-9.429643518650056e-07,-6.409346263798781e-08,-1.1568836245006623e-06,-5.09870198013947e-07,-2.744813151161595e-07,-4.830708248572638e-07,-2.519186032695604e-07,2.0065571360063306e-06,-6.313769946086078e-07
-4.82367702966501e-07,6.13143348833066e-07,2.73834701073561e-07,1.0837672645352394e-07,-1.8031192324652325e-06,-1.8149810234983885e-06,-2.2311915181206737e-06,-1.9733996382372507e-06,5.1620513771329685e-08,-8.87199717110999e-07,-9.172231913256846e-08,-1.189854759303345e-06,-4.582285973531626e-07,-2.8236555157979915e-07,-4.819908363101324e-07,-3.2577732602508576e-07,1.9552459683269567e-06,-6.309294206269042e-07
-4.834752385514774e-07,6.083119224779667e-07,2.5941509766846043e-07,9.144534277317255e-08,-1.7851915443776904e-06,-1.8322116132236829e-06,-2.263185312219378e-06,-1.9379221075888454e-06,3.444985036832982e-08,-8.238803965290197e-07,-1.2542404688646157e-07,-1.2215114587428292e-06,-4.1930055694739376e-07,-2.929716974787707e-07,-4.918613641365183e-07,-4.083154973330872e-07,1.8967672508821876e-06,-6.231709647813501e-07
-4.740459991122428e-07,6.015195964567528e-07,2.414418207805414e-07,7.234642271033885e-08,-1.7640060985932596e-06,-1.8515513072212982e-06,-2.301104861269866e-06,-1.9000066599870718e-06,3.945939499305199e-08,-7.59751960404976e-07,-1.6015092347858598e-07,-1.2331730001692145e-06,-3.997651632089e-07,-3.034956342575662e-07,-5.081020150291295e-07,-4.899942863239258e-07,1.8399347377063847e-06,-6.103756024840458e-07
-4.4196242533773377e-07,5.963480796827521e-07,2.2337776899461394e-07,5.712304679003415e-08,-1.7415946448545038e-06,-1.8611162324235803e-06,-2.3434601318485347e-06,-1.865158038523786e-06,6.4981129336556e-08,-7.008844274471547e-07,-1.902715000999168e-07,-1.2092995340979393e-06,-4.034391149511757e-07,-3.1062668754389126e-07,-5.278004220909872e-07,-5.611671766133679e-07,1.7916900404240332e-06,-5.972194828143501e-07
-3.7882666408096336e-07,5.955486997186174e-07,2.083677967714279e-07,5.106010286051605e-08,-1.719741790574896e-06,-1.8511113255820728e-06,-2.3872351840311957e-06,-1.8371613871112817e-06,1.069177847405264e-07,-6.437276742846853e-07,-2.111905259685255e-07,-1.1443813683137225e-06,-4.291458834551901e-07,-3.117710590118557e-07,-5.500753640928755e-07,-6.149932604902949e-07,1.7553254440585712e-06,-5.892253208233523e-07
-2.8455657156230547e-07,6.000624817871042e-07,1.9827057863874328e-07,5.657725107828885e-08,-1.6990509663822505e-06,-1.8221451199964785e-06,-2.4283181776554352e-06,-1.8168656686411268e-06,1.5982274820556862e-07,-5.931293805675251e-07,-2.204679809583579e-07,-1.046219519045257e-06,-4.7050878287141704e-07,-3.059965785842276e-07,-5.763706029146282e-07,-6.495028897236162e-07,1.7297051579362097e-06,-5.898940448598848e-07
-1.6817462355886312e-07,6.089721377994449e-07,1.9331577819833763e-07,7.26775308802184e-08,-1.6783984830792238e-06,-1.7800249985698323e-06,-2.462159125849874e-06,-1.80209559903458e-06,2.1821036562474317e-07,-5.45993084900894e-07,-2.18076796633429e-07,-9.337437831097266e-07,-5.180755664931121e-07,-2.9430531270412926e-07,-6.105816804874308e-07,-6.679868570648285e-07,1.7097974254189073e-06,-5.987192132328678e-07
-4.509009291981156e-08,6.201653926405217e-07,1.9218796165149004e-07,9.55688756608128e-08,-1.6553024576517588e-06,-1.7342592621360698e-06,-2.4860711742326385e-06,-1.789031853128037e-06,2.775737112779611e-07,-5.072553255011803e-07,-2.0596052894742433e-07,-8.304499218180036e-07,-5.626299154850546e-07,-2.7919643563479073e-07,-6.581039679136886e-07,-6.774359062924842e-07,1.6886427939036977e-06,-6.116411724817729e-07
6.762467446012289e-08,6.313332579494566e-07,1.9256089650697793e-07,1.2018014163625948e-07,-1.6267754083047745e-06,-1.6973927945509775e-06,-2.4960746356437054e-06,-1.7736687951803056e-06,3.3512583747641357e-07,-4.861235270661708e-07,-1.869081296284433e-07,-7.565725240687463e-07,-5.976898985978348e-07,-2.6365865188470966e-07,-7.232987917998904e-07,-6.853405019596108e-07,1.6603888765952767e-06,-6.221541397960819e-07
1.5606808780406814e-07,6.409770324915434e-07,1.920486324393965e-07,1.4203072758135603e-07,-1.590090940941699e-06,-1.6787376243007888e-06,-2.4917990247950987e-06,-1.7525989207763134e-06,3.9012856462661226e-07,-4.929853183533215e-07,-1.633375889508315e-07,-7.236331672645887e-07,-6.204552469110571e-07,-2.501221757783967e-07,-8.069096988476461e-07,-6.968730564709426e-07,1.622495315871781e-06,-6.231230013067138e-07
2.1226626710201675e-07,6.488563679103599e-07,1.8897751935546663e-07,1.5834490674112258e-07,-1.5436457055880577e-06,-1.6805248231972382e-06,-2.47370759521317e-06,-1.7237498915836713e-06,4.4310373418695995e-07,-5.317479106420514e-07,-1.3681985349885214e-07,-7.330733143452289e-07,-6.316033024196758e-07,-2.399374615119205e-07,-9.050036153996977e-07,-7.138484846286513e-07,1.5760105934430635e-06,-6.08995550544463e-07
2.3439409040002606e-07,6.556899894441842e-07,1.827090207448206e-07,1.6817412369362726e-07,-1.4878624746124228e-06,-1.7020721668230712e-06,-2.4451588600223195e-06,-1.6868638726310998e-06,4.944863163395817e-07,-6.007565808496909e-07,-1.0828167538189296e-07,-7.779997282773884e-07,-6.344037506336706e-07,-2.3340499007868074e-07,-1.009301757783955e-06,-7.348350677058874e-07,1.524766037087967e-06,-5.789733857242748e-07
2.2577781795074183e-07,6.624837461893488e-07,1.7367926483475656e-07,1.7209395323631742e-07,-1.4255941676585055e-06,-1.7232561358955553e-06,-2.410100554532125e-06,-1.6432953323045727e-06,5.438069680475608e-07,-6.94789977024187e-07,-7.852525358375085e-08,-8.464264234798668e-07,-6.336251208094215e-07,-2.301303087124525e-07,-1.1084259776347256e-06,-7.560029495751046e-07,1.4742165774890706e-06,-5.355417596660336e-07
1.934976507002239e-07,6.698250529688873e-07,1.6312150780272201e-07,1.7158644635342666e-07,-1.3617259428351824e-06,-1.7687473538519595e-06,-2.370658969167853e-06,-1.5957927245397594e-06,5.893846272142543e-07,-8.036819960130482e-07,-4.881005489153506e-08,-9.247852490412065e-07,-6.341734531174461e-07,-2.294286748011874e-07,-1.1897365876773274e-06,-7.72570578646691e-07,1.4303761794261615e-06,-4.853921709085316e-07
1.4667473760818814e-07,6.774733137810139e-07,1.5259295917745542e-07,1.684586842098486e-07,-1.3020652059169154e-06,-1.8224438798112909e-06,-2.3330453405985525e-06,-1.5477384036443177e-06,6.287291305704475e-07,-9.172015018699699e-07,-2.0840163157194415e-08,-1.0006499080240113e-06,-6.390244484230602e-07,-2.3039570199975036e-07,-1.2411541434757804e-06,-7.798535088546096e-07,1.39953404714196e-06,-4.371561048271273e-07
9.446235806918728e-08,6.845261218728377e-07,1.4359664162915498e-07,1.6474246044412035e-07,-1.2516809513276402e-06,-1.866806760051982e-06,-2.301106230582734e-06,-1.501802625569544e-06,6.592646056349807e-07,-1.022976452369125e-06,3.997171731040564e-09,-1.0644512815556607e-06,-6.474267075316012e-07,-2.3174823240645616e-07,-1.2530283927706911e-06,-7.736246051633152e-07,1.388361039189598e-06,-3.9792990940079614e-07
4.392893776466408e-08,6.899605875840922e-07,1.3731736412259874e-07,1.626277857839386e-07,-1.2132971606583578e-06,-1.876966019815804e-06,-2.278767501906265e-06,-1.4590946372287383e-06,6.792659588812036e-07,-1.1081606277040113e-06,2.538301656801827e-08,-1.110295682686831e-06,-6.552300198273322e-07,-2.3194757065684973e-07,-1.220471213156794e-06,-7.50305267029726e-07,1.403408518059527e-06,-3.7290254287960186e-07
-8.860772144050694e-10,6.932064568735467e-07,1.346004386610325e-07,1.6442902804921321e-07,-1.1864459983469201e-06,-1.839599290697687e-06,-2.268684777113809e-06,-1.4189363664373738e-06,6.886464980248784e-07,-1.1718098625075505e-06,4.4473586647148404e-08,-1.1352736897383253e-06,-6.574158135048323e-07,-2.295311975430187e-07,-1.1455347130889748e-06,-7.069474214866537e-07,1.4498509373011673e-06,-3.635522348544907e-07
-3.732297707456671e-08,6.946163046578719e-07,1.3627589074432424e-07,1.7279999546483013e-07,-1.1675184835327001e-06,-1.7293845049888532e-06,-2.2675411459618673e-06,-1.379222745547689e-06,6.89730969157981e-07,-1.2115476439181065e-06,6.394662868930981e-08,-1.1373895351993909e-06,-6.512048062104236e-07,-2.2324098467696986e-07,-1.0383111177804929e-06,-6.415231154479909e-07,1.52951848378898e-06,-3.7047245625207703e-07
-6.090136353344461e-08,6.956060080003248e-07,1.4333184287056968e-07,1.9084247016959282e-07,-1.1507709702419884e-06,-1.529189307196044e-06,-2.269390551551516e-06,-1.3372125963797342e-06,6.871604821579365e-07,-1.2276480102654586e-06,8.732334619147495e-08,-1.1137451784960011e-06,-6.379180425028828e-07,-2.1193745013948424e-07,-9.162026773148976e-07,-5.542311599695722e-07,1.6388524625007473e-06,-3.9153260688237687e-07
-6.341464318916974e-08,6.983365125876429e-07,1.5659291560862106e-07,2.2176537349096746e-07,-1.129927505310281e-06,-1.4288204768055602e-06,-2.267509928812752e-06,-1.290212572041852e-06,6.864560549073265e-07,-1.2232642934974347e-06,1.1772053314192332e-07,-1.0602300755810184e-06,-6.22060419547822e-07,-1.9435636611438735e-07,-8.002934266238542e-07,-4.48721757208513e-07,1.7688676743294395e-06,-4.2360699071381113e-07
-3.426123430208945e-08,7.051586656083323e-07,1.7625740161364722e-07,2.6814013433581026e-07,-1.0995527211689618e-06,-1.3110081395016277e-06,-2.2561441817292547e-06,-1.2352800612686776e-06,6.920764548844733e-07,-1.197715717310023e-06,1.5661675567937338e-07,-9.730365165469323e-07,-6.077861006798097e-07,-1.688274222137254e-07,-7.091952617543112e-07,-3.3225526243994066e-07,1.9080621612133547e-06,-4.6046932576249396e-07
3.494005892814008e-08,7.179252213767679e-07,2.015794190115935e-07,3.30820783753701e-07,-1.0558819514204144e-06,-1.2032687782144533e-06,-2.231334965415661e-06,-1.1685486916956828e-06,7.056043653725381e-07,-1.1494232325386852e-06,2.028280499530785e-07,-8.517912839766929e-07,-5.951903841547791e-07,-1.334708268758547e-07,-6.5305910400197e-07,-2.1529362055208328e-07,2.046573676801762e-06,-4.947982912130134e-07
1.4467094444414566e-07,7.372084734421012e-07,2.3075762317870067e-07,4.0779452774186823e-07,-9.973038329233446e-07,-1.1287977724676567e-06,-2.193184092417311e-06,-1.0854065787944849e-06,7.249651411405231e-07,-1.075620966231414e-06,2.5208467564457924e-07,-7.028716262921859e-07,-5.789232125439649e-07,-8.715425532250066e-08,-6.302463046661972e-07,-1.1020524876755608e-07,2.1794791648711178e-06,-5.221118414408605e-07
2.8439098430631844e-07,7.618098848498814e-07,2.6114779111448043e-07,4.936904266516434e-07,-9.244865822860011e-07,-9.805013120413656e-07,-2.145624089434576e-06,-9.819895267939682e-07,7.45369824623895e-07,-9.748698654545196e-07,2.978043861124519e-07,-5.408394326585037e-07,-5.500512456658758e-07,-3.08074532084822e-08,-6.276913829860195e-07,-2.849202954437144e-08,2.3075605924809215e-06,-5.42830930477225e-07
4.338582122008468e-07,7.888191760202499e-07,2.895963224089177e-07,5.800719766575677e-07,-8.405624465054392e-07,-8.600322299315752e-07,-2.0952257152046475e-06,-8.580516840271313e-07,7.613332561482019e-07,-8.487054042698258e-07,3.329205127259521e-07,-3.8665558698305455e-07,-5.003366356079769e-07,3.1694898384550544e-08,-6.249193818646401e-07,2.249253892805393e-08,2.4346398190921175e-06,-5.643667275963388e-07
5.680809897226673e-07,8.141321915447978e-07,3.126503114344266e-07,6.56300325364557e-07,-7.51657586463603e-07,-8.592208035927508e-07,-2.052653350918349e-06,-7.197573086261569e-07,7.683658445949654e-07,-7.062779510208325e-07,3.520971057955174e-07,-2.622722520453507e-07,-4.2632475956751983e-07,9.398892980269473e-08,-6.002441477547627e-07,4.221597586495791e-08,2.5631670676338817e-06,-5.970455901876712e-07
6.641706409963758e-07,8.334458145120635e-07,3.269708984186876e-07,7.111901260086254e-07,-6.669367115677935e-07,-8.798021710674166e-07,-2.0300725830236238e-06,-5.800183958417829e-07,7.639537306659853e-07,-5.609722816069049e-07,3.5356583638339686e-07,-1.8300734199305014e-07,-3.3079116819119637e-07,1.4927973127161673e-07,-5.370544141047701e-07,3.819448937515775e-08,2.691076884648598e-06,-6.501812597799258e-07
7.07871966424944e-07,8.435497790742756e-07,3.3018098434275165e-07,7.353519792305857e-07,-5.976123020396375e-07,-8.874175186865884e-07,-2.0393577742730587e-06,-4.5564055567555057e-07,7.476662336130173e-07,-4.251144755539718e-07,3.3976044621417863e-07,-1.5127256331340106e-07,-2.2146296643643075e-07,1.9292399744265312e-07,-4.285231721669501e-07,2.4730529412177346e-08,2.8116781967066608e-06,-7.157227344297228e-07
6.976590880826888e-07,8.433150095545753e-07,3.2178596476465417e-07,7.236530189700361e-07,-5.545662622613878e-07,-9.36682946155135e-07,-2.0894326127916116e-06,-3.625243811492498e-07,7.212090628260206e-07,-3.0659701746321763e-07,3.1650208190375566e-07,-1.549279111243311e-07,-1.0834739974677428e-07,2.2403310967137221e-07,-2.7885546693624173e-07,1.9281739190964008e-08,2.917055099356538e-06,-7.835262198341789e-07
6.457342479261015e-07,8.340266448069384e-07,3.037496937792975e-07,6.773674593366377e-07,-5.454143743817613e-07,-9.683035087687596e-07,-2.1813659022483265e-06,-3.1089033337230956e-07,6.885987479719803e-07,-2.0559397294876363e-07,2.9110633206028625e-07,-1.7129411617150013e-07,-7.736164509066348e-10,2.45423087004916e-07,-1.0006325181027404e-07,3.736053798000047e-08,3.0033945019263417e-06,-8.308923681092528e-07
5.754285498867096e-07,8.189781250084962e-07,2.803281116483982e-07,6.050907118648459e-07,-5.72334930686977e-07,-1.0542490258645403e-06,-2.308794504568185e-06,-3.0268566426799504e-07,6.557806206288899e-07,-1.1568604957063493e-07,2.6977061498994696e-07,-1.7579005952085222e-07,9.498498330260215e-08,2.6209128714349124e-07,9.369364911685168e-08,8.661224823355481e-08,3.074493803867331e-06,-7.89470090930893e-07
5.141424662684134e-07,8.02274054743487e-07,2.569110913669251e-07,5.211638206787642e-07,-6.321460067420041e-07,-1.0863942742117782e-06,-2.459761461943846e-06,-3.3251603881832747e-07,6.291346029634501e-07,-2.782695182430312e-08,2.550285979800535e-07,-1.5209382247589755e-07,1.7689924991517477e-07,2.789483089289891e-07,2.90530561608964e-07,1.6217109024333132e-07,3.141014532686166e-06,-7.363552724422156e-07
4.833758140511143e-07,7.872999140214214e-07,2.383590131928614e-07,4.4166878844574586e-07,-7.185218098213287e-07,-1.1348594088899623e-06,-2.6208610073654433e-06,-3.909497299599383e-07,6.131696226595088e-07,6.448429424210363e-08,2.44639744990767e-07,-9.944636141547992e-08,2.4694386191498933e-07,2.988095098327176e-07,4.817753779580431e-07,2.465444961418014e-07,3.2159422808062746e-06,-6.959667849609002e-07
4.902221911758034e-07,7.756460200330265e-07,2.2762721917373038e-07,3.7959527065463114e-07,-8.244636136476064e-07,-1.183549600826341e-06,-2.7809646959626018e-06,-4.6776751591942663e-07,6.088626862059095e-07,1.607753148252834e-07,2.3266196936097692e-07,-3.365473840000307e-08,3.0937583370612315e-07,3.2138932994545177e-07,6.598125010722042e-07,3.1516373141336754e-07,3.3082330109337497e-06,-5.316938933395229e-07
5.247310294492869e-07,7.669226992444678e-07,2.2515201749742718e-07,3.4116029723820354e-07,-9.434965178217211e-07,-1.2415821942590905e-06,-2.932558896763598e-06,-5.538023017930073e-07,6.135924678115714e-07,2.521959191945996e-07,2.123129744073024e-07,1.9165139441784567e-08,3.681809911184326e-07,3.436429226600588e-07,8.155756433955264e-07,3.455475408098392e-07,3.4178125712991336e-06,-3.717527520648463e-07
5.650436009886057e-07,7.595248269526175e-07,2.292817168592183e-07,3.250393541732362e-07,-1.0690459925298592e-06,-1.3622493596877218e-06,-3.0711078086872364e-06,-6.411060810559174e-07,6.228901174632932e-07,3.252326321195826e-07,1.7933277582540855e-07,3.359393269101101e-08,4.251616845183563e-07,3.613854217674575e-07,9.386395209234686e-07,3.2583663791765563e-07,3.53493095108197e-06,-2.74259264283316e-07
5.876666280408918e-07,7.518896430316623e-07,2.3749013780285177e-07,3.245619672024455e-07,-1.1933578808593547e-06,-1.4087773125723997e-06,-3.190142439518343e-06,-7.225305264099025e-07,6.328098411852528e-07,3.679489863480495e-07,1.3397545398102722e-07,-4.947889723401838e-09,4.797746148190178e-07,3.7138911141790673e-07,1.0203110361857374e-06,2.58395043301883e-07,3.6442177910080574e-06,-2.278089039826485e-07
5.769359358937795e-07,7.433845396416379e-07,2.4752010599068735e-07,3.3114278053835536e-07,-1.3076959076346677e-06,-1.3813886553799413e-06,-3.2870115877346434e-06,-7.920220686055754e-07,6.415248821313098e-07,3.7535732183021925e-07,8.05089242015173e-08,-9.596885351934512e-08,5.306138382299152e-07,3.728333925779417e-07,1.0573923249306153e-06,1.5725748807129973e-07,3.731152826763986e-06,-2.2181650792647314e-07
5.294025154557332e-07,7.344635559492604e-07,2.57981965037131e-07,3.3733246580292123e-07,-1.4042481976997228e-06,-1.3283605645299857e-06,-3.361076103791057e-06,-8.454974016813641e-07,6.492258661547305e-07,3.5162330402166423e-07,2.483351717719759e-08,-2.2663775996898297e-07,5.772529654872291e-07,3.674965171819283e-07,1.0535429643171572e-06,4.1500490312433766e-08,3.7873169968805267e-06,-2.5488590200921825e-07
4.5258923472025814e-07,7.263136831628409e-07,2.683655274240654e-07,3.3846889473711184e-07,-1.4784289706304879e-06,-1.3055200996266026e-06,-3.4131709971017383e-06,-8.817971887391027e-07,6.569708807448755e-07,3.079159457362858e-07,-2.8314859567471064e-08,-3.788521233636784e-07,6.207541997313332e-07,3.5870627244603155e-07,1.0168270399519211e-06,-7.23021911997474e-08,3.811362112781937e-06,-3.0499028211540575e-07
3.597782804490148e-07,7.201976636236245e-07,2.7849655801311013e-07,3.325604679577291e-07,-1.5303312636770961e-06,-1.2879130563510002e-06,-3.44880516218992e-06,-9.03335590794936e-07,6.652898096818583e-07,2.574908681432324e-07,-7.70798894766865e-08,-5.364397746933327e-07,6.623862478862563e-07,3.4963670085513905e-07,9.553097148216991e-07,-1.7497763425481982e-07,3.8061430165542705e-06,-3.52608554242659e-07
2.639212893269468e-07,7.168216713752763e-07,2.8795161914997595e-07,3.1936146249253815e-07,-1.5646176917635474e-06,-1.3065936803004187e-06,-3.474625015502418e-06,-9.153935702748983e-07,6.735813210378059e-07,2.1090454725210717e-07,-1.220923496105927e-07,-6.890932774252998e-07,7.016067441875741e-07,3.4194476457319553e-07,8.741365890329628e-07,-2.6461169014116564e-07,3.7752846185950703e-06,-3.851402040066981e-07
1.7366141723532972e-07,7.161086429860602e-07,2.959894772591764e-07,2.997954580794878e-07,-1.5887408176964024e-06,-1.357952921267009e-06,-3.5008265249957784e-06,-9.239130555245723e-07,6.807435424663956e-07,1.7324139579903287e-07,-1.6449303185731936e-07,-8.323845502009542e-07,7.343771067480819e-07,3.3536313244846317e-07,7.755697081468358e-07,-3.426609946888038e-07,3.721342391478933e-06,-3.985893299487033e-07
9.2324692582807e-08,7.173569878549938e-07,3.018515137461591e-07,2.7568027680010376e-07,-1.610481491478551e-06,-1.411194100182289e-06,-3.5329934178086455e-06,-9.333467447117218e-07,6.859993222511927e-07,1.4332291968792246e-07,-2.0399034935704346e-07,-9.652437724939876e-07,7.526597455997619e-07,3.282287823795527e-07,6.6109501877295e-07,-4.095793902182296e-07,3.6458019107176667e-06,-3.973679416435413e-07
1.923366356388846e-08,7.19643292412335e-07,3.051501082359873e-07,2.495576414592638e-07,-1.6358185062465608e-06,-1.4728460808467225e-06,-3.5744772457486575e-06,-9.453709885511693e-07,6.893711714496015e-07,1.1516993062450982e-07,-2.3793944652190557e-07,-1.0865361363774577e-06,7.459465872347775e-07,3.1868721193068624e-07,5.339880089947483e-07,-4.621185761163828e-07,3.550486094703836e-06,-3.9121243197363134e-07
-4.779810454339355e-08,7.223711554516848e-07,3.062003517019024e-07,2.2459790136158936e-07,-1.667461500470799e-06,-1.5277768777723775e-06,-3.6238081855765993e-06,-9.587556666951163e-07,6.917329835396364e-07,8.090197097711205e-08,-2.618171882939382e-07,-1.1925528078319996e-06,7.044946519489579e-07,3.059442503537963e-07,4.006268484506427e-07,-4.935894653063559e-07,3.43924165032026e-06,-3.9040264307150626e-07
-1.1042866741915515e-07,7.256063894324284e-07,3.05946750921726e-07,2.0406132631981257e-07,-1.7045234586348052e-06,-1.5750168635677361e-06,-3.675602296397471e-06,-9.70835061246768e-07,6.942015986988488e-07,3.3627425856801825e-08,-2.712085445254697e-07,-1.2768999787909337e-06,6.230196980317602e-07,2.907940444491344e-07,2.699863323721015e-07,-4.970179696326907e-07,3.3191256221257277e-06,-4.0256771591905167e-07
-1.6907070601536786e-07,7.299693367440158e-07,3.054767227386361e-07,1.903301430381425e-07,-1.7433233885577318e-06,-1.6180129580135023e-06,-3.724734529442792e-06,-9.795934416623367e-07,6.970383118372439e-07,-3.2520727380334145e-08,-2.6432653483105215e-07,-1.3325414423766249e-06,5.039829181182746e-07,2.753566418896444e-07,1.525389898938854e-07,-4.6875113008079067e-07,3.2012023943224717e-06,-4.3090474710800733e-07
-2.230427295681532e-07,7.362913694432481e-07,3.0558147476160524e-07,1.842024404849186e-07,-1.7785421896646486e-06,-1.666529853768453e-06,-3.766907121742706e-06,-9.847152481731707e-07,6.993720305773838e-07,-1.1469289298612543e-07,-2.435554429462964e-07,-1.354696196732318e-06,3.5912067468842773e-07,2.6237708982345073e-07,5.926037631078629e-08,-4.103732706727964e-07,3.0997992886507613e-06,-4.742436052498516e-07
-2.713133311988106e-07,7.451229500383548e-07,3.064716403179172e-07,1.845943187957022e-07,-1.8045691981997006e-06,-1.7203526394412545e-06,-3.8006165416849806e-06,-9.875086645502988e-07,6.99627948551729e-07,-2.0181177564264349e-07,-2.1532387001916662e-07,-1.3432491749946915e-06,2.073053834012098e-07,2.5419421094796e-07,2.0712407231567242e-10,-3.2857832621783396e-07,3.0287167450957575e-06,-5.288874790903905e-07
-3.1338994735958496e-07,7.561666000888453e-07,3.076292011629622e-07,1.8859350725364067e-07,-1.8170661450008968e-06,-1.7796274252882298e-06,-3.826343623810279e-06,-9.902455553148185e-07,6.962660248437278e-07,-2.834649300342395e-07,-1.8818788008464054e-07,-1.3030140922747482e-06,6.886812768837784e-08,2.5172886014860276e-07,-1.6999014935714362e-08,-2.3260034040614485e-07,2.996186547017146e-06,-5.900887720421726e-07
-3.488091270765628e-07,7.681704270116335e-07,3.081177518731423e-07,1.9239049761416474e-07,-1.8140177579759893e-06,-1.8475368342806767e-06,-3.847043399069209e-06,-9.947660667135453e-07,6.895784111747696e-07,-3.483660994282826e-07,-1.6959214133064117e-07,-1.2412223116642193e-06,-4.0919759774815564e-08,2.54158336378687e-07,1.1671969593857334e-08,-1.2995849935401024e-07,3.0020378336357462e-06,-6.524005152486716e-07
-3.74988066600417e-07,7.79500148890881e-07,3.0718689900587673e-07,1.9292480497604704e-07,-1.7959304391024842e-06,-1.9210547278787115e-06,-3.866422458984159e-06,-1.0012020350616669e-06,6.81397678373904e-07,-3.885469767835322e-07,-1.62934863444512e-07,-1.1641732794330693e-06,-1.1609373345311424e-07,2.594274792980508e-07,8.508412229911924e-08,-2.3855495789656993e-08,3.0383823173505333e-06,-7.0985802965574e-07
-3.857712988912194e-07,7.888184149800305e-07,3.045398471205215e-07,1.8915903397986325e-07,-1.765763516281551e-06,-1.9978631958634103e-06,-3.88285411734292e-06,-1.0078639222392708e-06,6.751242680868039e-07,-4.0228567821066745e-07,-1.6646752747515664e-07,-1.0757059672001516e-06,-1.5995753012871698e-07,2.652099833276727e-07,1.9517539800284536e-07,8.558583319173757e-08,3.093250953188169e-06,-7.553784110520151e-07
-3.728427397816697e-07,7.954493490861172e-07,3.003066896424875e-07,1.825902465641835e-07,-1.7284565835089908e-06,-2.074510632795627e-06,-3.903416750970746e-06,-1.011770081202002e-06,6.745412895239443e-07,-3.92308836547891e-07,-1.741867264584229e-07,-9.785251638805436e-07,-1.8124028340975766e-07,2.6981118479529815e-07,3.2584122748622027e-07,1.9774243108049415e-07,3.155141835259634e-06,-7.818645207925263e-07
-3.3021343907189814e-07,7.994071636887906e-07,2.9501156130200657e-07,1.7686688595992317e-07,-1.6897810590359912e-06,-2.147440681017163e-06,-3.920628431194041e-06,-1.0095125069625003e-06,6.819612935060906e-07,-3.6583187845285317e-07,-1.781891353211659e-07,-8.773976561238762e-07,-1.8981749202412037e-07,2.723695836077701e-07,4.563104713773114e-07,3.0859819433210606e-07,3.215270888138724e-06,-7.850506951975231e-07
-2.597835761515579e-07,8.010472515624295e-07,2.8931766497330867e-07,1.760762169914977e-07,-1.655246574232131e-06,-2.2156844704062213e-06,-3.932077449896363e-06,-9.99434739830539e-07,6.972617178336338e-07,-3.3647036191297005e-07,-1.7154533194589263e-07,-7.813307840065347e-07,-1.951277813863345e-07,2.7209162175440005e-07,5.655815681170125e-07,4.1112758109590146e-07,3.266694057130209e-06,-7.657869024751846e-07
-1.7379736866085925e-07,8.005929724909332e-07,2.836216322002633e-07,1.8246250557352483e-07,-1.6292939328221071e-06,-2.2811495059744686e-06,-3.940234078465509e-06,-9.797704640433475e-07,7.175101308795409e-07,-3.232509054427229e-07,-1.5023988167864914e-07,-7.018248952023002e-07,-2.0703006778348038e-07,2.672400737158494e-07,6.32912422718878e-07,4.99281214128168e-07,3.3028586055544786e-06,-7.308287077809503e-07
-9.135261983807711e-08,7.979707213519718e-07,2.7793565604149697e-07,1.9526059494113476e-07,-1.6146063192263167e-06,-2.3508008815306853e-06,-3.940317408932303e-06,-9.52996007859497e-07,7.381500263269619e-07,-3.45186264403959e-07,-1.1367965923247648e-07,-6.478380516413851e-07,-2.3627972114384572e-07,2.549508566238649e-07,6.446720044611637e-07,5.720975173923469e-07,3.3176316218318707e-06,-6.913553638172053e-07
-3.1214612919077626e-08,7.929194790647168e-07,2.720624352181422e-07,2.1124085971693734e-07,-1.6119879941709313e-06,-2.4259686940438787e-06,-3.932786747200104e-06,-9.230391692431629e-07,7.543678940963647e-07,-4.156894382598316e-07,-6.448155179896427e-08,-6.214851668409593e-07,-2.9215783070057926e-07,2.3232668938848216e-07,6.025834839886936e-07,6.340880631449106e-07,3.3066544308357718e-06,-6.592048439294886e-07
-5.787443524289138e-09,7.851767297363159e-07,2.6589566220157495e-07,2.264489738220825e-07,-1.6207003354776373e-06,-2.5043553501309514e-06,-3.916994321996564e-06,-8.926620769135288e-07,7.62270296683491e-07,-5.355568636649531e-07,-7.71546328377258e-09,-6.176281212407386e-07,-3.7777493371243346e-07,1.9826441519274158e-07,5.164996101032856e-07,6.921268099916347e-07,3.2689637002047486e-06,-6.425077891746388e-07
-1.903747637120514e-08,7.747318308859607e-07,2.596985683337708e-07,2.3814840308929993e-07,-1.6387355370793332e-06,-2.5814399841907355e-06,-3.892373986663991e-06,-8.633999141868686e-07,7.594995401298736e-07,-6.910427461266559e-07,5.052777621784377e-08,-6.272528869325399e-07,-4.869487306227775e-07,1.546182211045916e-07,4.010236700486211e-07,7.515980290475524e-07,3.2075167167247835e-06,-6.435853711721944e-07
-6.800407498815656e-08,7.620128638860912e-07,2.5401087861508514e-07,2.4568979493518247e-07,-1.6631401650650031e-06,-2.649696304643815e-06,-3.856817431438137e-06,-8.342347926473424e-07,7.443146207388667e-07,-8.59772819589398e-07,1.0457673256323991e-07,-6.42026662613391e-07,-6.059294482959494e-07,1.0565502269268703e-07,2.7119841284554196e-07,8.139813727203993e-07,3.1282412283416186e-06,-6.59652802848173e-07
-1.454662754361491e-07,7.478954931802462e-07,2.492469306779902e-07,2.499103121557078e-07,-1.6906415219678924e-06,-2.7028764327901145e-06,-3.810275405125311e-06,-8.03755939568357e-07,7.147599027953732e-07,-9.965031463232622e-07,1.5009050815203458e-07,-6.569603234780992e-07,-7.187273453993479e-07,5.636236829504415e-08,1.376952022801296e-07,8.769162669847533e-07,3.03882979480105e-06,-6.854432439422249e-07
-2.4144252013749844e-07,7.336405584395218e-07,2.45499913303938e-07,2.5185718460118236e-07,-1.718435041148705e-06,-2.735830272482968e-06,-3.7552998008403808e-06,-7.738299811566876e-07,6.707834729789981e-07,-1.090258703835136e-06,1.8446904365849935e-07,-6.702082730994164e-07,-8.124064130139733e-07,1.090519218301948e-08,8.96085857364876e-09,9.358764009844602e-07,2.9477891732894434e-06,-7.161996324030842e-07
-3.4346791500187316e-07,7.207194494755321e-07,2.425944145828227e-07,2.5166647438171513e-07,-1.7449352642908254e-06,-2.74473526027026e-06,-3.694967859996795e-06,-7.47661065625464e-07,6.130772782073954e-07,-1.16266824540453e-06,2.067662895097544e-07,-6.813893022511461e-07,-8.801658563833491e-07,-2.8179299208945323e-08,-1.0605074567978394e-07,9.856906743888821e-07,2.863184527193227e-06,-7.496605289302888e-07
-4.3700802367604187e-07,7.104888039667134e-07,2.4014693968636774e-07,2.483041906332577e-07,-1.7701058177134792e-06,-2.726205397305574e-06,-3.6364914125203057e-06,-7.303620849636897e-07,5.435024438104783e-07,-1.206274681301216e-06,2.1740992240295286e-07,-6.898660895154136e-07,-9.21796926408379e-07,-6.004826529285097e-08,-1.98266642159689e-07,1.02184372754656e-06,2.791443409125149e-06,-7.847513559603572e-07
-5.068651821541105e-07,7.039419283098163e-07,2.3769618135087629e-07,2.405503899963377e-07,-1.7949306194033035e-06,-2.6801538371051065e-06,-3.5879301977110326e-06,-7.293016067978754e-07,4.659844713500709e-07,-1.2265073513332047e-06,2.1805422681354386e-07,-6.938043336040487e-07,-9.421006614749466e-07,-8.511626079989551e-08,-2.6106038894516194e-07,1.0417117344504747e-06,2.7366873623047994e-06,-8.199602286734176e-07
-5.398710849500093e-07,7.015317017672705e-07,2.3491150848466637e-07,2.2824293527182885e-07,-1.8205518749747288e-06,-2.6116167302638178e-06,-3.5570125411631797e-06,-7.497900361146044e-07,3.860523346926097e-07,-1.2310496954867294e-06,2.1122356189119027e-07,-6.905391475658082e-07,-9.482391582379015e-07,-1.0451769280385431e-07,-2.9054571106567695e-07,1.044523075418141e-06,2.6987658609178827e-06,-8.518383992143537e-07
-5.280872546322182e-07,7.029443531682691e-07,2.3186866947661984e-07,2.1277932070864645e-07,-1.8478043843700646e-06,-2.5283359513703555e-06,-3.54936552758572e-06,-7.937615443393835e-07,3.101678561030085e-07,-1.2176852923422951e-06,1.9959357933664132e-07,-6.777092238300799e-07,-9.465257684812245e-07,-1.1955780437554965e-07,-2.8656809583537124e-07,1.0299926793205699e-06,2.6800335143110343e-06,-8.746697381592576e-07
-4.7051355293866393e-07,7.071568520823379e-07,2.2951831693870419e-07,1.9716300554441788e-07,-1.877019158794116e-06,-2.438829572477473e-06,-3.562896058867445e-06,-8.588344767858713e-07,2.4485014092630174e-07,-1.1887433715622071e-06,1.8533185254869357e-07,-6.542504212953347e-07,-9.394638745889838e-07,-1.3109774788773657e-07,-2.5156956868186035e-07,9.969941522074849e-07,2.681059664565231e-06,-8.820304939440007e-07
-3.728488373482024e-07,7.128807826333464e-07,2.2990991773634696e-07,1.8569343511413365e-07,-1.908020793029205e-06,-2.3495003982174703e-06,-3.6034451002763934e-06,-9.379200810218865e-07,1.9582660418955013e-07,-1.1859570309828013e-06,1.696441863890035e-07,-6.21383456756913e-07,-9.247377775281311e-07,-1.392904930870535e-07,-1.8973875022239075e-07,9.429823567985319e-07,2.7027157778093446e-06,-8.691115538393944e-07
-2.4701377152224706e-07,7.188786449405899e-07,2.3554978287572052e-07,1.8290485251262074e-07,-1.940630341162683e-06,-2.263119523899177e-06,-3.660760212388445e-06,-1.0205651880621391e-06,1.6515447019579255e-07,-1.1873702621478167e-06,1.526384426184735e-07,-5.837102726961397e-07,-8.969078718619569e-07,-1.4401877286435597e-07,-1.1071522179898448e-07,8.648766589333507e-07,2.74602489269759e-06,-8.355839958292013e-07
-1.1097056676447289e-07,7.240104041274143e-07,2.4830342757792863e-07,1.922630352811747e-07,-1.975121286269709e-06,-2.181299024180381e-06,-3.7226410745477426e-06,-1.0965221182826572e-06,1.5298011370132848e-07,-1.1247956634048477e-06,1.3383048450015838e-07,-5.495768589505179e-07,-8.509117323296444e-07,-1.457312024649523e-07,-2.4894705443518125e-08,7.619054312945464e-07,2.8103823631361096e-06,-7.873369024835272e-07
1.2402523312157077e-08,7.272704386469188e-07,2.6856040849217433e-07,2.1515825518022738e-07,-2.0119828482780945e-06,-2.1068921140006167e-06,-3.778424119258945e-06,-1.1555973520909213e-06,1.5690468910615334e-07,-1.0113454740049932e-06,1.1294754987225976e-07,-5.299578371221055e-07,-7.861802375726535e-07,-1.4620296235056197e-07,5.063943048504323e-08,6.388082221357851e-07,2.8846573272937574e-06,-7.357683413314862e-07
9.839960084994718e-08,7.277661183074587e-07,2.947403811862337e-07,2.499670983378171e-07,-2.0515268577590708e-06,-2.0417761182485212e-06,-3.816219034187301e-06,-1.1903600184744406e-06,1.723859119740358e-07,-8.667838078540815e-07,9.045112058647432e-08,-5.355045669227549e-07,-7.096703201084391e-07,-1.4871908781103812e-07,9.169509670431055e-08,5.07059623020092e-07,2.949920305380133e-06,-6.941421755984819e-07
1.260511521899162e-07,7.246882055409096e-07,3.2341467178208454e-07,2.91866272098191e-07,-2.093790819517463e-06,-2.0018070247271046e-06,-3.8340027254064484e-06,-1.1996680189584205e-06,1.9387009856163124e-07,-7.126691423678109e-07,6.793976034727664e-08,-5.719994257142868e-07,-6.355607094009989e-07,-1.5715249211491367e-07,7.505041563640671e-08,3.8313195357361257e-07,3.0002058467339006e-06,-6.704491826456573e-07
8.514576269663565e-08,7.175413923798096e-07,3.5041407238851064e-07,3.3443862077152916e-07,-2.138410367265071e-06,-1.9928124860945594e-06,-3.830596160040139e-06,-1.1881208635798458e-06,2.1582805144350456e-07,-5.955703625554163e-07,4.8346703655391145e-08,-6.364254988211123e-07,-5.813518473150092e-07,-1.743350570673771e-07,-1.4026392003706843e-08,2.8382654008800976e-07,2.9359642116204307e-06,-6.626425436481624e-07
-1.883480321945562e-08,7.064814936553907e-07,3.723245045708495e-07,3.722213973087858e-07,-2.1844528755049047e-06,-2.0124143923926117e-06,-3.8082332153428926e-06,-1.166590997910487e-06,2.3606159677599513e-07,-5.952007301170226e-07,3.5312065771870886e-08,-7.165043195901372e-07,-5.625150213346833e-07,-2.0093182062145513e-07,-1.8098991182084616e-07,2.2043343333596488e-07,2.800441817897177e-06,-6.597251695334221e-07
-1.6466844973570517e-07,6.925303907301124e-07,3.875174262382279e-07,4.0243719608615176e-07,-2.2303003959441918e-06,-2.0523741857474074e-06,-3.767322421965378e-06,-1.1487929662671375e-06,2.5702537161516e-07,-5.415870277125066e-07,3.201274894472562e-08,-7.939433897691699e-07,-5.875094237867311e-07,-2.3522901942802916e-07,-4.0892742052131935e-07,1.952159584950194e-07,2.6945004375660946e-06,-6.474392393057555e-07
-3.1978173949038976e-07,6.777549778874072e-07,3.965101503888735e-07,4.250935891823562e-07,-2.2732752092106135e-06,-2.0926364308367507e-06,-3.708083439432654e-06,-1.1471088340164164e-06,2.8033921675620115e-07,-4.80705383121065e-07,4.0220664913960275e-08,-8.494939095381552e-07,-6.543521814860664e-07,-2.734201611951586e-07,-6.678025621930763e-07,2.0162615705135994e-07,2.4845316411527463e-06,-6.159316624428178e-07
-4.476964808025812e-07,6.651882050661009e-07,4.0156342247454256e-07,4.4166266820760814e-07,-2.309249144296281e-06,-2.1151638338419428e-06,-3.6357879298983273e-06,-1.1695872409129453e-06,3.0771255882327156e-07,-4.714372956380795e-07,5.963694276882655e-08,-8.701607931851064e-07,-7.502901388221569e-07,-3.102874816568561e-07,-9.206925212247762e-07,2.2669818790968877e-07,2.221867991674905e-06,-5.640357455748239e-07
-5.171479574743623e-07,6.581490855865841e-07,4.055625513722322e-07,4.5343888206774e-07,-2.331068544147804e-06,-2.1053025377680715e-06,-3.556248423156878e-06,-1.2197635566937974e-06,3.401650023904308e-07,-5.286482391961685e-07,8.758221256228937e-08,-8.480912500844417e-07,-8.55061184632144e-07,-3.4029054361229634e-07,-1.1288357786489592e-06,2.546517791400862e-07,1.9409854061780916e-06,-5.004101264912983e-07
-5.099127952509832e-07,6.59284286910243e-07,4.108127355719708e-07,4.609324068940434e-07,-2.3328018197952147e-06,-2.064246096134069e-06,-3.474687226050639e-06,-1.2943658921143537e-06,3.69480299101954e-07,-5.651923106127037e-07,1.1939681379931482e-07,-7.839356161383973e-07,-9.464584432599786e-07,-3.5881776857763426e-07,-1.2648572740634247e-06,2.7101905415632407e-07,1.730615856353782e-06,-4.3875013706872275e-07
-4.243783274520591e-07,6.697791432704097e-07,4.1829143304457593e-07,4.6417424913685825e-07,-2.3090308981810324e-06,-1.9923891139763948e-06,-3.3990182599596996e-06,-1.3838644501231798e-06,3.9228615063427366e-07,-5.706572217187066e-07,1.4937183269893225e-07,-6.866892070646849e-07,-1.0063080724646787e-06,-3.6339338207228464e-07,-1.3171965035296275e-06,2.6514383079013857e-07,1.6222736614373684e-06,-3.9178502489463725e-07
-2.7423158666657054e-07,6.888319119344506e-07,4.2749545632275456e-07,4.6301509801452215e-07,-2.2588678228606283e-06,-1.9015635683864602e-06,-3.339868196323598e-06,-1.4756715339925897e-06,4.0653323407598707e-07,-5.481728043896049e-07,1.7205305722328988e-07,-5.701945537264427e-07,-1.0247701154376387e-06,-3.544468736974639e-07,-1.296530159872516e-06,2.302793280624765e-07,1.57213712178094e-06,-3.659133243465618e-07
-8.335543742884785e-08,7.13717279943459e-07,4.3654967476390244e-07,4.5766571480648284e-07,-2.1818057126457084e-06,-1.8109229728411596e-06,-3.287566411242917e-06,-1.555999647076947e-06,4.1127034002367533e-07,-5.001548369023446e-07,1.8394292819454073e-07,-4.515679879460014e-07,-1.0015856400738527e-06,-3.351968454164232e-07,-1.2126755088777823e-06,1.6308910017428752e-07,1.565175920690551e-06,-3.5852211729466096e-07
1.2089104368109924e-07,7.406716328450241e-07,4.443599132492691e-07,4.4951094550375304e-07,-2.082416004584804e-06,-1.7366987283229295e-06,-3.251246287354819e-06,-1.6127777457338472e-06,4.098443571153257e-07,-4.4673025217018744e-07,1.847469316047381e-07,-3.4551105213842443e-07,-9.439934731181163e-07,-3.1091028809689857e-07,-1.0972852564827958e-06,6.397845301375374e-08,1.5760460216202494e-06,-3.600328525204994e-07
3.1346109164180273e-07,7.660885947657658e-07,4.507449317416798e-07,4.4118411464144977e-07,-1.969426717128752e-06,-1.6910667239911936e-06,-3.22836919945409e-06,-1.6324921297022985e-06,4.07782259664689e-07,-3.9705776036769114e-07,1.7730864073895835e-07,-2.688308420071202e-07,-8.66646299862223e-07,-2.879601395938738e-07,-1.0018419600315194e-06,-6.1562027655473e-08,1.5700461057792968e-06,-3.588209714622665e-07
4.756331925669171e-07,7.874951962252496e-07,4.562321332261062e-07,4.3588435807730974e-07,-1.8517861830629351e-06,-1.6772634630399593e-06,-3.1947764798840434e-06,-1.6293854361609474e-06,4.098532706890267e-07,-3.534224334310194e-07,1.6673124952859431e-07,-2.3165891076701487e-07,-7.877007061838575e-07,-2.7243973127964936e-07,-9.430387053178809e-07,-2.02834932698869e-07,1.5422467259053419e-06,-3.464756297562305e-07
5.975324536794035e-07,8.041466877719497e-07,4.624839474315286e-07,4.3666219187413726e-07,-1.7388723257450217e-06,-1.677059705873684e-06,-3.153585836949505e-06,-1.60615767378333e-06,4.2163074073662065e-07,-3.3252965512028603e-07,1.5917412316060747e-07,-2.3685517947522895e-07,-7.215963237236741e-07,-2.6843586052866874e-07,-9.09614242448769e-07,-3.418641276289046e-07,1.4968218783061488e-06,-3.2028213658711715e-07
6.784945895197033e-07,8.169550721585409e-07,4.7014184752348016e-07,4.4555350377748526e-07,-1.6360958612808143e-06,-1.6864391622782563e-06,-3.1060241809645677e-06,-1.5645638499204144e-06,4.479430684647993e-07,-3.4323055775543316e-07,1.6009561784997672e-07,-2.8090846778957123e-07,-6.771337697715037e-07,-2.769603924871953e-07,-9.056276027206914e-07,-4.596382531813189e-07,1.447956104754059e-06,-2.8291526762509806e-07
7.249717709431141e-07,8.277326668651873e-07,4.791586701877338e-07,4.6277931295080196e-07,-1.545218254237013e-06,-1.6973705260461714e-06,-3.0499017191109344e-06,-1.5154050754005862e-06,4.867014348791364e-07,-3.867425252786853e-07,1.724665147922581e-07,-3.5262727172258586e-07,-6.555844987460673e-07,-2.9605845053843794e-07,-9.072614757065446e-07,-5.423024942566386e-07,1.4118106141427339e-06,-2.4011839024445465e-07
7.473221623320029e-07,8.383443463507288e-07,4.890967314891005e-07,4.869132417780924e-07,-1.4648561458080053e-06,-1.6993159743472438e-06,-2.989383247418051e-06,-1.4628974226625009e-06,5.366521415317508e-07,-4.628971850891059e-07,1.9675343227757854e-07,-4.3600264168545907e-07,-6.511060032023886e-07,-3.216474791097947e-07,-8.898743384072768e-07,-5.822226056206847e-07,1.3999615522528518e-06,-1.9788227350445413e-07
7.565922836653721e-07,8.501942110140931e-07,4.993424890786587e-07,5.158399579533167e-07,-1.3898848188231064e-06,-1.6882862684052127e-06,-2.9279895062313616e-06,-1.411586184309953e-06,5.924039772478037e-07,-5.50421893026093e-07,2.2652459460158298e-07,-5.210801255766576e-07,-6.53891053095167e-07,-3.4856376962202617e-07,-8.324961918975719e-07,-5.822453005328616e-07,1.4232901360514265e-06,-1.6076787986003581e-07
7.615649815159638e-07,8.640460427046457e-07,5.09622910670801e-07,5.476727632016507e-07,-1.3206790926336877e-06,-1.6611924630966924e-06,-2.8780726034599248e-06,-1.3633513280212673e-06,6.407197486240921e-07,-6.303498667932921e-07,2.555766940293681e-07,-5.962311302896942e-07,-6.527871582664888e-07,-3.7148254217787136e-07,-7.636054155211394e-07,-5.513405555513018e-07,1.4853623575267975e-06,-1.313229188580965e-07
7.665610221069945e-07,8.801258617097041e-07,5.202210088884142e-07,5.81373613308659e-07,-1.2540380755755753e-06,-1.6133820163786928e-06,-2.8315420495865075e-06,-1.3014038624856777e-06,6.732172087115366e-07,-6.832076672241942e-07,2.793454012100351e-07,-6.535628700227082e-07,-6.370914184385959e-07,-3.8563745799608257e-07,-6.840870772176809e-07,-5.007220514589138e-07,1.590555286392081e-06,-1.130035004810044e-07
7.703628809448431e-07,8.982439472322179e-07,5.319420427767307e-07,6.16787443178465e-07,-1.189898813796004e-06,-1.5532199528489267e-06,-2.7925542898801467e-06,-1.2384175112899404e-06,6.837102041494766e-07,-6.386178737924857e-07,2.887970295310505e-07,-6.751375036544416e-07,-5.979275275131589e-07,-3.875391010149647e-07,-5.903496198050593e-07,-4.4175350235751667e-07,1.7212433097997137e-06,-1.0283527998630233e-07
7.667018981285213e-07,9.176837252689226e-07,5.448797575940383e-07,6.540278504438586e-07,-1.138857152085488e-06,-1.5447694137923997e-06,-2.761275357552205e-06,-1.179031428433706e-06,6.677900131886226e-07,-5.72664860298882e-07,2.7985047024471583e-07,-6.643545959648582e-07,-5.354799338746079e-07,-3.7555117656203005e-07,-5.104767523714972e-07,-3.835784732498195e-07,1.8274996253890944e-06,-9.672692183669247e-08
7.471511772898268e-07,9.371275023182269e-07,5.601059325258247e-07,6.928617750220215e-07,-1.0932440561651546e-06,-1.5322470789472168e-06,-2.741260572665923e-06,-1.1155008002756543e-06,6.371779368292044e-07,-5.417419121895984e-07,2.509475688913211e-07,-6.350808941242512e-07,-4.5587640797766255e-07,-3.49990179971837e-07,-4.5095825790049585e-07,-3.31066974448393e-07,1.8989110907050812e-06,-9.008715023123737e-08
7.056338657032208e-07,9.548129783227323e-07,5.795885830616005e-07,7.32290177018625e-07,-1.0520937154029935e-06,-1.5716621613760957e-06,-2.7143191023733946e-06,-1.0472199264056153e-06,5.921723998775618e-07,-4.4077498595944134e-07,2.0580081367329536e-07,-5.971534703043511e-07,-3.748174832024771e-07,-3.1295998080703584e-07,-4.7225263829917823e-07,-2.798233689650886e-07,1.8392182275533046e-06,-7.707799694959088e-08
6.419171266083202e-07,9.686964126028937e-07,6.020812788900113e-07,7.701552194010732e-07,-9.92447735039039e-07,-1.6518399222473338e-06,-2.6808303190507947e-06,-9.744380762470448e-07,5.309520476266911e-07,-2.792543145242688e-07,1.4525288450482935e-07,-5.689353330399392e-07,-3.0576504058969944e-07,-2.682398796530725e-07,-5.787860385770312e-07,-2.2474389508208642e-07,1.6827969385446245e-06,-4.947574118923849e-08
5.624442776731648e-07,9.766907157832279e-07,6.307378112444116e-07,8.033950149942362e-07,-9.522952971226231e-07,-1.6247297033574705e-06,-2.637432507142553e-06,-9.247370033568633e-07,4.5876815372951686e-07,-1.401549647509601e-07,1.0527292409655988e-07,-4.991009698946103e-07,-2.755563939847016e-07,-2.211152022961896e-07,-8.577070669309152e-07,-1.56086430311957e-07,1.543395827870226e-06,-5.724577102527946e-09
4.78267141238767e-07,9.771334946870025e-07,6.62977076850329e-07,8.290556931448776e-07,-9.446962644905081e-07,-1.6169475413801729e-06,-2.571724371843599e-06,-9.142861116195286e-07,3.8111262473468837e-07,-4.711547099272049e-08,1.1580955976442825e-07,-4.151623673699623e-07,-3.563789526521779e-07,-1.7802164762490353e-07,-1.123099720289513e-06,-6.599692668528261e-08,1.4806679763534975e-06,5.001237025315213e-08
4.0069958191608413e-07,9.691910303851313e-07,6.94799145329679e-07,8.448903537253784e-07,-9.61613738359924e-07,-1.6541881534873577e-06,-2.4980795271707083e-06,-1.007656121128376e-06,3.1062758654749505e-07,-2.1287020423786562e-08,1.395668326269271e-07,-2.6803256101811007e-07,-4.233653240545545e-07,-1.4581715829583232e-07,-1.1728832088916677e-06,6.15779847706334e-08,1.4143835128707711e-06,1.0775284606587883e-07
3.3738184932343265e-07,9.531057505410143e-07,7.239358370860157e-07,8.492093700043143e-07,-1.0340336875758527e-06,-1.6322681929939108e-06,-2.427027943010748e-06,-1.1853309380924885e-06,2.270783574230764e-07,1.1442555613907992e-08,1.96898776344682e-07,2.5559746176593032e-08,-4.93140496201269e-07,-1.3027371698737391e-07,-1.1630597492252662e-06,2.5153145956586865e-07,1.2228360574954728e-06,1.478807647692627e-07
2.918067215184387e-07,9.305173345758776e-07,7.487765705596665e-07,8.408780610531727e-07,-1.1053407967804265e-06,-1.490831938673359e-06,-2.3549524438304216e-06,-1.3062571781828539e-06,8.839042797143263e-08,-4.0909575115659974e-08,2.2608120472892807e-07,1.7704223933074037e-07,-6.519697564362512e-07,-1.3400731460330723e-07,-1.2920559864486334e-06,5.004997511047643e-07,1.0963258208037625e-06,1.4961909159381046e-07
2.6595479786386403e-07,9.046600418366123e-07,7.687648451756848e-07,8.199977977364174e-07,-1.1086757780842509e-06,-1.37432967691637e-06,-2.2282552270507557e-06,-1.4102789845124082e-06,1.0860020219314405e-08,-1.0264522550389332e-07,2.5562698167241025e-07,2.7697328545027014e-07,-7.907921133213116e-07,-1.5495922345852789e-07,-1.3997776990078173e-06,7.894951165634773e-07,1.060072197463018e-06,9.753310404455852e-08
2.6295364502617993e-07,8.800136941610561e-07,7.784893110855481e-07,7.891102097289185e-07,-1.0575803637952304e-06,-1.2506934151032998e-06,-2.0496347385516313e-06,-1.5170833995662604e-06,-5.957692511348153e-09,-1.5750313991143528e-07,3.766157664979412e-07,3.5519315896629144e-07,-8.159103112196694e-07,-1.864761803741639e-07,-1.582590641634734e-06,1.0598314276319448e-06,1.1199190125975212e-06,-1.959452893733941e-08
2.8729810277985543e-07,8.613029304074653e-07,7.842175359948148e-07,7.539686015317927e-07,-1.1990582704072658e-06,-1.1079275111736362e-06,-1.912211478955005e-06,-1.6165021748739493e-06,1.8824840015044616e-09,-1.258817911646074e-07,4.7536517549304557e-07,4.6454264925649696e-07,-7.567078022964154e-07,-2.1936563896775e-07,-1.8999963474858617e-06,1.2445842384442132e-06,1.2027984791550086e-06,-1.9473299296048523e-07
3.423267794941273e-07,8.520474394112053e-07,7.692956285699113e-07,7.224643540028362e-07,-1.4095856030764538e-06,-9.774892829198181e-07,-1.82592025326814e-06,-1.6979347167382566e-06,7.311146403109105e-08,-2.4866725181909287e-08,5.245206344931294e-07,7.04900856841703e-07,-7.026744651694941e-07,-2.452677201735668e-07,-2.230020316107944e-06,1.2520009092624066e-06,1.3394298118554178e-06,-4.1372960020944474e-07
4.269473191864405e-07,8.532955922819926e-07,7.406699986838801e-07,7.018348261725653e-07,-1.5758869025094685e-06,-8.072334919984305e-07,-1.7185552700800189e-06,-1.8047866658722763e-06,8.656847652711659e-08,8.695484807595459e-08,5.763342061302748e-07,1.0225490746391807e-06,-6.170041600160909e-07,-2.5954730009983624e-07,-2.5550719405763693e-06,1.2923140596359195e-06,1.4223440255384752e-06,-6.613339078082109e-07
5.344184438235414e-07,8.633486083561635e-07,7.200652513803325e-07,6.960969737092716e-07,-1.7093520163745576e-06,-6.647838536039349e-07,-1.649034555621616e-06,-1.992782532477353e-06,-9.997252354641678e-09,2.0097810372085663e-07,5.78616846935261e-07,1.2373607464432004e-06,-5.160384157892784e-07,-2.6215911282878343e-07,-2.7451192299121448e-06,1.3341995357943703e-06,1.4787849926658053e-06,-8.892625386280333e-07
6.541484083508348e-07,8.786317797954689e-07,6.992008164029975e-07,7.051904281798316e-07,-1.7603810862992317e-06,-5.440079138907285e-07,-1.5238430446853784e-06,-2.1603935915838203e-06,-1.096684592988919e-07,4.1823756651530126e-07,5.943337226716668e-07,1.4209388450441325e-06,-4.034810830791898e-07,-2.564460218109205e-07,-2.7042077213718863e-06,1.3774476708700043e-06,1.5911018974958864e-06,-1.1037135725334296e-06
7.75161094636409e-07,8.951780056461088e-07,6.934148874444067e-07,7.259436034679972e-07,-1.7412623732578266e-06,-4.366724306373036e-07,-1.3121401480295475e-06,-2.3041698151777988e-06,-1.675618719486883e-07,6.075713751472491e-07,5.444514380070236e-07,1.5238438222727159e-06,-2.3204104989110047e-07,-2.4678627673158563e-07,-2.6490830542168954e-06,1.311179643725244e-06,1.7752911731617245e-06,-1.2978525085748433e-06
8.891484509235985e-07,9.10051357965737e-07,6.943241563610412e-07,7.54045307959877e-07,-1.7079496168049763e-06,-2.78921725031784e-07,-1.195400465502318e-06,-2.4099136843584534e-06,-2.1867108014332204e-07,6.860747624765112e-07,4.637685977265958e-07,1.6518485632048952e-06,-8.537242892920238e-08,-2.362566071349388e-07,-2.679671880809722e-06,1.1253420886672615e-06,2.0005420092469948e-06,-1.4542228214480735e-06
9.916229748596087e-07,9.221491875327578e-07,6.788079468458539e-07,7.857956397804326e-07,-1.687221851963017e-06,-9.826618731991958e-08,-1.0836058219373575e-06,-2.5110525613832068e-06,-2.5593497408574227e-07,7.654358347194829e-07,3.9628488400544243e-07,1.8274621989435076e-06,5.6885400343509134e-08,-2.2536034963074112e-07,-2.7949583121840407e-06,8.670489613362225e-07,2.2475234647272266e-06,-1.5151148780501595e-06
1.0812527557156179e-06,9.322052121774551e-07,6.517410440166647e-07,8.190648559223163e-07,-1.6625725280057563e-06,6.404473299412313e-08,-9.646565005778806e-07,-2.5545544053852244e-06,-2.63448054899235e-07,8.213173488540426e-07,3.554766189769585e-07,1.938663181601634e-06,2.0541222028547625e-07,-2.120990483295262e-07,-2.8979621672023974e-06,6.725082305751789e-07,2.4844393745433574e-06,-1.4873405604352518e-06
1.158621702299072e-06,9.422319377282125e-07,6.357485668086365e-07,8.535709049494696e-07,-1.6183179472617817e-06,1.9352167154512026e-07,-9.271904750390398e-07,-2.6949189789261067e-06,-2.8432743645938204e-07,8.225408747042862e-07,3.462040147171869e-07,2.0618730959299647e-06,3.2868007904384933e-07,-1.9300614588534356e-07,-2.98645351295622e-06,5.202369362755467e-07,2.648839611472596e-06,-1.3694204796722437e-06
1.2252287764227475e-06,9.546494809982896e-07,6.332760534480529e-07,8.904668911886921e-07,-1.5654991735791649e-06,2.9402471885896425e-07,-8.643688328212724e-07,-2.8511399613712106e-06,-3.329494568568079e-07,7.417382519751466e-07,3.6330967505303075e-07,2.077268598450707e-06,2.7233238398353603e-07,-1.6463540840689566e-07,-2.984952856645556e-06,4.6586030918071096e-07,2.8152363451701687e-06,-1.2117241368260071e-06
1.2829199227439894e-06,9.713512268665503e-07,6.585395591977689e-07,9.314585876657433e-07,-1.4717205248302995e-06,3.740631212866721e-07,-7.958879890203155e-07,-2.936985113511949e-06,-4.214850752046189e-07,6.582172519584257e-07,3.893214885918453e-07,2.083153230835851e-06,1.9849507008464495e-07,-1.248638794491799e-07,-2.931113516467243e-06,4.500396661234515e-07,2.9926032934511055e-06,-1.3052110081593997e-06
1.3336840039627937e-06,9.930494977931275e-07,6.993204610184022e-07,9.779293466182721e-07,-1.3576942861749762e-06,4.2721849081888574e-07,-7.332273060662897e-07,-3.0071367684732576e-06,-4.57655520857163e-07,6.198002239336592e-07,4.23746620326285e-07,2.100518191341871e-06,1.969053801919326e-07,-7.356169090444248e-08,-2.870172824494096e-06,4.4545016311416836e-07,3.157481682961197e-06,-1.339857142290726e-06
1.3792912077840315e-06,1.0190533481590502e-06,7.180853519904248e-07,1.0301582547611852e-06,-1.228957294104251e-06,4.791507514685998e-07,-6.727245077162086e-07,-3.086945849090254e-06,-4.6624753510665345e-07,6.301128247835126e-07,4.605333812988178e-07,2.1127494432966813e-06,2.098057488519185e-07,-1.2692914155759432e-08,-2.7643642166984608e-06,4.289589767024696e-07,3.315054988044214e-06,-1.317495226671121e-06
1.4205862881200009e-06,1.0474647052268753e-06,7.501763371066127e-07,1.0867488678373933e-06,-1.0909937998903217e-06,5.410395203320627e-07,-6.036444659536252e-07,-3.091033105899896e-06,-4.6358707765667375e-07,6.791972065453524e-07,4.931622125496902e-07,2.1678388430293203e-06,2.839928176420197e-07,5.395711198590828e-08,-2.643629900116216e-06,3.62865357776542e-07,3.395614119839111e-06,-1.3083739499972334e-06
