0,1,2,3,4,5,6,7,8,9,10,11,12,13,14,15,16,17
-1.180885695954939e-05,-4.901319266436927e-07,-5.1596772990384197e-08,2.1947264910778247e-08,-2.2217430275268017e-07,3.742897168822906e-07,-4.731442935926171e-08,-2.233170037049582e-07,-4.219522989438701e-08,-1.6659432478015088e-07,4.141208502911244e-07,-1.5587145184519904e-07,-2.7184810947242697e-07,-2.8388368760839275e-07,-2.531919600462141e-07,-3.998434448255056e-07,-1.0459288555001856e-07,-9.945433636148117e-08
-9.58307717171905e-06,4.0136874325783375e-07,-7.732851906818368e-08,-2.918561678137751e-08,-1.6327649714505457e-07,3.124541948260257e-07,-2.969466918892344e-08,-2.097513548092068e-07,-4.8915136206611164e-08,-1.625076533767819e-07,1.011880238723019e-07,-1.3740270202083953e-07,-2.424180873230055e-07,-2.40299436676142e-07,-2.315678082425554e-07,-3.5426222375369544e-07,-1.0162232511320711e-07,-1.0026516485345321e-07
-5.7246133803444324e-06,1.646959094155929e-06,-8.10485555668256e-08,-8.686186992438418e-08,-1.2143751052946116e-07,2.3066545741799226e-07,-1.8600863929561672e-08,-1.9780955161607645e-07,-5.404490617615965e-08,-1.563024289782627e-07,-1.66333872492429e-07,-1.1753482746791321e-07,-2.0839504340254426e-07,-1.9480399333120264e-07,-2.0715796186467667e-07,-3.0227784780324987e-07,-9.493402325816071e-08,-9.954075090006015e-08
-1.1386781852823777e-06,2.895457721697016e-06,-6.641782826519035e-08,-1.3616861705253065e-07,-9.725899866196507e-08,1.3604293985265562e-07,-1.6515421607254124e-08,-1.8424646397181737e-07,-5.714974406940363e-08,-1.4604074802173038e-07,-3.620753434415677e-07,-1.0443095387036487e-07,-1.6505376976187329e-07,-1.5099670366175293e-07,-1.8140426563625794e-07,-2.449214860476097e-07,-8.160822369930676e-08,-9.489951742953399e-08
3.2129807179477086e-06,3.7457703950098502e-06,-3.428441649915807e-08,-1.66046363730269e-07,-8.355311031004125e-08,4.086328017549559e-08,-2.402571519967987e-08,-1.6343326667674297e-07,-5.5460115292981274e-08,-1.2786692125042936e-07,-4.556173187911894e-07,-9.055173391546007e-08,-1.123003795901311e-07,-1.0799976471538603e-07,-1.51205766940093e-07,-1.82323768629638e-07,-5.927056978486187e-08,-8.40855337928888e-08
6.637843299338621e-06,3.873416876163208e-06,1.2922670786173058e-08,-1.6949302630896314e-07,-7.053791010253576e-08,-3.810227250506276e-08,-3.755311836445334e-08,-1.3148011753512927e-07,-4.7527897853165304e-08,-9.836472877623967e-08,-4.5746975181483037e-07,-7.517868375388169e-08,-5.346561294444923e-08,-6.676220769464093e-08,-1.1448425294099465e-07,-1.166153555821797e-07,-3.3414233605279086e-08,-6.661210064815721e-08
8.78269950263939e-06,3.1376634952495366e-06,6.72015167630195e-08,-1.461387476709668e-07,-5.176183095758049e-08,-9.523165705669945e-08,-5.070685510313704e-08,-8.962889817721461e-08,-3.43341504912675e-08,-6.39817128129532e-08,-4.180669521891061e-07,-6.027192882464224e-08,3.213672187779865e-09,-2.6663160975075136e-08,-7.2635320491603e-08,-5.492672969540841e-08,-7.860080881638364e-09,-4.5180898644483136e-08
9.538371036971966e-06,1.6287051665046136e-06,1.1464993570714333e-07,-1.0345205474603737e-07,-2.6498949864554755e-08,-1.3030513458649878e-07,-5.978337978475294e-08,-4.359764740934967e-08,-1.872501000654779e-08,-2.803591391194598e-08,-2.8563333925362177e-07,-3.8508501775120096e-08,4.629884955572343e-08,9.665586910587453e-09,-2.6893346303812413e-08,-1.1456043233563317e-09,1.2288228711953047e-08,-2.4741298457978848e-08
8.95744977572412e-06,-3.4168681731225783e-07,1.4051180190014247e-07,-5.295057959652649e-08,2.1773698945280123e-09,-1.4681203726211345e-07,-6.34458442209034e-08,9.775052503035314e-10,-4.208066594311491e-09,5.414256371837432e-09,-1.0960956417354513e-07,-1.6231819458506175e-08,7.302515789664279e-08,3.939527426516356e-08,1.8631777089459004e-08,4.155044515339356e-08,2.2934977180281337e-08,-8.704640000257513e-09
7.2222705799025445e-06,-2.308618502971203e-06,1.3652850631502026e-07,-3.1918758522492834e-09,3.1186231820694395e-08,-1.4901247701183688e-07,-5.3511723055335244e-08,4.273557416926218e-08,8.454923045399554e-09,3.485247464110542e-08,2.8740811447602234e-08,9.010400703104839e-09,8.765782408304938e-08,5.924913400907404e-08,6.245632146651508e-08,8.647016685982804e-08,2.720869718874274e-08,6.393853163424148e-09
4.628289767659433e-06,-3.7846884507345074e-06,1.0308547824206882e-07,4.1309582567433734e-08,5.981044025397966e-08,-1.3864850977200693e-07,-2.806809260055152e-08,8.466200718138802e-08,2.1112981366232134e-08,6.515560806163736e-08,7.770091262844089e-08,4.171648576130412e-08,9.626598769315427e-08,7.494805249503114e-08,1.0571607574746285e-07,1.3313874544362227e-07,3.052406828138601e-08,2.4413650711195118e-08
1.5449029617442382e-06,-4.410864749610608e-06,4.923356370678878e-08,8.295188250890092e-08,8.906855971337639e-08,-1.1835090187304288e-07,6.072731544390306e-09,1.302953819443883e-07,3.6195427440051193e-08,9.892881687137037e-08,1.0445511096622977e-07,7.860665712118369e-08,1.0618429969783269e-07,1.0237295780865332e-07,1.4902963325305818e-07,1.8578698131671846e-07,3.800896525833527e-08,4.809404536191247e-08
-1.65715882371051e-06,-4.049248738699322e-06,-1.1906069922733036e-08,1.2541126398560564e-07,1.1935840812327058e-07,-9.158833750927522e-08,5.2120610128200033e-08,1.7953828920878903e-07,5.370465924131701e-08,1.3616068047906124e-07,1.3805284243343696e-07,1.1682925126462726e-07,1.1999334437857567e-07,1.4680953704315775e-07,1.8815002931256318e-07,2.4592330941666965e-07,5.145840181142213e-08,7.964692238707977e-08
-4.656441225532958e-06,-2.7699270767303375e-06,-6.731209615251706e-08,1.6799183048433734e-07,1.4934763847320433e-07,-7.008562470315119e-08,1.0506556140936379e-07,2.2807136065622693e-07,7.111309244238816e-08,1.7334311494170318e-07,2.0567467609999884e-07,1.5527656052144676e-07,1.4141556339408828e-07,1.9473867716987063e-07,2.2204494538401894e-07,2.9110552603103443e-07,7.023868422962207e-08,1.160535932430138e-07
-7.150385590500411e-06,-7.834677961133019e-07,-1.0753104653177662e-07,2.080475612055273e-07,1.779875252066933e-07,-5.851647788106112e-08,1.332291201369822e-07,2.708308564889016e-07,8.381780342677442e-08,2.052898059391384e-07,4.924712495515223e-07,1.8779286508998836e-07,1.7135845451964298e-07,2.2154597847258032e-07,2.432762231272475e-07,3.296234368185611e-07,9.770992966900097e-08,1.5397204121617015e-07
-8.805596305288907e-06,1.6092925667772393e-06,-1.2670816842358773e-07,2.4582936600072204e-07,2.0756293683812687e-07,-5.7662158993717925e-08,1.3273208919487968e-07,3.0615332900123416e-07,8.816136962267267e-08,2.305496746026408e-07,6.924016648656328e-07,2.0675038247027203e-07,2.080678490879411e-07,2.226837564884731e-07,2.49235677085882e-07,3.4271784962081487e-07,1.329303895617296e-07,1.9491013500549783e-07
-9.337380124822771e-06,4.057169836004332e-06,-1.1953592998973248e-07,2.8664165293678126e-07,2.4332390563341353e-07,-6.897374586111238e-08,8.524381970629109e-08,3.367004050054103e-07,8.3172529000346e-08,2.5198523196731785e-07,8.37957057224222e-07,2.0925284077850354e-07,2.4182471079299745e-07,1.9130436034959603e-07,2.3754365699611432e-07,3.2366913481885525e-07,1.7698275275085735e-07,2.3464550622086549e-07
-8.734864011018066e-06,6.250056376286036e-06,-7.901311230068468e-08,3.3855524789722473e-07,2.8919989126765595e-07,-7.445739656835818e-08,-2.839658671080773e-08,3.6651304993401356e-07,7.003054738694702e-08,2.7245213012321834e-07,1.0685634811759612e-06,1.9804290875226069e-07,2.587792689600345e-07,1.3658273694536997e-07,1.8374252948517266e-07,2.8513024381128757e-07,2.3028894244015342e-07,2.8339432811108475e-07
-7.410080660216313e-06,7.935289647317437e-06,1.2603853254047992e-09,4.0848049583872155e-07,3.450060197608889e-07,-8.426811013049424e-08,-1.143731392200151e-07,3.9705768918571707e-07,5.084592066550143e-08,2.894324213555224e-07,1.246606858716632e-06,1.6908224587002446e-07,2.5857122024026126e-07,1.4173726231815682e-07,1.1280065615145161e-07,1.9960016064696378e-07,2.8548483569241047e-07,3.4504952432244665e-07
-6.050365313784473e-06,8.982733022116135e-06,1.2242803371213395e-07,4.980670060877104e-07,4.0234978385340434e-07,-1.0824930357894479e-07,-1.6091483826064035e-07,4.2599561944267013e-07,2.786543724431825e-08,2.86562778664482e-07,1.5557662062089715e-06,1.2399349883080202e-07,2.3412324771779272e-07,1.675843628046743e-07,5.695179382593567e-08,9.737795839003723e-08,3.3266370546670156e-07,4.0456647432868007e-07
-5.251908499271426e-06,9.340132980454551e-06,2.797377435645692e-07,6.083489559114628e-07,4.508363663388835e-07,-1.6094208812350568e-07,-2.7185601637487836e-07,4.498830962899642e-07,1.104063454414222e-09,2.567240969839862e-07,1.7162571304458296e-06,8.7966877922262e-08,2.0412930106730997e-07,1.2870569367229094e-07,1.2381526110162126e-09,-2.155946686856533e-08,3.6339597577265043e-07,4.5640685205524683e-07
-5.237874490901643e-06,9.0207269463281e-06,4.642807455857542e-07,7.307861439507764e-07,4.82945074342545e-07,-2.1799488937227972e-07,-4.184604924880099e-07,4.6924026666855236e-07,-2.719644805986253e-08,1.9921556323493057e-07,1.452634555236724e-06,6.524449481902037e-08,1.8020232342287013e-07,7.167613247419865e-08,-7.975200378563637e-08,-1.1977430706773815e-07,3.764742597145926e-07,4.950123858142621e-07
-5.844050416164251e-06,8.160945901807744e-06,6.661661171984019e-07,8.546915800410705e-07,4.991732361502652e-07,-2.0059750526407564e-07,-5.140988762372285e-07,4.886350181452397e-07,-5.329998993167996e-08,1.4193322794817388e-07,1.2299062620023235e-06,1.0647982842068603e-07,2.3349683954101756e-07,6.66137182011919e-08,-6.756307623400078e-08,-1.0527607308468868e-07,3.7789497739296167e-07,5.198534585362565e-07
-6.698106734701108e-06,7.0094078838302965e-06,8.743143334126104e-07,9.67227972753166e-07,5.0521204859778e-07,-1.06609308845783e-07,-5.767898836965931e-07,5.153917829166611e-07,-7.413755383687132e-08,9.670846444478416e-08,9.58211309035871e-07,1.9417155960032652e-07,3.352392381433902e-07,1.1125317110460699e-07,-3.355922805700415e-09,6.783535228717448e-09,3.7977048896300546e-07,5.384990684446537e-07
-7.437217075146728e-06,5.871765876442169e-06,1.072220571822237e-06,1.0616281601567123e-06,5.064011455959083e-07,7.181939945389452e-08,-6.280279529405082e-07,5.546539108394743e-07,-8.750995897501944e-08,1.1412332734039143e-07,7.744671466167035e-07,2.7125967939238013e-07,4.050258385721781e-07,1.758719946613264e-07,5.729055837931138e-08,1.7260632141611616e-07,3.867431136649406e-07,5.618564149330606e-07
-7.891025378583728e-06,5.009799210501624e-06,1.2364480229884568e-06,1.1349460109404109e-06,5.047941902566859e-07,1.9382420545785072e-07,-6.500737031699014e-07,6.066395754869443e-07,-9.525832310422134e-08,1.2381488702439284e-07,9.044872246169666e-07,3.2277866946177205e-07,4.0816152887833215e-07,2.4855783816698036e-07,1.0323547196051236e-07,2.4712757991265896e-07,4.0135270923941647e-07,5.71398580880586e-07
-8.183420256412613e-06,4.572565007564263e-06,1.3365447972102745e-06,1.1862973274126786e-06,4.980557629760171e-07,2.534043438078591e-07,-6.277774610306846e-07,6.66540620766947e-07,-1.0035669868393439e-07,1.0546232010160382e-07,9.698731201868183e-07,3.419490556096171e-07,4.3787915891076325e-07,3.113760737366782e-07,1.4970897532503552e-07,2.9726629873669815e-07,4.2448518708164886e-07,5.592449140742321e-07
-8.661497444743226e-06,4.55036643461622e-06,1.3641709531567367e-06,1.2105614547935602e-06,4.860231044776125e-07,3.559965749432903e-07,-6.000941687667355e-07,7.28623366527005e-07,-1.0610933615996145e-07,1.1057934924558502e-07,8.745471132881425e-07,3.677625073850827e-07,5.087493271445986e-07,3.695836391856423e-07,1.8320543986381916e-07,3.843621399745856e-07,4.5292741599788196e-07,5.439172631467799e-07
-9.638447173617206e-06,4.807678891090773e-06,1.3297581688972273e-06,1.216249982741422e-06,4.747248562979183e-07,4.326889644687708e-07,-5.886480635534938e-07,7.882277460702385e-07,-1.1278060605166028e-07,1.4044129593871361e-07,6.47555133975489e-07,4.178910165404538e-07,5.944960461500031e-07,4.347427880331796e-07,2.34424057533519e-07,4.296703673909158e-07,4.869813410538456e-07,4.947467166903726e-07
-1.1152320573356378e-05,5.156869028065839e-06,1.2575509863969793e-06,1.2157783709136347e-06,4.756126008451159e-07,6.54217072452195e-07,-6.165400876024193e-07,8.345302714007152e-07,-1.1734216629576515e-07,1.9062288142910214e-07,4.865169116911786e-07,4.4788414353164886e-07,6.446704802323474e-07,5.025238272668195e-07,3.02093775651069e-07,5.312115422912962e-07,5.283791437222765e-07,4.5497884636343506e-07
-1.2898606493555783e-05,5.455229332590362e-06,1.1763013604789306e-06,1.2253388348431408e-06,5.013071254392684e-07,9.13306779806216e-07,-6.162432387264378e-07,8.687620381591914e-07,-1.143187441532086e-07,2.2693389550802201e-07,3.5727005658542583e-07,4.80952639330858e-07,6.635875891669936e-07,5.616530614571401e-07,3.505538451771847e-07,6.928361477461434e-07,5.723044826452994e-07,4.220754700932556e-07
-1.4303958743556369e-05,5.576785055371306e-06,1.0999940095829675e-06,1.2517849165265563e-06,5.515518446794608e-07,1.134273804215315e-06,-5.526520647460861e-07,8.807053927577548e-07,-9.730488747484598e-08,2.691349417192809e-07,1.1881930317404204e-07,5.309021479653296e-07,6.500156410740884e-07,6.093567622451302e-07,4.1345403539041883e-07,7.572505972793661e-07,6.197837367935738e-07,3.778640331389224e-07
-1.4699820760457438e-05,5.500485945299488e-06,1.033011674307339e-06,1.3031883290227814e-06,6.185147959047911e-07,1.3322367892242033e-06,-4.5815197535389616e-07,8.627080518232899e-07,-6.41965320368368e-08,3.0994194067432926e-07,-2.475995496683517e-07,5.744308594651327e-07,6.621438211909097e-07,6.44345095312127e-07,4.842198209008967e-07,7.903835407468457e-07,6.736847448842048e-07,3.5281830707556344e-07
-1.3603843059267872e-05,5.306567122351836e-06,9.610094688542306e-07,1.3726694149016183e-06,6.899241453629818e-07,1.4557355316107695e-06,-3.662991965496162e-07,8.808908296932041e-07,-1.7593222767437184e-08,3.3673171408313146e-07,-7.188263373014327e-07,6.620587827053932e-07,6.513534805187775e-07,6.988043385449291e-07,5.467087427397242e-07,7.951371140286843e-07,7.384045976782596e-07,3.2581613888300856e-07
-1.1003536146515388e-05,5.515299839670678e-06,8.704348734512719e-07,1.4544855260618031e-06,7.418396604445299e-07,1.4958906959841805e-06,-2.9114064408349427e-07,8.891767003234968e-07,2.9927572455303063e-08,3.4891771561298954e-07,-1.0517821707460672e-06,7.431079608740747e-07,6.330762991382895e-07,7.637709209727197e-07,5.996068865391364e-07,8.356232121200589e-07,7.960115952849052e-07,2.9388259687450257e-07
-7.419994738895872e-06,6.370701685376427e-06,7.602422056451141e-07,1.5462127734517114e-06,7.820733831730783e-07,1.5207829579211604e-06,-2.51839499485876e-07,8.804244220495279e-07,5.379724284955125e-08,3.4820528479502016e-07,-9.169238460743881e-07,7.81476368779656e-07,7.181672457339819e-07,8.428683494383042e-07,6.609537166518434e-07,9.422718892354051e-07,8.314888227466731e-07,2.3291263388735935e-07
-3.672049418797822e-06,7.782564805853255e-06,6.420368100915726e-07,1.6217609557158445e-06,8.253185293829147e-07,1.618565716974888e-06,-2.2005084751669319e-07,8.579076315679277e-07,4.853687847925176e-08,3.2041518490464353e-07,-8.422503236092834e-07,7.393980044040622e-07,8.014110099293114e-07,9.057777868237266e-07,6.735875273544439e-07,1.042492482781114e-06,8.276248705283469e-07,1.7506215354226695e-07
-5.301675615169747e-07,9.527241420702103e-06,5.39144546543229e-07,1.6704455629481467e-06,8.850461391292906e-07,1.6819835742315243e-06,-1.9318670782396196e-07,8.392787540904691e-07,4.899700051054752e-08,2.165035920084957e-07,-8.493725176772926e-07,7.01904654018798e-07,7.75930419662397e-07,9.105142125193821e-07,5.972773565723719e-07,1.0686182626361368e-06,8.058949124716066e-07,1.3408301358047625e-07
1.4745386636134469e-06,1.0761491279018035e-05,4.7498650599189694e-07,1.6315340906920481e-06,9.276926606942965e-07,1.636113408645234e-06,-1.8788223631640818e-07,8.293643035804872e-07,4.720491172822321e-08,1.5861474296934722e-07,-8.966839080297015e-07,6.840321394873687e-07,7.312707653408678e-07,8.894770333357231e-07,5.494890942470832e-07,1.11660899927848e-06,7.931867354311855e-07,9.4709648380983e-08
2.0546113040525865e-06,1.1179864715101414e-05,4.605076325390212e-07,1.6024088072105791e-06,9.461201337970093e-07,1.549337997255597e-06,-2.3669417557054354e-07,8.258516343012189e-07,5.4796658105163734e-08,1.1315848929978043e-07,-1.050150947063908e-06,6.784517278421067e-07,7.219947552450226e-07,8.77851781609747e-07,5.484777478474747e-07,1.0945635619426133e-06,7.878043334228115e-07,7.065624652864312e-08
1.1787965591875877e-06,1.093953776789518e-05,4.922778172588936e-07,1.595230213511952e-06,8.784764727906569e-07,1.4150404537746935e-06,-3.2170087807724965e-07,8.321159638936192e-07,6.483208323424804e-08,6.182589015550803e-08,-1.1389444889179345e-06,7.00597226916044e-07,7.354102583926951e-07,8.67040161166194e-07,5.970448991127232e-07,1.0891523511908526e-06,8.188172751970808e-07,3.934108564754525e-08
-8.024329248744028e-07,1.003182176437406e-05,5.503304069806373e-07,1.5753642213290616e-06,7.604951985839461e-07,1.2762902303055543e-06,-4.018875600048195e-07,8.404728259593016e-07,8.2755023472645e-08,2.9189035375979402e-08,-8.447454583112483e-07,7.238726332724248e-07,7.932146942058814e-07,8.882196910247859e-07,6.361520624090605e-07,1.1695625843702686e-06,8.655110313811097e-07,3.698450525286002e-08
-3.0712031714162867e-06,8.724812163656179e-06,6.190809236322559e-07,1.550342590547353e-06,7.293919933484778e-07,1.2090872022875469e-06,-4.584125195206649e-07,8.406547393376031e-07,1.1557779857929297e-07,1.5551464999239706e-08,-6.320815346277899e-07,7.108365731851283e-07,7.838031192359352e-07,9.316761258547005e-07,6.509132189505606e-07,1.1946730471992903e-06,9.025051722543589e-07,1.9723760530778957e-08
-4.529170834374596e-06,7.015570872761069e-06,6.605855287894868e-07,1.4806773235719182e-06,7.782557186708319e-07,1.2234978846122479e-06,-4.06695858148385e-07,8.293996559035169e-07,1.7210947923000945e-07,-1.1206275146869047e-08,-4.599823527377936e-07,6.717621725428606e-07,7.763697704187697e-07,9.272951107071207e-07,6.009708430936025e-07,1.2436348040004935e-06,9.100818505721965e-07,2.521604014340611e-08
-4.280740812764333e-06,4.869831636538977e-06,6.438839816695701e-07,1.3965265233425815e-06,8.086370840023605e-07,1.321230719486801e-06,-3.0468439498804864e-07,8.080112752719582e-07,2.1771066919158943e-07,-5.300644221565208e-08,-1.9132545455980003e-07,6.359451239842454e-07,7.272678053167231e-07,9.173060084126974e-07,5.579393060374189e-07,1.2330936129011181e-06,9.273667127557134e-07,3.392341922667612e-08
-2.136463822400906e-06,3.3530128452583207e-06,5.622414913513137e-07,1.3340490121541708e-06,7.89527078690692e-07,1.3788991350900235e-06,-2.460206771368261e-07,7.867213632546363e-07,2.637382138219033e-07,-1.0542680697174343e-07,-4.2510686973306106e-08,5.866323089652113e-07,6.871251002755151e-07,8.998280809666895e-07,5.289588797653764e-07,1.208892027405361e-06,9.41718183024986e-07,3.7547331933144244e-08
1.2129867115333418e-06,3.0719849205482e-06,4.261340775438596e-07,1.2963145329407834e-06,6.956175752759863e-07,1.444773229423555e-06,-2.0668178525660245e-07,7.7697241558818e-07,3.0586155967412986e-07,-1.757715040069812e-07,-9.100694965548276e-08,5.563236277671883e-07,6.78964596949764e-07,8.879901683310206e-07,5.195475329824535e-07,1.1281178523207494e-06,9.470424196317021e-07,6.048483587334474e-08
4.512856085699442e-06,2.2124510640298396e-06,2.717204391905335e-07,1.259221647229473e-06,6.412196162294467e-07,1.5965672617706691e-06,-1.4663864471734416e-07,7.844307167430856e-07,3.5095434696368547e-07,-2.3485696919718905e-07,1.6160569679269767e-08,5.193898541167462e-07,6.285178899323303e-07,8.690872201822244e-07,4.920210499438648e-07,1.1612699327784908e-06,9.685599210660922e-07,5.381066471802258e-08
6.603630592268447e-06,6.801770545817383e-07,1.2924447645471526e-07,1.2282973616063708e-06,6.213194630988898e-07,1.7534824574922702e-06,-8.223249200690708e-08,8.072008908822078e-07,4.0397658321457223e-07,-2.81267152198131e-07,3.167806735187803e-07,5.250976363050401e-07,5.798685037651882e-07,8.376146010961233e-07,4.3521022212557137e-07,1.2158348684108552e-06,9.885636088707118e-07,3.126210362119711e-08
7.011015848262432e-06,-1.1976996914914725e-06,4.705000274671526e-08,1.2094758685226843e-06,6.067491054331321e-07,1.909848329257277e-06,-9.259625653629525e-10,8.37674842039292e-07,4.4770017983870463e-07,-3.455856664172981e-07,7.50509370648899e-07,4.966057327430683e-07,5.86687551297205e-07,8.147229003865027e-07,3.4809176088019245e-07,1.194915129761822e-06,9.849579096351546e-07,1.8818788285239513e-09
6.076894706917662e-06,-1.3086548319293519e-06,4.691925457996835e-08,1.2006818705105702e-06,5.086887804554927e-07,2.0171466715595493e-06,1.1529163526274562e-07,8.674003686153933e-07,4.805672801855305e-07,-3.8845742821977764e-07,1.3876043376486422e-06,4.277057390634677e-07,5.656098583246082e-07,7.653715986208676e-07,2.2665724565526565e-07,1.1110559588309634e-06,9.516367700572734e-07,-3.243046044024554e-08
4.6044241229426405e-06,-4.67369405659246e-07,1.1440526120355945e-07,1.1809315321827086e-06,4.1346048063489264e-07,2.1517827489683878e-06,2.1241714698675878e-07,8.903894742138755e-07,5.054385493260099e-07,-4.224912010093607e-07,2.147105241742526e-06,3.4556607865216466e-07,5.427946447573701e-07,7.141714389419055e-07,8.754295062791003e-08,9.667902660805e-07,9.015351436674957e-07,-8.233090602737814e-08
3.327073880260577e-06,4.963255367890397e-07,2.1234996616350094e-07,1.1544884051937652e-06,3.5720089996617906e-07,2.196892468821906e-06,3.246158740406467e-07,9.033266722375207e-07,5.227843552926679e-07,-4.515314056910157e-07,2.717441753760992e-06,2.4767714719917035e-07,5.250198248053376e-07,6.867956563167414e-07,-5.478444149106283e-08,7.848578674552836e-07,8.37337563742813e-07,-1.4076402812901137e-07
2.529462066841183e-06,1.4414987287872004e-06,2.8862023560981725e-07,1.1219511855218007e-06,3.683583990674918e-07,2.217070483529168e-06,3.5970784723307393e-07,9.042803676399273e-07,5.491800587394215e-07,-4.5988748186379164e-07,2.7877765652742365e-06,2.0791024090846524e-07,4.7020715607841914e-07,7.047939388494691e-07,-1.8510899974683384e-07,6.028854666302094e-07,7.872445801815458e-07,-1.898850089878215e-07
1.9814096234287953e-06,2.209262395643447e-06,3.091983485218631e-07,1.0758778552648062e-06,4.043829767614578e-07,2.227192282606558e-06,3.467917061490869e-07,8.926247290094194e-07,5.677693140482741e-07,-4.7387295642213874e-07,2.8154338209590264e-06,2.0981441757723536e-07,4.324326584473957e-07,7.167604545531335e-07,-3.0078207605776445e-07,4.786190411159965e-07,7.542451238626512e-07,-2.3276134036247654e-07
1.166962942268841e-06,2.167043689239284e-06,2.735726348373941e-07,1.017983654954086e-06,4.407861578415922e-07,2.238863964370128e-06,3.249190465373466e-07,8.704411688226972e-07,5.792880050562288e-07,-5.104584276186258e-07,2.642451621316469e-06,1.7507241595425373e-07,4.213599452963642e-07,6.716717457007413e-07,-3.589153141306925e-07,4.3625848582071677e-07,7.353027917281016e-07,-2.6965391918015915e-07
-3.78965277588008e-07,1.5053788964936687e-06,2.0918586599386186e-07,9.586089696116648e-07,4.701548772901583e-07,2.257463160964188e-06,3.388991525816041e-07,8.426463935935418e-07,5.697805093286915e-07,-5.532208529273684e-07,2.490050024462049e-06,8.438763017856522e-08,4.1746300802188457e-07,6.075059463612175e-07,-3.712770350584783e-07,3.344568493055695e-07,7.227409157238608e-07,-3.0123460303947245e-07
-2.8660536518208004e-06,7.087744062788951e-07,1.4612561575115454e-07,9.049416723778356e-07,4.551928042389767e-07,2.2730454962397022e-06,3.8946507430544747e-07,8.144528702666966e-07,5.415520197203516e-07,-6.103555906608553e-07,2.164868886545853e-06,2.7638242984444432e-09,4.2579501794266333e-07,5.435001492829277e-07,-3.5741899961378877e-07,2.6087888749409473e-07,7.154424889499878e-07,-3.3343996479178615e-07
-6.2375145570004584e-06,9.35050502167239e-09,9.472774652137695e-08,8.587571579907279e-07,4.118966925893187e-07,2.2774035011348895e-06,4.514835536475751e-07,7.884745030377676e-07,5.141855944524458e-07,-6.70361757092023e-07,1.6912101130989353e-06,-3.130090397078027e-08,4.3002363912972807e-07,4.873689308152632e-07,-3.3855918287307056e-07,2.5751609828941276e-07,7.094886320103434e-07,-3.619167544919402e-07
-1.0217045811515736e-05,-1.387920283569301e-07,6.145188783471185e-08,8.110944170110626e-07,3.6011423201533734e-07,2.267025594741448e-06,5.105483246874792e-07,7.642244917868238e-07,4.912419553784963e-07,-7.112513431764498e-07,1.4781326152920808e-06,-2.884158096213824e-08,4.3156475553060206e-07,4.7444703856648655e-07,-3.300846346941936e-07,3.0381295418251743e-07,7.003688194546695e-07,-3.823158082137745e-07
-1.4342947010247323e-05,4.4904324158116657e-07,3.846566088166538e-08,7.669831171892639e-07,3.0770184060257123e-07,2.244097644684338e-06,5.560119535836788e-07,7.409628565104331e-07,4.831966021849035e-07,-7.38993919850374e-07,1.2964116783867351e-06,-2.709142936501766e-08,4.4067887287300804e-07,4.861911353283225e-07,-3.3049519098836455e-07,3.259892635083456e-07,6.892762697371895e-07,-3.975273550305467e-07
-1.803981606787204e-05,1.6804840362766202e-06,1.3059803921754077e-08,7.327275437978282e-07,2.649522121667483e-07,2.2172797679294924e-06,5.839893278139904e-07,7.206446319792985e-07,4.7511997363261025e-07,-7.613291814780354e-07,1.2695503459463688e-06,-3.237111828678886e-08,4.602133327041724e-07,5.056259091067988e-07,-3.3904394226735076e-07,3.392959399070954e-07,6.742065643680944e-07,-4.081846612602193e-07
-2.0731523862609306e-05,3.253014008205927e-06,-2.0104336013581042e-08,7.12872972915897e-07,2.3542038160565495e-07,2.1994671793541287e-06,5.962577670071043e-07,7.077447903300831e-07,4.6366174300279477e-07,-7.982695824532245e-07,1.446438374336693e-06,-3.467119051909041e-08,4.848879078974418e-07,5.237690378006403e-07,-3.4865264831198443e-07,3.545370812862799e-07,6.612924566388576e-07,-4.1513541185260947e-07
-2.1959309376911697e-05,4.660371287306601e-06,-6.676682935714717e-08,7.132335999624357e-07,2.2250279001376105e-07,2.2034743410569072e-06,5.999807439062619e-07,7.061452535968929e-07,4.5330553824723165e-07,-8.15937958846786e-07,1.706283235613228e-06,-6.298462125820418e-08,5.012946860981837e-07,5.051932164646036e-07,-3.5201776806606455e-07,3.693585846734004e-07,6.539141237099959e-07,-4.2076883666368117e-07
-2.1527177851260553e-05,5.477377525909284e-06,-1.1785679585442923e-07,7.41888369276198e-07,2.2739488138741212e-07,2.2366849508502067e-06,6.037497593115473e-07,7.16228579335287e-07,4.4341102046735675e-07,-8.156240447262916e-07,2.0922242305206657e-06,-8.733721266931025e-08,5.010787926451791e-07,4.854783414152936e-07,-3.496042315330185e-07,3.819880463925146e-07,6.525871958632725e-07,-4.242533182245044e-07
-1.9653582273062072e-05,5.569524508539876e-06,-1.7864522063419607e-07,7.876513722732445e-07,2.488118258102504e-07,2.2991121348862306e-06,6.12483294254518e-07,7.35187434434281e-07,4.501732980041608e-07,-8.14120201179523e-07,2.421946328139371e-06,-9.869135222451969e-08,4.72574341313596e-07,4.781425033276597e-07,-3.390361284596064e-07,3.9610138836851403e-07,6.634675648413965e-07,-4.3152349265628293e-07
-1.6997748218985704e-05,5.1109111363230976e-06,-2.4384961996792445e-07,8.397568836684211e-07,2.8180729064039277e-07,2.3865543972015403e-06,6.28271508232335e-07,7.6001707022289e-07,4.620399823104715e-07,-7.988605847310227e-07,2.6485777609155716e-06,-9.995751862755615e-08,4.159216095414594e-07,4.783316555645035e-07,-3.138620910268569e-07,4.062022184322117e-07,6.815708666265199e-07,-4.413852181839567e-07
-1.4469936088196605e-05,4.449600781118515e-06,-2.984096841165554e-07,8.990848000585492e-07,3.2145022512546043e-07,2.4936974321008964e-06,6.493530313063016e-07,7.898178614789727e-07,4.741407655919149e-07,-7.772705242209489e-07,2.8314702410903986e-06,-7.369167459500261e-08,3.442493055749319e-07,4.81992717718949e-07,-2.7660248037706177e-07,4.2783404854297957e-07,7.042420437696714e-07,-4.4847972690654333e-07
-1.2884168993841777e-05,3.921885390853379e-06,-3.2365965822951147e-07,9.608110182216595e-07,3.6353989289605833e-07,2.6151131448187226e-06,6.729993205133478e-07,8.248276448530167e-07,4.888187786780634e-07,-7.524612111145273e-07,2.9665546329407295e-06,-4.873163968172158e-08,2.620203203223184e-07,4.948258217555266e-07,-2.320865550329884e-07,4.517489428402514e-07,7.305086434564285e-07,-4.4917050264919375e-07
-1.2608458652028908e-05,3.7255792665061605e-06,-2.9164716176186544e-07,1.0083686927786927e-06,4.0314693411387644e-07,2.7446935657855185e-06,6.953239056784535e-07,8.636088775342351e-07,5.086628382050785e-07,-7.207822019967889e-07,3.1523745956123023e-06,-3.451125122181757e-08,1.7533452684718724e-07,5.11006800826444e-07,-1.8766929557711168e-07,4.6053224709564236e-07,7.535139528010326e-07,-4.3969967162962444e-07
-1.3383302661667135e-05,3.884183784192739e-06,-1.890022446938729e-07,1.0419061320633957e-06,4.350368209142738e-07,2.877080593999174e-06,7.133773932233415e-07,9.019330379242888e-07,5.367551130399189e-07,-6.902070650710503e-07,3.424177997251371e-06,-3.284366609064889e-08,9.055381720991838e-08,5.209724083209664e-07,-1.5210027181149268e-07,4.4854015571792225e-07,7.68598712499685e-07,-4.215680334868936e-07
-1.4439897049799685e-05,4.285083807363393e-06,-4.097839753621439e-08,1.0531410847891722e-06,4.5597979528098363e-07,3.0099480981831916e-06,7.29226866403669e-07,9.349613181800598e-07,5.716980036803075e-07,-6.888335758754259e-07,3.7290903860935066e-06,-5.297866929716235e-08,8.966563014154218e-09,5.22087420513041e-07,-1.3110538751055584e-07,4.1010339324997935e-07,7.732640207801917e-07,-3.9888144180365646e-07
-1.4900657481578207e-05,4.76201914500116e-06,1.244458638465416e-07,1.0328292644877992e-06,4.673460255351409e-07,3.145170233715042e-06,7.500486980699478e-07,9.60657671923229e-07,6.095432918412938e-07,-7.091685715285713e-07,3.9002673115930114e-06,-9.020547173318899e-08,-6.313059945330441e-08,5.100522171958778e-07,-1.1809450016442613e-07,3.601450355102653e-07,7.706500406955122e-07,-3.7604248589397857e-07
-1.4229356437061868e-05,5.171514780504499e-06,2.843841599448025e-07,9.885859641473071e-07,4.7514676506316275e-07,3.2861065738494247e-06,7.869782117114746e-07,9.806725030161522e-07,6.428301243317072e-07,-7.385788300819607e-07,3.772235394489241e-06,-1.315970354105626e-07,-1.1990273800431806e-07,4.923214781852486e-07,-1.0176422004626922e-07,3.1661989644828894e-07,7.63829058129964e-07,-3.547130556209805e-07
-1.2431742077873914e-05,5.4134451463681965e-06,3.858612855861858e-07,9.370619273638404e-07,4.869711167325222e-07,3.432333566019053e-06,8.493873935782873e-07,9.97700685668351e-07,6.716716171273418e-07,-7.737286387159145e-07,3.265519877268281e-06,-1.6204236585165162e-07,-1.5835412943177524e-07,4.79331747370113e-07,-6.907877363617958e-08,2.944837598300813e-07,7.583817050764685e-07,-3.379995924948959e-07
-9.892695429493247e-06,5.398431355524972e-06,3.8514343692646435e-07,8.779227559048185e-07,5.082561700385592e-07,3.5764403763301223e-06,9.400149297262293e-07,1.0116034853281956e-06,6.9533228519879e-07,-8.04224586181227e-07,2.8497567275875847e-06,-1.7288607758920982e-07,-1.7971637079044271e-07,4.816527614694378e-07,-1.6249748936808688e-08,2.9950667627871246e-07,7.566390899145191e-07,-3.314120227835679e-07
-7.033836375477473e-06,5.026720413076712e-06,2.6071814782894093e-07,8.053482944463874e-07,5.401630743105447e-07,3.705337733100322e-06,1.0526646256874337e-06,1.0188215335799871e-06,7.100770656191556e-07,-8.307094162717773e-07,2.6695738481561173e-06,-1.5390206722843566e-07,-1.8393287059032867e-07,4.976055526843999e-07,5.075402493486967e-08,3.342409542356763e-07,7.55618804998322e-07,-3.409030338142814e-07
-4.119409809994867e-06,4.232996241720783e-06,1.4088637942612854e-08,7.42818771927016e-07,5.797373357586956e-07,3.8062779338549296e-06,1.1738023880922553e-06,1.0156543674128168e-06,7.148095857174041e-07,-8.571860635726456e-07,2.6580826980408513e-06,-1.0767769155489582e-07,-1.7138474347232536e-07,5.240789878209921e-07,1.2368583092890308e-07,3.9632536644180945e-07,7.529927593233052e-07,-3.7056167454707025e-07
-1.344794879829113e-06,3.065308788428277e-06,-3.172271398365379e-07,6.798078332294452e-07,6.219567725090202e-07,3.872854998145469e-06,1.2885778960272659e-06,1.0019769150114338e-06,7.095398153863938e-07,-8.794722824901527e-07,2.5600537671738806e-06,-4.3725836729011126e-08,-1.438366250516242e-07,5.588595959954657e-07,1.9326164969124302e-07,4.789137865928403e-07,7.485669941904343e-07,-4.1861870111659575e-07
9.598488093691234e-07,1.7159611407818415e-06,-6.285064791161193e-07,6.151187471667798e-07,6.622000992314778e-07,3.906511581675688e-06,1.3847561796173483e-06,9.818325996572587e-07,6.976820298285785e-07,-8.974756462571668e-07,2.3152259971598436e-06,2.9525654258618096e-08,-1.0325973666820998e-07,5.985534414564515e-07,2.500392745140226e-07,5.752530490859684e-07,7.429861284484512e-07,-4.773967151549544e-07
2.252791768704576e-06,4.6664825087757e-07,-8.625855301645232e-07,5.549780686588866e-07,6.969558274809475e-07,3.912694882222952e-06,1.4577524580047158e-06,9.60095389323498e-07,6.841474561970288e-07,-9.055270720817469e-07,1.947835644184254e-06,1.0092640036753324e-07,-5.333466077991409e-08,6.400452354858073e-07,2.9268282872622025e-07,6.752871440460736e-07,7.363767941594067e-07,-5.382158573349075e-07
1.989076589240038e-06,-4.2243380311360817e-07,-1.0004125346853144e-06,4.998152280460062e-07,7.21995972891092e-07,3.894961473278608e-06,1.5083215651943456e-06,9.385014482030016e-07,6.715621948216803e-07,-9.143376076591494e-07,1.6850834873846246e-06,1.6160012721032977e-07,1.2096154074090059e-09,6.789435253629055e-07,3.211462187209898e-07,7.701629224838594e-07,7.252117100624086e-07,-5.950180662305667e-07
8.722395744487543e-08,-8.155961022974334e-07,-1.025572485065795e-06,4.358869441064217e-07,7.309297809350092e-07,3.85231562460415e-06,1.5400130397581754e-06,9.151849202348431e-07,6.593639874677807e-07,-9.322204827954763e-07,1.396613524554471e-06,2.0737579466907284e-07,4.92891386533832e-08,7.1042253900357e-07,3.355292871100182e-07,8.547686832256507e-07,7.071382718161827e-07,-6.471435692475273e-07
-2.723422811274335e-06,-7.429156011109713e-07,-9.768329985348051e-07,3.644730657804286e-07,7.172939043476247e-07,3.7819314640739057e-06,1.5559589937015572e-06,8.867280174821677e-07,6.453792369633753e-07,-9.592072249594635e-07,1.185403703556154e-06,2.34330019514322e-07,8.062442869604404e-08,7.323774556071244e-07,3.391086904388222e-07,9.200978743031442e-07,6.818073328019447e-07,-6.965853442196016e-07
-5.120106817839193e-06,-3.632564141238206e-07,-9.107092335952586e-07,2.873387432458312e-07,6.788841590577541e-07,3.6842282841312257e-06,1.5604002720022498e-06,8.525258733781162e-07,6.284801391040547e-07,-9.952722617141916e-07,9.695482317646289e-07,2.469110202026478e-07,9.515154693957304e-08,7.459582891574828e-07,3.355556104832816e-07,9.676869723426903e-07,6.523065357137706e-07,-7.443123736688729e-07
-5.8848786303401294e-06,1.338106534157859e-07,-8.790780053697384e-07,1.92680951202071e-07,6.201026948328359e-07,3.5647133899224457e-06,1.5564833489052607e-06,8.160460563960586e-07,6.09156033374143e-07,-1.027009518405194e-06,7.40496464472005e-07,2.5208235875319064e-07,9.418967974858826e-08,7.566096691681796e-07,3.281251535573403e-07,1.000942713330223e-06,6.253218894703412e-07,-7.896038750170317e-07
-4.540111444602045e-06,6.455803803242893e-07,-8.546211576039216e-07,8.450880391458034e-08,5.500249527884485e-07,3.4315625024705717e-06,1.5405157107354642e-06,7.821597785189932e-07,5.891110517070148e-07,-1.0488653059290955e-06,6.33578610497325e-07,2.525766423669011e-07,7.987701471956044e-08,7.674433450149136e-07,3.179893673537834e-07,1.0187488224014345e-06,6.052261869142042e-07,-8.296821039656823e-07
-1.5328795733471697e-06,1.2298472383126383e-06,-8.454612228786276e-07,1.3950855905671206e-08,4.778293319845617e-07,3.292885720371618e-06,1.5092030221193669e-06,7.540930097066506e-07,5.699414649210085e-07,-1.0582222523354159e-06,8.111306366965058e-07,2.4653781292903054e-07,6.991427747018944e-08,7.754493370625679e-07,3.035988818276696e-07,1.0174391937291994e-06,5.924856979424605e-07,-8.619859252423544e-07
2.0282185813881027e-06,2.0733953006436834e-06,-7.502707502198977e-07,-1.2354850331258537e-08,4.0978928243036787e-07,3.1572198411298225e-06,1.4590664451861531e-06,7.323934724146246e-07,5.530197947150449e-07,-1.0595561836995048e-06,8.728344639835661e-07,2.2678343574496997e-07,5.6779005996983084e-08,7.738317260709762e-07,2.8016906379977506e-07,9.891082688667518e-07,5.839728364199864e-07,-8.84707506322439e-07
4.879614082411832e-06,3.348256911211973e-06,-6.209972420575098e-07,-4.973523796603462e-08,3.5004141559410597e-07,3.0354720134938698e-06,1.3842697820270988e-06,7.170605214905665e-07,5.398902963063632e-07,-1.0510450990074418e-06,8.32698435811123e-07,1.8726188490927957e-07,3.75045071635141e-08,7.561112159193821e-07,2.46031394937412e-07,9.297579777867802e-07,5.765629748505413e-07,-8.964800999885457e-07
6.114936240801068e-06,5.0163726807062475e-06,-6.031386493025415e-07,-9.814692061311899e-08,3.030631527244193e-07,2.941592969396858e-06,1.2835805037941857e-06,7.098368046791626e-07,5.336502934580104e-07,-1.0364306362376856e-06,6.258070949513901e-07,1.2907910491260412e-07,3.2674972455143067e-08,7.217184060898091e-07,2.0271016472022984e-07,8.44625755168598e-07,5.695696507341692e-07,-8.96134940193264e-07
5.4845527069133736e-06,6.712276743887771e-06,-6.875322727744558e-07,-1.943839546524045e-07,2.7432861455029004e-07,2.888706051907086e-06,1.166306559232422e-06,7.140265009680583e-07,5.380738487121406e-07,-1.0179550174166231e-06,3.7176931528854723e-07,6.305040357773182e-08,-6.472996882153679e-08,6.771279075392917e-07,1.591808742774976e-07,7.50100423511964e-07,5.652402589248195e-07,-8.83603440494906e-07
3.3546413160015107e-06,7.844309833856847e-06,-7.119850417422034e-07,-2.894648771168214e-07,2.684483858361592e-07,2.8833394616005373e-06,1.0454594284896558e-06,7.309036309559064e-07,5.556421731122745e-07,-9.925275764619223e-07,7.061729305389485e-07,4.394964873513721e-09,-1.7491256287126216e-07,6.326975405625035e-07,1.2576377105051686e-07,6.650807612017636e-07,5.661732268073744e-07,-8.61499347307752e-07
3.928303795192465e-07,7.896076943664887e-06,-6.990276373651615e-07,-2.9737414254705794e-07,2.862750756807805e-07,2.9223303322103503e-06,9.392485451616264e-07,7.567069790255445e-07,5.849126186741113e-07,-9.634078330312406e-07,1.2308303243198928e-06,-3.2943768374151776e-08,-2.1909792639952865e-07,5.969634175007698e-07,9.533624812209085e-08,6.053290819037302e-07,5.723659748758974e-07,-8.358121647796659e-07
-2.784566211886559e-06,6.722955738194675e-06,-7.039167084886477e-07,-2.340658241927251e-07,3.240873053243068e-07,2.994490843282774e-06,9.109374073291367e-07,7.836421935344822e-07,6.207811481886425e-07,-9.324912368358372e-07,1.1711327857542785e-06,-4.0497520247406044e-08,-2.110724219667585e-07,5.745896417842151e-07,1.0218142587804334e-07,5.800585763834475e-07,5.814867923572891e-07,-8.14498903802353e-07
-5.77937924372138e-06,4.640696299517561e-06,-7.345143377655438e-07,-1.7548020248515858e-07,3.7486940049204225e-07,3.08695616863098e-06,9.78539628235953e-07,8.043374765036614e-07,6.572447552691808e-07,-8.985736889785767e-07,1.2731849509594408e-06,-1.6895743221850782e-08,-1.6853002808676554e-07,5.670551509708637e-07,1.342601705109661e-07,5.909707282694719e-07,5.911960651388661e-07,-8.040791601477376e-07
-8.342639361442423e-06,2.2698019395431647e-06,-7.720745461397918e-07,-1.0956243988725281e-07,4.329392128319694e-07,3.1904411097483777e-06,1.0164749190433394e-06,8.162215794311683e-07,6.899723585562468e-07,-8.625381911930159e-07,1.3787131216163186e-06,3.4477200540028935e-08,-8.983540941156345e-08,5.744471670095787e-07,1.7909302682135394e-07,6.354772449015791e-07,6.002325043119553e-07,-8.074409619641184e-07
-1.0217981897698945e-05,2.496672370957295e-07,-8.296837132468148e-07,-7.986105333984416e-08,4.962526932686315e-07,3.3000700306542816e-06,1.031356451506926e-06,8.21796782963676e-07,7.175197038597495e-07,-8.226878665980179e-07,1.3924148894131138e-06,1.0715681052615221e-07,-6.029292669834589e-09,5.961198231979718e-07,2.207149656984701e-07,7.080901604048899e-07,6.077990798343919e-07,-8.230681894681553e-07
-1.1124429300319991e-05,-1.0154665314275959e-06,-8.754418582876849e-07,-6.920724895412914e-08,5.641085842485102e-07,3.412196839402331e-06,1.0547303719460517e-06,8.248716573494235e-07,7.397027266021973e-07,-7.746840870588719e-07,1.4057933924676428e-06,1.9241990617339675e-07,7.524911165383288e-08,6.293945423017904e-07,2.7181814323214277e-07,8.002096663171838e-07,6.121526445071975e-07,-8.482429897509783e-07
-1.0911343271583704e-05,-1.4514803145875753e-06,-8.829780546784305e-07,-6.002602993417875e-08,6.338634824219991e-07,3.5203144946423003e-06,1.103978786560539e-06,8.26984777277836e-07,7.559839692295944e-07,-7.222788713223895e-07,1.2483201705065262e-06,2.805420827745943e-07,1.445021297142986e-07,6.689937414170292e-07,3.296352614955216e-07,9.008073423114494e-07,6.105180198811636e-07,-8.808758457620049e-07
-9.740862394970452e-06,-1.2501875945031346e-06,-8.569770220848725e-07,-5.584546063831144e-08,7.004364772685057e-07,3.615499568925218e-06,1.2103167069061143e-06,8.268497304362597e-07,7.645788083559359e-07,-6.715833219691242e-07,1.0320381748230552e-06,3.629786245564633e-07,1.950465883961111e-07,7.087668024601434e-07,3.8662593568933133e-07,9.987670912566135e-07,6.015785446658735e-07,-9.190201129238428e-07
-8.128470103945225e-06,-7.242303105752402e-07,-8.343670328565757e-07,-4.117883445122134e-08,7.599305644495025e-07,3.6906407490159613e-06,1.3052315310905412e-06,8.231582544749559e-07,7.640828535292746e-07,-6.287525571934777e-07,7.101530883126951e-07,4.3517690638677394e-07,2.3276038444964902e-07,7.449748310702636e-07,4.4452339795441057e-07,1.0861873680981281e-06,5.876505600211425e-07,-9.594735251340805e-07
-6.799938573349143e-06,-1.7070167035665236e-07,-8.239295725000154e-07,-3.7535428638854155e-08,8.125950138424751e-07,3.7440951069249427e-06,1.4191635745616475e-06,8.172088094808083e-07,7.55268264917598e-07,-5.916591405532227e-07,2.3695326091503072e-07,4.976397755108119e-07,2.596771890907605e-07,7.782358800775456e-07,5.004785081930209e-07,1.1602458180665536e-06,5.758596791737064e-07,-9.969934293551282e-07
-6.40358794029074e-06,1.9974495064571076e-07,-8.161857288888894e-07,-3.223836105388735e-08,8.619800122722404e-07,3.7789128897029124e-06,1.546748357847886e-06,8.123443604387036e-07,7.40946807947411e-07,-5.557325953659053e-07,-1.141153279996991e-07,5.539457084407396e-07,2.81129892733329e-07,8.119979392828801e-07,5.536884888733083e-07,1.2225757368461122e-06,5.711523136179055e-07,-1.0262008988980562e-06
-7.176093142481136e-06,2.689352890680126e-07,-8.016237360499508e-07,-1.2758796917851509e-08,9.097621970977453e-07,3.79761692107496e-06,1.6351906337460294e-06,8.110348347776687e-07,7.245548690731308e-07,-5.1516951341471e-07,-3.6369041107302594e-07,6.07092675053263e-07,3.049525745379181e-07,8.488013496691543e-07,6.032128638595675e-07,1.2769774277643682e-06,5.757753410128275e-07,-1.044208439781345e-06
-8.767494066341678e-06,-6.2770795536023305e-09,-7.681768303327761e-07,1.853142223788112e-08,9.523425195481131e-07,3.798488724982167e-06,1.6989820653983052e-06,8.124605364399998e-07,7.075102173299756e-07,-4.687193530986547e-07,-5.287972655063894e-07,6.565916488833612e-07,3.3763249708175074e-07,8.87698792785513e-07,6.444233415261734e-07,1.3267810444155023e-06,5.883016206229429e-07,-1.052102955303524e-06
-1.0362520116321035e-05,-5.87279435588648e-07,-7.150516232411414e-07,5.887322606244454e-08,9.831092298864008e-07,3.777033672276146e-06,1.7375928235898975e-06,8.135960395502236e-07,6.890052525083395e-07,-4.1898745015125286e-07,-5.789535825753353e-07,6.990091817494807e-07,3.805430886598367e-07,9.250085267929387e-07,6.754077557795367e-07,1.3743685201171172e-06,6.045243937519863e-07,-1.0532531429955278e-06
-1.1030838240667827e-05,-1.3370943302762736e-06,-6.486727913219446e-07,1.0295028864858609e-07,9.987478907044861e-07,3.7321330601260867e-06,1.7534804277433094e-06,8.127839514852075e-07,6.67721879183539e-07,-3.685030331031054e-07,-5.841664010392302e-07,7.312653541535079e-07,4.3171098111314884e-07,9.578434269762056e-07,6.97970392054703e-07,1.4216299810959168e-06,6.227150753553644e-07,-1.050433764531494e-06
-1.0082485781721484e-05,-2.0385112516295343e-06,-5.746382840091444e-07,1.4707124278921936e-07,1.0048388527197294e-06,3.6710214790383454e-06,1.7619588765666294e-06,8.128730783366006e-07,6.440019453709893e-07,-3.1916221650344827e-07,-5.039183958059485e-07,7.537507636076629e-07,4.850760574981363e-07,9.86861546953422e-07,7.187530635754326e-07,1.470137671243562e-06,6.440880310222131e-07,-1.0438950018821266e-06
-7.284877148235669e-06,-2.4574106981199073e-06,-4.922220124305028e-07,1.8994025427898516e-07,1.015272581280666e-06,3.6085823351464643e-06,1.7601372623831343e-06,8.203109136957722e-07,6.217326543540921e-07,-2.7029987182103543e-07,-3.6531456820010564e-07,7.710589966265145e-07,5.323872626248808e-07,1.0155913081208158e-06,7.454690560753862e-07,1.520207791719553e-06,6.71235915974102e-07,-1.0313922242227129e-06
-2.9229508540767476e-06,-2.4214801350956907e-06,-4.1627918138313525e-07,2.371437428262422e-07,1.0436870287908937e-06,3.561625275090098e-06,1.7461130639693049e-06,8.408250448193583e-07,6.05755129414028e-07,-2.2477148809358694e-07,-2.2675381835761336e-07,7.89760712180811e-07,5.67057563293461e-07,1.0472538440705023e-06,7.84718508565089e-07,1.5695499395324277e-06,7.054294412318206e-07,-1.0113093529349723e-06
2.237036385895146e-06,-1.8571935713921736e-06,-3.6550900263260336e-07,2.845420680139716e-07,1.0977073474121512e-06,3.5421253276410545e-06,1.7188191910252255e-06,8.757712818809248e-07,5.993302156335315e-07,-1.8013886451029207e-07,-1.2462738700624281e-07,8.152414142461436e-07,5.851386892727993e-07,1.0822446153788318e-06,8.377138697301795e-07,1.613779905439658e-06,7.462747142002448e-07,-9.83277916041914e-07
7.094602304562779e-06,-7.671704560529654e-07,-3.4847329582696063e-07,3.2901397492400275e-07,1.1734135721039464e-06,3.554747480076959e-06,1.6809808194545152e-06,9.220888189075409e-07,6.029241961095436e-07,-1.4509474805394573e-07,-8.780858225458489e-08,8.499910436220898e-07,5.875508833461072e-07,1.118197926797387e-06,9.015871314129777e-07,1.649527280948464e-06,7.923682197479738e-07,-9.488310072175357e-07
1.0474932090902913e-05,7.831132826121561e-07,-3.6551668732844815e-07,3.7127345678640297e-07,1.258281540331319e-06,3.5989812569511845e-06,1.6366899146081842e-06,9.755040810657754e-07,6.153063596487556e-07,-1.1609901412746042e-07,-9.201589359208649e-08,8.940540185643823e-07,5.802495859617251e-07,1.1527266558563861e-06,9.739668306973833e-07,1.6776829122444299e-06,8.434502422300673e-07,-9.099105147878424e-07
1.144624578585699e-05,2.6112963095558314e-06,-4.0011474818961936e-07,4.1080584551977317e-07,1.3397048530268033e-06,3.6720725455066064e-06,1.5918462328086517e-06,1.0324170462461356e-06,6.3580226044911e-07,-9.20650483163832e-08,-8.518916945149846e-08,9.460420373058489e-07,5.725513746024477e-07,1.1851971119691784e-06,1.0533150767328218e-06,1.703748323216481e-06,9.008483536905964e-07,-8.674508772595173e-07
9.678197215983664e-06,4.378247532846103e-06,-4.2800923050830086e-07,4.500744512724215e-07,1.4101293634487307e-06,3.769589033139892e-06,1.5502986110369897e-06,1.091605398997554e-06,6.639167259315094e-07,-7.408734553311671e-08,-4.585387052694641e-08,1.003335594120903e-06,5.726654021223679e-07,1.2157871417321756e-06,1.138917283005801e-06,1.734320328451556e-06,9.647113029027253e-07,-8.225849906385618e-07
5.71598655359842e-06,5.685000182493693e-06,-4.334441442013163e-07,4.906608996046061e-07,1.4684819933198047e-06,3.8840045971004615e-06,1.5168066170455757e-06,1.1507912908976692e-06,6.982806263644032e-07,-5.950733558379327e-08,4.6247160131592764e-08,1.0610656709409222e-06,5.852093352032846e-07,1.2434409179470615e-06,1.2345974873657741e-06,1.772278784435423e-06,1.0318843387152013e-06,-7.776496058021972e-07
8.701936902405865e-07,6.259936538306979e-06,-4.140680306170735e-07,5.308988537695708e-07,1.5171579571989434e-06,4.00476115063082e-06,1.492035815054306e-06,1.2050894166950586e-06,7.355515063454147e-07,-5.305741204289169e-08,1.958388134832259e-07,1.1127277444191848e-06,6.0946901389547e-07,1.2655977439987005e-06,1.316516619566893e-06,1.8161946300792258e-06,1.0987994318469992e-06,-7.360775600263463e-07
-3.346690546522271e-06,6.070437538032289e-06,-3.7612409307291697e-07,5.667592364820212e-07,1.5590547213807972e-06,4.121488254238689e-06,1.4717494948768138e-06,1.2493195667812016e-06,7.712681462559144e-07,-5.504633613929346e-08,3.8412232429685184e-07,1.1524254067883588e-06,6.391393478950243e-07,1.2799310320069996e-06,1.3963317732783226e-06,1.8627892847400858e-06,1.1503249049242637e-06,-7.004683693695218e-07
-5.84710183727641e-06,5.280868609488266e-06,-3.2500923521007667e-07,5.934115967215806e-07,1.5961668737560998e-06,4.228056873401318e-06,1.453320620029057e-06,1.280601257218551e-06,8.018304617522258e-07,-6.625052793943123e-08,5.875400420908331e-07,1.1774171066836604e-06,6.639981650553284e-07,1.286885303418689e-06,1.4676153413949884e-06,1.9109647039107548e-06,1.1929094020233091e-06,-6.705761487357731e-07
-6.28733649260242e-06,4.136668787389015e-06,-2.6132968083122173e-07,6.08959877472824e-07,1.6289303756488556e-06,4.323564197475081e-06,1.4352220711003026e-06,1.3004954830000744e-06,8.25592962065708e-07,-8.190607143189184e-08,7.762138794203272e-07,1.1892152347174096e-06,6.757952443996475e-07,1.289757657136341e-06,1.5145278922683115e-06,1.962758576455788e-06,1.227531952157297e-06,-6.431977690968037e-07
-5.064520174303048e-06,2.882966139320077e-06,-1.8832585855948504e-07,6.147741096691198e-07,1.6560947005870806e-06,4.4089757221012715e-06,1.4195850542349897e-06,1.3131446298436706e-06,8.424359543174422e-07,-1.0280477309244787e-07,9.19140094492824e-07,1.191708374925926e-06,6.714832938501695e-07,1.2918566457063766e-06,1.5453797493437988e-06,2.0195896997312064e-06,1.2504308038814627e-06,-6.160189218263056e-07
-3.099421645030691e-06,1.7157101176292325e-06,-1.1768131499460213e-07,6.123287962377519e-07,1.674251406832436e-06,4.482415397489722e-06,1.4092456188544378e-06,1.3214662717704443e-06,8.518322162465893e-07,-1.2511255897747094e-07,9.942024091711971e-07,1.1879123468185375e-06,6.509555818676565e-07,1.2934415766990614e-06,1.5584877859235669e-06,2.078178297468134e-06,1.2658086825484769e-06,-5.907957037155519e-07
-1.4602287799201204e-06,7.126137444782391e-07,-6.796675964543494e-08,6.020371572596778e-07,1.6776176379601302e-06,4.5372355937552165e-06,1.4045828723135775e-06,1.3239531638033148e-06,8.520103831887539e-07,-1.4801029379481217e-07,1.0010926766082617e-06,1.1778400610838924e-06,6.177646179704579e-07,1.2910255992916299e-06,1.55343666857182e-06,2.1297021075111626e-06,1.2698628581008546e-06,-5.735189923338453e-07
-9.732201853111755e-07,-2.249840160679583e-07,-5.7109324228974416e-08,5.832334407195818e-07,1.6600028021660777e-06,4.564667921322413e-06,1.4013649908477537e-06,1.31625417742435e-06,8.410870216319954e-07,-1.7619399434574712e-07,9.532034747659306e-07,1.1592391629240295e-06,5.759288806354182e-07,1.280062649368585e-06,1.520065103447084e-06,2.1644699246671714e-06,1.2605002382091573e-06,-5.715748862278028e-07
-1.9854567036625704e-06,-1.3183110599271637e-06,-9.237061208042577e-08,5.557229017464033e-07,1.6192416294640968e-06,4.5590732348823426e-06,1.3935851354773838e-06,1.295510721508396e-06,8.190736190425873e-07,-2.0987894862796436e-07,8.75005739080541e-07,1.1300400187031344e-06,5.289571995599772e-07,1.2584980574846533e-06,1.4943128278873486e-06,2.176024799774654e-06,1.2349073550055467e-06,-5.89451271565534e-07
-4.294408582699134e-06,-2.745101512036597e-06,-1.6551102763979516e-07,5.211505046104913e-07,1.560710374005736e-06,4.5214973712068655e-06,1.3794803520856204e-06,1.2636098545233927e-06,7.893898113637049e-07,-2.4784651951126216e-07,7.988880597346565e-07,1.0898815744805832e-06,4.79664437716834e-07,1.2280204054223841e-06,1.4379873384159737e-06,2.162645535691737e-06,1.2153298821537583e-06,-6.261818689438891e-07
-7.2297029231577515e-06,-4.493238704828682e-06,-2.582357146396046e-07,4.820193693037433e-07,1.495573482929262e-06,4.458852420059663e-06,1.360389864684424e-06,1.2264473732133452e-06,7.580879098842654e-07,-2.8772434866593204e-07,7.550853893459391e-07,1.0402124233842187e-06,4.2924616684228694e-07,1.1922642033052568e-06,1.353681836091577e-06,2.130850818846516e-06,1.1869975618819114e-06,-6.76886266644864e-07
-9.924662782891446e-06,-6.359782863657184e-06,-3.5654601059796294e-07,4.3951708011432086e-07,1.4348423256312256e-06,4.381709879318227e-06,1.3384726327012355e-06,1.1897727458867812e-06,7.306271867941643e-07,-3.2446287788171375e-07,7.576779196997129e-07,9.832367841486138e-07,3.7784207200291723e-07,1.1541332362786094e-06,1.2705647328324364e-06,2.0893686870580458e-06,1.15215543973041e-06,-7.356571973529674e-07
-1.1678344094986119e-05,-8.076946737222788e-06,-4.580505790847164e-07,3.929039782569148e-07,1.3845973052496987e-06,4.295754130230502e-06,1.3159501067008942e-06,1.1558214850219004e-06,7.099988357999165e-07,-3.5733857605759514e-07,8.01561804413586e-07,9.211075426071017e-07,3.2507784085691554e-07,1.1144186821561976e-06,1.1753351861884178e-06,2.0451225878057647e-06,1.1225721087465364e-06,-7.973149984683681e-07
-1.2209633257596186e-05,-9.446535169589732e-06,-5.699381954346229e-07,3.413621956620091e-07,1.3437905272252513e-06,4.2106485694958585e-06,1.2941356851006559e-06,1.1238146248006607e-06,6.963206442792896e-07,-3.890195345265335e-07,8.70985844187863e-07,8.561953260172791e-07,2.7019464572090257e-07,1.0726760821596578e-06,1.0783468532316169e-06,2.003107974413645e-06,1.0892797943714401e-06,-8.571734757037053e-07
-1.1729691941476519e-05,-1.0383901520236322e-05,-6.968071154224761e-07,2.8655535112244694e-07,1.306723603480268e-06,4.137316076037214e-06,1.2765464337483887e-06,1.0929259393977077e-06,6.89232979453329e-07,-4.193680642998963e-07,9.639495025068205e-07,7.9165260905091e-07,2.1105687218469143e-07,1.0291193369498387e-06,9.855220736035216e-07,1.9658980429812195e-06,1.0570545107884902e-06,-9.097825272711095e-07
-1.0833405229654875e-05,-1.0837845174964074e-05,-8.325586770063212e-07,2.3419560315497342e-07,1.268308911312869e-06,4.085734370925298e-06,1.2655924316599382e-06,1.0653637180389981e-06,6.897529519983384e-07,-4.460756239199059e-07,1.095656185436329e-06,7.305793244367318e-07,1.4478513718807176e-07,9.85621148385955e-07,9.06959603126298e-07,1.9350550226238724e-06,1.0299300842025475e-06,-9.490785002018931e-07
-1.0215820252112424e-05,-1.0672873388100375e-05,-9.627129952090525e-07,1.9265493081045654e-07,1.2268972725384156e-06,4.065453713596423e-06,1.2680626439540633e-06,1.0456783767603467e-06,7.001858053780036e-07,-4.6504724736141474e-07,1.2869777585556052e-06,6.750654239192796e-07,6.889138003631903e-08,9.449352251719229e-07,8.222850116573997e-07,1.9109540832480684e-06,1.0127074183672795e-06,-9.704619720818085e-07
-1.0315645777496685e-05,-9.681414152820682e-06,-1.068283602437604e-06,1.6894169832670566e-07,1.185094619467981e-06,4.0792283454564776e-06,1.2892096354040796e-06,1.037026534193957e-06,7.222937396355464e-07,-4.748512152498511e-07,1.545558675697121e-06,6.257449522285079e-07,-1.7029857372154088e-08,9.091016427846428e-07,7.648808950569383e-07,1.8922434205378647e-06,9.93013300160196e-07,-9.734760475639381e-07
-1.107528628401132e-05,-7.789398087460966e-06,-1.1313814931226622e-06,1.6449552220124744e-07,1.1465611666643596e-06,4.1219896902959094e-06,1.3289273683272493e-06,1.038508503992586e-06,7.549507136293602e-07,-4.768764452902167e-07,1.846006380775263e-06,5.82565538689807e-07,-1.0885654027017601e-07,8.786361895437895e-07,7.350999778451065e-07,1.8748502323810496e-06,9.829116318622265e-07,-9.625544981250968e-07
-1.200861396390935e-05,-5.280019720265758e-06,-1.140107264198818e-06,1.7540576338319828e-07,1.1147007747670291e-06,4.182940921644559e-06,1.3829392639622207e-06,1.0456927478478178e-06,7.944887945941065e-07,-4.7525384719420867e-07,2.1314290465961907e-06,5.467829593748438e-07,-1.9792936804449433e-07,8.536640870268436e-07,7.123785952583291e-07,1.8574061648120421e-06,9.781541991126666e-07,-9.454251685238962e-07
-1.2541260143072036e-05,-2.7894070689596834e-06,-1.0953833303350231e-06,1.9539934347024174e-07,1.0931238524672254e-06,4.251782336295808e-06,1.4435822584096673e-06,1.054312794297161e-06,8.361507932165115e-07,-4.709928629265238e-07,2.3317661351122233e-06,5.222872271061893e-07,-2.7313798535075197e-07,8.357327622456069e-07,7.09375984798068e-07,1.8416017185924802e-06,9.67350449906889e-07,-9.297082109842863e-07
-1.2395805279459028e-05,-1.0404061078919355e-06,-1.0111015529021967e-06,2.1881292017287174e-07,1.0858963056417184e-06,4.3206337733043815e-06,1.5023171102632032e-06,1.0633206129495166e-06,8.76633950990956e-07,-4.633526815227324e-07,2.392732413230878e-06,5.145878099094608e-07,-3.239383413034207e-07,8.279419235826768e-07,7.224708663517976e-07,1.831950072773122e-06,9.578244366794878e-07,-9.2007467143825e-07
-1.1757154690824455e-05,-5.055460773874661e-07,-9.10030038534027e-07,2.446486304809137e-07,1.0966943720972361e-06,4.3852657743191695e-06,1.5534154468593667e-06,1.0746703526742898e-06,9.13418329697817e-07,-4.506049325642762e-07,2.2981811454145087e-06,5.275048461274369e-07,-3.4481361260285e-07,8.327029006011207e-07,7.518442873353302e-07,1.833273636646454e-06,9.495472718985977e-07,-9.184697207547175e-07
-1.1096925543825058e-05,-1.2072103718507219e-06,-8.169835044379154e-07,2.719740171267602e-07,1.1259413909697495e-06,4.442804434674307e-06,1.595739974836982e-06,1.0899975842714335e-06,9.468106990976486e-07,-4.3199029874820296e-07,2.080509481132575e-06,5.596286082402125e-07,-3.366713381916743e-07,8.488624444339269e-07,7.948299404540742e-07,1.8455273511878858e-06,9.433004167478337e-07,-9.253341550807504e-07
-1.080523928381328e-05,-2.730345371753949e-06,-7.484097465927132e-07,3.030889524144085e-07,1.1690616680824784e-06,4.489080143145959e-06,1.6295709379459812e-06,1.1080958326163367e-06,9.755655608919041e-07,-4.099586623479267e-07,1.8125922779769513e-06,6.030876129686699e-07,-3.0627803614773306e-07,8.711177874505744e-07,8.48450823737749e-07,1.8637604503131357e-06,9.386961785850559e-07,-9.39629823236936e-07
-1.0923363424898703e-05,-4.4083588694742535e-06,-7.04432399913869e-07,3.392239926230324e-07,1.2179598709088447e-06,4.521062939447622e-06,1.6561738791189193e-06,1.125769848480116e-06,9.97952827407118e-07,-3.8677024959786504e-07,1.5842207883332118e-06,6.46460564831935e-07,-2.6385374140658e-07,8.927284692059315e-07,8.946607719645854e-07,1.8812274006384133e-06,9.367233832639709e-07,-9.586181384520585e-07
-1.1168300520464085e-05,-5.609312195013078e-06,-6.672072374577794e-07,3.6039913894590506e-07,1.2642583756032588e-06,4.5403892478719106e-06,1.6781972003173243e-06,1.1407875194743195e-06,1.0141043150189454e-06,-3.649268277493487e-07,1.475573829482753e-06,6.797982573869983e-07,-2.1942755953601503e-07,9.092372948407917e-07,9.273563502880199e-07,1.8926025524621247e-06,9.328104098268464e-07,-9.785542094301679e-07
-1.1169116435608379e-05,-6.002189397030151e-06,-6.105433245481257e-07,3.9717607884706453e-07,1.3028042457989116e-06,4.554731778074612e-06,1.6980529410311392e-06,1.1535941759986425e-06,1.0256727084579275e-06,-3.4205575741635226e-07,1.5250323885808016e-06,6.983648544303889e-07,-1.8094782294543878e-07,9.201895635207127e-07,9.508115577747126e-07,1.8970181160840772e-06,9.284857695661413e-07,-9.940920471772626e-07
-1.0654662743150293e-05,-5.646781916050623e-06,-5.150074329099928e-07,4.6319808544909063e-07,1.3325061239674571e-06,4.57680226504137e-06,1.7185357624889579e-06,1.1657472777004325e-06,1.0359815944568945e-06,-3.191702947719857e-07,1.7168603569741618e-06,7.031487363647222e-07,-1.5411472829236284e-07,9.274203167200009e-07,9.635178562944788e-07,1.8960400118673663e-06,9.269701613790503e-07,-1.0020711249285548e-06
-9.47307621210554e-06,-4.863302759103208e-06,-3.7975382309800356e-07,5.135658003904592e-07,1.3534224870440419e-06,4.6158019545875936e-06,1.7424191769499317e-06,1.1769237150489054e-06,1.047707480935911e-06,-2.993172201690846e-07,1.9875235070637696e-06,6.984884589359027e-07,-1.423981113887845e-07,9.320952359820668e-07,9.682437947890878e-07,1.8907194528794836e-06,9.24420673439668e-07,-1.0034044666995208e-06
-7.568292832782223e-06,-4.029643933689582e-06,-2.2233699623790943e-07,5.487634164772364e-07,1.365826292054337e-06,4.673243195623943e-06,1.7693571767786814e-06,1.1837455192013692e-06,1.0615664136112496e-06,-2.884408075894066e-07,2.259001379821989e-06,6.893577390732113e-07,-1.4578196817034327e-07,9.335123178280968e-07,9.658707257145275e-07,1.8800798087573608e-06,9.173491695992365e-07,-1.0018369611539457e-06
-5.037251611035267e-06,-3.467789192610872e-06,-6.752449834871046e-08,5.837738263921025e-07,1.371433686037539e-06,4.743199097819265e-06,1.7961515604641606e-06,1.1816317278611304e-06,1.0759097371433896e-06,-2.9346531141752475e-07,2.461948935553626e-06,6.803638859367435e-07,-1.6025142927598707e-07,9.306023866331851e-07,9.57209085754659e-07,1.8630243292958725e-06,9.031436116354513e-07,-1.0009577059830845e-06
-2.1665229017005406e-06,-3.398016560947358e-06,6.380407628807433e-08,6.170209788996079e-07,1.3756749765644495e-06,4.81582233245987e-06,1.8190114934392234e-06,1.169138220419232e-06,1.0892822604814318e-06,-3.1551560447681655e-07,2.5550442433098783e-06,6.757513079649141e-07,-1.78683587858197e-07,9.243445972860501e-07,9.473950600822288e-07,1.8411100251523974e-06,8.828601612369211e-07,-1.0025251113645628e-06
6.303288975581852e-07,-3.866887123736346e-06,1.589768712845276e-07,6.422194225262259e-07,1.3878165062700282e-06,4.883087891579701e-06,1.8372716314799287e-06,1.1500118690650735e-06,1.1016449054194021e-06,-3.502201500217468e-07,2.534963340362781e-06,6.79071828770058e-07,-1.932843319879655e-07,9.185139967398398e-07,9.429009200153583e-07,1.819906796732609e-06,8.621255293745467e-07,-1.0063978875824155e-06
2.9023309348164694e-06,-4.674779248038405e-06,2.132876576722564e-07,6.606943959813483e-07,1.4170527726538757e-06,4.941296915509332e-06,1.8543644983139663e-06,1.1312380460738981e-06,1.1141539497347896e-06,-3.8784084168990293e-07,2.428726520989186e-06,6.913752424247475e-07,-1.992520353686062e-07,9.173843146683092e-07,9.478880459720859e-07,1.8046265526435515e-06,8.467792147475512e-07,-1.0116274036594433e-06
4.238349489935644e-06,-5.413358075914486e-06,2.294879496688076e-07,6.725618162732104e-07,1.4663943864965407e-06,4.990664402474472e-06,1.875543808259566e-06,1.118779426826429e-06,1.1278772608593987e-06,-4.2009022185371244e-07,2.28756703329847e-06,7.090976402329236e-07,-1.976139307197393e-07,9.221621776600542e-07,9.616292764745154e-07,1.7940337177422513e-06,8.392481996633232e-07,-1.01842071482131e-06
4.381158921684618e-06,-5.635300915305192e-06,2.1903819907682026e-07,6.777642427490467e-07,1.5291706550835493e-06,5.031840103760385e-06,1.904034462883197e-06,1.1142873855109751e-06,1.14208432448222e-06,-4.415375895862407e-07,2.1754530824354046e-06,7.241615778281215e-07,-1.9521532295058394e-07,9.293251067019184e-07,9.783083955756843e-07,1.782807786580487e-06,8.377851295648216e-07,-1.0269446896533225e-06
3.4258470088813604e-06,-5.050794870444326e-06,2.0122935009141381e-07,6.771832574981731e-07,1.5934296677503602e-06,5.071059324950759e-06,1.9395345584172535e-06,1.1157619891870203e-06,1.1544069396431104e-06,-4.533529499456611e-07,2.1535490029937512e-06,7.274864112213444e-07,-2.009917073530149e-07,9.326669297870962e-07,9.926019768487247e-07,1.7618063253608741e-06,8.390236334697104e-07,-1.0357443288154716e-06
1.98671929496094e-06,-3.627810482817859e-06,1.9686308331582626e-07,6.737542165331805e-07,1.6464629239572947e-06,5.1109946347260306e-06,1.9795824783344084e-06,1.1218751256695017e-06,1.1633439235665997e-06,-4.589177799930813e-07,2.258127849519714e-06,7.141802059146745e-07,-2.2013674372862632e-07,9.277168203789465e-07,1.0016612284467248e-06,1.7272130097172415e-06,8.414897793599058e-07,-1.0408938835124664e-06
1.0870655075579402e-06,-1.5524360729260295e-06,2.1777247000243867e-07,6.727898963454405e-07,1.6829742438840683e-06,5.155484279113493e-06,2.0222000913448634e-06,1.1334797281433503e-06,1.1695764736873557e-06,-4.603442380810123e-07,2.4856522641563003e-06,6.86616193383482e-07,-2.5026201335099025e-07,9.148843092750204e-07,1.0066080598528867e-06,1.6845844067151818e-06,8.481295813616807e-07,-1.0374270436620824e-06
1.6972496835319828e-06,8.824422537203974e-07,2.5989503807680243e-07,6.799132285820198e-07,1.7069737863791895e-06,5.210941362934236e-06,2.0658508099805937e-06,1.1530397412682982e-06,1.1773153726405793e-06,-4.601273432568994e-07,2.7916029699810867e-06,6.533568350391398e-07,-2.8307280287309425e-07,8.990020451009815e-07,1.0155126067269504e-06,1.6447442065152368e-06,8.605550365945655e-07,-1.0225760503215175e-06
4.189110896405873e-06,3.366636868339232e-06,3.0690337015961576e-07,6.980848156121136e-07,1.722745243991114e-06,5.279980308756319e-06,2.1090207756787323e-06,1.1815958079709649e-06,1.190924704408815e-06,-4.61116983485037e-07,3.106096744154064e-06,6.249456879247491e-07,-3.104807812064789e-07,8.861577126521044e-07,1.0358273276808487e-06,1.6182648389238986e-06,8.803408918182649e-07,-9.980495865077587e-07
8.04705758785588e-06,5.613314615142219e-06,3.405614910990238e-07,7.269735027413549e-07,1.7379719610100437e-06,5.361777698961524e-06,2.1480848059082926e-06,1.2154397982856663e-06,1.2122440592787586e-06,-4.6704244865543374e-07,3.359663247814155e-06,6.09822413480656e-07,-3.297768263911574e-07,8.808468468417125e-07,1.0685729307781915e-06,1.6082800337928508e-06,9.067295416386801e-07,-9.692654834096103e-07
1.1953613926046687e-05,7.37760616257092e-06,3.501642827142906e-07,7.631688317752006e-07,1.7555562709925017e-06,5.451414584684272e-06,2.1737283796794553e-06,1.247962582254396e-06,1.2403933223289996e-06,-4.820761880151304e-07,3.5056235255676667e-06,6.124604709094218e-07,-3.433925579374021e-07,8.852524464547236e-07,1.10988991261546e-06,1.6103715700307637e-06,9.368800379357757e-07,-9.423406774685967e-07
1.4214244351956285e-05,8.476389150318418e-06,3.3485556336494427e-07,8.027274445440132e-07,1.7726253401125052e-06,5.544027232848023e-06,2.1777086327779154e-06,1.2734792028913238e-06,1.2722485710611293e-06,-5.068661773970971e-07,3.5334422853077066e-06,6.307431307218295e-07,-3.541277792720904e-07,8.983526136070364e-07,1.1599954199740836e-06,1.6157104878041713e-06,9.708270403281028e-07,-9.203484987373404e-07
1.3486817047179296e-05,8.828066087959074e-06,2.9757602529432974e-07,8.436348956007467e-07,1.7858940573746588e-06,5.63268756911354e-06,2.1571986693289685e-06,1.2900232703526658e-06,1.3042908034342786e-06,-5.411168859992608e-07,3.4715506802809597e-06,6.619572370082577e-07,-3.610361953302775e-07,9.187753912612772e-07,1.2122536970065108e-06,1.6154207428753688e-06,1.0064959333599278e-06,-9.015482644434582e-07
9.424890960249798e-06,8.503113763036285e-06,2.3942284111475533e-07,8.855450991537592e-07,1.7918857123027834e-06,5.71109127129792e-06,2.115677234346931e-06,1.298950163562143e-06,1.3330087964321777e-06,-5.797728117481945e-07,3.375373550161751e-06,6.978437118230706e-07,-3.605093009644452e-07,9.416018165929945e-07,1.2590786224410372e-06,1.6022494528119604e-06,1.0424177997079703e-06,-8.841607494870099e-07
2.9404854855335272e-06,7.732290336528548e-06,1.6195857306269774e-07,9.278470297497196e-07,1.7878653847749679e-06,5.771670536173669e-06,2.0621117666033532e-06,1.3020372047491905e-06,1.354824098363033e-06,-6.211287861866443e-07,3.3078185459361113e-06,7.266222742162371e-07,-3.517766976320454e-07,9.567461092424498e-07,1.2977538700507979e-06,1.5711958245164976e-06,1.0627129409264261e-06,-8.693466114990835e-07
-4.264235477381514e-06,6.838487290195133e-06,7.213270352125988e-08,9.679594769797563e-07,1.7719812059869184e-06,5.805294418999478e-06,2.004612411753448e-06,1.299443061278554e-06,1.3657768428325806e-06,-6.66738619436259e-07,3.31735122734196e-06,7.338279460660693e-07,-3.413585229026258e-07,9.549565322539568e-07,1.315159984654685e-06,1.5211570126398257e-06,1.0560276953761304e-06,-8.595776270570076e-07
-1.0494693126874367e-05,6.11994369726948e-06,-1.7743817690711218e-08,1.0014413955376452e-06,1.746071269893674e-06,5.8069278525381235e-06,1.948713383130678e-06,1.2902370612970056e-06,1.3630299614121962e-06,-7.167982055721588e-07,3.4174800759277083e-06,7.059754189135256e-07,-3.4165213315379244e-07,9.250742727200154e-07,1.306038520509804e-06,1.4561407305811926e-06,1.0324137399804009e-06,-8.569152151490332e-07
-1.4596072671225005e-05,5.736070746720049e-06,-9.559219978848972e-08,1.0236800907853974e-06,1.7134528807682927e-06,5.778965881134498e-06,1.8983552460144186e-06,1.2757202014249912e-06,1.3469639489677826e-06,-7.69802274272454e-07,3.5816458065173432e-06,6.442236287922657e-07,-3.6447280533821474e-07,8.658188195876808e-07,1.2693981058271587e-06,1.3869483322334622e-06,1.0102578927220374e-06,-8.628350223073578e-07
-1.6136274384304688e-05,5.655529775263607e-06,-1.563016136510871e-07,1.0326373011027508e-06,1.683416198521178e-06,5.732731515380857e-06,1.8576022134305753e-06,1.2604684865474205e-06,1.3219050650367403e-06,-8.192824403832664e-07,3.7530079319620443e-06,5.604997706773344e-07,-4.144932038117763e-07,7.87467670460293e-07,1.2149636063964099e-06,1.3285569975415825e-06,9.970525565855973e-07,-8.749348700224898e-07
-1.5311985000551934e-05,5.708102716703732e-06,-2.0739859936174378e-07,1.0303223187916958e-06,1.668484285088015e-06,5.6850612267541115e-06,1.8291480272613614e-06,1.250441449970138e-06,1.2945861588894615e-06,-8.57331744292729e-07,3.863414601086527e-06,4.939505713837178e-07,-4.863393839852428e-07,7.172089494279625e-07,1.1640394800169865e-06,1.2944787378080856e-06,9.593813264691592e-07,-8.902041424994292e-07
-1.2720650469298311e-05,5.68695088096172e-06,-2.6459914265212806e-07,1.0204914654574015e-06,1.676923708242744e-06,5.65059279241581e-06,1.8143994041544305e-06,1.2501981335963915e-06,1.2717584415140996e-06,-8.636543291015329e-07,3.854668899627553e-06,4.82044883018969e-07,-5.660156442450974e-07,6.884007905223624e-07,1.151192534942373e-06,1.2929362834490108e-06,9.292396703039811e-07,-9.042331290372765e-07
-9.10359196403572e-06,5.419969006770079e-06,-3.4362410992532963e-07,1.0065306022472555e-06,1.7100219812203587e-06,5.638377342137575e-06,1.8117044947369995e-06,1.25889673688995e-06,1.2552813038662393e-06,-8.534167698999816e-07,3.6947805388645073e-06,5.377457488623305e-07,-6.35380124923105e-07,7.202041168352446e-07,1.2069295097895228e-06,1.3237622686738889e-06,9.448330102839376e-07,-9.146450664298632e-07
-5.241245372788179e-06,4.8184484045514305e-06,-4.4885832962613404e-07,9.899656059837842e-07,1.7611706052477565e-06,5.650001366783682e-06,1.817425533502061e-06,1.2740393437577238e-06,1.2459220779082907e-06,-8.273514429904457e-07,3.3846226683103514e-06,5.792145384759735e-07,-6.769851974039566e-07,7.737465250889294e-07,1.3213788683844085e-06,1.3803506245482673e-06,9.883156039105586e-07,-9.203398175163291e-07
-1.8246985289402797e-06,3.932291212101587e-06,-5.684980286013748e-07,9.70958126987637e-07,1.8199809398565908e-06,5.6829857944997016e-06,1.8293582782973628e-06,1.2945164658305657e-06,1.2443013999998582e-06,-7.822594129468295e-07,2.9557781828979587e-06,6.109998779890701e-07,-6.78129458182729e-07,8.282235642262428e-07,1.367843811576047e-06,1.4544826569691927e-06,1.0207188959705145e-06,-9.196669861719681e-07
6.101673454384261e-07,2.9537072501173704e-06,-6.776494985283666e-07,9.503297345052168e-07,1.8804202698811434e-06,5.735252187977361e-06,1.8460783702485365e-06,1.3210749066107274e-06,1.2505556041289545e-06,-7.498887558423289e-07,2.4629284015982456e-06,6.482689581113827e-07,-6.340248050917738e-07,8.564400374771928e-07,1.3832422815046786e-06,1.5380921065575547e-06,1.0293915400649412e-06,-9.136314169259308e-07
1.8207483325355228e-06,2.120893079070828e-06,-7.495513788082053e-07,9.298876376704587e-07,1.935342739818747e-06,5.804839593643145e-06,1.8660017186832046e-06,1.3550330640857458e-06,1.2651144243954913e-06,-6.978639483601471e-07,1.9708143425828217e-06,6.944501203250982e-07,-5.495407500413674e-07,9.070357212401663e-07,1.4167526084999506e-06,1.6235197721456487e-06,1.0626474563824021e-06,-9.013587181366807e-07
1.979857671641944e-06,1.5909172137206924e-06,-7.672014511701238e-07,9.118288487605972e-07,1.981091998942157e-06,5.8879490544312374e-06,1.8850787319510562e-06,1.3947275905753322e-06,1.2859139722053088e-06,-6.329109051894959e-07,1.5390395941083627e-06,7.838733859970154e-07,-4.385562167538868e-07,9.637224729647936e-07,1.5011409545323846e-06,1.7028682426569467e-06,1.115972760234775e-06,-8.848697513307331e-07
1.5640134975603427e-06,1.3779426465730333e-06,-7.242961813252485e-07,8.965851355737153e-07,2.0186389794613696e-06,5.977407509375854e-06,1.8972179642589267e-06,1.4349552721534142e-06,1.3112211635833387e-06,-5.731399937652487e-07,1.2089816637000656e-06,9.299310662378122e-07,-3.199534952197899e-07,1.0712367986027163e-06,1.5535838168709131e-06,1.7696065194667912e-06,1.1773961814968955e-06,-8.669886161582244e-07
1.0265580952452488e-06,1.3791390202884454e-06,-6.250987556727617e-07,8.82225706887321e-07,2.049877149141513e-06,6.066011840659903e-06,1.8956836766317769e-06,1.4711686510193791e-06,1.3358041080518984e-06,-5.017376473825174e-07,9.993202363154406e-07,1.0346662476462176e-06,-2.1173530146356903e-07,1.1555994439022442e-06,1.5934157946792005e-06,1.820557196821624e-06,1.228379551110642e-06,-8.506083566930417e-07
4.510987879721242e-07,1.461571174729793e-06,-4.834234161610327e-07,8.659747807571772e-07,2.076248231022098e-06,6.148649036888694e-06,1.8791202278775394e-06,1.4994462656368665e-06,1.3565578843535092e-06,-4.496897522583596e-07,9.096854748073192e-07,1.0974516370229773e-06,-1.263980761246271e-07,1.186788046002976e-06,1.6009023138285005e-06,1.856493896011105e-06,1.2576337022338748e-06,-8.376263286335424e-07
-5.227387086055865e-07,1.5449446161131918e-06,-3.223556406703786e-07,8.461851787197845e-07,2.0939903397564826e-06,6.222347247390036e-06,1.8499978082215882e-06,1.5187022552426218e-06,1.3728869097114413e-06,-4.177769868873069e-07,9.264382517309575e-07,1.132145429757119e-06,-7.015790943031643e-08,1.1917184899339072e-06,1.5532723331279375e-06,1.8796643404199788e-06,1.2541872540592187e-06,-8.28912897076815e-07
-2.4044805285081902e-06,1.5927768360679859e-06,-1.7196724181196313e-07,8.229843248133406e-07,2.096494873579963e-06,6.283650905493029e-06,1.8134159628000999e-06,1.5291095065689665e-06,1.3838131405027403e-06,-3.984836731600532e-07,1.0244731400541452e-06,1.1275096035192151e-06,-4.5218646997829894e-08,1.2041958505881753e-06,1.5035365197222628e-06,1.889877408674573e-06,1.2218364834860006e-06,-8.234542478919054e-07
-5.465603954080743e-06,1.5220183063322386e-06,-6.241999610172936e-08,7.970949832042229e-07,2.078711117824768e-06,6.326606701133197e-06,1.7760259120580266e-06,1.5297897890944548e-06,1.3888815659731779e-06,-3.9884125250674723e-07,1.168044496811859e-06,1.1352191766511242e-06,-5.2172264722041566e-08,1.250505864454871e-06,1.4679337989540225e-06,1.8836022885540543e-06,1.2184393972086451e-06,-8.308028125529137e-07
-9.600537889819616e-06,1.1673711144266328e-06,-1.4531062589074754e-08,7.690151072376419e-07,2.0358682132872747e-06,6.345143082826809e-06,1.7443945362380934e-06,1.5207208621859366e-06,1.3882323974752253e-06,-4.094596190591554e-07,1.3154687409796678e-06,1.1513703850292901e-06,-9.026280182634995e-08,1.2606742067209886e-06,1.4233103631155313e-06,1.8566650646092882e-06,1.2338293592365905e-06,-8.535774470385925e-07
-1.4361016501330433e-05,3.869353078290364e-07,-3.148613856480953e-08,7.39392660968648e-07,1.970517121844799e-06,6.33658082946824e-06,1.7240919543727688e-06,1.504655707519861e-06,1.3830207818250175e-06,-4.248557026064289e-07,1.429280277221839e-06,1.1332171205488122e-06,-1.5560619337544646e-07,1.2418218462179873e-06,1.3815244515633657e-06,1.8082689105611881e-06,1.2231872118919006e-06,-8.894148907294511e-07
-1.9034379435370257e-05,-7.864590760616723e-07,-9.624573020755841e-08,7.100423462218801e-07,1.8923084666738283e-06,6.30313805351452e-06,1.7173399848427934e-06,1.48750708445887e-06,1.3764643720273236e-06,-4.3886527395141633e-07,1.4872518679052613e-06,1.102727312829396e-06,-2.395109205664557e-07,1.2185184610757351e-06,1.3389064296902384e-06,1.7419824082222762e-06,1.1901575435469566e-06,-9.402065641852407e-07
-2.2798203163907312e-05,-2.1098062629733537e-06,-1.763936331470476e-07,6.844112025770201e-07,1.8115633608711575e-06,6.248426825385706e-06,1.7222439685801507e-06,1.4750812756649082e-06,1.3738579306672457e-06,-4.439497231857e-07,1.4860366568441147e-06,1.0452061019391264e-06,-3.2894068277143305e-07,1.1714969898398898e-06,1.2831467240484403e-06,1.6649892150375497e-06,1.155472385315064e-06,-9.852809880386626e-07
-2.4978514141317662e-05,-3.2414010510085636e-06,-2.3495757963657704e-07,6.668092646158733e-07,1.7360933442218398e-06,6.1776710424472105e-06,1.7277627169276479e-06,1.4705697564840697e-06,1.3795575259364435e-06,-4.374592014247983e-07,1.436570803070389e-06,9.710329950465623e-07,-4.0982643298311073e-07,1.114621281468203e-06,1.1599562488235833e-06,1.5847033171878536e-06,1.1274768008552067e-06,-1.0152054794198134e-06
-2.5306110865924668e-05,-3.89926908830998e-06,-2.428088306337545e-07,6.618829292744454e-07,1.6678594059487105e-06,6.096466378323775e-06,1.719494677743451e-06,1.4725053301262917e-06,1.3949159428009124e-06,-4.21647648005671e-07,1.3580303271872114e-06,9.242176381525389e-07,-4.7147112576130996e-07,1.0620223451781611e-06,1.0522953775026236e-06,1.507451501176206e-06,1.1074549976157765e-06,-1.0279853768396143e-06
-2.4063355980794948e-05,-3.96581881024152e-06,-1.8914189914934275e-07,6.742382844811857e-07,1.6047282138841527e-06,6.011887007814757e-06,1.6858561213057207e-06,1.4769447904877693e-06,1.4158721522190606e-06,-4.007906006647335e-07,1.274571647540164e-06,8.935668694903334e-07,-5.08846390474928e-07,1.0373653228283154e-06,9.599080607487226e-07,1.4385074269870705e-06,1.1100023254544715e-06,-1.01797183983996e-06
-2.1971328640845576e-05,-3.4925703416979472e-06,-8.59229463374829e-08,7.071110349515354e-07,1.5523255524134278e-06,5.933834779754247e-06,1.6214186394772133e-06,1.4814770007506494e-06,1.4430787514556642e-06,-3.778976935318731e-07,1.2107463697566366e-06,8.788769504819828e-07,-5.221195580866708e-07,1.0394658254510963e-06,8.585505744562282e-07,1.3884262391059241e-06,1.1306271578071955e-06,-9.982618247360876e-07
-1.9881101695611244e-05,-2.600522398279209e-06,3.835482233575001e-08,7.601748622371003e-07,1.5113456458788629e-06,5.8715846632679426e-06,1.5303053176170666e-06,1.4863522689298835e-06,1.47804847669521e-06,-3.538782395418784e-07,1.181873289663996e-06,8.808800668624525e-07,-5.15543419473585e-07,1.0582899735710614e-06,8.03860601762827e-07,1.361670473746201e-06,1.1587262678674961e-06,-9.764484874480198e-07
-1.8427272825294435e-05,-1.362937336040293e-06,1.5038066363255917e-07,8.280528683258377e-07,1.4853666418134064e-06,5.827395638328829e-06,1.4245121753239364e-06,1.4923869349633695e-06,1.5192276288350026e-06,-3.2936917115660586e-07,1.1842120688962127e-06,8.882870691191813e-07,-4.96705488772438e-07,1.090710024227429e-06,7.456776260137646e-07,1.3570830030757073e-06,1.187664821053733e-06,-9.57665933145448e-07
-1.7803605167725914e-05,2.248981169550162e-07,2.1917170913228288e-07,9.004802985725677e-07,1.4785527063527334e-06,5.806534582525323e-06,1.318294546133594e-06,1.4980896087414508e-06,1.5621700248797764e-06,-3.06905035850778e-07,1.1926206516381443e-06,9.026447843571472e-07,-4.749973028110913e-07,1.1268173648381542e-06,6.913047139907565e-07,1.369997388845059e-06,1.2067314550995858e-06,-9.508282594397839e-07
-1.7834332451499004e-05,2.148800711035335e-06,2.2129523524853106e-07,9.645102070993567e-07,1.4894288505573696e-06,5.800534227461207e-06,1.22475930220847e-06,1.499197323553283e-06,1.6002246676846133e-06,-2.9024019639773613e-07,1.168182595346706e-06,9.238516304362541e-07,-4.5837404440085284e-07,1.164918435123886e-06,6.941511224765983e-07,1.3909730174806712e-06,1.2131013092358858e-06,-9.583503883507227e-07
-1.8005689700566198e-05,4.22352784311492e-06,1.4568698617046848e-07,1.0085222011634915e-06,1.51596787985739e-06,5.799268182473109e-06,1.1541351510754518e-06,1.4925534999771439e-06,1.6278496520914122e-06,-2.819511065248049e-07,1.071396233273039e-06,9.495781579646734e-07,-4.4964195677853736e-07,1.2045824664427085e-06,7.809020228184239e-07,1.412315640099701e-06,1.2082464364162847e-06,-9.812322240692733e-07
-1.7725658438331667e-05,6.042330440595137e-06,-2.1720264225880093e-09,1.0260063283173253e-06,1.5541787061167452e-06,5.798979637988342e-06,1.1170302296735696e-06,1.4786600370374953e-06,1.644099087829728e-06,-2.8115301367629437e-07,8.788182610441328e-07,9.802964725744769e-07,-4.449116043438151e-07,1.2450744487938247e-06,8.626088423831927e-07,1.4322409456568054e-06,1.1960500112542836e-06,-1.0173259237978704e-06
-1.6486391675439116e-05,7.111280184899899e-06,-1.9642996234969428e-07,1.0172462900543272e-06,1.5978956658372385e-06,5.796403424373924e-06,1.1135134113415434e-06,1.461124526878925e-06,1.6521984573846206e-06,-2.8435718746130304e-07,5.952955102110269e-07,1.01726418492589e-06,-4.36363070052798e-07,1.2865627059414185e-06,9.416103458888062e-07,1.4512873771691424e-06,1.1812298126112922e-06,-1.0602182662788378e-06
-1.3890205283329893e-05,7.064664908782779e-06,-3.9507239653501826e-07,9.883672969231085e-07,1.6319550948007055e-06,5.79193826271302e-06,1.139749118096685e-06,1.4434707731037276e-06,1.6559916131405961e-06,-2.891581984439412e-07,2.6098050970084485e-07,1.0591505835801722e-06,-4.1861229540115557e-07,1.3266485301862278e-06,1.0187411998476226e-06,1.4673809492831036e-06,1.165393973027921e-06,-1.1052167431722805e-06
-9.98134389700144e-06,5.873830303065051e-06,-5.385382810536777e-07,9.487880458538297e-07,1.6472420878885236e-06,5.785481041316992e-06,1.1901035423643364e-06,1.4254655223933047e-06,1.6520947000234345e-06,-2.9722317258270756e-07,-5.081441671638891e-08,1.0996013304990091e-06,-3.944125003874099e-07,1.358864800654682e-06,1.0614748142221029e-06,1.477894180116284e-06,1.146448044711724e-06,-1.148494220428915e-06
-5.457073004287256e-06,3.8385897138692864e-06,-5.538028987827565e-07,9.086273319980697e-07,1.6378070937494556e-06,5.77565949592392e-06,1.2554142151006467e-06,1.403827924445307e-06,1.6441416207495916e-06,-3.1371140669754893e-07,-2.50210086679059e-07,1.1282898627797835e-06,-3.7489236328561505e-07,1.374701077865777e-06,1.0676201003498746e-06,1.4768001513975966e-06,1.1212998268905486e-06,-1.1880147789479778e-06
-1.5400252064831491e-06,1.4701152079580223e-06,-5.264430226394586e-07,8.767921766158185e-07,1.6039219474816235e-06,5.7588255219011376e-06,1.3269118974365602e-06,1.3761539789042517e-06,1.638328552885621e-06,-3.4341814337910556e-07,-2.5865690899927835e-07,1.1353872279682898e-06,-3.739186307192708e-07,1.3679260544229434e-06,1.0479754248383445e-06,1.4613176721522167e-06,1.0892048837204817e-06,-1.2220587996753206e-06
5.17355510127288e-07,-7.001409008024667e-07,-3.6650155903028455e-07,8.623614788781894e-07,1.5580032781234737e-06,5.736343102469207e-06,1.4003822588645568e-06,1.3441755249480244e-06,1.635106747275888e-06,-3.8723281972384377e-07,-4.118890208371428e-08,1.1166002760765641e-06,-4.010210142715442e-07,1.3380324869684488e-06,1.0110375339066129e-06,1.430821137027084e-06,1.0529230982846647e-06,-1.248890766787255e-06
2.825260037674608e-08,-2.2319259505013644e-06,-1.8669928021620442e-07,8.679646374360129e-07,1.516537049780915e-06,5.711915603927347e-06,1.4760214202582761e-06,1.3136896359718723e-06,1.6401867497471247e-06,-4.4162179123175297e-07,3.7208516959883884e-07,1.0754079288694447e-06,-4.570358174029878e-07,1.2902154555994283e-06,9.687598727585788e-07,1.387941195045729e-06,1.0167881568833194e-06,-1.2689367650808473e-06
-2.7210564210347617e-06,-2.8493825878452324e-06,-3.001292863932813e-08,8.880979162226006e-07,1.4938417873364555e-06,5.688552565185516e-06,1.5552813470543854e-06,1.2901777047718414e-06,1.6397424188070948e-06,-5.012552076460922e-07,8.890225724005272e-07,1.0211309000769999e-06,-5.33742482443315e-07,1.2323809991465005e-06,9.293363831514005e-07,1.3369627205625897e-06,9.842490055235968e-07,-1.2814682302304473e-06
-6.7171980201072876e-06,-2.555155054694389e-06,5.850812365990352e-08,9.16691725965409e-07,1.4948986920493365e-06,5.667063666444104e-06,1.6416161429394142e-06,1.2748160898465329e-06,1.6341366777371644e-06,-5.619888510434393e-07,1.3979163332696346e-06,9.647528034638935e-07,-6.164646335149657e-07,1.171307981515567e-06,8.955255048411856e-07,1.2779558337189496e-06,9.558056958318889e-07,-1.293597872005338e-06
-1.0585006124986641e-05,-1.6751231989406855e-06,5.621286132322939e-08,9.168510974829596e-07,1.5121387230316437e-06,5.6409687367853325e-06,1.7347645563895073e-06,1.2636988572694647e-06,1.598080350029719e-06,-6.215113518586931e-07,1.7613862822883243e-06,9.151672696198136e-07,-6.880232589963998e-07,1.1109130105355938e-06,8.497695290715184e-07,1.2089958427860827e-06,9.299614703642098e-07,-1.3128416201762902e-06
-1.3034024195291225e-05,-7.693276374459063e-07,-3.013772289824498e-08,8.530925546735397e-07,1.534984061260166e-06,5.6037024254283344e-06,1.830691418030745e-06,1.2511958255784904e-06,1.5465776455006334e-06,-6.760014921100269e-07,1.7811381639092052e-06,8.779517143801822e-07,-7.312316089070597e-07,1.0534923724591482e-06,7.85022237700136e-07,1.1278341440027582e-06,9.055679793662319e-07,-1.3448075025319593e-06
-1.3329095340336002e-05,-3.6721938668245897e-07,-1.7012825820938655e-07,8.19691529947042e-07,1.5589390575604742e-06,5.54762675517732e-06,1.9205594446825037e-06,1.2343750593684005e-06,1.5129411812483845e-06,-7.196438167669721e-07,1.8239777502194912e-06,8.549665415127122e-07,-7.338973878779209e-07,1.0013590148502792e-06,7.075712265724419e-07,1.0261448108275928e-06,8.830750515105481e-07,-1.3917868892049355e-06
-1.149030860867875e-05,-7.210497009538254e-07,-3.198436026180095e-07,7.865453050495411e-07,1.5784804823179964e-06,5.463369992903494e-06,1.9946153441843827e-06,1.214399678238554e-06,1.4929993398243502e-06,-7.472579479972748e-07,1.5058071463292268e-06,8.433367437984143e-07,-6.941485397151584e-07,9.56193347391e-07,6.102433249489648e-07,9.022411599532392e-07,8.640252381370268e-07,-1.449134016327639e-06
-8.199591587877642e-06,-1.758728237268512e-06,-4.432804489280641e-07,6.529314780864749e-07,1.590873780909084e-06,5.363554323343711e-06,2.043404625631658e-06,1.193062062283885e-06,1.4728074943222295e-06,-7.584869893665217e-07,1.1871673312731326e-06,8.351124066660138e-07,-6.234759129548033e-07,9.17016832100541e-07,5.59268515478503e-07,7.573363129322159e-07,8.485239974489105e-07,-1.5087840422192606e-06
-4.60422492872596e-06,-3.1134354537884224e-06,-5.243403046312399e-07,4.869683089260127e-07,1.5908798131286188e-06,5.240719696869382e-06,2.064747241198819e-06,1.171529937499911e-06,1.470839173845579e-06,-7.607874530512928e-07,9.38192625600829e-07,8.196614478741656e-07,-5.443946884752828e-07,8.793713143257834e-07,4.558878041724938e-07,6.052041564373303e-07,8.345544318927202e-07,-1.561868226269027e-06
-1.874634500169504e-06,-4.360521038106568e-06,-5.686340083087836e-07,3.4827810719382073e-07,1.5715154268309147e-06,5.037642912068956e-06,2.0585304809542177e-06,1.1489675324188378e-06,1.463591282313159e-06,-7.656623421737894e-07,8.3625788462282e-07,7.883988675778968e-07,-4.833063489979777e-07,8.375535030610012e-07,3.0924581769845115e-07,4.5131631132282957e-07,8.194298036953769e-07,-1.6042069199254238e-06
-8.034639267656778e-07,-5.22995006809455e-06,-6.040117041583108e-07,2.3895509460044896e-07,1.5276967171388127e-06,4.836856510656972e-06,2.035639602117209e-06,1.1236554828996223e-06,1.443421539031994e-06,-7.839415115375274e-07,8.857286983543986e-07,7.397429098301757e-07,-4.6014292987408255e-07,7.887690059749907e-07,2.247807101417363e-07,3.1816048429950777e-07,8.015078262971608e-07,-1.6336956754626255e-06
-1.52805777646238e-06,-5.580387580210541e-06,-6.646330974149812e-07,1.5403943166149723e-07,1.4570735542752239e-06,4.6456866071047835e-06,2.013144943190184e-06,1.0963127306451397e-06,1.4154212342589231e-06,-8.190306606524069e-07,1.0255212784987689e-06,6.80747231219826e-07,-4.815985171659379e-07,7.357081852355852e-07,1.9305904267283493e-07,2.415132924085276e-07,7.82753021489739e-07,-1.6503239554901423e-06
-3.306514508194204e-06,-5.676282929216405e-06,-7.720397492974227e-07,9.213491697202148e-08,1.3740495946546023e-06,4.459392618935052e-06,2.0083985763259243e-06,1.0695272589765107e-06,1.3716812782748952e-06,-8.660211754714034e-07,1.1660442329475534e-06,6.241467778775513e-07,-5.40941534609922e-07,6.852102627040277e-07,2.0570761531705696e-07,2.5177053895059387e-07,7.661832162120436e-07,-1.6569550174382097e-06
-4.787501380113627e-06,-5.858395992541755e-06,-9.204872860679273e-07,4.347116963601344e-08,1.2932320684643515e-06,4.280738596020926e-06,2.030472294328002e-06,1.0447377437634134e-06,1.319778947312405e-06,-9.165090091129447e-07,1.2363117901416787e-06,5.812311720855841e-07,-6.228457965029735e-07,6.436978305957159e-07,2.074944365482639e-07,2.966333537675061e-07,7.53503872596365e-07,-1.6574433991271418e-06
-4.73383598281444e-06,-6.486604353153019e-06,-1.0791176129840622e-06,-1.766075547182435e-09,1.223537911897754e-06,4.148530229520137e-06,2.075620931628641e-06,1.0205021308191426e-06,1.258588658433603e-06,-9.636657241280853e-07,1.2157546898131287e-06,5.560414625190449e-07,-7.108486285144687e-07,6.131158150609457e-07,1.8381142997965342e-07,3.5994339171696225e-07,7.437206790699164e-07,-1.657466026292099e-06
-2.7298997582173233e-06,-7.2202092612836285e-06,-1.2053280183185957e-06,-5.036664055173734e-08,1.1659751493973382e-06,4.044584753921676e-06,2.1295385165334106e-06,9.93608784906147e-07,1.197206974610382e-06,-1.0046913645266327e-06,1.1215549157195604e-06,5.450840377002031e-07,-7.914327791654054e-07,5.90840121068531e-07,1.8738434044014825e-07,3.8708739320209266e-07,7.347537037303259e-07,-1.661277307281339e-06
6.223817802902296e-07,-7.79547762419551e-06,-1.2641186645390861e-06,-1.06441206784206e-07,1.118049146536185e-06,3.947762647753361e-06,2.1740492248460196e-06,9.609479042509444e-07,1.1642312838533426e-06,-1.0383810339960078e-06,1.0037246675376102e-06,5.418381425215823e-07,-8.543800927048526e-07,5.735190236631988e-07,2.5693796960896043e-07,3.7420762201273627e-07,7.254878664304287e-07,-1.671269980154403e-06
4.06792855912802e-06,-7.854797432539256e-06,-1.2430506000953121e-06,-1.6496813372621553e-07,1.079456502217668e-06,3.872327186459066e-06,2.1977817911664603e-06,9.257987938855044e-07,1.1461317919956776e-06,-1.0623548210907368e-06,9.00341084498457e-07,5.42423979822963e-07,-8.906433930944137e-07,5.602007949868265e-07,3.5162871831480645e-07,3.63610299288044e-07,7.177021727528356e-07,-1.687852000669026e-06
6.383815601017085e-06,-7.1678590161114975e-06,-1.1531222394629273e-06,-2.2123548744825203e-07,1.0535041740995084e-06,3.80916614637446e-06,2.195020317894572e-06,8.944554336770405e-07,1.0981495634983394e-06,-1.0708147064373872e-06,8.166237801358044e-07,5.480679917829608e-07,-8.961751024588694e-07,5.547648934015837e-07,4.330969540324511e-07,3.7519577669800814e-07,7.15643477009837e-07,-1.7064704857233285e-06
6.891629913582754e-06,-6.41734017621524e-06,-1.0213652823801462e-06,-2.705563341135275e-07,1.039720823509046e-06,3.753566059676866e-06,2.168752065137523e-06,8.70563000327899e-07,1.0399080250505024e-06,-1.0592557790317313e-06,6.997573694822375e-07,5.643414602288497e-07,-8.729476686683716e-07,5.63235931951529e-07,4.950814615760758e-07,4.2140094022673904e-07,7.228292061651261e-07,-1.723054333792796e-06
5.514750711663536e-06,-5.406086796672716e-06,-8.804997219117968e-07,-3.1688046267828254e-07,1.0375316116826465e-06,3.692288348716821e-06,2.1208067289956584e-06,8.535861023506576e-07,9.90218900893099e-07,-1.027050875419422e-06,4.612978691614785e-07,5.956984168324727e-07,-8.282639245089519e-07,5.893545841247462e-07,5.480671593179438e-07,4.828801069280271e-07,7.411161397522042e-07,-1.732636317947622e-06
2.6077832594805135e-06,-4.1380344448167244e-06,-7.585198390900864e-07,-3.6917595361768015e-07,1.040001358747222e-06,3.6096685255278582e-06,2.055651819946852e-06,8.380326739091356e-07,9.520541209566011e-07,-9.771397391045897e-07,4.2092466821041715e-08,6.437942347537156e-07,-7.72301228374292e-07,6.335232307289561e-07,5.798781569565856e-07,5.565677723647112e-07,7.709096636364878e-07,-1.7299646709627227e-06
-1.245499317703599e-06,-2.1806521940404286e-06,-6.731812055232625e-07,-4.299771825837073e-07,1.038005907636803e-06,3.4938945385380684e-06,1.9801389628429295e-06,8.185196547970103e-07,9.261294879052026e-07,-9.146448801065336e-07,-5.599826748260824e-07,7.055832097935703e-07,-7.138825137972421e-07,6.927726908511938e-07,6.039436173837938e-07,6.842989221864436e-07,8.111816093742722e-07,-1.7112608074434817e-06
-5.343195700991526e-06,3.2146781490406425e-07,-6.338795928170181e-07,-4.959750459247694e-07,1.0265312814049731e-06,3.3525158688585865e-06,1.8929311088709662e-06,7.950270900820631e-07,9.07173884307451e-07,-8.447057206929123e-07,-1.1863778633138728e-06,7.769528593942152e-07,-6.589518354494369e-07,7.618650089330082e-07,6.232971963637239e-07,7.920694569596564e-07,8.608370579890972e-07,-1.6805141014979224e-06
-9.075657803042082e-06,2.648685725715211e-06,-6.366329262304488e-07,-5.322114044245084e-07,1.0022185879191655e-06,3.2049924512024164e-06,1.7996673605229498e-06,7.722774562811178e-07,9.13412566938077e-07,-7.700698388278049e-07,-1.606426497395419e-06,8.483744683012564e-07,-6.118329283653988e-07,8.370387482871557e-07,6.54377807090746e-07,8.996799373356349e-07,9.164077192500543e-07,-1.6370588340994886e-06
-1.1966267238435959e-05,4.509137750652751e-06,-6.657142335683265e-07,-5.213159213663117e-07,9.65764143847006e-07,3.074972850357203e-06,1.7106097327665141e-06,7.559890846003406e-07,9.115070525297766e-07,-6.966078486249736e-07,-1.6187089517647566e-06,9.089819723264226e-07,-5.752233586108946e-07,9.159600371623525e-07,7.295266954173117e-07,9.972699960271175e-07,9.712468405881358e-07,-1.5754712785928623e-06
-1.3611748050134139e-05,5.408286805825257e-06,-6.985960289142021e-07,-4.974043222911524e-07,9.200295256663597e-07,2.98312694015088e-06,1.6255196364735562e-06,7.485616273180435e-07,8.70102839665054e-07,-6.304508500422637e-07,-1.5618670025229143e-06,9.571069657103342e-07,-5.546522275320775e-07,9.95349263107276e-07,8.092236012377115e-07,1.0546523311763377e-06,1.0176632338243493e-06,-1.5067085539263168e-06
-1.3903421534472447e-05,5.820759783634884e-06,-7.096376672482944e-07,-4.5508805257714555e-07,8.732257304755367e-07,2.9390474311549913e-06,1.5454063164588268e-06,7.490393519998617e-07,8.298708392368767e-07,-5.730242470107804e-07,-1.4925322766538945e-06,9.822843193339356e-07,-5.544339804904913e-07,1.0653542424624622e-06,8.910812380862237e-07,1.0870018195732264e-06,1.0494971380041414e-06,-1.4300339184061085e-06
-1.2998968278454918e-05,6.129851291618402e-06,-6.837726741324857e-07,-4.605025942022458e-07,8.290098932199565e-07,2.9443968578894816e-06,1.474503173988214e-06,7.555636219014992e-07,7.942289196447217e-07,-5.372082546913357e-07,-1.3588705066859126e-06,9.481491864948807e-07,-5.739611336512926e-07,1.0877451814278015e-06,9.688969027283079e-07,1.0960763090488834e-06,1.0654932324577703e-06,-1.3519815381449018e-06
-1.130885514213309e-05,6.49075779323163e-06,-6.212091479075241e-07,-3.9003135382212615e-07,7.926844554593965e-07,2.9960041430340313e-06,1.4200554909199763e-06,7.678275944429515e-07,8.326860279047541e-07,-5.336408024819279e-07,-1.2605840170632287e-06,9.071072899507758e-07,-6.101803490405836e-07,1.0644771298031224e-06,1.0360074820766e-06,1.0818228914587053e-06,1.069009789890215e-06,-1.2870707219271698e-06
-9.338253113030887e-06,6.919132697064729e-06,-5.30370612662708e-07,-2.9352811679953807e-07,7.762143685058988e-07,3.0867890102408864e-06,1.3947767211748949e-06,7.863895657767148e-07,8.780199196814153e-07,-5.463059784297374e-07,-6.550446779795727e-07,8.67517806539801e-07,-6.576653227213117e-07,1.0401124863675452e-06,1.1179786241126343e-06,1.0260354054361119e-06,1.0648768037945114e-06,-1.2253965419313828e-06
-7.401151918633439e-06,7.34055481489691e-06,-4.260959154953841e-07,-2.3146346426548676e-07,7.857946070903242e-07,3.2052742234090303e-06,1.3996426480262583e-06,8.099749419193752e-07,8.883337346693072e-07,-5.656373884407399e-07,-1.0446194046471067e-07,8.285419340581861e-07,-7.017827556658973e-07,1.0196941903965754e-06,1.1981742490582362e-06,9.617492085539227e-07,1.0544790282711865e-06,-1.170596126898565e-06
-5.578043130795521e-06,7.654731564906035e-06,-3.1834972614245744e-07,-2.1056079917113987e-07,8.201989772409254e-07,3.3274986150410134e-06,1.4259423839170753e-06,8.360169475851734e-07,8.91338459543373e-07,-5.977782868351612e-07,2.349388071613923e-07,7.983002486951648e-07,-7.311675457092885e-07,9.857554100506538e-07,1.266379425657278e-06,8.890519980388147e-07,1.038542562068923e-06,-1.1204720934205775e-06
-3.9462154147218176e-06,7.700494282801039e-06,-2.1751227224742722e-07,-1.8978682013420952e-07,8.697005993187972e-07,3.427637034124938e-06,1.4576461357277629e-06,8.611192629111265e-07,8.894616691090158e-07,-6.391188690443089e-07,5.855342205029276e-07,7.815149398936583e-07,-7.362093944015741e-07,9.476782686709534e-07,1.2861075265999528e-06,8.343647746348976e-07,1.0157585242489432e-06,-1.0747079528688672e-06
-2.646915051265785e-06,7.392687967736249e-06,-1.2773960289206687e-07,-1.9702362853650647e-07,9.201853115642837e-07,3.4779613632242843e-06,1.4741362540612098e-06,8.840063811712022e-07,8.894986784471902e-07,-6.824857265723564e-07,8.616804115198721e-07,7.690912018227411e-07,-7.137218045694329e-07,9.071906454216511e-07,1.1998816919613518e-06,7.986594298711287e-07,9.860300952945464e-07,-1.0311453919207595e-06
-1.9115383465231057e-06,6.5648655705382436e-06,-5.354566845511547e-08,-2.265967130923246e-07,9.55485416361699e-07,3.4628189761429986e-06,1.4634145041510267e-06,9.055502797412665e-07,8.896361959340929e-07,-7.194373764824385e-07,7.014734805570678e-07,7.530910251235725e-07,-6.761192138631925e-07,8.507411231339252e-07,1.1573749558274438e-06,7.653529550194646e-07,9.5148275073567e-07,-9.876508062126704e-07
-2.0109564563694033e-06,5.200670791684439e-06,-1.5448465187031876e-08,-3.030831186856991e-07,9.734461150437422e-07,3.3921529342873725e-06,1.41847481162657e-06,9.252511316166291e-07,8.618101231942697e-07,-7.509723166691141e-07,4.5403752447314104e-07,7.242093704250104e-07,-6.624693676221277e-07,7.859231918739865e-07,1.1368307258734498e-06,7.238545982683467e-07,9.135266926083089e-07,-9.498152405030229e-07
-3.1095343068486217e-06,3.370699836395003e-06,-2.3281874696860917e-08,-3.6118467927768603e-07,9.63326966250375e-07,3.2780453292486577e-06,1.3528832767333915e-06,9.395290942254677e-07,8.090886885132235e-07,-7.819301453547632e-07,3.5979879284459306e-07,6.731450040563732e-07,-7.09893956912035e-07,7.134290100156578e-07,1.1210052463406787e-06,6.859984065492926e-07,8.723176664513121e-07,-9.205957461555676e-07
-5.193217698568001e-06,1.2543479750442806e-06,-9.55908997561109e-08,-3.9381459345751345e-07,9.256091753479912e-07,3.140754466979881e-06,1.2653400614736144e-06,9.43557784611214e-07,7.679121998480921e-07,-8.181544638219192e-07,4.56089659328913e-07,5.937877524607856e-07,-8.253403483862496e-07,6.314464680394471e-07,1.1102236365495816e-06,6.513869446965143e-07,8.28749077525175e-07,-9.050782246174434e-07
-7.845012164369765e-06,-9.144410669678438e-07,-1.9626449492339771e-07,-4.1543596661868546e-07,8.653393556549917e-07,3.0005848244123447e-06,1.1795804046687147e-06,9.34104484596624e-07,7.592841125658341e-07,-8.663254392706059e-07,7.353990519053031e-07,4.845657479183293e-07,-9.291693376050064e-07,5.571132846736533e-07,1.092081022976917e-06,5.877522886007505e-07,7.84106827387227e-07,-9.011929397838953e-07
-1.0197984970789015e-05,-2.7334431699956607e-06,-2.857518365788644e-07,-4.27865954689291e-07,7.890184879786871e-07,2.869366747967565e-06,1.103883903569638e-06,9.154235029855936e-07,7.575922901149115e-07,-9.254013941739224e-07,1.0995316601841105e-06,3.677182826279222e-07,-9.775312917431658e-07,4.846450065070281e-07,1.0781120963507484e-06,5.095007328512912e-07,7.410792464731953e-07,-9.053689409749143e-07
-1.1512347219182979e-05,-3.8138769078214566e-06,-3.3326674856231714e-07,-4.3809723955953517e-07,7.109200630768644e-07,2.7672647118093753e-06,1.0312161159743866e-06,8.944791713402032e-07,7.563769155181824e-07,-9.858467245650362e-07,1.5908000389522334e-06,2.503234564382754e-07,-1.051389785874637e-06,4.1605773674845475e-07,1.0381187137109182e-06,4.2400774741847083e-07,7.039180111266681e-07,-9.149284813148822e-07
-1.1452694978223067e-05,-3.771963348780024e-06,-3.112529926649771e-07,-4.3839833525816453e-07,6.448520389690102e-07,2.7292715068999446e-06,9.89343431937933e-07,8.775381011022055e-07,7.497189620794792e-07,-1.0490684464962863e-06,2.111127873357153e-06,1.6424308470112047e-07,-1.1888614402097436e-06,3.6072947822795503e-07,9.8278043167195e-07,3.4871404335840437e-07,6.753231995174597e-07,-9.221948555193265e-07
-1.0230870612265625e-05,-2.4275242262586085e-06,-2.3825296917205698e-07,-4.3302732039770783e-07,6.018307492835512e-07,2.7330136373666303e-06,9.842055027886826e-07,8.67688533701596e-07,7.479332831176421e-07,-1.1116625316598133e-06,2.4673026845725452e-06,1.2174874243598348e-07,-1.3126752056420568e-06,3.433641319775736e-07,9.376861233835781e-07,3.4486877800017534e-07,6.555021766672548e-07,-9.286486104604676e-07
-8.593483096756501e-06,-2.9887532271479995e-08,-1.5125480159452012e-07,-4.3334650923378743e-07,5.759235433929263e-07,2.7623349783389515e-06,1.059674736023369e-06,8.646714393889288e-07,7.589277997811518e-07,-1.1532865436725044e-06,2.4785403396009097e-06,1.3317927412950278e-07,-1.3682690322588384e-06,3.559460725885862e-07,8.803487046714616e-07,4.0079797325711695e-07,6.44648800044283e-07,-9.319276466106869e-07
-7.3968079660151995e-06,2.8061628468534916e-06,-9.494691759488701e-08,-4.458381699016548e-07,5.637353325251683e-07,2.868115897784505e-06,1.1411273137324097e-06,8.683323943080132e-07,7.906727822396744e-07,-1.1794963498884898e-06,2.0936047403098523e-06,1.478385340166071e-07,-1.3515714215608583e-06,3.970963104375083e-07,8.618806645669148e-07,4.3048915757609093e-07,6.396042095023017e-07,-9.297097640555821e-07
-7.2293100213227325e-06,5.251509353798609e-06,-7.626749980607317e-08,-4.772275978047593e-07,5.595071127425216e-07,2.853474430460944e-06,1.2117999263858946e-06,8.768963528819854e-07,8.407484182295088e-07,-1.1708881691271194e-06,1.852497659472093e-06,1.5969514830310768e-07,-1.3245485213058834e-06,4.660829968229158e-07,8.70352176642392e-07,4.2849824111402814e-07,6.39360311074301e-07,-9.277467248108274e-07
-8.286620435602993e-06,6.599675316610469e-06,-1.2322664891004435e-07,-5.276463257128765e-07,5.556851875829413e-07,2.920707990351014e-06,1.2652793317654544e-06,8.896340057093508e-07,8.970372363086487e-07,-1.0880686328695407e-06,1.7136394486787293e-06,1.8110903612614916e-07,-1.3430073361636659e-06,4.6496206447914613e-07,8.416366599479883e-07,4.456741424030602e-07,6.441035443365889e-07,-9.230381955413897e-07
-1.041610092903297e-05,6.5219903224661585e-06,-2.1858404217800452e-07,-5.894904208221124e-07,5.551365757047647e-07,3.097568703973176e-06,1.3110069768695733e-06,9.053971347141909e-07,9.587019020347692e-07,-1.0356941451203464e-06,1.471327965812493e-06,1.6839582930722937e-07,-1.4005567532274257e-06,4.440632454633019e-07,8.07612844572839e-07,4.1805586177016285e-07,6.411406781932059e-07,-9.10287746684309e-07
-1.3245715873434104e-05,5.160181582576855e-06,-3.245529705041605e-07,-6.516923618341018e-07,5.559799115218868e-07,3.2213986876067053e-06,1.324402618968152e-06,9.205001028105293e-07,1.0056031621412442e-06,-1.0243639130442437e-06,1.0153803294274452e-06,1.7117879759277473e-07,-1.4332088255205151e-06,4.5453505251305923e-07,7.803286997249334e-07,4.121389230802833e-07,6.308372827000273e-07,-8.902041061804966e-07
-1.61063012354725e-05,2.9457635848499864e-06,-4.3072590732139926e-07,-6.933659684208225e-07,5.552960570875819e-07,3.3124485017913557e-06,1.3684462316829963e-06,9.351303545253125e-07,1.0225251462843192e-06,-1.0148919171898925e-06,4.284075340577521e-07,1.8916310019118683e-07,-1.4916707269086465e-06,4.6457941898708566e-07,8.06678516946744e-07,4.2134326551340845e-07,6.173851137993111e-07,-8.776226647025311e-07
-1.836179240137904e-05,4.796005894434895e-07,-5.209880224234233e-07,-7.218424465835418e-07,5.67260845062149e-07,3.412126566813577e-06,1.41410948187833e-06,9.493933970503428e-07,1.0203145760881606e-06,-1.0342978776270054e-06,-1.8932164625130599e-07,2.3370244570290138e-07,-1.4995797375085612e-06,4.939806614427841e-07,8.299170357618963e-07,4.6335292264247204e-07,6.038068175571968e-07,-8.597439413649611e-07
-1.9649163578394033e-05,-1.6078370418461407e-06,-5.623046652357118e-07,-7.322004381924013e-07,5.823743302731832e-07,3.3499255880067047e-06,1.4323980975820101e-06,9.639214488668439e-07,1.006367363194723e-06,-1.0445360797973939e-06,-6.593044502087039e-07,2.9207389451989515e-07,-1.5043867425561283e-06,5.333376208500458e-07,8.360745936276658e-07,4.801918553666374e-07,5.967421221266249e-07,-8.367062723854266e-07
-1.9994229592403637e-05,-2.8110741215724826e-06,-5.512570932630507e-07,-7.128850857109332e-07,6.0268957765072e-07,3.3640651598783952e-06,1.4375907762345684e-06,9.799734855488223e-07,9.890481532582773e-07,-1.0216857097595116e-06,-9.75569349347425e-07,3.4931800461209557e-07,-1.48417850465167e-06,5.97845468631718e-07,8.420476589377523e-07,4.799983185089839e-07,6.128794366475163e-07,-8.173698182296324e-07
-1.9404330576643542e-05,-2.8450571832356063e-06,-4.808510569999845e-07,-6.625196633248296e-07,6.272953235544709e-07,3.4272053511705717e-06,1.4474589024893175e-06,9.945298620631417e-07,9.741267584214336e-07,-1.0127037834837241e-06,-1.2725481173074412e-06,4.0215917831680364e-07,-1.426378214146771e-06,6.617101794790093e-07,7.984636769363744e-07,5.207647577369907e-07,6.350426530715507e-07,-7.735162772930073e-07
-1.8945394422017144e-05,-1.7173627494877713e-06,-3.742825597902298e-07,-5.857066071688176e-07,6.381708627924812e-07,3.372585441745824e-06,1.4372265742426224e-06,1.0063730503077975e-06,9.619336088078386e-07,-1.0217023094569011e-06,-1.0798206333235026e-06,4.1885361014432837e-07,-1.387803801414348e-06,7.027627825746593e-07,7.705662850781022e-07,5.325321941544447e-07,6.4476499590679e-07,-7.3913490850778e-07
-1.918407232334162e-05,2.1448078282012502e-07,-2.5667658060920756e-07,-4.916045366224604e-07,6.286711684088427e-07,3.276533461991553e-06,1.4523408049647191e-06,1.009253763954094e-06,9.306864359884913e-07,-1.0259180491611134e-06,-8.642798437340872e-07,4.38561596108035e-07,-1.3543887210801892e-06,7.24255446611773e-07,7.793950247356122e-07,5.208984067964584e-07,6.705029769350862e-07,-7.40301358447238e-07
-1.9858231497251346e-05,2.691341493861607e-06,-1.2985386840010918e-07,-3.8423357122504774e-07,6.115721403664499e-07,3.1989135363240324e-06,1.4623755185262869e-06,1.0105009782530607e-06,9.24072327795763e-07,-1.0215221241316387e-06,-6.736344272369086e-07,4.6863847739987766e-07,-1.3470170414384635e-06,7.245581184666632e-07,8.088418578087804e-07,5.152628774929229e-07,6.884581295440938e-07,-7.158508457014311e-07
-2.0727430785285526e-05,5.296529876666847e-06,-4.419333646233314e-08,-3.251593575667015e-07,5.83869292781406e-07,3.0897512952821302e-06,1.4444863436111398e-06,1.0189698229659866e-06,9.074222053126943e-07,-1.0204620876205152e-06,-2.8301160512958984e-07,5.04998163494413e-07,-1.3381020858790294e-06,7.379697133503846e-07,8.48867549833233e-07,4.403118273837136e-07,7.156574069491538e-07,-6.631873374910832e-07
-2.117635629826629e-05,7.6213187746598386e-06,7.13618645947016e-08,-2.891921359871071e-07,5.543247048127069e-07,2.898501064936615e-06,1.402526680075496e-06,1.0426267843398217e-06,8.553904449830662e-07,-1.0177179914261147e-06,1.0397453250043186e-08,5.31609036358894e-07,-1.306553299600656e-06,7.920327202642244e-07,8.696453762212147e-07,3.956229104526086e-07,7.513360600527186e-07,-6.102475651979513e-07
-2.0820371712307524e-05,9.429444173366677e-06,8.535778247869262e-08,-2.397936637347203e-07,5.757960910367336e-07,2.6660634176729778e-06,1.4065542342980607e-06,1.074682016445779e-06,8.41318394920262e-07,-1.003416211382626e-06,3.532729947839858e-07,5.446325005915479e-07,-1.2726985420085022e-06,8.304658466296128e-07,8.34615828737695e-07,3.780185650577355e-07,7.595732363589005e-07,-5.534370511498866e-07
-1.969930249817052e-05,1.0592069902885292e-05,-4.38843763104068e-09,-1.8829123740835653e-07,5.913551809966028e-07,2.450625255973176e-06,1.3906426062644643e-06,1.0980277218806116e-06,8.33804435753542e-07,-9.53712434540488e-07,6.143945034086936e-07,5.292959959694081e-07,-1.2779408716460344e-06,7.633415808544915e-07,7.14489825787725e-07,3.5501719578905084e-07,7.192383413220194e-07,-4.945375141802465e-07
-1.8830907655060118e-05,1.1237680840332892e-05,-1.2235143723685805e-07,-1.0507599796931213e-07,5.999456426694187e-07,2.275045078847871e-06,1.3496804784974236e-06,1.1093691562610842e-06,8.214053485441863e-07,-8.616355648482322e-07,3.631629587219359e-07,4.854702232766451e-07,-1.3478740573576242e-06,6.525077025346579e-07,6.438588998640255e-07,3.329871369841056e-07,6.74702845921727e-07,-4.329380226495266e-07
-1.720597989831817e-05,1.1683927631773934e-05,-7.811982234933211e-08,8.22200916149264e-10,6.147327046283828e-07,2.1369324522248942e-06,1.3123740836746978e-06,1.0689018176085379e-06,8.113010322376231e-07,-7.633375562977242e-07,1.2279109190172024e-07,4.2554092816684793e-07,-1.4861495708704577e-06,5.918764296771869e-07,5.779902036617734e-07,3.051824027082363e-07,6.464423186860245e-07,-3.8574231829592965e-07
-1.4668273253395038e-05,1.2326542768981051e-05,-8.215921036637445e-08,6.51397202948959e-09,6.264227431208763e-07,2.0454392320691526e-06,1.2935416597882893e-06,1.03121567125983e-06,8.0793979177296e-07,-7.46160734572083e-07,3.826415799736734e-08,3.4298601263735356e-07,-1.6255461216315993e-06,5.361173876636929e-07,5.026055913028283e-07,2.996997432253674e-07,6.175780078496199e-07,-3.38347402542703e-07
-1.1130000404072087e-05,1.3364874164067445e-05,-1.595820419724652e-07,-3.792535592624049e-08,6.2893109251008e-07,1.975041199962972e-06,1.280588709827437e-06,9.933407087657694e-07,7.5488795855275e-07,-8.228980511821728e-07,-1.770306141723683e-08,2.5753854476119264e-07,-1.6739509536916874e-06,4.911346720802848e-07,4.649462829462969e-07,2.8673780417497436e-07,5.920351919840345e-07,-2.996913477356688e-07
-6.473650723185346e-06,1.4811646255604613e-05,-2.2436782251802402e-07,3.9300560721525674e-08,6.292812321890588e-07,1.90464763133052e-06,1.2700453955778865e-06,9.5368753466908e-07,7.173962729457963e-07,-8.973502507893723e-07,-4.0899879272392527e-07,1.8395347713379393e-07,-1.6543868438087458e-06,4.863188687264499e-07,4.25496760711045e-07,2.408248017971476e-07,5.731199414962766e-07,-2.6959731678296627e-07
-1.6140560146911105e-06,1.644877647519736e-05,-1.8929683538549059e-07,1.8726982139646978e-07,6.158173393250442e-07,1.937118137901225e-06,1.2637289217978428e-06,9.193854748554382e-07,7.092705499667135e-07,-9.590775056256548e-07,-7.052870188011602e-07,1.6807822317852992e-07,-1.6597453634510314e-06,4.987928885183862e-07,3.313070864327571e-07,2.1628289580185543e-07,5.353811610522995e-07,-2.410544273689426e-07
2.51644550414345e-06,1.791139016805615e-05,-1.1310442022367471e-07,2.5181193762298105e-07,6.095891325883904e-07,2.082009480526809e-06,1.2365255770655261e-06,8.728316212611968e-07,7.049236526725319e-07,-1.0175519118392453e-06,-6.410705989645435e-07,1.3293268988323934e-07,-1.6609343902358285e-06,4.4883248659513905e-07,2.5320120006452673e-07,2.0281048209452745e-07,4.813856611046522e-07,-2.0562765425675616e-07
4.966569553607433e-06,1.8925147103015234e-05,-9.163117802124215e-08,2.715551209400337e-07,6.14379202870856e-07,2.1532953896657335e-06,1.2464642450428008e-06,7.823680612601725e-07,6.842874252273143e-07,-1.063543157810441e-06,-3.1001684949400044e-07,1.0117655635053193e-07,-1.7256359805513538e-06,3.518213472176107e-07,1.9994423746906712e-07,1.86080352242298e-07,4.505961577775847e-07,-1.7404559443567415e-07
5.856101975776165e-06,1.9371999717046052e-05,-1.261132433290407e-07,2.4348712882585376e-07,6.060426312443941e-07,2.171168313818843e-06,1.272638114626871e-06,6.985321790270203e-07,6.81814752279537e-07,-1.089611712803729e-06,2.144697913860103e-08,6.160220951706244e-08,-1.779909797433018e-06,2.738645302458907e-07,1.4374712117537572e-07,1.7229346532165455e-07,3.9068525017945525e-07,-1.436248929302881e-07
4.61645275053879e-06,1.925682856449165e-05,-3.342020096465078e-08,2.366850978647754e-07,5.896419397565663e-07,2.1608893318476588e-06,1.295365012204357e-06,6.427759759550944e-07,6.742276674672231e-07,-1.0904086019638019e-06,1.9535113067201416e-07,-1.565024443168507e-08,-1.8274872100011848e-06,2.3007539317017056e-07,7.044060486268316e-08,1.5074282419995146e-07,3.246058612962093e-07,-1.0381795042835755e-07
2.2787248142776637e-06,1.8690491510540766e-05,-1.734005652173705e-09,2.9681127631205064e-07,5.957016782700223e-07,2.1431026479749792e-06,1.3200695802166882e-06,5.992234282376539e-07,6.806090903642836e-07,-1.1117791700053962e-06,3.606735585466935e-07,-8.037574612623002e-08,-1.891607752134394e-06,1.750803820572156e-07,-1.749730849890608e-08,1.228370938366317e-07,2.3152422203386476e-07,-7.245815314005539e-08
-5.2676854250214845e-08,1.7590098243844323e-05,1.1249712389758091e-07,3.779540133412076e-07,5.818360663178026e-07,2.223458738176426e-06,1.3428551768397052e-06,5.392476865576034e-07,7.017390539729706e-07,-1.1411695520816714e-06,6.253231043251476e-07,-1.506121697750603e-07,-1.9460986217416115e-06,1.5028943504837524e-07,-1.0124435709844196e-07,9.375085600824559e-08,1.5975294580729993e-07,-4.994129037004096e-08
-1.9561357676958914e-06,1.5978570616815797e-05,2.050794834237452e-07,4.6081448801980356e-07,5.934383937945322e-07,2.359755256591006e-06,1.4025370926698457e-06,4.969476917097994e-07,6.783726770938305e-07,-1.1940820331028485e-06,1.1739228421186087e-06,-2.3485429159493942e-07,-1.993094213170935e-06,1.180653482050372e-07,-1.9856765236328864e-07,7.304033283711055e-08,1.1839036836680063e-07,-1.9828548017047186e-08
-3.096654841497157e-06,1.3970735893713564e-05,2.0023569163662532e-07,4.813969993495492e-07,5.626721158841663e-07,2.361465921811053e-06,1.4408681029339038e-06,4.5538959520528825e-07,6.761789740363518e-07,-1.2575069622155223e-06,1.6818436620772798e-06,-3.219566866644544e-07,-2.0330926515874514e-06,5.680717463110409e-08,-2.792213057421735e-07,4.0879710464553036e-08,6.969153643927838e-08,1.320389104315333e-10
-3.807014511388332e-06,1.1748256890011445e-05,1.0765112044799774e-07,4.4509510305812304e-07,4.948852893952187e-07,2.3543215534585847e-06,1.4618063365979094e-06,4.2330853030212105e-07,6.488984611908395e-07,-1.3174805120862859e-06,1.9275367540200297e-06,-4.243543199170484e-07,-2.084621841209011e-06,-7.306200759291848e-08,-3.419456001585757e-07,1.13985142407514e-08,1.0694055477488768e-08,1.781874956030573e-08
-4.486897143254279e-06,9.600888131779131e-06,4.968909611591259e-08,4.4372742046804894e-07,4.3774641100695516e-07,2.4121197482372355e-06,1.4652431760682218e-06,4.1678258305095936e-07,6.431269876046516e-07,-1.3775315416477688e-06,2.0622463999339137e-06,-5.253385757366107e-07,-2.1525769143140695e-06,-1.7992337729091961e-07,-3.605453496283048e-07,4.444096347376087e-09,-5.6872430158425e-08,3.618107170886098e-08
-5.565981964054845e-06,7.699581280057867e-06,2.699363098869949e-08,4.554548919135569e-07,4.246112082457066e-07,2.413373564182506e-06,1.4289267733111336e-06,4.439299322415565e-07,6.675662542991873e-07,-1.4375265789204841e-06,2.40344264939083e-06,-6.015949443526902e-07,-2.2302072865587053e-06,-2.140600443401686e-07,-2.9125801923049025e-07,2.7582130690378687e-08,-1.267522259974223e-07,5.333421407646876e-08
-6.88316071975062e-06,6.059338491643537e-06,6.445656998590713e-08,4.529362013724285e-07,4.4803039925744056e-07,2.415557340144507e-06,1.4189414429652987e-06,4.645111720243025e-07,6.883348667083694e-07,-1.482180565072427e-06,2.6010161052232995e-06,-6.563195851818728e-07,-2.263591740206149e-06,-2.471304584337136e-07,-2.8886049242278495e-07,4.297921516917084e-09,-1.6852801489823517e-07,4.1110122448452165e-08
-8.336526634273421e-06,4.644653201070849e-06,1.766507932870544e-07,4.632673523653185e-07,4.2655093936436815e-07,2.3930517352434465e-06,1.366993812446919e-06,4.818286909976719e-07,7.36311725405483e-07,-1.5083882859080202e-06,2.6644947472225386e-06,-6.798409123515461e-07,-2.261319394193215e-06,-2.607227950780154e-07,-3.0559117085292214e-07,2.445296607171944e-08,-1.7144898378611855e-07,4.771984626072381e-08
-9.951293105865801e-06,3.6114734280082597e-06,2.3216628899465634e-07,4.5068424028473953e-07,3.781860807074877e-07,2.2935293977659905e-06,1.2884809694662661e-06,4.816596394911343e-07,8.01260321784902e-07,-1.4957795612293575e-06,2.7489987755704447e-06,-6.685921104626401e-07,-2.202186681824479e-06,-2.715428311172432e-07,-3.2038545982633693e-07,-4.019449764740168e-09,-1.7454082976916062e-07,7.225605557123089e-08
-1.1501544161254367e-05,3.2531647440914517e-06,1.4984138718927565e-07,4.021007535348212e-07,3.294685868611394e-07,2.182388903165473e-06,1.2507597733852836e-06,4.47325089552893e-07,8.448334906095604e-07,-1.4939401594220544e-06,2.509765424290639e-06,-6.793649862289499e-07,-2.1280251201909393e-06,-3.300357155489046e-07,-3.836533659958383e-07,-1.4058421553564457e-08,-1.9190795978304732e-07,6.65239682141891e-08
-1.3027293104331461e-05,3.7737658378928636e-06,7.493326057603486e-08,3.287931338117663e-07,2.540798167409444e-07,2.0882328551845664e-06,1.2211493111383206e-06,3.988505597239519e-07,9.017508978536586e-07,-1.5238027208824028e-06,2.0756963116814026e-06,-7.53456562615096e-07,-2.1502515369447762e-06,-4.0786759376785386e-07,-4.270276666834614e-07,-1.1803173706693943e-08,-2.2215282205882626e-07,1.1304463071011708e-07
-1.455157282615092e-05,5.175540119724771e-06,1.3298199762031233e-07,2.3447191072135825e-07,1.5609783754374228e-07,1.997628479840995e-06,1.1448536886907575e-06,3.4144142564809805e-07,9.83565718552098e-07,-1.5833110451931907e-06,1.6535211186657604e-06,-8.430997613258267e-07,-2.2224239199244917e-06,-4.556848117754821e-07,-4.506207405655044e-07,-4.784327370105947e-08,-2.485783244071393e-07,1.3323829590321966e-07
-1.5920058194351112e-05,7.1894925637170055e-06,2.668339817350241e-07,1.2668790762616732e-07,4.8560332924214635e-08,1.9469153637728027e-06,1.1653778193941918e-06,2.8133037298165996e-07,1.0433733510029113e-06,-1.652726068895398e-06,1.2377967482536276e-06,-8.756589897264621e-07,-2.2537087174153217e-06,-4.584189198952216e-07,-4.6137010945847806e-07,-5.517063661735267e-08,-2.798195788536931e-07,1.3821625254928857e-07
-1.693414180322701e-05,9.407865475206813e-06,4.5910331546382543e-07,2.778699848211829e-08,-4.961201344891717e-08,1.9298844479827606e-06,1.2296175486878026e-06,2.2712528521874138e-07,1.0928989581698235e-06,-1.7121654079297253e-06,1.1328728346752698e-06,-8.494473163047352e-07,-2.2402187652364657e-06,-4.603082197659721e-07,-4.568284508294702e-07,8.364958169282753e-09,-2.8220792457331856e-07,1.2480157985249246e-07
-1.7281332182110767e-05,1.1430079024391298e-05,5.09525306221183e-07,-2.928089577421821e-08,-1.3571114640435968e-07,1.9272130033571783e-06,1.305463418735893e-06,1.7930116995895478e-07,1.1067333117318557e-06,-1.7513040831228276e-06,1.4871906023140122e-06,-8.053234802016039e-07,-2.2295096476921152e-06,-4.4444975331763443e-07,-4.343412954044459e-07,1.1052564305099233e-07,-2.7284472711599353e-07,1.0738126491575774e-07
-1.6621415949606033e-05,1.2959219338498452e-05,5.017672883324293e-07,-4.8081961081371025e-08,-1.9775685037385504e-07,1.939196663644272e-06,1.3641595903976546e-06,1.3807854105523002e-07,1.091548853663265e-06,-1.7767478005328807e-06,1.6276204882884118e-06,-7.580293689867874e-07,-2.204600434822307e-06,-4.249820358720784e-07,-4.208566596945266e-07,1.5058735484267714e-07,-2.6594440444005627e-07,9.030756415887556e-08
-1.4475097374141556e-05,1.3901589863776706e-05,4.2978601079744273e-07,-3.8060108860106774e-08,-2.3674461669605997e-07,1.9605984641700697e-06,1.3911494187171614e-06,1.0652593466414827e-07,1.0987207109621923e-06,-1.7738858538729842e-06,1.4610962668665065e-06,-7.519189205764024e-07,-2.1889538582866637e-06,-4.347597541106261e-07,-4.3744841029510294e-07,2.2276329390732475e-07,-2.4340676133162794e-07,7.324297166902581e-08
