0,1,2,3,4,5,6,7,8,9,10,11,12,13,14,15,16,17
-3.959472641169908e-07,-1.2070014707968188e-06,-2.7565169811413203e-08,-8.55057636238961e-08,-1.6538484173332465e-07,-9.877284149274158e-08,-1.018552981630387e-07,9.768633788971676e-09,-4.3933615765831056e-08,-9.673194869046046e-08,-1.0604467511964984e-07,-2.120172029361733e-07,-2.8403047845638233e-07,8.873200031512318e-08,4.652544663743653e-08,-8.35956839817665e-08,-5.601482926028611e-08,-2.6393540507625025e-07
-4.6849292613729076e-07,-9.970831144332219e-07,-9.809098416161274e-08,-1.3003425438939617e-07,-1.5487086906706567e-07,-1.7419759265653843e-07,-6.707085702138064e-08,3.083948682317517e-09,-4.4244974027996366e-08,-6.85919798995544e-08,-5.4616159395754875e-08,-1.4130413987896366e-07,-1.898165957694899e-07,1.2797634076028944e-07,-6.416762940920813e-09,-8.363623467965444e-09,5.605782805826496e-09,-2.1875610833645985e-07
-4.90912952221283e-07,-6.12142698756919e-07,-1.660189909199156e-07,-1.7354667818570227e-07,-1.1821612220088575e-07,-2.3829115430422835e-07,2.097051119201653e-08,3.418350873243164e-08,-1.4420047517614321e-08,-2.2937541196588273e-08,4.829552122512556e-09,-4.3987757360663454e-08,-8.010717066477872e-08,1.7539951806874434e-07,-4.1687242542533866e-08,8.700906205182489e-08,7.453689737474093e-08,-1.6169082939093996e-07
-5.039944681972701e-07,-2.2956534379587285e-07,-2.193812330347504e-07,-2.0284393937098638e-07,-6.623324526633746e-08,-2.4643505508534046e-07,1.4040076407355357e-07,9.204515046992834e-08,3.630342353671809e-08,3.0953045556304185e-08,6.078855630500458e-08,6.424826148706936e-08,4.140731446181263e-08,2.2051409189232785e-07,-5.7063171777200875e-08,1.8247599813755658e-07,1.3635209475388807e-07,-9.892465257414442e-08
-5.237019604080186e-07,2.5967534619537065e-08,-2.3085048531583645e-07,-1.8772141250383865e-07,-1.0208491751695355e-08,-2.1581271436748773e-07,2.5846750009398974e-07,1.5599845532656596e-07,9.157291801533047e-08,8.055162636469267e-08,1.0286618494845836e-07,1.4368334415472754e-07,1.2039254285937082e-07,2.486852796403855e-07,-5.336140892100854e-08,2.567843945495918e-07,1.7796302441100786e-07,-4.1187650846726545e-08
-5.415578439551863e-07,1.0557135831650907e-07,-2.2601360490364905e-07,-1.907079537770696e-07,4.036111446178573e-08,-1.5168039935860353e-07,3.400192539324903e-07,2.0277456549919548e-07,1.3397114568511926e-07,1.1419098973085926e-07,1.2500321112569317e-07,1.5621245279087206e-07,1.4588331053839984e-07,2.1984762781431563e-07,-3.835371774392877e-08,2.9432552277038845e-07,1.9148164359084444e-07,5.662705875669786e-09
-5.375789400422097e-07,1.7558480391307515e-08,-2.2491047045598005e-07,-1.3451859610458957e-07,7.615606684461436e-08,-7.25238601842403e-08,3.5808471581140774e-07,2.1498779437711748e-07,1.51123031491572e-07,1.2515540503057056e-07,1.2635787066603532e-07,1.5004285933379632e-07,1.6095153909158988e-07,1.9907157268497964e-07,-2.001697848477494e-08,2.8778875636006576e-07,1.752955298902867e-07,3.728026824572981e-08
-4.887305494124789e-07,-1.9334014543048444e-07,-1.942386849947788e-07,-3.864992025504619e-08,9.118495028774737e-08,-1.3138604475467746e-09,3.0256243536297063e-07,1.8708768187127103e-07,1.3902904329322964e-07,1.128731378560138e-07,1.0989343527687808e-07,1.282893192665399e-07,1.573504576771261e-07,1.6638888333872521e-07,-5.455836553960057e-09,2.3771958754129733e-07,1.3306065456965935e-07,5.256978062960869e-08
-3.707375328150146e-07,-4.4168279030431636e-07,-1.064046770793319e-07,3.1431382712372544e-08,8.79041727707024e-08,5.5168278737875e-08,1.8421865966945598e-07,1.2640074594873389e-07,1.0255601993806379e-07,8.273342239441827e-08,8.02895951817153e-08,1.6059487033275909e-07,1.5601283432469742e-07,1.0989056883602611e-07,1.9609783392090077e-09,1.5204669645201635e-07,7.24596752168003e-08,5.639052955121797e-08
-1.6650212883646897e-07,-6.054263655187205e-07,-9.859588841075147e-09,7.825268594640871e-08,7.181380445319287e-08,9.511898466407911e-08,3.1009314516752895e-08,4.870980862418743e-08,5.286098334714362e-08,4.3133549740566444e-08,4.263924033091556e-08,1.3154836761924735e-07,1.0784190378306853e-07,1.2817274517273481e-08,4.280229864889745e-09,4.4974661614294424e-08,3.566645173562852e-09,5.753163923374592e-08
1.1728437743279557e-07,-5.68870787821473e-07,7.011155258249417e-08,1.2371360519556555e-07,5.021806529641725e-08,1.2140096126769683e-07,-1.2122005491449177e-07,-2.9515093592236917e-08,2.0169222027045323e-09,2.5732846863031355e-09,1.70445372337138e-09,6.155012292017061e-08,2.411628489240448e-08,-7.996412537135591e-08,7.042907691896003e-09,-6.630688453471865e-08,-6.325795790345418e-08,6.175376106225636e-08
4.422884955888363e-07,-2.76219417540334e-07,1.7343487451908756e-07,1.4903790411373655e-07,3.088909642905354e-08,1.4102006447322264e-07,-2.401579889036163e-07,-9.777115645500754e-08,-4.2246955799260147e-08,-3.2965427259757144e-08,-3.832980450023958e-08,2.860574532343887e-09,-2.3275834222089666e-08,-1.6235203449546664e-07,1.5056040159268517e-08,-1.6603216618010502e-07,-1.1930259548915735e-07,7.387390783493705e-08
7.500296056133431e-07,2.4806833811693573e-07,2.530220256069034e-07,1.6774379366486177e-07,1.8502607104606313e-08,1.6072404215616622e-07,-3.0590747440448747e-07,-1.5404838475012697e-07,-7.904518927394086e-08,-6.127815296640003e-08,-7.407143191338234e-08,-6.884294754627149e-08,-6.848959362261644e-08,-2.3963336985933406e-07,2.7910716752937427e-08,-2.4382777276871887e-07,-1.5924521198172272e-07,9.398436283036259e-08
9.832801107125072e-07,9.169283583555514e-07,3.043873612431825e-07,1.84066163291832e-07,1.4358916406025233e-08,1.8383985773115137e-07,-3.14393270482156e-07,-2.0430243271189348e-07,-1.1403780394101433e-07,-8.341541456340886e-08,-1.0380934128366214e-07,-1.4063584739134838e-07,-9.305488633561525e-08,-3.0760415672093443e-07,4.09702125730693e-08,-2.9704681556351785e-07,-1.8251301995055165e-07,1.139556162136048e-07
1.1024971255273476e-06,1.610845831908069e-06,3.4409224581095294e-07,1.972617802496951e-07,1.5937143481481964e-08,2.0915774472968815e-07,-2.759154049329374e-07,-2.5924248987003573e-07,-1.5660249912981995e-07,-1.0282385824930118e-07,-1.2814458483065068e-07,-1.8260191835994753e-07,-9.264651850022488e-08,-3.656152461529587e-07,4.532062740796599e-08,-3.2966990005445646e-07,-1.930253693413273e-07,1.2230620402435657e-07
1.0927768512673807e-06,2.2063922326902526e-06,3.582858297557227e-07,2.1202120303605336e-07,1.7587632483682283e-08,2.3259754413684875e-07,-2.0921280583052908e-07,-3.3016073594142016e-07,-2.1490240205440331e-07,-1.23420138534258e-07,-1.4935610263724465e-07,-2.0964035896415843e-07,-8.25351100572743e-08,-4.1415422526814026e-07,3.328795953765502e-08,-3.482818329257893e-07,-1.969629638601143e-07,1.0918587072303573e-07
9.652894105909008e-07,2.608750823211167e-06,3.5417124355862274e-07,2.2447320481520206e-07,1.339656965336185e-08,2.500603720925864e-07,-1.336657268487607e-07,-4.2526471242320855e-07,-2.9136252022190603e-07,-1.4767579619533457e-07,-1.698231826480893e-07,-2.238401301419062e-07,-5.919486660145757e-08,-4.543986396016176e-07,2.3534053519547178e-09,-3.5875625517681123e-07,-2.0022291424215413e-07,7.032608341964326e-08
7.552108696321961e-07,2.781720977149958e-06,3.35422343008476e-07,2.3411452185471507e-07,-2.798274720681715e-10,2.5937041659960006e-07,-6.314808026628082e-08,-5.507803867036939e-07,-3.807955245211703e-07,-1.7669517979537172e-07,-1.9101855619103243e-07,-2.3261430943343277e-07,-3.5564174282937045e-08,-4.877808553048992e-07,-4.4163108635902406e-08,-3.65143393981861e-07,-2.0671929531915172e-07,1.1137211433687407e-08
5.136684325980866e-07,2.759063685757693e-06,3.022486929400378e-07,2.4029485108760556e-07,-2.2680552875574125e-08,2.6077525486824617e-07,-3.6269361762069565e-09,-6.959285371439298e-07,-4.707970624451271e-07,-2.101360153793379e-07,-2.1332912389185302e-07,-2.452279965515437e-07,-1.530280425375031e-08,-5.144621424640888e-07,-9.719925962862133e-08,-3.693372386637352e-07,-2.1756591707298393e-07,-5.7897173001245904e-08
2.923575425110424e-07,2.619255020069088e-06,2.6560580413010493e-07,2.423330874989546e-07,-4.79747397084243e-08,2.5629397663007906e-07,4.56857312447645e-08,-8.390509321382517e-07,-5.441346296468481e-07,-2.465332565720461e-07,-2.3646445817272843e-07,-2.5736134996799973e-07,3.3786181444016316e-09,-5.343767624420967e-07,-1.47518917780486e-07,-3.719807725264635e-07,-2.3187626667586002e-07,-1.2354298980700614e-07
1.2600345990838592e-07,2.4362333003025866e-06,2.4069626360108325e-07,2.418507079336682e-07,-6.667867597146178e-08,2.4848309739787395e-07,8.835327376879903e-08,-9.607370768608527e-07,-5.839379652675042e-07,-2.84571050570872e-07,-2.6052404188284524e-07,-2.650629318981373e-07,2.0727431712745243e-08,-5.469355558105262e-07,-1.873058202873515e-07,-3.7555924139668237e-07,-2.493224839556427e-07,-1.7613226418672443e-07
2.399493370494196e-08,2.2433253274709074e-06,2.245732688969614e-07,2.408761681172103e-07,-6.88868190895867e-08,2.3908362753094817e-07,1.257177989737455e-07,-9.88686791641413e-07,-5.800840563986894e-07,-3.2412399489632164e-07,-2.868595674013819e-07,-2.676059511166583e-07,3.759057610084751e-08,-5.525894258101643e-07,-2.1280454407148748e-07,-3.8660657415045354e-07,-2.7210016474462716e-07,-2.1052188103607492e-07
-2.208491194391775e-08,2.0334067240768163e-06,2.2134903763259772e-07,2.413547599455621e-07,-4.775689785451253e-08,2.2825522354239076e-07,1.542716836620616e-07,-9.06232146107559e-07,-5.330442075250168e-07,-3.6536526224976075e-07,-3.1747990399303133e-07,-2.658618031278306e-07,5.274662149599546e-08,-5.525451332702501e-07,-2.2434158554850883e-07,-4.136824231712201e-07,-3.0425858807134824e-07,-2.2727935097716493e-07
-2.2711113062145137e-08,1.78355913935127e-06,2.670739589968869e-07,2.447154508464429e-07,-1.6549296145532714e-09,2.153523918643683e-07,1.6632527697224255e-07,-9.039269927744367e-07,-4.5382304049671456e-07,-4.0742804646674675e-07,-3.5326175250721866e-07,-2.62036328326492e-07,6.569133939601193e-08,-5.484271206778771e-07,-2.2398719967792503e-07,-4.62997746091842e-07,-3.4947416296400955e-07,-2.335045566765868e-07
2.1438038845158465e-08,1.4822856879390868e-06,3.53001994972828e-07,2.5101653286863785e-07,6.482716015361464e-08,2.0013290769251957e-07,1.5270936817309458e-07,-8.359119968610287e-07,-3.608899110212842e-07,-4.4776023539378306e-07,-3.926025702898029e-07,-2.5877101721821503e-07,7.462015224738257e-08,-5.422852721795767e-07,-2.1425849306598207e-07,-5.353272687524175e-07,-4.091421396236243e-07,-2.3701510216851462e-07
1.2195990925892336e-07,1.1486767960467043e-06,4.340811908823349e-07,2.6097048591492e-07,1.4199862390247804e-07,1.839522213256024e-07,1.0648116574803221e-07,-6.485293365389937e-07,-2.742116342792871e-07,-4.819871827719205e-07,-4.3120302548095855e-07,-2.5762102214202223e-07,7.820596458359054e-08,-5.356606819173098e-07,-1.9660205336658017e-07,-6.250013388432452e-07,-4.812424113129469e-07,-2.444136060153501e-07
2.9257942230368795e-07,8.346076967761684e-07,4.985838513326677e-07,2.7477415037941e-07,2.1841186956981549e-07,1.7048288631439043e-07,2.6221558922760015e-08,-4.1841481686027287e-07,-2.0780250532205773e-07,-5.052683933190621e-07,-4.6283274391483277e-07,-2.5731896156727604e-07,7.771180152217246e-08,-5.294026340857967e-07,-1.7040162427550028e-07,-7.213156892501712e-07,-5.605178654424837e-07,-2.5807336424557376e-07
5.283077847146215e-07,6.040457625936646e-07,5.503270853516072e-07,2.921675466721136e-07,2.8477832891320725e-07,1.6543286176390325e-07,-8.240844766338825e-08,-2.336174405634392e-07,-1.6576544604128606e-07,-5.133457242028062e-07,-4.813095412778606e-07,-2.5422523667712597e-07,7.592152792430187e-08,-5.233335189374987e-07,-1.3301350473486567e-07,-8.131934137605927e-07,-6.406518294665335e-07,-2.744884550462495e-07
7.901999651753129e-07,4.970153711143827e-07,5.8624319651588e-07,3.1292978165836815e-07,3.359205981972527e-07,1.7378589531118085e-07,-2.080312479555851e-07,-8.885057111139861e-08,-1.4475575809294746e-07,-5.050251795540471e-07,-4.828918591403136e-07,-2.451710482366413e-07,7.491035038748324e-08,-5.179219091068541e-07,-8.272080116437239e-08,-8.945470918450711e-07,-7.171069712079244e-07,-2.8720644472602355e-07
1.0142772595361422e-06,5.043689177475255e-07,5.827003650331428e-07,3.3556626177981445e-07,3.7044731798387535e-07,1.9689151294240218e-07,-3.369947573890911e-07,1.9622470177099898e-08,-1.3922722450991283e-07,-4.825757822897656e-07,-4.672166332309036e-07,-2.2961659933234292e-07,7.493213896118517e-08,-5.151494063414089e-07,-2.1994812676672055e-08,-9.65913565569923e-07,-7.884302732491395e-07,-2.916807791109941e-07
1.1427789540606507e-06,5.766041778628016e-07,5.59476335893238e-07,3.5676464352446817e-07,3.897978026865174e-07,2.3131132243896943e-07,-4.5752287556340305e-07,9.011347258590084e-08,-1.4481441172506682e-07,-4.4995576322835915e-07,-4.356770263825338e-07,-2.095669746912436e-07,7.354476440793327e-08,-5.179065092367006e-07,4.249885616192972e-08,-1.0320786949177727e-06,-8.55900421639507e-07,-2.878230686555051e-07
1.1550313186474149e-06,6.59254493976182e-07,5.170875449765899e-07,3.7386735373845505e-07,3.9654002035144503e-07,2.691750948352055e-07,-5.619018940246508e-07,1.2924830630418056e-07,-1.595818401744887e-07,-4.117443570798218e-07,-3.9280039551282855e-07,-1.885667928637572e-07,6.580015418188137e-08,-5.285460701292686e-07,1.0038211076533263e-07,-1.0985494455647485e-06,-9.22424873737927e-07,-2.8133212365026033e-07
1.0748960620594047e-06,7.25496378337801e-07,4.4686621233919683e-07,3.880581867192619e-07,3.9194499274035037e-07,2.995877529040086e-07,-6.467713996062788e-07,1.4335432297698763e-07,-1.8411664539299935e-07,-3.7266897460948917e-07,-3.449998126941646e-07,-1.7046867558671016e-07,4.664670343780043e-08,-5.479167964339833e-07,1.3966190309857726e-07,-1.16806281232161e-06,-9.905381680291037e-07,-2.838589694471208e-07
9.500751589962649e-07,7.842872186749492e-07,3.9837377358106e-07,3.856624712074424e-07,3.744386594560492e-07,3.109002145075989e-07,-7.115055779616578e-07,1.3442038836234633e-07,-2.2017562119942607e-07,-3.382633164310389e-07,-3.005464026153305e-07,-1.5782304633103446e-07,1.2699996891173727e-08,-5.743998060965477e-07,1.5021918911554218e-07,-1.2379791567637425e-06,-1.0598870627802684e-06,-3.072973590677631e-07
8.201548483368241e-07,8.613596984478529e-07,3.7274793001089386e-07,3.6836412375958243e-07,3.4044398644863953e-07,2.935786681009454e-07,-7.556983321464158e-07,9.981710813534755e-08,-2.687093359383729e-07,-3.140638239825249e-07,-2.6644327859336635e-07,-1.5096975637841467e-07,-3.539381327498873e-08,-6.037894567385408e-07,1.2807523152711382e-07,-1.3009057407743158e-06,-1.1261744942292665e-06,-3.618227233889635e-07
6.981671430502379e-07,9.682765989889132e-07,3.552044981131422e-07,3.283420168782717e-07,2.8685817816399587e-07,2.4291688536790493e-07,-7.785669197461289e-07,3.5133752804826224e-08,-3.2874239184227554e-07,-3.0490559958037646e-07,-2.4750250263417477e-07,-1.4858449807553235e-07,-9.362377325945571e-08,-6.306871692569888e-07,7.487540709665923e-08,-1.3485043748981189e-06,-1.1824994483855766e-06,-4.507732430518177e-07
5.760745367364681e-07,1.0802737798242746e-06,3.3698734776711747e-07,2.4369663978349793e-07,2.1372511383805128e-07,1.612587000959771e-07,-7.802441973698569e-07,-6.154452642308064e-08,-3.968595924006643e-07,-3.1329976959616613e-07,-2.4583555396153534e-07,-1.487177610748524e-07,-1.5556130741481498e-07,-6.501163072283098e-07,-9.94736838362121e-10,-1.3752239496719092e-06,-1.2220006691137537e-06,-5.681450898064648e-07
4.4269889273806837e-07,1.1381762293685868e-06,2.90728146759212e-07,1.5327449815380594e-07,1.259342385738531e-07,5.816253496493937e-08,-7.632904720511884e-07,-1.8622183587441251e-07,-4.672907111106431e-07,-3.3772092093294616e-07,-2.5975475074515035e-07,-1.4990139991394567e-07,-2.1434706540193635e-07,-6.584304214535057e-07,-8.66413663802374e-08,-1.380345011632201e-06,-1.24076320127731e-06,-7.025388878469296e-07
2.9734908689993266e-07,1.076324015698271e-06,2.18565284108379e-07,7.276327076232322e-08,3.255212806767317e-08,-5.197526789776832e-08,-7.335500014892302e-07,-3.2864666241841695e-07,-5.336798010992784e-07,-3.732726231266594e-07,-2.8508681037682637e-07,-1.5256635190245415e-07,-2.651472600594458e-07,-6.549847222717945e-07,-1.7052971565520646e-07,-1.3686527093506498e-06,-1.2400725920619095e-06,-8.408508725655694e-07
1.5249593154837308e-07,8.636807661111053e-07,1.4404501168894704e-07,-5.502565711932916e-09,-5.605019534411576e-08,-1.5423935904445537e-07,-6.999415697967723e-07,-4.7553093820017393e-07,-5.9161721482863e-07,-4.1348858040147283e-07,-3.1577358393567484e-07,-1.5941836983229245e-07,-3.0673226501299376e-07,-6.416579453176102e-07,-2.4597931770637343e-07,-1.3488286781724656e-06,-1.2263463608959096e-06,-9.72934373186992e-07
2.7335642955210714e-08,5.322668345450989e-07,6.425096409233527e-08,-6.505111033391041e-08,-1.3120344974842587e-07,-2.3729523076185613e-07,-6.724301022016691e-07,-6.143574009011528e-07,-6.395910792975467e-07,-4.526553107006977e-07,-3.455572645738045e-07,-1.7360017113774826e-07,-3.4049515151364856e-07,-6.2151250577189e-07,-3.1220798462565713e-07,-1.3294975774088289e-06,-1.2083668029743575e-06,-1.0943399583759002e-06
-6.271292438660216e-08,1.7383764231399342e-07,3.0085364954143524e-09,-1.120730410006582e-07,-1.877443162850656e-07,-2.956445877133123e-07,-6.590951042544164e-07,-7.365395726650884e-07,-6.783619903533867e-07,-4.868364851729071e-07,-3.6908940788396866e-07,-1.9624122965494575e-07,-3.6815264182808765e-07,-5.974985328393975e-07,-3.7205671337371543e-07,-1.3155354744554006e-06,-1.1937425746192412e-06,-1.2051143257899595e-06
-1.1509802373167773e-07,-9.073042492607305e-08,-6.366163771877747e-08,-1.4876525984019658e-07,-2.2469336229100892e-07,-3.298175731745411e-07,-6.643414388565324e-07,-8.385312852359702e-07,-7.100015250084245e-07,-5.139729192841701e-07,-3.83333464596583e-07,-2.2534823362359242e-07,-3.9013253590476136e-07,-5.714668971653449e-07,-4.28722576701317e-07,-1.3063409666068718e-06,-1.1863260494868016e-06,-1.3059752353176256e-06
-1.4362615084396593e-07,-1.5144609916399265e-07,-1.3797365498174785e-07,-1.7573660228265147e-07,-2.446146427133883e-07,-3.4466505594721025e-07,-6.881487883709684e-07,-9.205550383850327e-07,-7.365243407090117e-07,-5.335314272207605e-07,-3.877153423189652e-07,-2.561870244151473e-07,-4.0506759616654206e-07,-5.437631735892908e-07,-4.824321667687616e-07,-1.2961030970881468e-06,-1.1853101032669355e-06,-1.3965153443474811e-06
-1.7273626788359969e-07,5.2536630441712777e-08,-2.0479669863078334e-07,-2.0033100359721888e-07,-2.520341526056179e-07,-3.467057204132995e-07,-7.25414104078908e-07,-9.846576879184942e-07,-7.585481813237821e-07,-5.454277871371022e-07,-3.834960054915609e-07,-2.8305279901519495e-07,-4.1120718151124826e-07,-5.141021346019849e-07,-5.303216979328305e-07,-1.2768600544411756e-06,-1.1867323802406964e-06,-1.4745627257921084e-06
-2.2152193402684964e-07,5.040222291475206e-07,-2.772330810829828e-07,-2.22872558835833e-07,-2.5198436936023795e-07,-3.4182557614055403e-07,-7.681993043561423e-07,-1.033240407177991e-06,-7.753267964212681e-07,-5.500359198837545e-07,-3.7328482031058203e-07,-3.0196496874756386e-07,-4.086818220287144e-07,-4.831291587665116e-07,-5.684942124537358e-07,-1.2435313264332156e-06,-1.1867414845043056e-06,-1.537255701013513e-06
-2.8572610667836467e-07,1.1079710864978667e-06,-3.350764616459392e-07,-2.464037064271657e-07,-2.493707998108114e-07,-3.3422097292578204e-07,-8.085050375094407e-07,-1.0687796215129294e-06,-7.856338885492257e-07,-5.484957838123482e-07,-3.6053646886318335e-07,-3.122772347235124e-07,-4.0066742383197484e-07,-4.5310203249540804e-07,-5.941366561281296e-07,-1.1967375440003961e-06,-1.1839001391134728e-06,-1.5833726050462815e-06
-3.329554783118068e-07,1.7295597417347912e-06,-3.837745145731777e-07,-2.7494807805911287e-07,-2.482404926358631e-07,-3.2639982020157213e-07,-8.400252265711881e-07,-1.093602629231955e-06,-7.881173894436089e-07,-5.424777551966779e-07,-3.480651295258712e-07,-3.160925475667566e-07,-3.926140040248628e-07,-4.275905572066573e-07,-6.066635877238032e-07,-1.1413214684317017e-06,-1.1790598402937236e-06,-1.6137250173890366e-06
-3.205333694586639e-07,2.2430391768250175e-06,-4.3116345541604553e-07,-3.1165838621582854e-07,-2.5150930707011456e-07,-3.197601185204832e-07,-8.5900077119053e-07,-1.1097281674410904e-06,-7.815924635901082e-07,-5.340586931439567e-07,-3.379475024080459e-07,-3.168913769554713e-07,-3.9031691958857843e-07,-4.102259565567388e-07,-6.075989098497778e-07,-1.0832967293614634e-06,-1.174048406491689e-06,-1.6304634199051069e-06
-2.2334859849725535e-07,2.5607130706008344e-06,-4.795880298557087e-07,-3.60531391593082e-07,-2.6083426777733077e-07,-3.155844846066551e-07,-8.643457840344995e-07,-1.1190781184248972e-06,-7.66426721327191e-07,-5.256767144641848e-07,-3.3145535749712705e-07,-3.183728247897576e-07,-3.977833324828551e-07,-4.0365832441131863e-07,-5.999022504089978e-07,-1.0276131612229246e-06,-1.170191526380159e-06,-1.6368765397923894e-06
-4.8505036064879264e-08,2.6415686904979207e-06,-5.304911238689024e-07,-4.219732101625588e-07,-2.766768178044418e-07,-3.151275940871449e-07,-8.573458571203286e-07,-1.1231930292802585e-06,-7.441534666809086e-07,-5.19900568564244e-07,-3.295584546284226e-07,-3.230751249706447e-07,-4.1638571848347425e-07,-4.0864714943068447e-07,-5.868323771006837e-07,-9.768004779890487e-07,-1.166937797225786e-06,-1.6352719350776644e-06
1.7052869015734753e-07,2.4902219851160866e-06,-5.826686720915187e-07,-4.906074282788505e-07,-2.980173636017744e-07,-3.183371711830953e-07,-8.410401798790501e-07,-1.1229751070874368e-06,-7.159276185908519e-07,-5.1827395119065e-07,-3.3218909277294885e-07,-3.31475049223254e-07,-4.4417932765842766e-07,-4.234939460238288e-07,-5.699973247792967e-07,-9.313477589191907e-07,-1.1618635409582409e-06,-1.6266979630514475e-06
3.892116907197542e-07,2.1486025109920933e-06,-6.315942000795613e-07,-5.589022611427607e-07,-3.2256381642202175e-07,-3.2281633513034267e-07,-8.206000571967841e-07,-1.119370253278661e-06,-6.824538319811482e-07,-5.209576959106391e-07,-3.3799044673318367e-07,-3.424970726636759e-07,-4.773383553539328e-07,-4.4455516633826996e-07,-5.500379390138435e-07,-8.920901057409192e-07,-1.1526496781551648e-06,-1.612217859965859e-06
5.64358588165195e-07,1.6857412486646447e-06,-6.782539554774052e-07,-6.04541064393274e-07,-3.48025865328159e-07,-3.2394069516810735e-07,-8.034902577006627e-07,-1.1148644118471834e-06,-6.454741921682215e-07,-5.269230555545947e-07,-3.4493432809326344e-07,-3.545360657340806e-07,-5.122024677859914e-07,-4.6754669207528073e-07,-5.276146968156025e-07,-8.614846730936346e-07,-1.138890075927684e-06,-1.593802016900722e-06
6.607042105049661e-07,1.1931612105065854e-06,-7.131136001714515e-07,-6.08856015464804e-07,-3.7283363861288053e-07,-3.1677933065813085e-07,-7.974026060231047e-07,-1.1137463001485374e-06,-6.087186831902145e-07,-5.339914715277981e-07,-3.5026724858651155e-07,-3.6540953138396785e-07,-5.454014951015944e-07,-4.879042246762421e-07,-5.034799831953057e-07,-8.416685923541439e-07,-1.121825915309807e-06,-1.5742550740506513e-06
6.555847600552734e-07,7.76957942435852e-07,-7.305997708817175e-07,-6.20632049783923e-07,-3.9589993142381744e-07,-2.9861098579884897e-07,-8.061339479833077e-07,-1.120363271819382e-06,-5.772955099913319e-07,-5.391096989014092e-07,-3.510176188538052e-07,-3.722659836517696e-07,-5.735980466722829e-07,-5.012060976031016e-07,-4.788937449081332e-07,-8.32126595672784e-07,-1.1030584183915594e-06,-1.5563575905208858e-06
5.464378733394244e-07,5.344034030201701e-07,-7.237890466216325e-07,-6.287748653940166e-07,-4.156267235259571e-07,-2.7079534596279076e-07,-8.267674529775438e-07,-1.1366052742273073e-06,-5.55708006917745e-07,-5.391726611476584e-07,-3.446744087010792e-07,-3.725541370474619e-07,-5.940751658755862e-07,-5.040254096422963e-07,-4.558038653165889e-07,-8.296869386956098e-07,-1.0836523782215427e-06,-1.5423505492824689e-06
3.584424809142464e-07,5.2106056022494e-07,-7.009817616726665e-07,-5.897579361591523e-07,-4.301840883157844e-07,-2.3865191985469114e-07,-8.505385026411672e-07,-1.1603339300085645e-06,-5.454347091840379e-07,-5.318361452047125e-07,-3.2987502123094e-07,-3.647261418898758e-07,-6.050401244160353e-07,-4.943984697376253e-07,-4.359845887720998e-07,-8.294467026692687e-07,-1.0634184668955706e-06,-1.532679687024737e-06
1.4310660990201772e-07,7.323781619469016e-07,-6.734492113131745e-07,-5.375242967440143e-07,-4.371143565988562e-07,-2.080976054466045e-07,-8.665724720727854e-07,-1.1845197497367372e-06,-5.423519314559234e-07,-5.153514072615807e-07,-3.0618145827854043e-07,-3.480561200995817e-07,-6.047665096055577e-07,-4.716292828213406e-07,-4.193496979124668e-07,-8.255008097201308e-07,-1.0406365872088977e-06,-1.5249403353278228e-06
-3.647528275091614e-08,1.1132669432924627e-06,-6.47421848167664e-07,-4.978511056858685e-07,-4.3349089767909466e-07,-1.8287627005443108e-07,-8.670312862884012e-07,-1.1988733749359147e-06,-5.370368495378221e-07,-4.890651496212997e-07,-2.7413298205958363e-07,-3.22898119356957e-07,-5.921008565491789e-07,-4.364057886637737e-07,-4.036271580490724e-07,-8.128343375197365e-07,-1.0132428827709855e-06,-1.5143488104029982e-06
-1.2730781474702435e-07,1.5774820797659262e-06,-6.225863239398541e-07,-4.6665020720080136e-07,-4.175987269903053e-07,-1.6234673003169618e-07,-8.516148734228755e-07,-1.194061618989369e-06,-5.192314169729289e-07,-4.54284489461548e-07,-2.3582918150804632e-07,-2.9153483377468344e-07,-5.684013041660326e-07,-3.914403926880014e-07,-3.85520253826448e-07,-7.898173140730369e-07,-9.806526535263711e-07,-1.4960612541836863e-06
-1.0594773646433128e-07,2.01994527731566e-06,-5.888587783713885e-07,-4.354259580137964e-07,-3.9024071197336523e-07,-1.4230711178822166e-07,-8.280411646334602e-07,-1.1657067685076507e-06,-4.830771732449818e-07,-4.1449215126418986e-07,-1.949134022885358e-07,-2.5785230301130306e-07,-5.381040112674774e-07,-3.414265218019962e-07,-3.620432258386278e-07,-7.58609191778371e-07,-9.442774759452952e-07,-1.4670937596149362e-06
1.334453911707393e-08,2.3267780240267593e-06,-5.417891975028337e-07,-3.9934036224595017e-07,-3.5455258502459865e-07,-1.1739242805642323e-07,-8.070879124563625e-07,-1.115625086559889e-06,-4.2886360408088216e-07,-3.742569440283369e-07,-1.5745318906427678e-07,-2.2577778142683906e-07,-5.071645816450598e-07,-2.9187195129388815e-07,-3.3151430651941827e-07,-7.235725565268449e-07,-9.068349073700977e-07,-1.4271081862830817e-06
1.8486370423873382e-07,2.3991125485601406e-06,-4.785705567780785e-07,-3.5378923237156473e-07,-3.1476297818949535e-07,-8.417770201200672e-08,-7.973378491708905e-07,-1.0505504455591875e-06,-3.6264039408220394e-07,-3.377422295813183e-07,-1.2640766246280424e-07,-1.980939077345757e-07,-4.814380764390254e-07,-2.47719265385382e-07,-2.944061298702875e-07,-6.898749955222261e-07,-8.716985574050227e-07,-1.3791567151765635e-06
3.461734960460781e-07,2.1914649304381855e-06,-4.04598162607424e-07,-2.988060512776487e-07,-2.7528294499370655e-07,-4.3630144928489876e-08,-8.013500112005852e-07,-9.796309995638563e-07,-2.9417733787967165e-07,-3.0778271434739994e-07,-1.0324318896653933e-07,-1.7596108269469032e-07,-4.6470433216257073e-07,-2.1245887838814662e-07,-2.533945405940674e-07,-6.622899881361581e-07,-8.421412471938842e-07,-1.3288800607843927e-06
4.3523529704627114e-07,1.742181116315943e-06,-3.276489942403175e-07,-2.395086440216066e-07,-2.3989041946281324e-07,-1.0694112331642184e-09,-8.144382699913046e-07,-9.115329461656828e-07,-2.3354334579539403e-07,-2.852619436129625e-07,-8.627259856530343e-08,-1.587303382265469e-07,-4.5802492270590146e-07,-1.8752963107848226e-07,-2.1214181011355916e-07,-6.436818336815953e-07,-8.202353186265736e-07,-1.2824360199579059e-06
4.1035645388191014e-07,1.1692791791725035e-06,-2.5555470329188437e-07,-1.8379608113911173e-07,-2.1128822019064344e-07,3.554023540465333e-08,-8.267753976623653e-07,-8.518280585820512e-07,-1.881934235793171e-07,-2.693265069845002e-07,-7.421641378828197e-08,-1.446118271822782e-07,-4.595738989813282e-07,-1.7245475829704168e-07,-1.7410168170873482e-07,-6.346530775624061e-07,-8.06439246292077e-07,-1.2447142308160329e-06
2.6950829572223677e-07,6.250410326936882e-07,-1.9482648434426099e-07,-1.392738100011944e-07,-1.9116501416350065e-07,5.831895321772185e-08,-8.274299796049084e-07,-8.022476095131831e-07,-1.6171111962116438e-07,-2.5851294478236435e-07,-6.601342253277334e-08,-1.3209004891016758e-07,-4.6631940244011447e-07,-1.658083195357519e-07,-1.421351489306674e-07,-6.345744308972449e-07,-8.000575096875473e-07,-1.2185680549546203e-06
5.5759643454195484e-08,2.3550974878712888e-07,-1.483387542983063e-07,-1.1086375288018451e-07,-1.8025419893708904e-07,6.16710048871193e-08,-8.083836468381023e-07,-7.615081666308992e-07,-1.5343842714176233e-07,-2.5149267991117697e-07,-6.017938839546047e-08,-1.2047161833899843e-07,-4.754063548927436e-07,-1.658311319031069e-07,-1.1775730256460291e-07,-6.418708866505823e-07,-7.994545732341475e-07,-1.2043094958197181e-06
-1.6050120798948846e-07,5.931129790910629e-08,-1.1200981578287916e-07,-9.951584485546626e-08,-1.7795889081613036e-07,4.401330803749478e-08,-7.667149922273859e-07,-7.257936903919077e-07,-1.5827941400682815e-07,-2.468473580498047e-07,-5.577807553932686e-08,-1.0932035072413359e-07,-4.838212614509995e-07,-1.7025786662666248e-07,-1.010276635069878e-07,-6.536929510919231e-07,-8.022350413945491e-07,-1.1996899423892128e-06
-3.1410789463367147e-07,8.31845142970725e-08,-8.344697048981553e-08,-1.0249687590324559e-07,-1.824078704622902e-07,8.01423645024623e-09,-7.054178119719533e-07,-6.907801866286606e-07,-1.6887960418131651e-07,-2.432519614997466e-07,-5.0844119149672214e-08,-9.868125857540484e-08,-4.894608227185334e-07,-1.7673302792682156e-07,-9.13318698342568e-08,-6.674360346002783e-07,-8.06590413568841e-07,-1.2017388055907165e-06
-3.6875110271587e-07,2.5203755907665723e-07,-5.914674196237148e-08,-1.1536742487379642e-07,-1.9126322572580422e-07,-4.112490619171256e-08,-6.33073884941337e-07,-6.539811026389005e-07,-1.7989661893405328e-07,-2.4071980020562515e-07,-4.496594960361059e-08,-9.021302329545555e-08,-4.931393317724005e-07,-1.841290251305971e-07,-8.92130854226767e-08,-6.834500765772068e-07,-8.130049580015479e-07,-1.209231123478072e-06
-3.175243223479534e-07,5.139271156947188e-07,-3.970906622419631e-08,-1.341491815955374e-07,-2.03136530488637e-07,-9.793300485162018e-08,-5.618876717847235e-07,-6.164750725286929e-07,-1.9079012893482073e-07,-2.412261835709264e-07,-3.9308702579392204e-08,-8.710177008082964e-08,-4.989745871460372e-07,-1.9315963802866706e-07,-9.707788433628364e-08,-7.055762564743693e-07,-8.244000359727802e-07,-1.2233999771915754e-06
-1.7143932450204489e-07,8.481675178351625e-07,-2.6053961912490664e-08,-1.5620487804700596e-07,-2.174132707007607e-07,-1.5795692051396434e-07,-5.049171599159484e-07,-5.815454142392951e-07,-2.0450717453832416e-07,-2.4754651825477214e-07,-3.6110335139745e-08,-9.253069914942416e-08,-5.121452732381474e-07,-2.0561153235953504e-07,-1.1803037357424877e-07,-7.390705259636124e-07,-8.448597917026598e-07,-1.2466227722542523e-06
4.68398658952942e-08,1.2527202548864694e-06,-1.9294724619292985e-08,-1.8005537363864911e-07,-2.3348987725872998e-07,-2.1781586798071864e-07,-4.725037773965247e-07,-5.522609260536741e-07,-2.244019763210953e-07,-2.6165460523486264e-07,-3.712549746988032e-08,-1.0795410645894555e-07,-5.365576190267328e-07,-2.2314429188937485e-07,-1.53650334558071e-07,-7.879756225318558e-07,-8.781593671259007e-07,-1.2805372884321395e-06
3.0332575516471134e-07,1.7048271861300262e-06,-2.07285617803927e-08,-2.0466963920927424e-07,-2.5055204087849383e-07,-2.745603656304453e-07,-4.6996273423394296e-07,-5.298083932387484e-07,-2.513938274114599e-07,-2.829690213019355e-07,-4.348304723477632e-08,-1.3164608794514682e-07,-5.727451242820437e-07,-2.4624925861997415e-07,-2.0210389292061912e-07,-8.52254097603611e-07,-9.258652374314264e-07,-1.3237815825361734e-06
5.572529416346276e-07,2.1398932444341545e-06,-2.949303840193637e-08,-2.2815271064600103e-07,-2.6680439177556886e-07,-3.241953419728237e-07,-4.960925518164541e-07,-5.113143058606852e-07,-2.8127384272353686e-07,-3.0699625993984385e-07,-5.522008221265912e-08,-1.5735597487000388e-07,-6.157400635270943e-07,-2.729478139268464e-07,-2.562662852100298e-07,-9.24985659226701e-07,-9.850704355975363e-07,-1.3696729443120096e-06
7.734797366620969e-07,2.4695595928186108e-06,-4.225509132743119e-08,-2.464503144099138e-07,-2.785588494795528e-07,-3.606404247008326e-07,-5.420219561699997e-07,-4.893995704659164e-07,-3.038844429861859e-07,-3.250904077671962e-07,-7.0428858591823e-08,-1.7483880922248047e-07,-6.556031118923176e-07,-2.985335039647379e-07,-3.0395168967734674e-07,-9.92838172335155e-07,-1.0480169901541864e-06,-1.4065462169397883e-06
9.349767686568114e-07,2.6165899212667267e-06,-5.078202472030094e-08,-2.5370838141993534e-07,-2.8074343591066474e-07,-3.761763934161687e-07,-5.936114139294412e-07,-4.5442349003953216e-07,-3.0685969605135676e-07,-3.270233835706806e-07,-8.577978201894052e-08,-1.736864494150543e-07,-6.818037765748126e-07,-3.1753540360940137e-07,-3.321545614619458e-07,-1.0414433909827267e-06,-1.104901047714805e-06,-1.4220213412570844e-06
1.0452607226999146e-06,2.5422151575772773e-06,-4.727839998274249e-08,-2.4459937107036043e-07,-2.6936051446698465e-07,-3.641985007829823e-07,-6.362266485952716e-07,-3.9864135231530183e-07,-2.817581009126708e-07,-3.053119661980647e-07,-9.918289614353668e-08,-1.479369254530081e-07,-6.879174237331532e-07,-3.2629739570786843e-07,-3.3218282053342256e-07,-1.0615690353184934e-06,-1.1475277817997064e-06,-1.4080922329887177e-06
1.117756953685604e-06,2.261458345136329e-06,-2.6482564855776415e-08,-2.1670988291832004e-07,-2.432246194296038e-07,-3.222443710756399e-07,-6.588429369247511e-07,-3.193051178726688e-07,-2.2774532432620508e-07,-2.580352798565029e-07,-1.0971916373970467e-07,-9.801714802736477e-08,-6.736473579578591e-07,-3.2441845013831755e-07,-3.0251068522870395e-07,-1.051426819668709e-06,-1.1711414707678993e-06,-1.3637614549540802e-06
1.1592022142629455e-06,1.8429454443533562e-06,1.2043812066636841e-08,-1.7145762962059203e-07,-2.0397533834368993e-07,-2.5342775030122207e-07,-6.55547624736053e-07,-2.1902464353748668e-07,-1.5093781484122925e-07,-1.8919521492819647e-07,-1.1752699075092265e-07,-2.988017882648279e-08,-6.437112056694977e-07,-3.1366891834246487e-07,-2.4875131932600913e-07,-1.015755242622906e-06,-1.1748403900871702e-06,-1.2949164683077276e-06
1.1630816135896525e-06,1.3880172491049257e-06,6.451904987480118e-08,-1.1376690834932941e-07,-1.553227025716693e-07,-1.6608802488311476e-07,-6.256578089692695e-07,-1.0480519033823229e-07,-6.19433537444072e-08,-1.0720558926677488e-07,-1.224328118038286e-07,4.689640935281958e-08,-6.058621959058672e-07,-2.9718329959972153e-07,-1.814759195875231e-07,-9.642185103225218e-07,-1.1617177697482124e-06,-1.212529146131137e-06
1.122057911227011e-06,9.999487566874792e-07,1.2452701126765984e-07,-5.088980172612976e-08,-1.0249599167699737e-07,-7.139049085341397e-08,-5.733156803931818e-07,1.3658404510294058e-08,2.735261770446418e-08,-2.205264303749214e-08,-1.2416444892237807e-07,1.2185335357491888e-07,-5.683115768613125e-07,-2.7864750482715454e-07,-1.120635429160197e-07,-9.087988683239874e-07,-1.1379648812437775e-06,-1.1289657663579119e-06
1.0448099050737543e-06,7.551666482813704e-07,1.8498226407549812e-07,9.738179695655499e-09,-5.140111596746558e-08,2.019812117088937e-08,-5.058956460947756e-07,1.2645203777612332e-07,1.0762561938001467e-07,5.838636538466028e-08,-1.224733622902633e-07,1.86793846973704e-07,-5.366749546452003e-07,-2.6149483264195674e-07,-4.808019502077503e-08,-8.599820940766502e-07,-1.1105792940609216e-06,-1.0534373487679026e-06
9.57999273934942e-07,6.766274449813153e-07,2.405611008235754e-07,6.277439470268152e-08,-7.310729521438248e-09,1.0160555347198601e-07,-4.319978376896893e-07,2.2559211042870701e-07,1.7425338693385823e-07,1.3044904901254524e-07,-1.1692572556598485e-07,2.3789494825738893e-07,-5.130045661068728e-07,-2.4844177364164995e-07,8.80850244204347e-09,-8.245620305719635e-07,-1.0854380511294392e-06,-9.897180420712482e-07
8.939795392535831e-07,7.169857732663465e-07,2.8811449531386626e-07,1.0585569112526242e-07,2.576999223951013e-08,1.695897322858965e-07,-3.6011317334580764e-07,3.056915654935099e-07,2.2635639636712586e-07,1.937586982363872e-07,-1.0827997792744209e-07,2.7195669411267426e-07,-4.976240365598438e-07,-2.4204024984646545e-07,6.112343854546332e-08,-8.065859567953975e-07,-1.0668224943744163e-06,-9.372290689462274e-07
8.781835663425373e-07,7.779883432515917e-07,3.266516300461441e-07,1.3910181068968104e-07,4.499089921418992e-08,2.2328269354269544e-07,-2.9799870005727265e-07,3.63464678451058e-07,2.647322768862679e-07,2.492574496520331e-07,-9.862053769514248e-08,2.874000543713984e-07,-4.913234417928683e-07,-2.4520056670050227e-07,1.1261592499341935e-07,-8.090585609680533e-07,-1.0574703137434601e-06,-8.934306845335428e-07
9.217528404906477e-07,7.7061399681519e-07,3.571818720282306e-07,1.6422062413991503e-07,4.878692308166619e-08,2.6266290938540016e-07,-2.5142874711506035e-07,3.98188703910985e-07,2.908897207795042e-07,2.978694429005056e-07,-9.088186213808104e-08,2.8340960735128984e-07,-4.957687186060562e-07,-2.605432140043898e-07,1.661288012555318e-07,-8.344321299533885e-07,-1.0586227022791083e-06,-8.557931510993686e-07
1.0181992873489593e-06,6.71821612801393e-07,3.8213745444256067e-07,1.835013333171502e-07,3.757725723313388e-08,2.8779061922450236e-07,-2.224941765173808e-07,4.11470953624218e-07,3.068280489192789e-07,3.3982866626569255e-07,-8.766003128940168e-08,2.60031341941341e-07,-5.129141495313183e-07,-2.892193679197979e-07,2.2214331233566672e-07,-8.842170643245876e-07,-1.0703412725299758e-06,-8.232464309138834e-07
1.1469659517275001e-06,5.369989920986813e-07,4.043344517454425e-07,1.9875034122226703e-07,1.4016343134278742e-08,2.9857290406108405e-07,-2.089057412898739e-07,4.088050499713261e-07,3.1482293012414475e-07,3.7465395385402746e-07,-9.044901428158262e-08,2.2120250847257158e-07,-5.435773114028817e-07,-3.29820307903639e-07,2.784049804663787e-07,-9.5746192552058e-07,-1.091472881403537e-06,-7.964256319672985e-07
1.2838001106206825e-06,4.709996947181815e-07,4.2617049715890075e-07,2.108909331563525e-07,-1.6753968288214933e-08,2.9581974991983157e-07,-2.0362586954221152e-07,3.986570859828456e-07,3.1798928412621506e-07,4.0198275699239724e-07,-9.863251580540019e-08,1.7291586214824153e-07,-5.856608965133676e-07,-3.775763841497711e-07,3.3100612304689213e-07,-1.0481708666804734e-06,-1.118939987292151e-06,-7.764923447195323e-07
1.4091901246322247e-06,5.762108553023273e-07,4.496436375555112e-07,2.2036620254840062e-07,-4.7061085876957554e-08,2.821992399304653e-07,-1.9515136655658662e-07,3.911197367477265e-07,3.20829679350904e-07,4.22555867646699e-07,-1.0904030792128622e-07,1.275990119656064e-07,-6.333276204555739e-07,-4.244675147787559e-07,3.755338785164886e-07,-1.1447800146542065e-06,-1.147987349077378e-06,-7.644880143843494e-07
1.509020757439915e-06,8.928191377188631e-07,4.7542246239331635e-07,2.2727413333756127e-07,-6.827464510057774e-08,2.62503973529208e-07,-1.7042042581499678e-07,3.9582783821644954e-07,3.2787466679041025e-07,4.3790367286204116e-07,-1.1709631877475678e-07,9.123595608314061e-08,-6.792360461731177e-07,-4.6181844151600114e-07,4.07358949006412e-07,-1.2339728005750216e-06,-1.1743579825781821e-06,-7.620577313179179e-07
1.5728506874043316e-06,1.3676160542625949e-06,5.015415333704499e-07,2.3088658504103755e-07,-7.382484875553191e-08,2.423927479937477e-07,-1.1983397372362726e-07,4.1801800820983146e-07,3.4119174821949995e-07,4.493681539491764e-07,-1.1718807256324663e-07,7.382011028175255e-08,-7.174566373605903e-07,-4.832796029549693e-07,4.2239876363976826e-07,-1.3057120131596554e-06,-1.196378299734605e-06,-7.717667149087278e-07
1.5957557210099688e-06,1.8808935764175627e-06,5.235375027642541e-07,2.2958157052229772e-07,-6.14688846302781e-08,2.2685895165936694e-07,-4.128791834447767e-08,4.571643892579496e-07,3.599117146858455e-07,4.5791045680294336e-07,-1.0719110787850863e-07,8.212089236204244e-08,-7.447525181328541e-07,-4.864544806364585e-07,4.1896698661660973e-07,-1.3551845591538624e-06,-1.214866598114575e-06,-7.95470294670459e-07
1.5827004055203251e-06,2.3052779798026595e-06,5.361610056998931e-07,2.216773806607607e-07,-3.343575389235854e-08,2.1927547445451739e-07,5.904549429769243e-08,5.078427755145527e-07,3.816381357806056e-07,4.645249614915656e-07,-8.714713291524812e-08,1.429191218384814e-07,-7.601168111392053e-07,-4.727096482524234e-07,3.993694613698436e-07,-1.3817377472316462e-06,-1.231566555644914e-06,-8.323860157050072e-07
1.549923624330818e-06,2.5512625238322774e-06,5.354378979619803e-07,2.0636911276143568e-07,4.606884171097994e-09,2.2084682647917776e-07,1.6890608876410045e-07,5.61845289826133e-07,4.037909549578172e-07,4.7044312556719695e-07,-6.03955185712282e-08,2.2919975643261067e-07,-7.640180650055858e-07,-4.462181881298401e-07,3.7007035935715166e-07,-1.3868234942211987e-06,-1.2475457435881735e-06,-8.784210070733556e-07
1.5195030750089403e-06,2.5876108404908018e-06,5.201456131434193e-07,1.843010253988625e-07,4.5247174002302716e-08,2.3090931570851733e-07,2.744352596728699e-07,6.102162862272108e-07,4.247812095181817e-07,4.774063100731629e-07,-3.0446018140515056e-08,3.227128430535896e-07,-7.574312662609436e-07,-4.1224349166079746e-07,3.406265609347618e-07,-1.3715549049128877e-06,-1.26186113222938e-06,-9.264383304999358e-07
1.5058750061229337e-06,2.4396598680828024e-06,4.928177533879064e-07,1.5786997565775135e-07,8.167749922801069e-08,2.476884310454096e-07,3.652306748856498e-07,6.46189513239167e-07,4.450202034680941e-07,4.8804430240395e-07,-4.296408386545231e-10,4.254316338925659e-07,-7.401907931290279e-07,-3.7540712007435184e-07,3.2148106564482505e-07,-1.3353709508425177e-06,-1.2712770637110781e-06,-9.675819387264398e-07
1.5004457417049121e-06,2.1665920229653836e-06,4.587947708327716e-07,1.3077964709356776e-07,1.0963758233710586e-07,2.689995260073086e-07,4.36641881873461e-07,6.670280164290564e-07,4.659476573941919e-07,5.048898752245522e-07,2.6763111846888282e-08,5.181774481657392e-07,-7.11540206918863e-07,-3.38688923138928e-07,3.2011853733829577e-07,-1.278296213611973e-06,-1.2722796342419729e-06,-9.943690289305026e-07
1.4701012151021077e-06,1.8349912370384647e-06,4.2410061199363845e-07,1.0650673537469263e-07,1.2756277833785283e-07,2.922354681025627e-07,4.878637981979122e-07,6.729532905076617e-07,4.868821993631571e-07,5.280366565428104e-07,4.878647165828969e-08,5.797560701169182e-07,-6.727158141793879e-07,-3.04743207531192e-07,3.3745081591266904e-07,-1.2052431141496142e-06,-1.2642153652044041e-06,-1.0042367720913864e-06
1.3770610907553783e-06,1.5098733658935266e-06,3.9293987553822866e-07,8.673351315527418e-08,1.3544178477984175e-07,3.140273700030893e-07,5.181972360616517e-07,6.652810640145647e-07,5.030047565515719e-07,5.538946622987064e-07,6.211955933056487e-08,5.792985900938237e-07,-6.282529023436977e-07,-2.7684680866399665e-07,3.670850912760117e-07,-1.1272240679495366e-06,-1.2505621612133418e-06,-1.0006500348838999e-06
1.2050752090685496e-06,1.255774643408493e-06,3.668294251704476e-07,7.099407689032024e-08,1.3383414457493057e-07,3.303193032741985e-07,5.252403146008046e-07,6.448009641353879e-07,5.065208583002682e-07,5.765205308083496e-07,6.401593164906509e-08,5.371321476645118e-07,-5.847430274065322e-07,-2.580669726365343e-07,3.9805514401548267e-07,-1.057991278572597e-06,-1.2375631807393612e-06,-9.915073320195136e-07
9.72033550144368e-07,1.122576962170971e-06,3.4501561885813055e-07,5.725575494479016e-08,1.2351077816188577e-07,3.367716059541607e-07,5.056840068052032e-07,6.111784899861615e-07,4.8935326086199e-07,5.898963134582742e-07,5.31780626453249e-08,5.049899762475003e-07,-5.489343211961396e-07,-2.501991180428587e-07,4.187548955804957e-07,-1.0094300655013344e-06,-1.2318856270532626e-06,-9.866621860811213e-07
7.252811320570249e-07,1.1178086278291095e-06,3.250344563111583e-07,4.2627520717774934e-08,1.0583066000677573e-07,3.293354061279136e-07,4.575858198412746e-07,5.628959281776137e-07,4.456066845262326e-07,5.899146730862676e-07,3.0424888254913216e-08,5.168536331564522e-07,-5.259812919099038e-07,-2.5305472065774165e-07,4.205005294168024e-07,-9.879354548499065e-07,-1.2382031019942811e-06,-9.951127095378018e-07
5.259716266345609e-07,1.200953687165045e-06,3.041048045435689e-07,2.4315103762918413e-08,8.061215956266527e-08,3.051664578418895e-07,3.829613256707009e-07,4.980836133387527e-07,3.7428365258750846e-07,5.755527065643813e-07,-1.5804488264377668e-09,5.08377947341287e-07,-5.172285765238324e-07,-2.6398929459027995e-07,3.9994159148883263e-07,-9.921080759462664e-07,-1.2569937491183077e-06,-1.0220213638337767e-06
4.268553404236932e-07,1.3133096587739815e-06,2.809119815221649e-07,7.140836748283952e-10,4.8121709050912704e-08,2.635876316204149e-07,2.896938421167878e-07,4.1720312210555e-07,2.810764651760898e-07,5.495923932425093e-07,-3.819438794597982e-08,4.430388715249133e-07,-5.194987294122075e-07,-2.7817516654017134e-07,3.5920469372037745e-07,-1.0136447754771902e-06,-1.2842317308653302e-06,-1.0676089993239686e-06
4.5077865612089745e-07,1.4075759986754214e-06,2.5613104578094356e-07,-2.8306032183148613e-08,8.846505687578734e-09,2.0606740154340497e-07,1.9004896756408106e-07,3.2367934123277984e-07,1.764850516913501e-07,5.164316250041884e-07,-7.427878013699836e-08,3.334679144822503e-07,-5.276502534897296e-07,-2.906360438742945e-07,3.031955012134923e-07,-1.0424182027542868e-06,-1.3140815208733267e-06,-1.1291090521349456e-06
5.829612032523437e-07,1.4490369728303984e-06,2.3098563247146136e-07,-6.243002363098395e-08,-3.5780344723151014e-08,1.3536889069929634e-07,9.605883720056336e-08,2.2265541210692615e-07,7.123040681226682e-08,4.791167305800814e-07,-1.0712481274856575e-07,2.3152274666008998e-07,-5.381006974668443e-07,-2.988326757205878e-07,2.3667433560091108e-07,-1.07191209041398e-06,-1.3424505936299997e-06,-1.203241908684584e-06
7.811825901518882e-07,1.4063319569863977e-06,2.0578394699420863e-07,-1.0161392660211556e-07,-8.44584685470733e-08,5.522006480036435e-08,1.5255228913184705e-08,1.2008800572814984e-07,-2.6446788128627006e-08,4.3832983906774954e-07,-1.3787532328581143e-07,1.3659033057466417e-07,-5.500252942619749e-07,-3.0343354492780755e-07,1.6399762908776682e-07,-1.1005223146611674e-06,-1.3685258643713506e-06,-1.2865066740029944e-06
9.92847016491838e-07,1.2563497106666745e-06,1.7990688535653094e-07,-1.455279440275822e-07,-1.358360727862347e-07,-2.8896119535688363e-08,-5.0614605011967044e-08,2.256960064398041e-08,-1.1044263672676222e-07,3.9336112943744925e-07,-1.6972139671940183e-07,6.036150222758334e-08,-5.640326037906251e-07,-3.073648005073163e-07,9.020078160554171e-08,-1.1297303518869973e-06,-1.3944155857923416e-06,-1.3742937835598194e-06
1.1692011829146234e-06,1.0030091326304035e-06,1.5208981687087984e-07,-1.9290219528935305e-07,-1.872208212975568e-07,-1.0954406738344959e-07,-1.0464375481395806e-07,-6.344309232879234e-08,-1.7667844828732596e-07,3.4327063687016606e-07,-2.0659666756430856e-07,-1.4901272107392491e-09,-5.815762857547598e-07,-3.143987543532361e-07,2.060517699814796e-08,-1.1628893674977337e-06,-1.424432361413584e-06,-1.4618763158900187e-06
1.2772628198248421e-06,6.955224418808957e-07,1.204894316297368e-07,-2.417820475695213e-07,-2.3618491107686264e-07,-1.7885896727476038e-07,-1.5309137456237936e-07,-1.3363966868822855e-07,-2.2412671272188205e-07,2.8731783288431985e-07,-2.5138808516677615e-07,-6.252906099628223e-08,-6.051066046075642e-07,-3.2837117944149545e-07,-4.070417228095763e-08,-1.2044675632161504e-06,-1.4636033077390615e-06,-1.5458400958236014e-06
1.3095335928378359e-06,4.233575661001903e-07,8.33221977016296e-08,-2.8997484073430766e-07,-2.805984237335902e-07,-2.3066578489597914e-07,-2.022942731868656e-07,-1.8663105805940742e-07,-2.5428421448017245e-07,2.2553084633717442e-07,-3.0497883134350375e-07,-1.2651446225990208e-07,-6.359490343427145e-07,-3.5164362521386085e-07,-9.08776620868498e-08,-1.2571499994374794e-06,-1.5145264766772596e-06,-1.6232780293636865e-06
1.2842747423422473e-06,2.7361930774191225e-07,4.158474383020168e-08,-3.347529628455227e-07,-3.182309294580849e-07,-2.6155892808332443e-07,-2.5466887249572024e-07,-2.223491755189549e-07,-2.6816779999603103e-07,1.6049233518645522e-07,-3.6463904454466187e-07,-1.9788621627343882e-07,-6.714331602440652e-07,-3.8302540051554576e-07,-1.2698924122368663e-07,-1.3183595547950276e-06,-1.5746742398094926e-06,-1.6899982990370304e-06
1.2318192719599114e-06,2.8251357551599797e-07,-1.3366978572489786e-10,-3.727090751868694e-07,-3.457927373764043e-07,-2.7083201695153384e-07,-3.068777864976239e-07,-2.400605739572929e-07,-2.6479079425509763e-07,9.7400013607874e-08,-4.242884803341523e-07,-2.6764643263556976e-07,-7.052291161296805e-07,-4.178877649596057e-07,-1.46114414675069e-07,-1.3809692711779735e-06,-1.6374157779498388e-06,-1.7410330213782904e-06
1.1749676101578202e-06,4.2944693985250476e-07,-3.5519448489563576e-08,-4.0087340245640176e-07,-3.602210344107112e-07,-2.6040617546846463e-07,-3.5250908923918225e-07,-2.386906532171312e-07,-2.434794861130086e-07,4.152894480366637e-08,-4.775589526996599e-07,-3.259081078083118e-07,-7.313109072266013e-07,-4.508517090064513e-07,-1.4735916672361967e-07,-1.43834030469724e-06,-1.6961991569198205e-06,-1.7735303791560095e-06
1.118077441395045e-06,6.69990583604109e-07,-5.996732175972917e-08,-4.182903395064436e-07,-3.6061984997291887e-07,-2.3466284269296453e-07,-3.869074683361762e-07,-2.185998232519332e-07,-2.0671474678977218e-07,-4.29922189063085e-09,-5.203640638471455e-07,-3.6790460732927484e-07,-7.473730935833695e-07,-4.786354424774805e-07,-1.3297800601108987e-07,-1.4880927276323181e-06,-1.7477478569845405e-06,-1.7883887620655243e-06
1.0512299967539169e-06,9.61256715220222e-07,-7.227383876197628e-08,-4.263686028379285e-07,-3.4801395322244313e-07,-1.9963193110497225e-07,-4.0996235638729356e-07,-1.822570488966099e-07,-1.6015698087455122e-07,-4.045583200385652e-08,-5.520439210502524e-07,-3.921585200004856e-07,-7.55045568249157e-07,-5.006811235074707e-07,-1.072470745698882e-07,-1.5314500093043373e-06,-1.7921585130286282e-06,-1.7892496506722245e-06
9.629730574949412e-07,1.2599415131315122e-06,-7.341517192071645e-08,-4.279824214505724e-07,-3.2796303163506117e-07,-1.6189591592823778e-07,-4.2587304014100754e-07,-1.3431384339409085e-07,-1.1132179408419398e-07,-6.968069234836405e-08,-5.745037256252313e-07,-4.002324630187254e-07,-7.587017289439258e-07,-5.18400346497874e-07,-7.503159868463373e-08,-1.5711461442605952e-06,-1.8317957591609222e-06,-1.781089604491203e-06
8.512948644986499e-07,1.5157316282962554e-06,-6.632734086989879e-08,-4.266587120092811e-07,-3.0667363981559124e-07,-1.2788398449032215e-07,-4.4159277231847853e-07,-8.157994453735085e-08,-6.884341658463646e-08,-9.628336825310882e-08,-5.912716995126467e-07,-3.9607838582522434e-07,-7.645421251528935e-07,-5.346142483695978e-07,-4.132044043274655e-08,-1.6106567187933552e-06,-1.870542417059802e-06,-1.7698464480763021e-06
7.216453165081766e-07,1.6814947379745764e-06,-5.539395360434271e-08,-4.2621853469564496e-07,-2.90807309229659e-07,-1.0350145256296469e-07,-4.6465737978265754e-07,-3.3258620220183824e-08,-4.133848996815357e-08,-1.2477481779272474e-07,-6.063120929367696e-07,-3.8476017249362306e-07,-7.789232427753616e-07,-5.525996089858859e-07,-1.0640146814127089e-08,-1.6531235473438283e-06,-1.9123192952827384e-06,-1.7614943067422517e-06
5.836574776131758e-07,1.732742344829885e-06,-4.5030946586266526e-08,-4.2986334486649683e-07,-2.870230940450882e-07,-9.301260375577915e-08,-5.003354586100637e-07,1.518636838260179e-09,-3.453908963948528e-08,-1.580791081244659e-07,-6.223534838701462e-07,-3.702462982818588e-07,-8.052721650927686e-07,-5.741955864306716e-07,1.4097896075228905e-08,-1.6990474920335015e-06,-1.958665313731233e-06,-1.760153620559629e-06
4.4683681202289527e-07,1.676277612777312e-06,-3.818774155331927e-08,-4.391415708559733e-07,-2.9809889767365094e-07,-9.797470636213546e-08,-5.493495322800007e-07,1.61194520927511e-08,-4.890675444496389e-08,-1.962994786019331e-07,-6.397641235534473e-07,-3.5419589754982134e-07,-8.426182198506778e-07,-5.985867613841248e-07,3.189636403811437e-08,-1.7457640121762514e-06,-2.0077492946636085e-06,-1.7673832398541962e-06
3.2445877847180243e-07,1.5434143435556e-06,-3.583848827883114e-08,-4.53861013881143e-07,-3.233601998746254e-07,-1.1718932050940434e-07,-6.080502037611139e-07,8.042845660097972e-09,-8.017632085991882e-08,-2.375257682462361e-07,-6.569872974156234e-07,-3.368102487389476e-07,-8.869492238945323e-07,-6.232830285161664e-07,4.2610883821108984e-08,-1.790022632673961e-06,-2.0558562410014646e-06,-1.7833215396790354e-06
2.3607158739042645e-07,1.3812600304878362e-06,-3.768024214646189e-08,-4.727914138180741e-07,-3.592036994048169e-07,-1.474826196081309e-07,-6.705209670852734e-07,-2.0703843194658955e-08,-1.2154875359016973e-07,-2.7936029319906215e-07,-6.722528736968461e-07,-3.1796157025302484e-07,-9.332401593560786e-07,-6.44862235013618e-07,4.63661662008642e-08,-1.8300677721334848e-06,-2.09913515205523e-06,-1.8071923729715496e-06
2.0229198266145796e-07,1.2430469369603268e-06,-4.214533187219055e-08,-4.939821521656036e-07,-4.001936879019511e-07,-1.843432031873936e-07,-7.297411818674546e-07,-6.374495732207586e-08,-1.648139604624132e-07,-3.1922387102409357e-07,-6.833848532035235e-07,-2.9721320067302365e-07,-9.760600252677516e-07,-6.601410544041485e-07,4.426554917733377e-08,-1.8649487979488114e-06,-2.134117869312149e-06,-1.8364757757840923e-06
2.312479390350409e-07,1.1764896004533562e-06,-4.677509543971837e-08,-5.146966394988623e-07,-4.394923239040169e-07,-2.2244451225252628e-07,-7.783472845398104e-07,-1.113584851787352e-07,-2.016307267020763e-07,-3.544875475070745e-07,-6.88613865866447e-07,-2.7405565796971395e-07,-1.010762018101829e-06,-6.668908789430127e-07,3.840943112978804e-08,-1.8940259006899817e-06,-2.1584808614124586e-06,-1.8672922672830845e-06
3.0729099179858387e-07,1.2048625689439344e-06,-4.910783682844999e-08,-5.321820589364688e-07,-4.714663040359865e-07,-2.568709712051683e-07,-8.107129264338195e-07,-1.5424698852192992e-07,-2.2676324842257704e-07,-3.8378274853806913e-07,-6.872333293263032e-07,-2.49385225164381e-07,-1.035745678863963e-06,-6.649079460563135e-07,3.022261298881209e-08,-1.9188021137120736e-06,-2.172814008173013e-06,-1.8968086470498302e-06
4.0007728026080266e-07,1.31124874106786e-06,-4.8433492020514204e-08,-5.451392588664986e-07,-4.941686237206407e-07,-2.8471056737546403e-07,-8.25566149695533e-07,-1.8693753389080057e-07,-2.4094275284097165e-07,-4.082277390997125e-07,-6.811087290707121e-07,-2.2647548351581567e-07,-1.054288421792355e-06,-6.571232711917651e-07,1.9190792673838442e-08,-1.9439958776530024e-06,-2.1812519644515986e-06,-1.924930054170591e-06
4.836928652558564e-07,1.4424711915922776e-06,-4.655590579188207e-08,-5.542748623971619e-07,-5.096586689800149e-07,-3.057508792602644e-07,-8.263869455300805e-07,-2.0938206361870966e-07,-2.498566057485647e-07,-4.3093279557195194e-07,-6.738851873710008e-07,-2.097073961966572e-07,-1.0719947423261325e-06,-6.483783062237863e-07,3.745737509651848e-09,-1.975182052876032e-06,-2.189576602571908e-06,-1.9533247941403266e-06
5.483727556314736e-07,1.5297711610208472e-06,-4.594401336191043e-08,-5.613515715058854e-07,-5.224914511952065e-07,-3.2177322877687926e-07,-8.18965258191253e-07,-2.2567081904077573e-07,-2.6018471335815183e-07,-4.551599238229113e-07,-6.691601321232976e-07,-2.0242073398748752e-07,-1.094429911590483e-06,-6.433942913697607e-07,-1.7220387810505994e-08,-2.015663300194874e-06,-2.202771345571179e-06,-1.9837238226369196e-06
5.949705899257702e-07,1.508409843120456e-06,-4.8600121951461205e-08,-5.680743477860336e-07,-5.371045044308354e-07,-3.355678827281513e-07,-8.088880619283179e-07,-2.411672843182022e-07,-2.768260236193166e-07,-4.831526158678896e-07,-6.696905674945178e-07,-2.0606231550114838e-07,-1.125919205487957e-06,-6.453788256360241e-07,-4.38580810941259e-08,-2.06576097357468e-06,-2.224037912804477e-06,-2.017455147490184e-06
6.226980503590848e-07,1.3273592772768546e-06,-5.550614685946854e-08,-5.7586269915059e-07,-5.567010681655449e-07,-3.5025689300470894e-07,-8.002893110836247e-07,-2.6080486350307925e-07,-3.0202178186528085e-07,-5.157996500035121e-07,-6.76796195940851e-07,-2.2011114670641378e-07,-1.1682814191467444e-06,-6.556175890239137e-07,-7.547147432181495e-08,-2.123152147803159e-06,-2.2543487463877304e-06,-2.0551125948764976e-06
6.240595582705775e-07,9.646300603110394e-07,-6.61673388523245e-08,-5.855010490572091e-07,-5.826575420169363e-07,-3.683083467389013e-07,-7.947297051972684e-07,-2.8640257013725796e-07,-3.343172964029122e-07,-5.519182075108143e-07,-6.902356063040522e-07,-2.4147654546324526e-07,-1.2194839526561038e-06,-6.725408674335148e-07,-1.0991378221915688e-07,-2.1823647702355285e-06,-2.2915516274226247e-06,-2.0953639936206325e-06
5.913140817650744e-07,4.4922225218947054e-07,-7.80933320076728e-08,-5.9640889665498e-07,-6.125280594302783e-07,-3.9023017679070734e-07,-7.901690530565062e-07,-3.150880656696548e-07,-3.679384555338576e-07,-5.879964529716661e-07,-7.078165863565867e-07,-2.6463328315266213e-07,-1.2733349520513364e-06,-6.915276094764647e-07,-1.4352924908411227e-07,-2.235656953347724e-06,-2.330786488333829e-06,-2.134851829198036e-06
5.26834430767039e-07,-1.3320650782669647e-07,-8.750290766078891e-08,-6.067601731828734e-07,-6.41843492884994e-07,-4.1418218188636597e-07,-7.821018714447149e-07,-3.406644948120742e-07,-3.954705412498219e-07,-6.1973325885909e-07,-7.266914182401505e-07,-2.841579777288949e-07,-1.3228816696561091e-06,-7.071324482493794e-07,-1.7313784764728654e-07,-2.277314844031e-06,-2.3675776106577544e-06,-2.1705806888389313e-06
4.4765709170053093e-07,-6.620559931460334e-07,-9.190987501065614e-08,-6.148877729093313e-07,-6.660495410079515e-07,-4.369437657737054e-07,-7.674996803961777e-07,-3.57458282402712e-07,-4.1262370773765283e-07,-6.445743533348813e-07,-7.452228320894824e-07,-2.9798806921948786e-07,-1.3642839923230992e-06,-7.160068363087592e-07,-1.9844999915335868e-07,-2.308063021705429e-06,-2.401218263523535e-06,-2.202412355927086e-06
3.772684693502484e-07,-1.0163557422029812e-06,-9.183971521268769e-08,-6.204572305787809e-07,-6.827973178487041e-07,-4.549645690137758e-07,-7.478111666815494e-07,-3.634056190606073e-07,-4.2041539912896827e-07,-6.627537304729617e-07,-7.636409006343295e-07,-3.080184514339105e-07,-1.398415574231061e-06,-7.187190168651178e-07,-2.2200278427814205e-07,-2.3346272914708983e-06,-2.4353239584071083e-06,-2.2325480827558744e-06
3.345241582963021e-07,-1.110392833379753e-06,-9.033047502550258e-08,-6.242000832057987e-07,-6.9205081130336e-07,-4.6474718040468997e-07,-7.286726597377968e-07,-3.597948336024565e-07,-4.235975944759567e-07,-6.757458500854195e-07,-7.827009283278946e-07,-3.17960770918401e-07,-1.4280814791518694e-06,-7.183720822680245e-07,-2.472230865032512e-07,-2.3686619954192315e-06,-2.475978119890301e-06,-2.263114746965249e-06
3.158134854420559e-07,-9.288236018694678e-07,-9.153873062882977e-08,-6.271122336177743e-07,-6.952481525326013e-07,-4.630206337301491e-07,-7.18171315458562e-07,-3.5056724048048636e-07,-4.285740951662251e-07,-6.848473550450875e-07,-8.022034741156706e-07,-3.311134440463755e-07,-1.4561059277074401e-06,-7.191126147399223e-07,-2.76868787090007e-07,-2.41977638264341e-06,-2.529679446229252e-06,-2.2945435135405065e-06
2.894026237075295e-07,-5.46753668898697e-07,-9.967134117832743e-08,-6.301506640713009e-07,-6.945519822945741e-07,-4.476064367145502e-07,-7.250147618101824e-07,-3.41439050382913e-07,-4.4211554964617877e-07,-6.907910206023025e-07,-8.20641235364582e-07,-3.4879341382672965e-07,-1.48495499758888e-06,-7.2543765472572e-07,-3.1191963277522535e-07,-2.494006227303468e-06,-2.6011299724343935e-06,-2.324761853628739e-06
2.1321291607224554e-07,-1.0906004992560168e-07,-1.1747254382468219e-07,-6.339051245172984e-07,-6.922341153868906e-07,-4.1821497281304974e-07,-7.558409489935064e-07,-3.386247508327142e-07,-4.688235989826406e-07,-6.931675659766482e-07,-8.352344729844621e-07,-3.6833298348445317e-07,-1.5137336795831774e-06,-7.399774382785556e-07,-3.5010536376249246e-07,-2.589144965304123e-06,-2.6900945929952736e-06,-2.3483097429457085e-06
6.223840461570547e-08,2.2801847609751327e-07,-1.4383206709625954e-07,-6.377062208571004e-07,-6.89549135591412e-07,-3.7661696545308565e-07,-8.105671782859793e-07,-3.45807006103691e-07,-5.075516679169634e-07,-6.89635943950005e-07,-8.416876954948261e-07,-3.8170998890227125e-07,-1.5394727484539388e-06,-7.611529600723681e-07,-3.851932204667693e-07,-2.6941238088064805e-06,-2.7893514356599234e-06,-2.3566759279556034e-06
-1.444776346372847e-07,3.617746104189136e-07,-1.7319500292328737e-07,-6.393662904155404e-07,-6.852772415928976e-07,-3.268263956685394e-07,-8.82126844108145e-07,-3.6128111860090984e-07,-5.509599128285411e-07,-6.767670697378988e-07,-8.355543610198301e-07,-3.7768912198127664e-07,-1.5565665985251988e-06,-7.832957896814282e-07,-4.092510956704324e-07,-2.791774367377864e-06,-2.8867222899838916e-06,-2.3420592240537064e-06
-3.4659610466717386e-07,2.7540848627803885e-07,-1.9774347557536097e-07,-6.365671972019176e-07,-6.774479090340621e-07,-2.748500092421637e-07,-9.57916030492701e-07,-3.8110491592956215e-07,-5.895947699082768e-07,-6.525758192642272e-07,-8.148215046977886e-07,-3.471335341584474e-07,-1.5601050597043885e-06,-7.994519266485806e-07,-4.1694621712938034e-07,-2.8645578204885486e-06,-2.9702348032691787e-06,-2.302286331648533e-06
-4.748208588763679e-07,3.656632982786929e-08,-2.111974211030414e-07,-6.286232197699579e-07,-6.651126431658067e-07,-2.2807391221164532e-07,-1.0251104360513826e-06,-4.003161318812307e-07,-6.164363581757599e-07,-6.182701294224866e-07,-7.817852113621645e-07,-2.87295482013631e-07,-1.5494295166959425e-06,-8.043469790327069e-07,-4.08063392289927e-07,-2.9037137999925443e-06,-3.0320281338828186e-06,-2.2424142774648423e-06
-4.841462133263114e-07,-2.3058440711386594e-07,-2.1072384629078122e-07,-6.166156096721325e-07,-6.493716547197546e-07,-1.925306604036466e-07,-1.0728985341174143e-06,-4.138341625040052e-07,-6.281748900823749e-07,-5.773842259399974e-07,-7.420626702347602e-07,-2.0231949279475697e-07,-1.5265875380569725e-06,-7.952583715194983e-07,-3.865695360798937e-07,-2.9067210747146955e-06,-3.0688928478409203e-06,-2.1714882462824357e-06
-3.7930446825942414e-07,-3.979118201879609e-07,-1.967309256170329e-07,-6.021063047241112e-07,-6.313720080286154e-07,-1.701749393904844e-07,-1.093499722166212e-06,-4.1759435497070906e-07,-6.245435876047809e-07,-5.338231945278211e-07,-7.020285630319524e-07,-1.0138923767109119e-07,-1.4956231991378967e-06,-7.719706774525053e-07,-3.5843485614339405e-07,-2.877960671353958e-06,-3.081463471812274e-06,-2.098644299578362e-06
-2.1133548898672967e-07,-3.8888038711184414e-07,-1.72291170836731e-07,-5.863005574869415e-07,-6.117362382002449e-07,-1.5862874367382538e-07,-1.0859803944310333e-06,-4.0935608885392203e-07,-6.08462804135265e-07,-4.914856366234105e-07,-6.671561018544191e-07,3.546918877236983e-09,-1.4616717529010562e-06,-7.367959567051854e-07,-3.3012719492376264e-07,-2.824721923695837e-06,-3.0737392538567305e-06,-2.03146638392239e-06
-4.6048448878634834e-08,-2.0465966145914482e-07,-1.4265579615627973e-07,-5.702407378469728e-07,-5.920017360812804e-07,-1.5307098506607136e-07,-1.053305821227425e-06,-3.921130045493609e-07,-5.860575061035148e-07,-4.539716511998692e-07,-6.410727881830782e-07,1.0069716715830522e-07,-1.4306564870016593e-06,-6.944674033908202e-07,-3.072440884701251e-07,-2.757021640967331e-06,-3.051949816131137e-06,-1.9752542170417924e-06
7.426327832258181e-08,8.968585766310822e-08,-1.1411259090853455e-07,-5.549122087239214e-07,-5.739060647252858e-07,-1.4836859435751554e-07,-1.0021140833692836e-06,-3.6996293965516736e-07,-5.646846715325346e-07,-4.2377899694109014e-07,-6.251319880119469e-07,1.816439231425751e-07,-1.4067819051389207e-06,-6.508918921390129e-07,-2.929961617021449e-07,-2.6849613181054236e-06,-3.022559484645019e-06,-1.932410917061511e-06
1.3008986403809187e-07,3.9867201159227926e-07,-9.192888468548277e-08,-5.409171977873366e-07,-5.596405519044424e-07,-1.4021808059120924e-07,-9.404573431470147e-07,-3.482214758216568e-07,-5.506442716401737e-07,-4.019312146746702e-07,-6.186416623411341e-07,2.4244294170764676e-07,-1.3934352090797522e-06,-6.119117573024323e-07,-2.881416909515346e-07,-2.6169113540297908e-06,-2.9915068388284314e-06,-1.9032621294360384e-06
1.405543757982204e-07,6.373528624878284e-07,-7.958646433334967e-08,-5.285606967273532e-07,-5.516262227459531e-07,-1.259763105584578e-07,-8.759908118285602e-07,-3.3264656678896417e-07,-5.482658672377454e-07,-3.8877870535354634e-07,-6.201827435111685e-07,2.819035042045293e-07,-1.3921070662856057e-06,-5.833474162016792e-07,-2.927744155635735e-07,-2.5631266940329116e-06,-2.9652392630621945e-06,-1.888376551051343e-06
1.3045071182725496e-07,7.707971521429454e-07,-7.897965669182874e-08,-5.184022957470252e-07,-5.513628821957684e-07,-1.0513379206517835e-07,-8.168525828347885e-07,-3.2769541276726667e-07,-5.610134233489894e-07,-3.848002740165287e-07,-6.289041425458549e-07,2.998027199475111e-07,-1.402761496717499e-06,-5.705605358646909e-07,-3.077766687808445e-07,-2.53528684055593e-06,-2.9510711172418573e-06,-1.8894915191132372e-06
1.2116173908637927e-07,8.271805217119374e-07,-9.019073474938224e-08,-5.111656104718885e-07,-5.593707622078267e-07,-7.899575539611254e-08,-7.709239804347607e-07,-3.353520132976373e-07,-5.899716468914143e-07,-3.9013248126996826e-07,-6.445958665052725e-07,2.969170015952451e-07,-1.4273289923271142e-06,-5.779236954677679e-07,-3.3448548656977467e-07,-2.543618731093822e-06,-2.955641106481239e-06,-1.9080471489580245e-06
1.1329149143888725e-07,8.647468105036441e-07,-1.1094676221734571e-07,-5.071348246007468e-07,-5.73822122775023e-07,-4.9947167748702574e-08,-7.458600045221596e-07,-3.5466696530015183e-07,-6.320212196139981e-07,-4.0392982555318466e-07,-6.671944839424497e-07,2.7522357412484185e-07,-1.4637344577493751e-06,-6.053639940091422e-07,-3.741257541510375e-07,-2.599281772402133e-06,-2.9834225314533377e-06,-1.9436900016061403e-06
9.799206393392536e-08,9.19301821956248e-07,-1.3736788651799935e-07,-5.063419455874908e-07,-5.911527304024587e-07,-2.1236060858409498e-08,-7.43369297514601e-07,-3.8302079978311646e-07,-6.83021041611931e-07,-4.249125115552629e-07,-6.968018890895119e-07,2.3706748536294502e-07,-1.509269690770524e-06,-6.521458844613279e-07,-4.279397382437765e-07,-2.6973681884181793e-06,-3.0391173153271085e-06,-1.9952542218734333e-06
7.068399999907916e-08,9.860561481087041e-07,-1.6567553714611752e-07,-5.093568052494504e-07,-6.078443038534939e-07,2.9798181409252314e-09,-7.621283224806567e-07,-4.1701226946201986e-07,-7.400787778100571e-07,-4.5199474743953675e-07,-7.33561739121374e-07,1.8545879841692746e-07,-1.5620808516195419e-06,-7.107326562771072e-07,-4.96013754947071e-07,-2.830778798582362e-06,-3.119334088519875e-06,-2.053838411442419e-06
3.4489374838499996e-08,1.0444212540525827e-06,-1.922160322189846e-07,-5.168557413123022e-07,-6.208407584303431e-07,1.8975022810719662e-08,-7.962200844801925e-07,-4.550491514745693e-07,-7.999139130636218e-07,-4.82850521555062e-07,-7.760430167555621e-07,1.2687803510988183e-07,-1.6160193391263678e-06,-7.741164796915211e-07,-5.740362393238815e-07,-2.9777094697503194e-06,-3.2124316528586585e-06,-2.109212392068381e-06
4.543942614613994e-09,1.0833068725133725e-06,-2.120939033066062e-07,-5.276541867354115e-07,-6.25752205953708e-07,2.6127935452220683e-08,-8.304811533903934e-07,-4.946537525376132e-07,-8.556113255787041e-07,-5.11837152386308e-07,-8.192882682542782e-07,7.328844646995891e-08,-1.660235060072342e-06,-8.297976816700493e-07,-6.513266126700058e-07,-3.0746755773229358e-06,-3.3002059124574266e-06,-2.1474511328125587e-06
1.3955961808679494e-09,1.0998569576195117e-06,-2.1903196237821275e-07,-5.375670437980582e-07,-6.1612636499713e-07,2.8304221516162364e-08,-8.440048938159081e-07,-5.299692139690007e-07,-8.96755508004214e-07,-5.307798506954887e-07,-8.551888572417913e-07,3.929990823283751e-08,-1.6823248387017825e-06,-8.277820348814421e-07,-7.11813850580925e-07,-3.0760112725091626e-06,-3.314937738232912e-06,-2.150007115537354e-06
4.2252822336453336e-08,1.0877368364645927e-06,-2.0780199548233818e-07,-5.409136518108759e-07,-5.867021787470882e-07,3.242214957294392e-08,-8.171387573800841e-07,-5.565562183200251e-07,-9.144249516947901e-07,-5.327732028727273e-07,-8.755331584855289e-07,3.587077542835119e-08,-1.6743093652067504e-06,-8.149131847529741e-07,-7.449108870994754e-07,-3.057818098470128e-06,-3.2845524397903807e-06,-2.1095217359322348e-06
9.364086603721205e-08,1.035290021825345e-06,-1.7719025725544295e-07,-5.334064017662818e-07,-5.368508532248904e-07,4.479596553050886e-08,-7.407550703243242e-07,-5.730580067763402e-07,-9.06400586604965e-07,-5.155591680928611e-07,-8.752209292512053e-07,6.613360316622062e-08,-1.635627048427298e-06,-8.145238546880265e-07,-7.495317876949702e-07,-3.0443254306271135e-06,-3.261291705850001e-06,-2.026858735198037e-06
1.0271787565354597e-07,9.305754709208273e-07,-1.3028506852741649e-07,-5.138928815523048e-07,-4.7201694522866554e-07,6.81973110143565e-08,-6.194429054176738e-07,-5.807839092658117e-07,-8.777520160347834e-07,-4.819014544442861e-07,-8.534562049857802e-07,1.2608640689449938e-07,-1.573453175468639e-06,-7.596103283225534e-07,-7.28891571663264e-07,-2.9476545964829195e-06,-3.2475253524648384e-06,-1.917747121493439e-06
2.8766329422508713e-08,7.705528755267338e-07,-7.328004631401589e-08,-4.841572308407886e-07,-4.01624924813165e-07,1.011708722322336e-07,-4.681246824133963e-07,-5.821829590174866e-07,-8.372572932451265e-07,-4.3709390128369645e-07,-8.134208656698412e-07,2.0750924713001009e-07,-1.4991531838557062e-06,-6.7059738520831e-07,-6.910398767108979e-07,-2.815827284523291e-06,-3.133721402511657e-06,-1.7953348451145757e-06
-1.3595164944072066e-07,5.809560516754482e-07,-1.2955270015014479e-08,-4.4783993774589727e-07,-3.356595021797592e-07,1.39001088907405e-07,-3.054059309429752e-07,-5.78180108612821e-07,-7.940344957982518e-07,-3.8999517465392996e-07,-7.615235276398785e-07,3.0013839317922527e-07,-1.4269004056517062e-06,-5.908573560964757e-07,-6.451483026242155e-07,-2.7665136310000844e-06,-2.9931049451181567e-06,-1.7027067849058372e-06
-3.729049288215058e-07,4.343192528925321e-07,4.478594494353263e-08,-4.090965871050188e-07,-2.8223213648641134e-07,1.753307163163526e-07,-1.468759381151707e-07,-5.675991949732689e-07,-7.551357450942894e-07,-3.487330908659339e-07,-7.059721175426903e-07,3.933267703833303e-07,-1.3712520645971935e-06,-5.355174617555452e-07,-5.991300642518279e-07,-2.85241371063148e-06,-2.886605135174933e-06,-1.6991892180734816e-06
-5.487108991728602e-07,4.3430460827508835e-07,9.679490830713879e-08,-3.711268043429869e-07,-2.472040187039061e-07,2.0364386038015232e-07,-2.4442031407654876e-09,-5.460687520442522e-07,-7.240003403716762e-07,-3.2045639289872116e-07,-6.545176164149004e-07,4.776331845741295e-07,-1.343392766902653e-06,-5.368870653877551e-07,-5.605427349901506e-07,-3.054376187262675e-06,-2.814307796954338e-06,-1.7536771942716141e-06
-6.042648621022957e-07,6.599925632296419e-07,1.428314093060527e-07,-3.3532334743110714e-07,-2.2985756386159828e-07,2.1851688106993352e-07,1.2227661893619054e-07,-5.077487869983293e-07,-7.013510295727518e-07,-3.0802523928167035e-07,-6.125735963215642e-07,5.45363653753812e-07,-1.3509488743776252e-06,-5.326703666430152e-07,-5.361835850233095e-07,-3.1889136016135955e-06,-2.77354589206883e-06,-1.8244270883764725e-06
-5.519055573836949e-07,1.1122946037774106e-06,1.8317237559733214e-07,-3.015145113487286e-07,-2.2760820281873384e-07,2.1681817464061827e-07,2.2183971971270161e-07,-4.49156611049039e-07,-6.869577836851715e-07,-3.1362366409004387e-07,-5.824869722984001e-07,5.906206595145738e-07,-1.3928546305601956e-06,-5.431017393079866e-07,-5.294003674974273e-07,-3.2946514208738957e-06,-2.7691106379234174e-06,-1.8362738221564218e-06
-4.5068169647298523e-07,1.7070775717061093e-06,2.204069489359217e-07,-2.6842519585802925e-07,-2.3649753457578852e-07,1.9937230572318483e-07,2.8942212541787993e-07,-3.7222635553139624e-07,-6.797977736744267e-07,-3.306931081403998e-07,-5.634431403245072e-07,6.10833301615636e-07,-1.4602877539599945e-06,-5.808129370102033e-07,-5.347857473811975e-07,-3.3946557995936195e-06,-2.7963205141377063e-06,-1.918212463106264e-06
-3.89387231066267e-07,2.3104346176667403e-06,2.5677994033912065e-07,-2.3348624144433718e-07,-2.540585252437006e-07,1.7217439810405043e-07,3.2071797757676077e-07,-2.8324012056320295e-07,-6.763402402418027e-07,-3.486039566971441e-07,-5.519157491197379e-07,6.089738530058997e-07,-1.539173215395151e-06,-6.615556126563243e-07,-5.41276984410678e-07,-3.541986724039148e-06,-2.8437193802544207e-06,-2.056085319119105e-06
-3.8457906950668286e-07,2.7791098193042923e-06,2.9474300198603935e-07,-1.9293358092303818e-07,-2.7692835241769554e-07,1.4540267582441837e-07,3.167744252319861e-07,-1.894991027783383e-07,-6.697248906179528e-07,-3.6822018286742333e-07,-5.43465202013921e-07,5.934989434237721e-07,-1.6124296754872961e-06,-7.385009594406476e-07,-5.339270268540991e-07,-3.731920447005549e-06,-2.895611320240748e-06,-2.1674172900707997e-06
-4.3549549336862526e-07,2.991136276018535e-06,3.3808412148326204e-07,-1.43113237063796e-07,-3.0050929765501246e-07,1.299215647442059e-07,2.860988472152112e-07,-9.646610474661504e-08,-6.521297046629756e-07,-3.60600603842453e-07,-5.349351193631354e-07,5.755995268105228e-07,-1.6664640006927289e-06,-8.033275513446149e-07,-5.055127201434015e-07,-3.832751781837499e-06,-2.93665711471633e-06,-2.2111383343576718e-06
-4.3509986248683933e-07,2.8775048776882814e-06,3.8804030588126183e-07,-8.231341749607295e-08,-3.185397863910475e-07,1.3316733851482885e-07,2.438138129057708e-07,-5.145419214403966e-09,-6.191914602109046e-07,-3.1108366969071696e-07,-5.261107579352339e-07,5.658659988483337e-07,-1.6943120270444537e-06,-8.600529356722204e-07,-4.2489861863343677e-07,-3.915988327408674e-06,-2.955864158645874e-06,-2.2194845386325304e-06
-3.6136848522579e-07,2.4497353908212216e-06,4.453830573717296e-07,-1.2067500249350233e-08,-3.2512889102991546e-07,1.5646283197914892e-07,2.103882319541898e-07,8.710129147187613e-08,-5.681644695335965e-07,-2.83593745430604e-07,-5.19164048374035e-07,5.716106320193706e-07,-1.6970746409622308e-06,-9.038810991865569e-07,-3.15103676262647e-07,-4.0339287214208245e-06,-2.948545912526361e-06,-2.224525890453658e-06
-2.657480128692775e-07,1.8049084403280283e-06,5.109118166066569e-07,6.253553676023746e-08,-3.185673664400203e-07,1.944738117290605e-07,2.084974945399685e-07,1.841384395600403e-07,-5.002313296748855e-07,-1.7304908048645113e-07,-5.171342337037631e-07,5.951216844400946e-07,-1.6835855854763294e-06,-9.339782517854631e-07,-1.9065278557538934e-07,-4.13534125563503e-06,-2.9162188428580982e-06,-2.233704723534542e-06
-2.4829543008071495e-07,1.0940186950668582e-06,5.841273852976906e-07,1.3392223693673494e-07,-3.0091865908192394e-07,2.3753355640249557e-07,2.5670935956238846e-07,2.8858965032792327e-07,-4.2012998008035947e-07,-3.925408408873411e-08,-5.217421325743513e-07,6.332815329697308e-07,-1.6673880175758562e-06,-9.524846434458152e-07,-6.784293360134183e-08,-4.221193772170294e-06,-2.865092820133996e-06,-2.165131264178068e-06
-3.5790914502548275e-07,4.587157080313748e-07,6.625363895544742e-07,1.9443187601906047e-07,-2.759326392361598e-07,2.758883675117783e-07,3.618155738284066e-07,4.002217511290466e-07,-3.3336632108049806e-07,7.035571496122352e-08,-5.321238205420365e-07,6.781754280373943e-07,-1.662222923224284e-06,-9.66092761542795e-07,3.909505219489955e-08,-4.229527194590043e-06,-2.804706275844752e-06,-2.0382969159172757e-06
-5.548045812999759e-07,-3.190437615423015e-08,7.414129587255736e-07,2.386819482131465e-07,-2.450671327532089e-07,3.0278478982932813e-07,5.138796167712769e-07,5.160609752842795e-07,-2.4625744728615297e-07,1.0372771841145747e-07,-5.453038015483276e-07,7.182678702358993e-07,-1.67614655421491e-06,-9.808381180362128e-07,9.428740698648691e-08,-4.138959330819068e-06,-2.7473625888420774e-06,-1.9426935947237476e-06
-6.845930706114413e-07,-3.9697726469726204e-07,8.140851579355979e-07,2.6461596006929995e-07,-2.07516090756945e-07,3.178274460140855e-07,6.882512721560442e-07,6.310251966769806e-07,-1.654418355356421e-07,1.0298236849262512e-07,-5.574589131974623e-07,7.411031613950755e-07,-1.7206695618681998e-06,-1.0031453764951488e-06,5.511691517389572e-08,-4.0691821411992495e-06,-2.706542765219148e-06,-1.8792570615083616e-06
-8.631825175137911e-07,-6.985933047687666e-07,8.715875944110424e-07,2.7341878694396355e-07,-1.6262474344919585e-07,3.24760708082563e-07,8.516830117340212e-07,7.390495204406321e-07,-9.565748042327921e-08,8.621102184302376e-08,-5.653661578697912e-07,7.37878638631443e-07,-1.7949467566931175e-06,-1.0382475143351602e-06,2.9976344204044077e-08,-4.042177352700909e-06,-2.692929594670022e-06,-1.8466598896888164e-06
-9.173639364183623e-07,-9.827383532190347e-07,9.083624017555838e-07,2.688843004610718e-07,-1.1093485110496861e-07,3.287720931307096e-07,9.728992008339136e-07,8.318116140564999e-07,-4.2229825469357555e-08,9.808779842303698e-08,-5.672436190753137e-07,7.073545055186384e-07,-1.8904818215578321e-06,-1.0823240410386127e-06,2.21113175960728e-09,-4.041892697023902e-06,-2.70998862007775e-06,-1.8564559660499551e-06
-6.653993128308607e-07,-1.2504491142608908e-06,9.226304852177658e-07,2.5617467511379905e-07,-5.6427748996670694e-08,3.3453146367949516e-07,1.0320777352277594e-06,8.989149422112324e-07,-9.825900332838135e-09,9.082545016669938e-08,-5.630185904366965e-07,6.565439485572923e-07,-1.991399537119987e-06,-1.1331467070230434e-06,-1.3634223387213399e-08,-4.112212333785173e-06,-2.752012993309906e-06,-1.9077016143096122e-06
-6.264776358242131e-07,-1.4552537503805545e-06,9.148189957540578e-07,2.4021808789520213e-07,-5.943560278074361e-09,3.439180036735749e-07,1.0258098521754018e-06,9.301145674691377e-07,-6.236103733761806e-10,3.5512515918280835e-08,-5.532687864793757e-07,5.982102513745541e-07,-2.0795940004787746e-06,-1.1810010896082743e-06,-9.809669936530895e-09,-4.192247870252791e-06,-2.805702776998076e-06,-1.9903458514548027e-06
-6.628146952626024e-07,-1.5165758296886686e-06,8.900151371174815e-07,2.2452321015197777e-07,3.432335204961222e-08,3.5610386791049744e-07,9.658574458886583e-07,9.195718034130403e-07,-1.3305319595806752e-08,-3.576168503245268e-08,-5.37897388544836e-07,5.460983023290813e-07,-2.1458017610002425e-06,-1.2186230267965781e-06,-4.558300627633181e-08,-4.23862968393737e-06,-2.854778218055686e-06,-2.087732059377428e-06
-7.235657419991996e-07,-1.3545181769050028e-06,8.546533189768631e-07,2.1076723569149605e-07,6.052490948105609e-08,3.6868137806859226e-07,8.715793349961077e-07,8.692355541625112e-07,-4.335481756362883e-08,-7.099099312927973e-08,-5.162785458556501e-07,5.096034873230217e-07,-2.1837416905169266e-06,-1.2325423768682876e-06,-1.640830616047646e-07,-4.230312631839916e-06,-2.8856010503144086e-06,-2.1823632243256148e-06
-5.622008950922325e-07,-9.34321917824314e-07,8.149157455032797e-07,1.9886836529398722e-07,7.331364227384886e-08,3.7943534101681414e-07,7.650467224206052e-07,7.894927136219388e-07,-8.150084657334578e-08,-1.0553404262446296e-07,-4.889820968214004e-07,4.909968170778627e-07,-2.1940188681361367e-06,-1.2222829837993242e-06,-2.761708241759273e-07,-4.201386924693391e-06,-2.8906773445599617e-06,-2.2617665356621442e-06
-1.0390786582037423e-07,-2.9797303397142e-07,7.763955250619508e-07,1.8739406454544465e-07,7.613775593091944e-08,3.8408347827910514e-07,6.618430028149983e-07,6.969801208225877e-07,-1.1724368860959743e-07,-1.1373645647862655e-07,-4.594372423726137e-07,4.865028670365379e-07,-2.1716311787430367e-06,-1.1924549216049427e-06,-3.775612811868315e-07,-4.122046523476194e-06,-2.8687094579162983e-06,-2.3213122544139817e-06
2.481897369340678e-07,4.3162076679921235e-07,7.434811715169162e-07,1.741761554336885e-07,7.253687643039619e-08,3.7725319093711765e-07,5.749324403974916e-07,6.097127318339418e-07,-1.4074695832609653e-07,-1.0123483415054004e-07,-4.341877997190516e-07,4.889955150833641e-07,-2.1247216725015214e-06,-1.144271466252627e-06,-4.494963453272667e-07,-4.013031606942269e-06,-2.822612307566395e-06,-2.36442360344771e-06
3.0396935347601105e-07,1.0839751306361682e-06,7.194732282541314e-07,1.570394829424808e-07,6.43517881549701e-08,3.536476824706588e-07,5.152863660796333e-07,5.422685002529075e-07,-1.4615920501269216e-07,-8.81309303222135e-08,-4.213106340104158e-07,4.901239583073254e-07,-2.063292038039473e-06,-1.090470821162214e-06,-4.873402452489132e-07,-3.881275748260049e-06,-2.7572438862500083e-06,-2.3993637813454074e-06
4.857335410089849e-07,1.5038261172981633e-06,7.057645625845489e-07,1.34712173784934e-07,5.19497891982881e-08,3.098272800123806e-07,4.88199980342729e-07,5.026065652086378e-07,-1.3369768692776118e-07,-7.447776911696312e-08,-4.27606184145994e-07,4.81845434049932e-07,-2.002125352420176e-06,-1.028564429700328e-06,-5.16024017914732e-07,-3.7303711463976583e-06,-2.6778249756700442e-06,-2.435256518056574e-06
8.226880923559722e-07,1.6047143778804514e-06,7.017754714612764e-07,1.0760507479733474e-07,3.5813347778676084e-08,2.476351931647233e-07,4.935181598224828e-07,4.895075107250764e-07,-1.0809828034631088e-07,-7.63257586932657e-08,-4.5761590466991207e-07,4.580871093491817e-07,-1.944321378062e-06,-9.57002065045268e-07,-5.739976330731302e-07,-3.5771254516084645e-06,-2.5893528086365762e-06,-2.478217569516983e-06
7.492859445544644e-07,1.3828481096120716e-06,7.046525154950671e-07,7.799616486416926e-08,1.7758774757962425e-08,1.7474083701553449e-07,5.241696781088382e-07,4.94792323941841e-07,-7.726366163069521e-08,-9.533285153307842e-08,-5.065740663034059e-07,4.16697093449975e-07,-1.8871502120653686e-06,-8.778151196323109e-07,-6.642622268431562e-07,-3.4276391905280396e-06,-2.4963595734249803e-06,-2.5286661680330353e-06
6.096666134799062e-07,8.98242188946946e-07,7.104431198148675e-07,4.9568011971351785e-08,1.3047485107928525e-09,1.0263513791937407e-07,5.677019265364388e-07,5.05879290337838e-07,-4.905011736808916e-08,-1.2530049096066792e-07,-5.627915666950454e-07,3.606997970859355e-07,-1.8292924875576149e-06,-8.027014238125252e-07,-7.464828231901909e-07,-3.279340670856118e-06,-2.402575228147869e-06,-2.5814585280148867e-06
4.869458683083297e-07,2.457502929442793e-07,7.154690126389611e-07,2.6363154854401113e-08,-9.238048978832923e-09,4.2788041696635116e-08,6.093166515898341e-07,5.100775448524246e-07,-2.9706526853315672e-08,-1.597889931032492e-07,-6.118507575183952e-07,2.9756008514603924e-07,-1.7713854383534669e-06,-7.321111766921521e-07,-8.202742894108398e-07,-3.144140815250557e-06,-2.3108725928198016e-06,-2.6286832341398226e-06
3.115590933719667e-07,-4.6702425142056247e-07,7.182242186228411e-07,1.1461392321503629e-08,-8.718017194776968e-09,2.7414181003042044e-09,6.372547146224201e-07,5.007316102626897e-07,-2.2099639542755982e-08,-1.9121041076164933e-07,-6.053407596268113e-07,2.3685503587000454e-07,-1.7179334317469487e-06,-6.652017495210544e-07,-8.795875742583203e-07,-3.0444203365593146e-06,-2.223279084773344e-06,-2.6631894739403e-06
3.7019395635997904e-08,-1.1303082628907434e-06,7.201387909970912e-07,6.130329322769758e-09,5.6954917866205524e-09,-1.5393812022077906e-08,6.454079627216515e-07,4.7448334914070495e-07,-2.5307559837726906e-08,-2.1333946065628362e-07,-5.752775551315764e-07,1.8776456481695388e-07,-1.6643359506315182e-06,-6.032087111454701e-07,-9.206071711524697e-07,-2.973732554777683e-06,-2.140670448275906e-06,-2.680265240590779e-06
-2.66062105629746e-07,-1.6432272111708316e-06,7.240753516487031e-07,9.837082267161196e-09,3.490865456264587e-08,-1.3961521708854569e-08,6.341246318658753e-07,4.343753347925382e-07,-3.3787576867663846e-08,-2.2237991033382858e-07,-5.58609363392348e-07,1.568472256456788e-07,-1.6061318924201976e-06,-5.353035537515669e-07,-9.511963290938496e-07,-2.929697027778351e-06,-2.062788065258629e-06,-2.6780002609695026e-06
-4.523547948612059e-07,-1.9345580842796992e-06,7.331697758832403e-07,2.0584425020550714e-08,7.855938246251664e-08,2.128587010380802e-09,6.091914767098312e-07,3.8743663602844554e-07,-4.052600686239894e-08,-2.1587237309522068e-07,-5.342976365864549e-07,1.4640076637595892e-07,-1.5338601999684606e-06,-4.6324800289477683e-07,-9.694067366034183e-07,-2.9056216729535063e-06,-1.9888540707898893e-06,-2.657039884261435e-06
-5.266435006674678e-07,-1.978406744789886e-06,7.493277128952145e-07,3.526829987668746e-08,1.3206474827674848e-07,2.6911010453229945e-08,5.788163602831093e-07,3.396918273688594e-07,-4.056754336358379e-08,-1.983056444372927e-07,-4.5679231283577416e-07,1.5405683716884178e-07,-1.4527001015905225e-06,-3.933694405309987e-07,-9.673174294046364e-07,-2.8832259463328404e-06,-1.918181497052801e-06,-2.6202374212743726e-06
-4.973392997971694e-07,-1.7937891433654547e-06,7.715992631953344e-07,5.0200656023468064e-08,1.8807061221381903e-07,5.42953036902308e-08,5.517827779344295e-07,2.947952380352255e-07,-3.25318209988973e-08,-1.7238654610557865e-07,-3.522061327059132e-07,1.735400214916217e-07,-1.368566450104925e-06,-3.2674502447414844e-07,-9.491003343801235e-07,-2.8625894841091096e-06,-1.8507729850046238e-06,-2.572795055475918e-06
-3.9321847335807104e-07,-1.4374042637772301e-06,7.952504722356374e-07,6.166222037331139e-08,2.3777026226564297e-07,7.868631758080827e-08,5.36000035604992e-07,2.527641653807142e-07,-1.9171311899723343e-08,-1.4403737371849232e-07,-2.6941775992088237e-07,1.9608499353725606e-07,-1.2874135950074251e-06,-2.662028852199912e-07,-9.265305828431415e-07,-2.8204866623771656e-06,-1.78792724541428e-06,-2.522318789920148e-06
-2.578533972477007e-07,-9.9026765386844e-07,8.134952037366486e-07,6.645805901935431e-08,2.7524923483282514e-07,9.544084659072185e-08,5.367258249319841e-07,2.1056139324109377e-07,-6.521159836692002e-09,-1.205801660449466e-07,-2.0524728558288094e-07,2.1287727583494552e-07,-1.2178867444681526e-06,-2.1902203569799833e-07,-9.014045565394758e-07,-2.7625880879433826e-06,-1.7320439384386056e-06,-2.47770625362515e-06
-7.348087316682179e-08,-5.314289099634245e-07,8.194076632600328e-07,6.266415733210801e-08,2.9764481001746697e-07,1.022710687840941e-07,5.584374798171884e-07,1.6538603911780413e-07,1.9427226176969805e-10,-1.0576431243854942e-07,-1.546939794419318e-07,2.1826336592775469e-07,-1.1632670188896992e-06,-1.873083495505798e-07,-8.789831388233828e-07,-2.700164754335707e-06,-1.6855895870493111e-06,-2.4468658188956125e-06
1.5880074590754558e-07,-1.1247296004541488e-07,8.082621676218219e-07,5.030995437743182e-08,3.085362208305954e-07,9.969481351042942e-08,6.043601588275829e-07,1.1992163397078602e-07,-1.0175233269051726e-10,-1.010800298320258e-07,-1.1982874366722376e-07,2.120460719549424e-07,-1.1298909059396055e-06,-1.706692125470098e-07,-8.645280408673819e-07,-2.6623451725740476e-06,-1.650114057321582e-06,-2.434433083990151e-06
4.2085704462638573e-07,2.4851855942435394e-07,7.804188399091202e-07,3.161373048921651e-08,3.1643006615523187e-07,9.109006018461931e-08,6.689052844191876e-07,8.25312154709456e-08,-2.3810102897528286e-09,-1.0504626030831739e-07,-9.867852465764035e-08,1.9998102807338041e-07,-1.11653374345613e-06,-1.6714169885917598e-07,-8.598901029576204e-07,-2.653075577109828e-06,-1.6254293409065244e-06,-2.4406474126691188e-06
6.840597975088944e-07,5.549969175442641e-07,7.409811384714489e-07,1.0815113364043267e-08,3.3109038332418666e-07,8.319361632039713e-08,7.520173982824227e-07,6.421639673278734e-08,1.9911678422846705e-09,-1.09990566379112e-07,-8.833480361767647e-08,1.9256037443436152e-07,-1.118624040218929e-06,-1.6696168181324577e-07,-8.685057144472571e-07,-2.661284015546762e-06,-1.6090111302018013e-06,-2.4611615781612255e-06
9.19189140986482e-07,8.180119449890924e-07,6.981344163042505e-07,-6.534789940062841e-09,3.6129880707636526e-07,8.166389057240293e-08,8.484055476502138e-07,7.472575321904884e-08,2.1570914562262887e-08,-1.0488392205366156e-07,-8.52960346688627e-08,2.0190109239282018e-07,-1.1261288397074917e-06,-1.583862426769251e-07,-8.915853113176467e-07,-2.6714552886027433e-06,-1.5964691284542681e-06,-2.4886234879125153e-06
1.1015097447185782e-06,1.0480095611778695e-06,6.60767768856045e-07,-1.5014869065827517e-08,4.073539689298282e-07,9.242210709738846e-08,9.520359437652435e-07,1.162854037276303e-07,6.06226770401591e-08,-8.111544883480016e-08,-8.596842397615684e-08,2.3747019779977412e-07,-1.1279687533259883e-06,-1.3397173785455828e-07,-9.276744029064714e-07,-2.664449279051791e-06,-1.5829327725291453e-06,-2.515443851551385e-06
1.2245477233411735e-06,1.2500271872471093e-06,6.358095636545849e-07,-1.092128141913936e-08,4.677844868751134e-07,1.1908258703155218e-07,1.0480870817658944e-06,1.8199375535717894e-07,1.1697409000259937e-07,-3.321070939224223e-08,-8.718916952920438e-08,3.0277683326971537e-07,-1.1174627140179102e-06,-8.522002665638805e-08,-9.735816768233307e-07,-2.6378069588308178e-06,-1.5642611013349721e-06,-2.5362027631198386e-06
1.2925405219138827e-06,1.4192469189752043e-06,6.26757231739159e-07,6.707227265725338e-09,5.359972305244084e-07,1.614433933309054e-07,1.1161949330700474e-06,2.59109418313147e-07,1.8443257690750696e-07,3.742374829082574e-08,-8.656873527448206e-08,3.9414716222463954e-07,-1.0881568929935952e-06,-1.3324208759873582e-08,-1.0236479149435369e-06,-2.5868923297603728e-06,-1.5380230373214096e-06,-2.549222444067172e-06
1.3135716374403071e-06,1.5417275663619912e-06,6.331370131307751e-07,3.5698398240710294e-08,6.024306173928098e-07,2.1611507948253137e-07,1.1614922423125848e-06,3.3292025589712824e-07,2.552157548992849e-07,1.219135764626649e-07,-8.300621875314582e-08,5.014700882546296e-07,-1.0452039824266526e-06,7.336390653963235e-08,-1.07093077794266e-06,-2.514387816284433e-06,-1.5043831881900045e-06,-2.556919877426021e-06
1.2986928510191124e-06,1.60215854880362e-06,6.515822941559441e-07,7.118929749813127e-08,6.601057715512195e-07,2.7677875102753655e-07,1.1867307972314153e-06,3.95277779570539e-07,3.2134286937877754e-07,2.0722282145600827e-07,-7.686858982639527e-08,6.110022537087395e-07,-9.97278490048585e-07,1.6426476005754374e-07,-1.1090175302284263e-06,-2.4261124391000272e-06,-1.4661078484211155e-06,-2.5641776163106198e-06
1.2435304010250572e-06,1.5866374137917758e-06,6.766613216175154e-07,1.0713603324403242e-07,7.034386254356059e-07,3.3630939818925e-07,1.2006664974150558e-06,4.386564495608891e-07,3.767325308175044e-07,2.8055605719521797e-07,-6.955271439425647e-08,7.094506158016838e-07,-9.538822571326778e-07,2.468395055208622e-07,-1.1335733475545552e-06,-2.336052722934625e-06,-1.4276686771034715e-06,-2.5753503149624246e-06
1.1405518032871318e-06,1.4800882119596008e-06,7.031937084279102e-07,1.3815015769496363e-07,7.305372091514523e-07,3.8865641983358044e-07,1.2136651522910116e-06,4.6239473546404946e-07,4.1805841001641304e-07,3.319877226120268e-07,-6.291555396011544e-08,7.873271000572926e-07,-9.216267553735758e-07,3.1196994209642926e-07,-1.1432641719304584e-06,-2.2596557229804955e-06,-1.394219003907953e-06,-2.592247884317064e-06
9.864848567226643e-07,1.2744885914670898e-06,7.282341869900226e-07,1.606954792577921e-07,7.465594659472187e-07,4.3112309060548043e-07,1.227310271197692e-06,4.705180392718646e-07,4.4102000243902323e-07,3.586418466975774e-07,-5.873102889942148e-08,8.407219702997284e-07,-9.040198513568739e-07,3.5625394092600445e-07,-1.1393369185779472e-06,-2.2075316612035475e-06,-1.3701721412259396e-06,-2.6136951037560826e-06
7.786558385882994e-07,9.87324550795888e-07,7.507615096729671e-07,1.7362117275172274e-07,7.549996283371527e-07,4.637656893204103e-07,1.2414667522832791e-06,4.6995380527329606e-07,4.507514550778642e-07,3.6267435116293405e-07,-5.7875459089190694e-08,8.716809776556654e-07,-9.033795325942889e-07,3.8075697996313303e-07,-1.1242443970823436e-06,-2.1802713245055214e-06,-1.357300781336831e-06,-2.63626251362552e-06
5.342223000473162e-07,6.691713896027926e-07,7.717444204435283e-07,1.781115633949171e-07,7.595582180107454e-07,4.888766035471619e-07,1.257959027841968e-06,4.699667117079196e-07,4.594701759047731e-07,3.5077960733686937e-07,-5.989127439463432e-08,8.867042786437365e-07,-9.11388446723102e-07,3.885386075788179e-07,-1.1007411822708538e-06,-2.176752898015023e-06,-1.353871403938251e-06,-2.6563749786360342e-06
2.842087110287489e-07,3.944613196733525e-07,7.926881747591353e-07,1.7688809925571907e-07,7.634403963797876e-07,5.094366738517824e-07,1.2845002360574203e-06,4.791439890914421e-07,4.718414008269877e-07,3.313646311255564e-07,-6.346599593075623e-08,8.936528485651129e-07,-9.230547826401647e-07,3.882251171712206e-07,-1.0707365975093627e-06,-2.1858789052112802e-06,-1.3555011447441294e-06,-2.6725605730614214e-06
7.011111784437668e-08,2.448146324195488e-07,8.141620865151423e-07,1.7314239074495803e-07,7.688436675330529e-07,5.278640640706958e-07,1.3203175396940015e-06,5.026707342360918e-07,4.910403476762053e-07,3.110169384421806e-07,-6.709640832128973e-08,8.990413489162084e-07,-9.335030681438352e-07,3.8765098244916577e-07,-1.0379110908853659e-06,-2.195134463008705e-06,-1.3566243921608749e-06,-2.6867624578036275e-06
-5.794813013759631e-08,2.843614747379877e-07,8.3568483837647e-07,1.698043529747013e-07,7.765921056228044e-07,5.451644723223752e-07,1.3661616214714377e-06,5.372385971366688e-07,5.164472439809742e-07,2.9420980713123825e-07,-6.934753833022118e-08,9.066629047217284e-07,-9.367969550342082e-07,3.9221631059086034e-07,-1.0055252551588178e-06,-2.1921817353852148e-06,-1.3521833470678139e-06,-2.701696852343117e-06
-7.612989192362394e-08,5.288883743241602e-07,8.558749774676419e-07,1.6879698394912338e-07,7.855252617023152e-07,5.605891903828575e-07,1.4228440304261459e-06,5.769901480804721e-07,5.427111750319134e-07,2.828861889650643e-07,-6.947883502662958e-08,9.167781675988886e-07,-9.332428748268229e-07,4.0489906153233894e-07,-9.760774023823831e-07,-2.1744148447865755e-06,-1.339792808398356e-06,-2.7203116170434127e-06
3.848801877352521e-09,9.287627206881575e-07,8.724927280959411e-07,1.7005925547696888e-07,7.928048405160125e-07,5.715383275936742e-07,1.4823302117472279e-06,6.132435874391205e-07,5.635057600827412e-07,2.753479420840055e-07,-6.835228291639214e-08,9.261839471889439e-07,-9.262771227428965e-07,4.241661929426771e-07,-9.535792968460784e-07,-2.1471514423515286e-06,-1.32100668136976e-06,-2.7470264788776695e-06
1.3544354974525681e-07,1.3774611296540148e-06,8.826389189793786e-07,1.7129915894907217e-07,7.929365199193091e-07,5.748000101748802e-07,1.5358595648789742e-06,6.360651843948752e-07,5.72450008880141e-07,2.6762651426997833e-07,-6.842849385480805e-08,9.301644974539827e-07,-9.204369552140524e-07,4.4586209708986213e-07,-9.39295464632573e-07,-2.11942812401098e-06,-1.3002671247009173e-06,-2.784742843284501e-06
2.495444082522409e-07,1.7371928424243717e-06,8.839197797470987e-07,1.6908835229134116e-07,7.830512475752214e-07,5.670948954111057e-07,1.5730310800869809e-06,6.413007300281111e-07,5.635810738742296e-07,2.562129904326191e-07,-7.256010501722226e-08,9.252316141423075e-07,-9.184912523768534e-07,4.6799630824638903e-07,-9.328929952222939e-07,-2.0993275290223513e-06,-1.282605377762714e-06,-2.8335216000380026e-06
2.8062864643534847e-07,1.8740134031245708e-06,8.752771639279489e-07,1.605232187036966e-07,7.612767001844916e-07,5.470056028548514e-07,1.5884465742607825e-06,6.297030389647772e-07,5.343817867701376e-07,2.3908852746037163e-07,-8.258164567349051e-08,9.108211768674693e-07,-9.215835303454372e-07,4.870241581417554e-07,-9.323661760399781e-07,-2.087485477801723e-06,-1.2716458250513032e-06,-2.890194918694828e-06
1.9720830459597555e-07,1.6996377567843863e-06,8.572652612004109e-07,1.4463201055416917e-07,7.287045449581773e-07,5.156479422445559e-07,1.5845280756361987e-06,6.059322723057414e-07,4.897125356228385e-07,2.1728944788904254e-07,-9.829912137538831e-08,8.900346704497987e-07,-9.271723066237291e-07,5.023655032567013e-07,-9.330535174393209e-07,-2.080462045762718e-06,-1.2679283249897334e-06,-2.9477336823074596e-06
1.9816852634195912e-08,1.2068200317973803e-06,8.330741451634153e-07,1.2323280326009462e-07,6.895384488122087e-07,4.774820857718254e-07,1.566630509151132e-06,5.779502796980216e-07,4.3948291314687175e-07,1.9550259980418886e-07,-1.1688820409016776e-07,8.696321368108425e-07,-9.27747012891663e-07,5.172534092023243e-07,-9.272720347500896e-07,-2.0675953701360803e-06,-1.2680704503089116e-06,-2.995948387694625e-06
-1.91253337948622e-07,4.811923940146051e-07,8.071246686339573e-07,1.0066858764153997e-07,6.501652132861934e-07,4.405130282823148e-07,1.5472436526260594e-06,5.553118138040748e-07,3.969483303812718e-07,1.8066582139274885e-07,-1.3377184509554435e-07,8.581175238095603e-07,-9.157953170172502e-07,5.357955737497961e-07,-9.054838059711197e-07,-2.0351066218493835e-06,-1.2662130679060334e-06,-3.0242859141702557e-06
-3.6439379317534815e-07,-3.1470626933365793e-07,7.842292750040153e-07,8.213297806188869e-08,6.178494299459545e-07,4.1407284173624923e-07,1.5368397623598603e-06,5.472322603056846e-07,3.7403043491579625e-07,1.7905642315114793e-07,-1.450451808721509e-07,8.621704801439792e-07,-8.865120682495266e-07,5.618364880832587e-07,-8.593170996356393e-07,-1.970408599264854e-06,-1.257140212548318e-06,-3.024951915964143e-06
-4.487169766881944e-07,-9.833916063904661e-07,7.664882297817495e-07,7.171144879587556e-08,5.990289685665764e-07,4.069224665914573e-07,1.538599006271312e-06,5.584337851518098e-07,3.7648337322948616e-07,1.9246250737373484e-07,-1.4961235988113673e-07,8.838359766992012e-07,-8.409177220050578e-07,5.958023704281077e-07,-7.840831342388939e-07,-1.8688838009465827e-06,-1.2387632982334274e-06,-2.9946928500360993e-06
-4.29006154209577e-07,-1.3572221308729326e-06,7.533960828231306e-07,7.135928654704578e-08,5.943600911563495e-07,4.238411606624865e-07,1.5481060073377497e-06,5.901946724124742e-07,4.042128323666479e-07,2.212526056508548e-07,-1.4962771658712065e-07,9.198177163843292e-07,-7.847916859277058e-07,6.341682742419588e-07,-6.798863649990592e-07,-1.737710504162139e-06,-1.2132313938868608e-06,-2.937470694952386e-06
-3.238162310005633e-07,-1.3608513980855182e-06,7.451065108564713e-07,8.067737346210338e-08,6.021942893987498e-07,4.635325723033322e-07,1.5548974191641647e-06,6.40502116991936e-07,4.4920522158082654e-07,2.5845112226541966e-07,-1.4963612775437304e-07,9.624427923251824e-07,-7.269759324217685e-07,6.703151730611432e-07,-5.558122972366808e-07,-1.5955781145342144e-06,-1.1869360586164453e-06,-2.862420875475589e-06
-1.700001165302691e-07,-1.027383992824098e-06,7.376713801540949e-07,9.706006434299187e-08,6.173121689907109e-07,5.181526787371268e-07,1.5480147440185546e-06,7.048816721120051e-07,4.983008781917222e-07,2.9571995291325074e-07,-1.5487777187101481e-07,1.0021691447446305e-06,-6.789705159621499e-07,6.980955346112113e-07,-4.25892540393741e-07,-1.4676330558912795e-06,-1.1686639265865074e-06,-2.7827729967130613e-06
4.878277924714218e-09,-4.5871956826873527e-07,7.297861052687462e-07,1.1655261993407251e-07,6.322235381878175e-07,5.756220259448133e-07,1.520714829594016e-06,7.770427353885006e-07,5.407288582895414e-07,3.257732022634147e-07,-1.6883790565448043e-07,1.0310567416387398e-06,-6.481208744791396e-07,7.134375161031822e-07,-3.173379322648824e-07,-1.3763018219043663e-06,-1.1660688430720803e-06,-2.7106964587727513e-06
1.9161262420952958e-07,2.2679129160449327e-07,7.231029897357706e-07,1.352277300687398e-07,6.431039984321846e-07,6.241573329083525e-07,1.4760608302306148e-06,8.500749370304186e-07,5.69701915105527e-07,3.4290336397713753e-07,-1.9132510868408347e-07,1.04518527386946e-06,-6.367936986006696e-07,7.132941236759428e-07,-2.3676491210582617e-07,-1.334760311807837e-06,-1.182731358649388e-06,-2.64790873967889e-06
3.9177355403638403e-07,9.196593346100079e-07,7.178638428288678e-07,1.5025105446649267e-07,6.501608010789691e-07,6.564721450032128e-07,1.421014564588428e-06,9.183540656931623e-07,5.837730816131144e-07,3.465275006416182e-07,-2.1848675821138214e-07,1.0450363661028581e-06,-6.417701743129188e-07,6.980377826462754e-07,-1.8295218641503351e-07,-1.3447955961824788e-06,-1.2171521633193202e-06,-2.596924490794567e-06
6.002105722456893e-07,1.5226939690430872e-06,7.177055095315268e-07,1.603458604477999e-07,6.527600808099314e-07,6.715741719975291e-07,1.376068852538406e-06,9.764621731718196e-07,5.886076943556315e-07,3.4109039401897337e-07,-2.4420232933983513e-07,1.034694304052032e-06,-6.559128095666717e-07,6.707146988030576e-07,-1.530465588587998e-07,-1.3980517142109832e-06,-1.2631942929832292e-06,-2.5617038800045393e-06
7.991384391559168e-07,1.9553585115627555e-06,7.239681712547666e-07,1.6565749930846743e-07,6.516376364708384e-07,6.713174735512371e-07,1.3411387956416348e-06,1.0205835660992703e-06,5.863966474319727e-07,3.3217878120852546e-07,-2.6215891399059475e-07,1.02010604140535e-06,-6.707419439025657e-07,6.365777694914005e-07,-1.246553468310838e-07,-1.4791151193005185e-06,-1.311918322117782e-06,-2.5297645034172844e-06
9.726190496672345e-07,2.161299371112328e-06,7.336131823461972e-07,1.6675369550403182e-07,6.472820363822347e-07,6.630728555039345e-07,1.3110268499908523e-06,1.0469987109785107e-06,5.767413108810218e-07,3.2486019429547434e-07,-2.680353528134867e-07,1.006326139894076e-06,-6.77308208387067e-07,6.027985844022644e-07,-1.1853707087847662e-07,-1.57019119885452e-06,-1.354588431375885e-06,-2.4920226730353353e-06
1.1205558225140954e-06,2.1136748261917036e-06,7.383168400952557e-07,1.631920648819372e-07,6.448171295093799e-07,6.491306081567346e-07,1.2685282624659162e-06,1.050389570408432e-06,5.567641432527471e-07,3.2290079758108635e-07,-2.611723648331989e-07,9.953616383844447e-07,-6.703319545711386e-07,5.76315446813243e-07,-1.3753402672769334e-07,-1.6558631292682893e-06,-1.38505561486406e-06,-2.452751097372568e-06
1.2564604165805148e-06,1.8204525473743692e-06,7.276491324801895e-07,1.5305814257040756e-07,6.394145543117452e-07,6.263390973428267e-07,1.2108581371556686e-06,1.0270965834678092e-06,5.206439260814773e-07,3.2554011280422827e-07,-2.4465079369181795e-07,9.85913614518538e-07,-6.480939609219546e-07,5.630714084954223e-07,-1.7959844018661555e-07,-1.7271772183261285e-06,-1.400633844934116e-06,-2.4148165731786456e-06
1.3875916322931604e-06,1.322825509966781e-06,6.930164398779223e-07,1.3403654936924578e-07,6.262968563095619e-07,5.912068534759484e-07,1.1577584452304434e-06,9.790276328009933e-07,4.643719222319274e-07,3.286008656818608e-07,-2.2423933616668094e-07,9.739547297058367e-07,-6.129824199232988e-07,5.657375142836174e-07,-2.2952936749014107e-07,-1.785750071715097e-06,-1.4026907833782297e-06,-2.448626757185279e-06
1.4959859850929731e-06,6.77533369803702e-07,6.337713711385576e-07,1.0518177727944076e-07,6.049025827738357e-07,5.371169857330646e-07,1.0952216578063925e-06,9.154712317763257e-07,3.87565780537591e-07,3.2549307580303347e-07,-2.0726894226696044e-07,9.53571310054682e-07,-5.720475071557696e-07,5.827545678371626e-07,-2.7613356643822254e-07,-1.8448718430678517e-06,-1.3970080669179768e-06,-2.550467453642265e-06
1.5353785117929954e-06,-5.783464339229335e-08,5.629696428687398e-07,6.834122665999557e-08,5.737020274123324e-07,4.6245151858901063e-07,1.0316840664876725e-06,8.500199186077918e-07,2.90640452762091e-07,3.0895453753003173e-07,-2.0090285683197047e-07,9.193444894853941e-07,-5.346884767112263e-07,6.08384229788544e-07,-2.5179353708719826e-07,-1.9227448126544733e-06,-1.3921272121926214e-06,-2.671170525151051e-06
1.4507223352190105e-06,-8.135047259218665e-07,4.947249747842514e-07,2.8316757164026362e-08,5.403080994676344e-07,3.728099170378988e-07,9.718068633730883e-07,7.980264072267907e-07,1.8092152044606032e-07,2.7490326370564635e-07,-2.095577231310543e-07,8.699389062178545e-07,-5.081799230436617e-07,6.356414759474628e-07,-2.794293535966895e-07,-2.0304062839599654e-06,-1.3956853866851334e-06,-2.8528235320526023e-06
1.2100719756258127e-06,-1.4880949015055455e-06,4.414719331967836e-07,-8.832998251106547e-09,5.112843910366227e-07,2.782551801745594e-07,9.14066097080728e-07,7.691575329314289e-07,6.86309566135925e-08,2.262805870515541e-07,-2.3272652162438547e-07,8.101005804703842e-07,-4.946080609946056e-07,6.60310562290653e-07,-3.7143815700042593e-07,-2.163513037645183e-06,-1.4110743816428904e-06,-3.0508417466981433e-06
8.294821503739969e-07,-1.9558071702875587e-06,4.1146380928272097e-07,-3.831175131717411e-08,4.83900023450509e-07,1.8945037151833865e-07,8.651467316650009e-07,7.640095560173917e-07,-2.946121188418741e-08,1.7123546420661627e-07,-2.6482855159166475e-07,7.49516164896122e-07,-4.889819995260726e-07,6.823594183563231e-07,-4.815132625281217e-07,-2.303316756796543e-06,-1.436141539596197e-06,-3.1971292254647525e-06
3.7324575006706756e-07,-2.1085330681448934e-06,4.0160081097521637e-07,-5.801245227352388e-08,4.6028779148556146e-07,1.1534603049765423e-07,8.255707939658919e-07,7.739640179994624e-07,-1.1057969726986786e-07,1.2179321237613807e-07,-2.9729757291185085e-07,6.993565815163306e-07,-4.811587068691486e-07,7.050858605823215e-07,-5.872227897796617e-07,-2.4251920634599124e-06,-1.4644239286548576e-06,-3.297326313235691e-06
-6.821844222538251e-08,-1.9104177339671014e-06,4.0327324637894577e-07,-6.844952642605165e-08,4.4023501955293836e-07,6.024948595006118e-08,7.872631910478842e-07,7.849989860019145e-07,-1.8313373268710536e-07,8.831686597038474e-08,-3.2192625229514416e-07,6.678656748230259e-07,-4.629639539162545e-07,7.325730496474799e-07,-6.82870773688883e-07,-2.509897603273207e-06,-1.4886009008980446e-06,-3.3622684217406165e-06
-4.1869085845562955e-07,-1.4273243513248492e-06,4.057466725143743e-07,-7.22377621326493e-08,4.2056977201365553e-07,2.0760070519704977e-08,7.303356704714299e-07,7.809947036667208e-07,-2.5131746393319384e-07,7.529266640056523e-08,-3.339532173381188e-07,6.570640352195968e-07,-4.301592645342889e-07,7.649826749296456e-07,-7.491478433512234e-07,-2.551226641496644e-06,-1.5040382047509426e-06,-3.3993828321773183e-06
-6.414161677997799e-07,-8.12677562401019e-07,3.983868770400465e-07,-7.340553077764012e-08,3.9511261303984067e-07,-8.127591909842562e-09,6.51393543977937e-07,7.47229367624126e-07,-3.2572257452235627e-07,8.107039681965449e-08,-3.331504905885669e-07,6.627983538565249e-07,-3.8432073975261606e-07,8.000696404360177e-07,-7.914770083577912e-07,-2.5557254377398873e-06,-1.5099384940614533e-06,-3.405772815892957e-06
-7.40955785881823e-07,-2.64242317950155e-07,3.7429752767012767e-07,-7.611227925074589e-08,3.573970984200513e-07,-3.378245110654822e-08,5.45050438227086e-07,6.759382534194589e-07,-4.1714567036380967e-07,9.94427190020452e-08,-3.224864275502202e-07,6.777028085286294e-07,-3.317122009922197e-07,8.334959476906663e-07,-8.235185351182289e-07,-2.5368760951277898e-06,-1.5082720433542357e-06,-3.388360697615515e-06
-7.46635788102454e-07,2.6356168750880734e-08,3.324074106463541e-07,-8.361615132702268e-08,3.032750300825179e-07,-6.413646186392823e-08,4.0628154720664534e-07,5.666464658381282e-07,-5.292653694442138e-07,1.227987981559794e-07,-3.058185889229868e-07,6.945531745367592e-07,-2.7853434037655836e-07,8.60529241287216e-07,-8.538422757486918e-07,-2.509190261153583e-06,-1.5021022579649942e-06,-3.3681103001107907e-06
-6.875262138297559e-07,-6.461370055827457e-08,2.7617522977894794e-07,-9.760633282149302e-08,2.327047374518231e-07,-1.0386138378727908e-07,2.4488617654793525e-07,4.23540610483547e-07,-6.621728105735972e-07,1.455384312773647e-07,-2.8593776105296736e-07,7.086843536406358e-07,-2.2867091662036136e-07,8.786737410655233e-07,-8.719414382552715e-07,-2.4841470726977702e-06,-1.4938193200628786e-06,-3.3436784304072303e-06
-5.810893699115536e-07,-5.387238785656945e-07,2.1109671496615598e-07,-1.1772408015429044e-07,1.5243646694303598e-07,-1.5602253913618653e-07,6.965953668604921e-08,2.5554715510006936e-07,-8.131517832916043e-07,1.6540743507355842e-07,-2.636130899226639e-07,7.189721910156714e-07,-1.83552526427229e-07,8.880773634284827e-07,-8.853835203382149e-07,-2.4679930715849265e-06,-1.4839783143128986e-06,-3.3188996086156413e-06
-4.4189781510880903e-07,-1.2688847563708967e-06,1.4439400973256568e-07,-1.4178512273030804e-07,6.723264650339757e-08,-2.190925779423489e-07,-1.0546022654603396e-07,7.409206817214969e-08,-9.718139018114473e-07,1.8249768231481595e-07,-2.3807976075390435e-07,7.263970442106603e-07,-1.4121984088883709e-07,8.905740879292068e-07,-8.999233275475834e-07,-2.4625263120428686e-06,-1.4721709715237585e-06,-3.295716074565349e-06
-2.96271072730872e-07,-2.0476867561180443e-06,8.183284973680705e-08,-1.6709383689678278e-07,-1.513883331701851e-08,-2.907172606675195e-07,-2.710898781461326e-07,-1.0855661922391838e-07,-1.1269281028910315e-06,1.9742174564804263e-07,-2.0876004321283378e-07,7.310573480617122e-07,-1.0008293394060905e-07,8.884854826698705e-07,-9.163718235965038e-07,-2.4678472410405437e-06,-1.4591452549345062e-06,-3.2712166834994637e-06
-1.774614132403539e-07,-2.6611140631598378e-06,2.630270629808978e-08,-1.920418969916649e-07,-8.873018082939734e-08,-3.6476703794403966e-07,-4.258985109266566e-07,-2.819637900760851e-07,-1.2730567409190218e-06,2.091427135165562e-07,-1.7648909264297662e-07,7.307779442574473e-07,-6.148645430435276e-08,8.828687091881475e-07,-9.377416219909205e-07,-2.483323847836355e-06,-1.4473931838278392e-06,-3.247980264947053e-06
-1.0604794325384496e-07,-2.9576982943981593e-06,-2.257371096397355e-08,-2.1664535217259802e-07,-1.530336166032851e-07,-4.3523510755055877e-07,-5.643342230320275e-07,-4.423133757703772e-07,-1.4061297497357644e-06,2.1501091704527982e-07,-1.4320973028970427e-07,7.223489943588769e-07,-2.73371176299815e-08,8.730977505706075e-07,-9.671674469467746e-07,-2.5060961424251574e-06,-1.4397062833417083e-06,-3.2309952516196977e-06
-7.698838459591974e-08,-2.895508743945138e-06,-6.831721400971265e-08,-2.4226957421067795e-07,-2.0543475918584423e-07,-4.988451117510676e-07,-6.887263724182435e-07,-5.841815307934933e-07,-1.5219672526867095e-06,2.1191153004242038e-07,-1.1122854464409914e-07,7.03191129922939e-07,2.3296638322664003e-09,8.585024681398317e-07,-1.0074315300743501e-06,-2.5302691626310627e-06,-1.437703591907365e-06,-3.2204636315139913e-06
-6.437740375278628e-08,-2.5397836337055548e-06,-1.1427525346546876e-07,-2.7112348564089996e-07,-2.4695392849398954e-07,-5.516356482133135e-07,-8.006991749277095e-07,-7.056825746609635e-07,-1.6196010538381993e-06,1.9721475478559732e-07,-8.297939033834051e-08,6.722912709881466e-07,2.6684322406686438e-08,8.386576534909884e-07,-1.059813476607695e-06,-2.5478915807433165e-06,-1.4410338085505952e-06,-3.2131335573944263e-06
-3.790403978093718e-08,-2.0059118280901796e-06,-1.625821637716676e-07,-3.0524724112499814e-07,-2.804398505851509e-07,-5.957867529542418e-07,-9.004249612695166e-07,-8.068403108558003e-07,-1.6978120036177857e-06,1.7055019246008427e-07,-6.079632442463368e-08,6.312827628984794e-07,4.945816071711987e-08,8.140070535951462e-07,-1.1283838536652614e-06,-2.5502918178829804e-06,-1.44674636828519e-06,-3.20855396429034e-06
2.0312276820893258e-08,-1.3963262192329857e-06,-2.1343119075503294e-07,-3.448814746116296e-07,-3.052900576445855e-07,-6.338406317318139e-07,-9.885008228169313e-07,-8.855760319735378e-07,-1.7564231029803009e-06,1.3447372210032546e-07,-4.631451306390621e-08,5.850362585531141e-07,7.567060309753654e-08,7.867874823962935e-07,-1.2056677505576662e-06,-2.530401873881893e-06,-1.4499203028431491e-06,-3.20371789638199e-06
1.0558181349892229e-07,-7.787360565292439e-07,-2.640906666114654e-07,-3.8750135321285115e-07,-3.2311750652335196e-07,-6.668607211801346e-07,-1.0636417770409476e-06,-9.403631244591278e-07,-1.7934339579389982e-06,9.572017968361679e-08,-4.0361859783091164e-08,5.398842901760317e-07,1.0752485177611381e-07,7.599960206919948e-07,-1.2824720508915124e-06,-2.4871847722305716e-06,-1.4465434108418376e-06,-3.195809671729584e-06
1.9076157403755404e-07,-1.948863708073858e-07,-3.095080034860507e-07,-4.2862118678586975e-07,-3.362639648324429e-07,-6.954942052010953e-07,-1.1250781861869631e-06,-9.726072118446566e-07,-1.809013466306965e-06,6.119364526710633e-08,-4.341601490683373e-08,5.004629983664745e-07,1.4537362184530028e-07,7.3456419052931e-07,-1.3531762385574218e-06,-2.428884964384807e-06,-1.4363555049820115e-06,-3.1855735675871607e-06
2.399276556842646e-07,3.2978461316318385e-07,-3.461360802284298e-07,-4.6350781244282856e-07,-3.473642524491971e-07,-7.197118868356456e-07,-1.1729656138637715e-06,-9.877417484152282e-07,-1.8110943560828726e-06,3.548226998639544e-08,-5.5367155888954145e-08,4.6824632778763285e-07,1.834749004214329e-07,7.09686476800238e-07,-1.4137579602187707e-06,-2.370680375556479e-06,-1.4227118337926615e-06,-3.1751672031256017e-06
2.2619023039488864e-07,7.765491068827739e-07,-3.7210579603013337e-07,-4.884804547011421e-07,-3.6105541216336763e-07,-7.405096159974759e-07,-1.213684091664664e-06,-9.932006063930525e-07,-1.8091459458870678e-06,2.0606604604984832e-08,-7.45769929259938e-08,4.423460954808032e-07,2.134583590198122e-07,6.840433629911031e-07,-1.4647617179405505e-06,-2.3280983446381492e-06,-1.4101951750156481e-06,-3.1675893815708065e-06
1.3773106222880572e-07,1.1170735731232717e-06,-3.861553732123927e-07,-5.017206046097958e-07,-3.8211785406043737e-07,-7.59252566287184e-07,-1.2508808542428945e-06,-9.981686936081244e-07,-1.8110881041702303e-06,1.579300571234993e-08,-9.753987012767583e-08,4.2079213496880305e-07,2.3043444798329542e-07,6.567721244636277e-07,-1.508323392510338e-06,-2.3112249266851624e-06,-1.4025148530336777e-06,-3.1654454055560717e-06
-2.509201993082653e-08,1.3062740150810936e-06,-3.8990265456668586e-07,-5.035898937444702e-07,-4.1188500616369167e-07,-7.78411900423387e-07,-1.2950342164291394e-06,-1.0084470909811162e-06,-1.823336507676449e-06,1.8496038512678677e-08,-1.1959949033436365e-07,4.0175762343275133e-07,2.302865372310615e-07,6.281865017286832e-07,-1.5460930641597637e-06,-2.32161742245311e-06,-1.401084010505363e-06,-3.169313273659076e-06
-2.5165015738164006e-07,1.2986091559940592e-06,-3.854386506675326e-07,-4.959866797054775e-07,-4.4954867071712524e-07,-7.981099015222598e-07,-1.3401095337705218e-06,-1.0281085910972105e-06,-1.8457155247268321e-06,2.674655005247214e-08,-1.3572535321805494e-07,3.849397001370872e-07,2.1354403086200637e-07,6.000463328332634e-07,-1.5778198851078745e-06,-2.351585621411153e-06,-1.4039788136003684e-06,-3.1764729883162735e-06
-5.186025674049334e-07,1.0836229404123294e-06,-3.7387106757285707e-07,-4.810539789578419e-07,-4.921164047652319e-07,-8.205116017373517e-07,-1.374828434746474e-06,-1.0545451091288954e-06,-1.8724785122762075e-06,4.000900033886702e-08,-1.4138507998925583e-07,3.716272430308355e-07,1.8611603448807017e-07,5.74878018484639e-07,-1.6011593531867012e-06,-2.3871754844143687e-06,-1.406717286994059e-06,-3.1814544755452267e-06
-7.896385515842484e-07,7.08254012339331e-07,-3.559100941075546e-07,-4.606730155365553e-07,-5.391054355034579e-07,-8.450107712196906e-07,-1.3804085390804642e-06,-1.0811156813529755e-06,-1.8972515818459217e-06,5.7889810349093674e-08,-1.3414926879361911e-07,3.625875671784285e-07,1.543870108376627e-07,5.567614982833121e-07,-1.6139841368737486e-06,-2.4147736948023547e-06,-1.4052259570457495e-06,-3.178978429796056e-06
-1.0221098066501424e-06,2.6768809615064985e-07,-3.3330002290144065e-07,-4.3704065855115344e-07,-5.841787512328369e-07,-8.645014951924324e-07,-1.3526067525032328e-06,-1.1022963954334464e-06,-1.9151445257043644e-06,7.913958414034696e-08,-1.1517828859726293e-07,3.561670565529535e-07,1.2250254416896106e-07,5.44332805556071e-07,-1.6164668242213192e-06,-2.42660604250233e-06,-1.3981769115846673e-06,-3.166332028968878e-06
-1.1765216964058611e-06,-1.2476460218794134e-07,-3.087050760957662e-07,-4.127610653798432e-07,-6.233197389670676e-07,-8.797577563896737e-07,-1.3085742814574336e-06,-1.113994509574134e-06,-1.9233593752385734e-06,1.0120272884199758e-07,-8.885156165838214e-08,3.489413768165544e-07,9.232462733783202e-08,5.334374891934146e-07,-1.610853068069578e-06,-2.421242766125018e-06,-1.3867286081938342e-06,-3.1427037078527835e-06
-1.2258658067138375e-06,-3.7068976097949505e-07,-2.849056474325301e-07,-3.900471530037107e-07,-6.547097898443861e-07,-8.892849721465146e-07,-1.2433219723674733e-06,-1.1139397490480654e-06,-1.920720261897393e-06,1.2131662101892004e-07,-6.071300355642601e-08,3.3754490457857167e-07,6.43579320371147e-08,5.206379657562074e-07,-1.5996733745367193e-06,-2.4011886229259633e-06,-1.3734270140761472e-06,-3.107519485511138e-06
-1.1629840031195884e-06,-4.072656315915379e-07,-2.6467813842953076e-07,-3.69921072123927e-07,-6.756831598844017e-07,-8.895633704890293e-07,-1.1711741948630454e-06,-1.1058460083223762e-06,-1.9060866630474765e-06,1.3737307458124544e-07,-3.556628657515985e-08,3.1954566669338395e-07,3.740381043465179e-08,5.027770476538894e-07,-1.5846046878098889e-06,-2.3708692273547636e-06,-1.361880943651111e-06,-3.059910850054855e-06
-9.997302240058785e-07,-2.1294247843778468e-07,-2.481472738780364e-07,-3.522534649361125e-07,-6.869309697025985e-07,-8.836674176951329e-07,-1.103437201431068e-06,-1.0910717680301598e-06,-1.8797049636976361e-06,1.483225455531066e-07,-1.6237184455167813e-08,2.9399263128929417e-07,1.1269604594964479e-08,4.787411072030567e-07,-1.5656843021869996e-06,-2.3344951281596805e-06,-1.3558706308480473e-06,-2.9984313211349836e-06
-7.572066362168106e-07,1.9744128632234358e-07,-2.3405113357382098e-07,-3.3590575294585617e-07,-6.883602067427165e-07,-8.665446762789072e-07,-1.0431822829284761e-06,-1.0710818316277804e-06,-1.8423440686322274e-06,1.547763289408638e-07,-2.6914826510440904e-09,2.624350322145333e-07,-1.587293462383013e-08,4.49519819274659e-07,-1.540580546095212e-06,-2.2934295746251597e-06,-1.3572977371047456e-06,-2.920646689646761e-06
-4.610549764724875e-07,7.805812341418219e-07,-2.2094435343587752e-07,-3.18868709567849e-07,-6.739809322398053e-07,-8.330830147616328e-07,-9.944892463660528e-07,-1.0481707448448653e-06,-1.8007901475396004e-06,1.5970125417057656e-07,7.805395343062465e-09,2.2878108418229767e-07,-4.2140606587505024e-08,4.1763078804159346e-07,-1.5056658484916211e-06,-2.246103330863117e-06,-1.3653528266005164e-06,-2.8247494362753124e-06
-1.4664364021159658e-07,1.4715751284650448e-06,-2.0714139107782793e-07,-2.99411721957521e-07,-6.441605899093194e-07,-7.826421541310063e-07,-9.527606035843143e-07,-1.0233499334641425e-06,-1.75448093876789e-06,1.6656156819571424e-07,1.882039217869838e-08,1.9712556335487818e-07,-6.386731143025382e-08,3.849031249391818e-07,-1.459147846148228e-06,-2.191442280772593e-06,-1.3780188208625445e-06,-2.713194958897506e-06
1.3893055736475377e-07,2.1888310916868767e-06,-1.9350360799152193e-07,-2.777964249882875e-07,-6.032756293263286e-07,-7.17324996819708e-07,-9.063276513490655e-07,-9.99308084852399e-07,-1.6999072523547582e-06,1.7782105339488506e-07,3.242801334939365e-08,1.6976292644053356e-07,-8.543547834511808e-08,3.524119001838547e-07,-1.4033724742765197e-06,-2.1315041708392177e-06,-1.3935063677901805e-06,-2.594460378998465e-06
3.499588083491107e-07,2.8390942737392645e-06,-1.8378953590665775e-07,-2.5686578126900474e-07,-5.587129930222957e-07,-6.414219574130599e-07,-8.431943607142434e-07,-9.813759560011912e-07,-1.6448047839263356e-06,1.9468991016194126e-07,4.826836070862043e-08,1.47056111443943e-07,-1.0949860271690675e-07,3.1989522650438964e-07,-1.344353280217857e-06,-2.0704803745163865e-06,-1.4100499317215535e-06,-2.481008836565263e-06
4.577081486176714e-07,3.3217222308173015e-06,-1.832728116915016e-07,-2.41010157289667e-07,-5.182406320004898e-07,-5.619427590132507e-07,-7.606644031818472e-07,-9.757096609803612e-07,-1.5947737034972447e-06,2.172952348568794e-07,6.394213219894287e-08,1.2776016591531486e-07,-1.3894555169609963e-07,2.856523970579205e-07,-1.2903087689235658e-06,-2.01300686531719e-06,-1.4257434203036305e-06,-2.3860747223450273e-06
4.5881357179344234e-07,3.5322351783736514e-06,-1.9788327629415278e-07,-2.3481773301601042e-07,-4.879934077453486e-07,-4.867088599362621e-07,-6.595178817133316e-07,-9.854050390779352e-07,-1.5551813642305174e-06,2.445030849291564e-07,7.564813710538004e-08,1.0875047041134709e-07,-1.7885586398525446e-07,2.4764874791939156e-07,-1.2505947284943706e-06,-1.964219641297015e-06,-1.4393628020583664e-06,-2.321281460446673e-06
3.76146815496732e-07,3.3799158851393974e-06,-2.3306507034352572e-07,-2.418146049341361e-07,-4.7294976242993507e-07,-4.2235926164412594e-07,-5.480469311827911e-07,-1.0144146636427537e-06,-1.5335470186958476e-06,2.735564675338429e-07,7.919809641820631e-08,8.565959061470022e-08,-2.314728678010144e-07,2.039145081189515e-07,-1.23377558367365e-06,-1.9291984366537167e-06,-1.4504553104213222e-06,-2.2936496498370608e-06
