0,1,2,3,4,5,6,7,8,9,10,11,12,13,14,15,16,17
-9.951461150558811e-08,-2.2910021692571794e-07,-9.926962163038359e-10,1.755428003867763e-07,2.050510218676053e-10,-4.971476687916953e-09,2.409936735106926e-08,-9.692412872578912e-08,9.515757749676064e-08,1.990182200474583e-07,-3.1585699436985744e-07,-1.3083489043521486e-07,-7.144456834983769e-08,-1.774090607376841e-07,-6.913523096870892e-09,1.844352893201858e-07,-1.6929112544993957e-09,7.59093364070439e-08
-2.4494315967617046e-08,-2.026141250584055e-07,-5.742861351137089e-08,1.2531043839922955e-07,9.983351532049578e-09,-1.7251801390724527e-08,4.010801693584616e-08,-6.823303121036e-08,1.0527031996092008e-07,1.9331643461769525e-07,-2.8186304007299537e-07,-7.365910546818393e-08,-3.5004202457332655e-08,-1.3522203307556924e-07,2.3734976134676557e-09,1.537841199982668e-07,2.020050899691209e-08,9.296601992489047e-08
2.588180456323805e-08,-1.7484872019161081e-07,-8.375814539905861e-08,7.413456143693005e-08,1.482340587831926e-08,-2.3121215694219824e-08,5.0628673838160517e-08,-4.003297143109064e-08,1.1465598699361038e-07,1.622129982687015e-07,-2.1251746681268652e-07,-2.9912048766888436e-08,-1.307759978461793e-08,-9.314755875288295e-08,1.294876160354189e-08,1.209995804842255e-07,3.8117464115482764e-08,1.0790687100209569e-07
5.1178204510976817e-08,-1.4444315153457209e-07,-7.90664712938974e-08,3.0781568626787214e-08,2.2113934987896175e-08,-2.1261965412735373e-08,5.9263550162353905e-08,-9.192684350752625e-09,1.2398172781623567e-07,1.3001555691217488e-07,-1.4170602632454406e-07,2.429813736907877e-09,-2.9153959329807982e-09,-5.2590753481273005e-08,2.4490661835970318e-08,8.951941688102914e-08,5.220908065545261e-08,1.1994640564790315e-07
6.128382513401833e-08,-1.0836323087474309e-07,-5.825477541105571e-08,1.4647802763081721e-09,3.7548786183919605e-08,-1.270390459265666e-08,6.762686304608657e-08,2.2561699191761675e-08,1.3152922956133604e-07,9.352914362937458e-08,-8.195412233438e-08,2.4852553996236647e-08,-4.451657016500194e-09,-1.4927025015877894e-08,3.459451697975335e-08,5.952172233995923e-08,6.235486145151647e-08,1.255122398543893e-07
5.876478754386697e-08,-6.383726925048584e-08,-2.0946608099286148e-08,-1.2593379895428397e-08,6.25684464819216e-08,-2.8652423593592044e-10,7.510316165373088e-08,5.2559550969887715e-08,1.3388408540185506e-07,5.320803027799477e-08,-1.4852256022709068e-08,3.8367389264559515e-08,-1.5146381528395327e-08,1.609193347147633e-08,4.0335953232642535e-08,2.901510585732604e-08,6.80173213264313e-08,1.2102253664072147e-07
5.6663508115983373e-08,-1.0607495252458493e-08,3.0368008133057494e-08,-1.463467181361429e-08,9.29788427004692e-08,1.2067078860349222e-08,7.930776121432921e-08,7.75444284923719e-08,1.266724756913273e-07,2.4107640126307632e-08,2.7461823577044747e-08,4.394419329564438e-08,-3.117320342187313e-08,3.606712377444569e-08,3.9645120919006204e-08,-4.030373848830285e-09,6.838130074233037e-08,1.0551792192047146e-07
4.728855121572154e-08,4.557182052504416e-08,9.076227652331373e-08,-1.0832321836104158e-08,1.2022610136537614e-07,2.0980371855199433e-08,7.75031661059789e-08,8.535200355768164e-08,1.0661403470014856e-07,4.444203468040501e-10,4.874626295500568e-08,4.3428790608673446e-08,-4.7730232062674045e-08,4.309386883133531e-08,3.242686945888323e-08,-3.5052886040143253e-08,6.321037822977687e-08,8.096853547510737e-08
5.616216359813428e-08,9.860644162236715e-08,1.5172782603772592e-07,-7.49693959971298e-09,1.3541185184690532e-07,2.5305704954856284e-08,6.826408650423586e-08,7.553029251430998e-08,7.334157750037529e-08,-2.4873758038072765e-08,7.605300482761804e-08,3.969344498519033e-08,-5.7511765668353134e-08,3.996195437519985e-08,2.0584105769356245e-08,-6.385675628855498e-08,5.3178185643595814e-08,5.127104688582907e-08
5.96980822090603e-08,1.4099323571464125e-07,1.8059129945942827e-07,-8.050694162159057e-09,1.3011923493737068e-07,2.6055946408258043e-08,5.1554025407938e-08,5.5280418188003976e-08,2.9004482146629252e-08,-2.3166464338955612e-08,8.775731268503112e-08,3.526852397470862e-08,-5.3205603244550134e-08,3.225287157458207e-08,6.686894106898918e-09,-8.452473876156716e-08,3.892727818967142e-08,1.981497063800281e-08
5.26495751827016e-08,1.6453116422931198e-07,1.6977678885296617e-07,-1.3622141687686432e-08,1.0216608410019532e-07,2.5029831397100867e-08,2.7325705958074312e-08,2.2597136907013882e-08,-2.3195858188140052e-08,-2.0353879943325382e-09,9.611898884237143e-08,3.0943266758845515e-08,-3.136131197042318e-08,2.6746587936024404e-08,-7.2551047360294924e-09,-9.201311012582502e-08,2.0070237910273307e-08,-1.2642530292903006e-08
4.331891359360786e-08,1.6557665662120268e-07,1.0634700785367294e-07,-2.3375883522949125e-08,5.0680745913879177e-08,2.3388690416294392e-08,-5.5760569213102866e-09,-2.61244769742644e-08,-8.020745202064084e-08,4.6151796331485315e-09,1.0916168102716232e-07,2.563820986405357e-08,8.586195246843414e-09,1.857646737641127e-08,-2.0091574680219902e-08,-8.731484052655032e-08,-5.000810084990868e-09,-4.888306641827955e-08
1.4277560806130503e-08,1.424579399538148e-07,-2.7697697805298708e-08,-3.7421440174051516e-08,-2.1268122756408728e-08,1.9875622868250425e-08,-4.969446739711305e-08,-5.87558480638449e-08,-1.4001376205839936e-07,2.3156396688046087e-09,1.2121673782844663e-07,1.6983527069835292e-08,5.537601113598335e-08,1.7533554574788617e-08,-3.153387140572365e-08,-7.314546478891812e-08,-3.8896389701170765e-08,-9.48660315044416e-08
-3.752755048560976e-08,1.0126987953096558e-07,-6.878867904042327e-08,-5.777810308235022e-08,-1.1684101613333052e-07,9.253736612963578e-09,-1.084395313116748e-07,-7.924223438071316e-08,-2.0206598971511378e-07,-1.1918032155425536e-07,1.3827317333688422e-07,2.2315745688791126e-09,9.820562316473407e-08,2.5431868342111985e-08,-4.178124695654863e-08,-5.546129559173792e-08,-8.440109138359393e-08,-1.5758973069448117e-07
-1.2138271879393706e-07,5.1856090132455274e-08,-1.2780903238259077e-07,-8.842194275836024e-08,-2.431476183278067e-07,-1.669995961257246e-08,-1.838555014737972e-07,-6.71116300358186e-08,-2.658140230653186e-07,-2.916440836904215e-07,1.599901741220131e-07,-2.014632233051737e-08,1.225815674339272e-07,5.790043039903646e-08,-5.042048777433853e-08,-4.831141329769739e-08,-1.4269204034187785e-07,-2.4142376722833134e-07
-2.4424777972068715e-07,2.295098075819032e-08,-2.0483048770087956e-07,-1.330066305936152e-07,-3.975690797326241e-07,-6.566013574651056e-08,-2.7321882107390814e-07,5.419147535160363e-08,-3.288144122215861e-07,-4.0188324791242635e-07,1.8397074673559515e-07,-4.9228921122728114e-08,7.827252445604891e-08,1.5963977040787546e-07,-5.609057286978894e-08,-9.356435561116796e-08,-2.119833744953103e-07,-3.454307582580181e-07
-4.144169007054877e-07,3.461105630576318e-08,-3.078136644768355e-07,-1.928144611575353e-07,-5.699868106473373e-07,-1.4147270961193164e-07,-3.675622241898158e-07,1.4329874863692492e-07,-3.8689555112211405e-07,-4.0686315931441413e-07,2.041155995523275e-07,-8.244701458453746e-08,2.434038960158588e-08,3.297908230873652e-07,-5.820079079226783e-08,-1.6547564431457083e-07,-2.8793001192225635e-07,-4.637248687917397e-07
-6.027957967478018e-07,8.471394037428045e-08,-3.7289972976995007e-07,-2.665505571964898e-07,-7.164157878084553e-07,-2.422858298093253e-07,-4.539079711948609e-07,1.8882522251085373e-07,-4.3644740608893976e-07,-4.6320835357835207e-07,2.2118148684688553e-07,-1.176806646943397e-07,-6.083243841343556e-09,4.782769362712261e-07,-5.884820468982821e-08,-3.117331832334779e-07,-3.647636766992339e-07,-5.876281864806521e-07
-8.123945746664613e-07,1.1946573152824812e-07,-3.7627382234213425e-07,-3.497202514183111e-07,-7.965707300154726e-07,-3.596567585328439e-07,-5.197748874455106e-07,2.6819913033551033e-07,-4.7623809686096236e-07,-6.059600870327579e-07,2.2955439009781698e-07,-1.5434860002030566e-07,-9.27910382019374e-08,5.942322874774336e-07,-6.247462920844267e-08,-4.5808636364883384e-07,-4.3592263812198057e-07,-7.075617351808638e-07
-9.62247267246602e-07,1.1865306975262462e-07,-3.714597994705113e-07,-4.2114638059403694e-07,-7.69925726475824e-07,-4.79792795244493e-07,-5.578904644253327e-07,3.599450961495128e-07,-5.072021686563428e-07,-7.056964124520001e-07,2.230902797420571e-07,-1.929867540154194e-07,-2.139020373158252e-07,6.444830291422276e-07,-7.383997660683793e-08,-5.905990615566475e-07,-4.949135621582297e-07,-8.147098386824622e-07
-1.038912076409635e-06,1.6190828975545538e-07,-3.4932684793619896e-07,-4.789724791040957e-07,-7.353157853915043e-07,-5.877631516134987e-07,-5.693961576425539e-07,4.160801158989346e-07,-5.316579619331218e-07,-6.76612477114384e-07,2.0120237935594096e-07,-2.3434226822595794e-07,-3.134415886873611e-07,6.398643740691752e-07,-9.606111048525708e-08,-7.546812223496998e-07,-5.368068093625353e-07,-9.027501160037438e-07
-1.113096526568184e-06,2.2623346099191223e-07,-3.4679595318212086e-07,-5.168534001676846e-07,-7.567033259846313e-07,-6.722507590074194e-07,-5.632146322722482e-07,3.974224937517009e-07,-5.524317262095976e-07,-6.181814733064704e-07,1.642666049110031e-07,-2.7826595351235625e-07,-3.827575076582714e-07,6.125877083426089e-07,-1.2884104252540874e-07,-9.729121471002099e-07,-5.589648031274228e-07,-9.684218927609102e-07
-1.1699077868679154e-06,2.873759103426683e-07,-3.189079081150152e-07,-5.338490766141624e-07,-7.684544115006353e-07,-7.280244059585542e-07,-5.50884132630229e-07,3.803728868670296e-07,-5.712207908426067e-07,-6.28745769984765e-07,1.1742866335001165e-07,-3.2286547358313673e-07,-4.259355287531308e-07,6.072508481676009e-07,-1.6733337260768969e-07,-1.1481813292946629e-06,-5.606938513523306e-07,-1.0107146750154614e-06
-1.084411524962558e-06,3.452693855826724e-07,-2.9599713121529494e-07,-5.295046992408987e-07,-7.517865853843434e-07,-7.561473562419842e-07,-5.405569566375668e-07,3.782783328008992e-07,-5.874501652759841e-07,-6.484470909241366e-07,6.803056557126731e-08,-3.6550366998976986e-07,-4.408665056195211e-07,6.139536651665539e-07,-2.0361602998334134e-07,-1.2635519571318809e-06,-5.435148193295633e-07,-1.030486210748745e-06
-9.677421620923335e-07,3.834776312783354e-07,-2.436290107551879e-07,-5.014653630245496e-07,-6.591640853539099e-07,-7.628121146914099e-07,-5.348187305274388e-07,3.5142011129966515e-07,-5.975425571655103e-07,-7.167673158392074e-07,2.2376230744491114e-08,-4.053567977035326e-07,-4.34540244004461e-07,5.910058517257488e-07,-2.3057379272959103e-07,-1.3134155861297796e-06,-5.122214821494644e-07,-1.0309457767964426e-06
-8.97972951715779e-07,3.885811380827273e-07,-1.6911556990561098e-07,-4.5437472704640227e-07,-5.474199168629802e-07,-7.56630321797022e-07,-5.324447394060329e-07,2.701619898281952e-07,-5.994291918251624e-07,-7.489666879483232e-07,-1.5524097815271973e-08,-4.443442201474496e-07,-4.1614894042155633e-07,5.429602084633173e-07,-2.4468254274224867e-07,-1.3612147456780897e-06,-4.7457645537682443e-07,-1.0172110910499424e-06
-8.514380796841836e-07,3.762235829521817e-07,-6.591122529230512e-08,-3.9257344898253264e-07,-4.460800405642645e-07,-7.451874942079215e-07,-5.307816061223915e-07,1.7210764470591684e-07,-5.932680098282227e-07,-7.281265929678791e-07,-4.414676851978474e-08,-4.848895725957842e-07,-3.9704593936941104e-07,4.4918339430522724e-07,-2.458151493272758e-07,-1.3829343642723101e-06,-4.3900635495982197e-07,-9.944911193690917e-07
-8.046783510293867e-07,3.5114192456341916e-07,4.3072539137271086e-08,-3.483214604546675e-07,-3.361670726173808e-07,-7.33319135439195e-07,-5.271203833453426e-07,4.045172672277447e-08,-5.740924078655222e-07,-6.470639199832004e-07,-6.359725394475014e-08,-5.270600942690462e-07,-3.8499558306364424e-07,3.4296179231558e-07,-2.3593593819156035e-07,-1.3308213181713063e-06,-4.1222381407286827e-07,-9.666074498669524e-07
-7.471228289893722e-07,3.2847555055801444e-07,1.2869064181295868e-07,-3.091538239695178e-07,-2.743398001869368e-07,-7.235658047745991e-07,-5.196152723621232e-07,-6.287289381969506e-08,-5.393962176260753e-07,-5.640635546076379e-07,-7.480425084222362e-08,-5.678860966724632e-07,-3.8397069476543714e-07,2.399975165686661e-07,-2.1828765933487176e-07,-1.2632490253601022e-06,-3.9800669960503684e-07,-9.356636389908844e-07
-6.71667272593911e-07,3.235174241591621e-07,1.614630317009601e-07,-2.725923571996643e-07,-2.516084628467641e-07,-7.163464380724035e-07,-5.077536828963879e-07,-1.5132699750743682e-07,-4.898812098527408e-07,-4.768873545567007e-07,-7.886618559422818e-08,-6.027759256519633e-07,-3.930188671912933e-07,1.4219862122671521e-07,-1.9666222099936785e-07,-1.2380380833411076e-06,-3.967558519875517e-07,-9.022997018094747e-07
-5.7214661628639e-07,3.392991583471451e-07,1.6636558820090582e-07,-2.2998740323905092e-07,-2.3936164515086936e-07,-7.092880745519445e-07,-4.921938465254816e-07,-1.6893959619505373e-07,-4.227068014152999e-07,-3.752310197870538e-07,-7.6621232562653e-08,-6.276651638212211e-07,-4.0976441517907966e-07,7.945057149748759e-08,-1.749459970177992e-07,-1.2398601009454189e-06,-4.0596421545512044e-07,-8.667629698662557e-07
-4.622281059761183e-07,3.768551205170722e-07,1.5819510499797022e-07,-1.7777976092343598e-07,-2.3105355945794893e-07,-6.983608599556601e-07,-4.7491177790277263e-07,-1.7763130697614052e-07,-3.436610995514149e-07,-3.1442773556856703e-07,-6.896923257203664e-08,-6.409805414717206e-07,-4.3212149068951953e-07,4.747472725035174e-08,-1.576530894312883e-07,-1.2552723635891416e-06,-4.219535127309696e-07,-8.309845468364722e-07
-3.6805201094977873e-07,4.3018645513609175e-07,1.4519400916914631e-07,-1.248929008958054e-07,-2.0664895870868377e-07,-6.811985070614814e-07,-4.5968318258782827e-07,-1.6493611853832284e-07,-2.768660716906828e-07,-2.8199133947740147e-07,-5.7729553069925555e-08,-6.444046948741005e-07,-4.569866902658629e-07,4.688729905458303e-08,-1.502382381121075e-07,-1.278316360982036e-06,-4.4167253516837707e-07,-7.998993303725366e-07
-3.060294783443572e-07,4.876376176958641e-07,1.4487114976575607e-07,-7.454394808863417e-08,-1.7180818389745044e-07,-6.59174113254692e-07,-4.5100774840151823e-07,-1.4206030256415536e-07,-2.224563154189703e-07,-3.1118520201740836e-07,-4.5917455056119066e-08,-6.417117296765591e-07,-4.837567690876363e-07,6.848837156747123e-08,-1.575863566260536e-07,-1.3016125061096361e-06,-4.6315550249269123e-07,-7.803399045538776e-07
-2.808784784681335e-07,5.271496224316511e-07,1.442229947295057e-07,-3.4252391781087326e-08,-1.3937702218324204e-07,-6.364708848216715e-07,-4.5102066115940947e-07,-1.3643576788415112e-07,-2.1285490921031486e-07,-3.627524421233487e-07,-3.695331908728232e-08,-6.365175111284562e-07,-5.129060262998605e-07,8.423526536730625e-08,-1.8163857203641258e-07,-1.3204732485583464e-06,-4.851507097340676e-07,-7.784214072211659e-07
-2.8951930151657455e-07,5.310192150260474e-07,1.4939643504303678e-07,1.177058619037681e-08,-1.1883952750579408e-07,-6.17845985299782e-07,-4.568707559985841e-07,-1.610440638319206e-07,-2.596076182179104e-07,-4.0835202484061594e-07,-3.3349906075482065e-08,-6.303559442599483e-07,-5.444338875894055e-07,9.160117142580797e-08,-2.2001367170898365e-07,-1.3335000044289284e-06,-5.068618616031333e-07,-7.971611173850054e-07
-3.186286299627007e-07,5.116272594308437e-07,1.6265999316028775e-07,4.65633114772972e-08,-1.1878827384398988e-07,-6.063861097833055e-07,-4.606673876274195e-07,-2.1144724744119476e-07,-2.617271742862278e-07,-4.5248249812459245e-07,-3.547133193568675e-08,-6.214821646066952e-07,-5.781481065834564e-07,8.762316072695267e-08,-2.658139423451976e-07,-1.3414492911088136e-06,-5.274625578982257e-07,-8.348541123990605e-07
-3.411346866452369e-07,4.885554288281107e-07,1.7481234840597808e-07,6.224467881541515e-08,-1.4269355163084095e-07,-6.016276500898407e-07,-4.537922862627554e-07,-2.759131493781975e-07,-2.6504241261293386e-07,-4.7126553758633687e-07,-4.090634045464655e-08,-6.048797808402064e-07,-6.110187989885401e-07,7.306715650416837e-08,-3.0863365656235185e-07,-1.3447346507826662e-06,-5.454359486928828e-07,-8.847963647025468e-07
-3.4218439955167937e-07,4.861905431777414e-07,1.7505163184861109e-07,5.074885633655084e-08,-1.8737555331114727e-07,-5.995029636273469e-07,-4.267042992827199e-07,-3.3709294269214687e-07,-3.3114401309000724e-07,-4.837159388366476e-07,-4.520597820211732e-08,-5.746379628186729e-07,-6.409347816215771e-07,5.8534768224639987e-08,-3.3758290950483735e-07,-1.3427138315998731e-06,-5.589613040542175e-07,-9.373123962067067e-07
-3.1630112189867166e-07,4.3166908661582775e-07,1.5546297997902667e-07,1.2433095553969252e-08,-2.445252343493279e-07,-5.945216659651023e-07,-3.736828389974008e-07,-3.808545945892867e-07,-4.130501330761651e-07,-4.859324733027327e-07,-4.3999129542201473e-08,-5.281161232646094e-07,-6.665387655625672e-07,5.2499298530761825e-08,-3.453572973638412e-07,-1.3355150783954011e-06,-5.672983147784392e-07,-9.831425224469336e-07
-2.54076868497576e-07,3.595496348107024e-07,1.1325435331025763e-07,-3.9977828972905776e-08,-3.032847219919942e-07,-5.818123127121914e-07,-2.988400227873682e-07,-4.0001128322083847e-07,-4.7248400570693823e-07,-4.787881124604757e-07,-3.52119211925449e-08,-4.6885857633140974e-07,-6.883751279338769e-07,5.966382717230826e-08,-3.3043960395395257e-07,-1.325132326825986e-06,-5.714710445204349e-07,-1.0157241487467902e-06
-1.7459619742562517e-07,3.079681125877889e-07,5.07721303817187e-08,-9.635611973789842e-08,-3.517335789696688e-07,-5.576941000386561e-07,-2.096107205200866e-07,-3.9076244719504063e-07,-5.160044398329145e-07,-4.813569434728492e-07,-2.008430026488638e-08,-4.0606100043408157e-07,-7.081019419888594e-07,8.59722851168006e-08,-2.963032309476324e-07,-1.3143482042704318e-06,-5.736190073000112e-07,-1.0315489218424864e-06
-9.38975393704446e-08,2.7291103622349205e-07,-2.1459193060471183e-08,-1.427895953239013e-07,-3.787365067463857e-07,-5.203640354055478e-07,-1.1379575787608135e-07,-3.5315649558156606e-07,-5.071744778798496e-07,-4.985700512698025e-07,-2.659915153854821e-09,-3.5112341775424096e-07,-7.258470031897528e-07,1.3535995709721963e-07,-2.491094815387468e-07,-1.3051819623446459e-06,-5.758100277625375e-07,-1.0295773283726187e-06
-2.140459892426718e-08,2.5643568419393354e-07,-9.822645767711005e-08,-1.7563783342914832e-07,-3.774783859118875e-07,-4.7114874085022125e-07,-1.8709897153896606e-08,-2.9499161269836945e-07,-4.7328745340731564e-07,-5.354372269267605e-07,1.2020220555208089e-08,-3.1300259715744083e-07,-7.402699365723198e-07,2.0226161684760088e-07,-1.9529904147137632e-07,-1.2974599182854543e-06,-5.787331821939402e-07,-1.0103353003504694e-06
3.3892524674956184e-08,2.6323619151202376e-07,-1.7480833275888075e-07,-1.8802865162224263e-07,-3.4781923110185763e-07,-4.144679074140385e-07,7.04441097834895e-08,-2.25183748136023e-07,-4.2038564320299017e-07,-5.901843950764889e-07,2.034244504212448e-08,-2.9441991584548417e-07,-7.482144780403286e-07,2.789274743927673e-07,-1.3990508369538982e-07,-1.2877380986801235e-06,-5.807494477911352e-07,-9.751758577885313e-07
7.20041414196954e-08,2.959091959434391e-07,-2.4590019131337684e-07,-1.8073230363536677e-07,-2.959311990952558e-07,-3.5636337211810143e-07,1.505279617543816e-07,-1.5285580483456084e-07,-3.502888286578131e-07,-6.500488516489503e-07,2.1754486894746856e-08,-2.9124481008449533e-07,-7.455711264439743e-07,3.565012541577996e-07,-8.662940638724871e-08,-1.2705191245740445e-06,-5.785452112333812e-07,-9.265664580385851e-07
9.922025476662827e-08,3.390922935913683e-07,-3.089435021682146e-07,-1.5869895135666092e-07,-2.3305394299577108e-07,-3.0333266524230646e-07,2.1890385281076054e-07,-8.758288621700442e-08,-2.826556455354424e-07,-7.00187938977402e-07,1.8599911784921784e-08,-2.9536129726712895e-07,-7.281740020152047e-07,4.249122149948581e-07,-3.9153331013917826e-08,-1.2419770178224257e-06,-5.692659875166398e-07,-8.688804170799749e-07
1.2290027783651107e-07,3.832514027954836e-07,-3.618978933109155e-07,-1.308733523508828e-07,-1.7348356128636896e-07,-2.613510954751571e-07,2.729481698143771e-07,-3.678366395985227e-08,-2.189629321669665e-07,-7.253112379634384e-07,1.4791724256518736e-08,-2.9825643762154295e-07,-6.979081066171341e-07,4.769271916599569e-07,-1.2435817513152826e-09,-1.2020318859296824e-06,-5.519247019173877e-07,-8.078107744711872e-07
1.4585744782168576e-07,4.2244383096308794e-07,-4.037394773214693e-07,-1.0821986042985193e-07,-1.3025960247510352e-07,-2.3408679902252084e-07,3.1133530662565956e-07,-4.981610061314544e-09,-1.645571447097828e-07,-7.156556776351445e-07,1.4521294103254967e-08,-2.9309876787432464e-07,-6.539419309294477e-07,5.101419650291389e-07,2.4858178312760914e-08,-1.152935480456052e-06,-5.270877286025919e-07,-7.484649757663863e-07
1.7024671966261295e-07,4.5519863414788107e-07,-4.333339113146688e-07,-9.703948839566637e-08,-1.1088124921515174e-07,-2.217111969261256e-07,3.3374633364579615e-07,7.13898431726166e-09,-1.2523938649198985e-07,-6.718274095266475e-07,2.1165966625676002e-08,-2.760455646297562e-07,-5.975156019743495e-07,5.277766063990776e-07,3.928306107262747e-08,-1.0976752817040668e-06,-4.963581549540257e-07,-6.942244126430849e-07
1.9139743542924707e-07,4.809574906085311e-07,-4.4880022654194213e-07,-1.0030812778657217e-07,-1.1550912229323285e-07,-2.217810283082284e-07,3.4102154638223856e-07,2.120702266839281e-09,-1.0261445639702145e-07,-6.039272840565212e-07,3.6225841111562725e-08,-2.4748653863620077e-07,-5.338994894718679e-07,5.361819216342643e-07,4.354992090205322e-08,-1.040024258059411e-06,-4.624952101916752e-07,-6.472711591751025e-07
2.0038864650747377e-07,5.008164436529432e-07,-4.4865676012215025e-07,-1.1690716849133904e-07,-1.392312308849594e-07,-2.3110646512463581e-07,3.3505255397104976e-07,-1.565244893109726e-08,-9.725789009370141e-08,-5.294120525188649e-07,5.8897694737197104e-08,-2.1187885197635378e-07,-4.688494692233129e-07,5.415920029386282e-07,3.9612939394748114e-08,-9.841258844829683e-07,-4.29102788549123e-07,-6.090057141735625e-07
1.8909504529539844e-07,5.16394027752977e-07,-4.3291319897679287e-07,-1.4268208982113726e-07,-1.7435525996376075e-07,-2.453909602324092e-07,3.1826233082778103e-07,-4.094867496216205e-08,-1.0809944912295957e-07,-4.651266169239773e-07,8.670664729520334e-08,-1.7569599814328913e-07,-4.092498790537034e-07,5.487996348367039e-07,2.982135422416313e-08,-9.330411745540288e-07,-3.9964329128323307e-07,-5.79841603637135e-07
1.513317228808408e-07,5.295245724927002e-07,-4.0383428656916333e-07,-1.7158511518663813e-07,-2.1278236501458414e-07,-2.592822504288422e-07,2.956390239602068e-07,-6.864784785700527e-08,-1.320274527650919e-07,-4.2107388970781516e-07,1.1648936464140853e-07,-1.4526604102380148e-07,-3.562224677805747e-07,5.601801702083074e-07,1.6536075084572975e-08,-8.885352031159695e-07,-3.768748187746252e-07,-5.595169413232166e-07
8.621719378257344e-08,5.418517124583857e-07,-3.6640879132913346e-07,-1.9743210483813058e-07,-2.4937974646826496e-07,-2.7129400886028655e-07,2.735364845980095e-07,-9.48920743445013e-08,-1.6457482754158152e-07,-4.0081947220031276e-07,1.4505548010126855e-07,-1.2552298114350002e-07,-3.135140265111921e-07,5.749071227598603e-07,1.3345788121898064e-09,-8.519486528393834e-07,-3.6271434678359133e-07,-5.477206066801646e-07
-1.6710740435049019e-09,5.546393597309446e-07,-3.2764979689447675e-07,-2.1570611499792478e-07,-2.8284725491155146e-07,-2.820905923875872e-07,2.5328713363824175e-07,-1.1736689105100006e-07,-2.0072940127857264e-07,-4.0085808235919786e-07,1.6976306457277348e-07,-1.1897015019647562e-07,-2.8191732547033554e-07,5.9030707985782e-07,-1.4872208970033952e-08,-8.241726906029002e-07,-3.577365281364274e-07,-5.440506321129439e-07
-1.0380201560142804e-07,5.691328320577066e-07,-2.944590901341969e-07,-2.2401046320408496e-07,-3.131697891568419e-07,-2.927503599190663e-07,2.3584985329619157e-07,-1.3445880305921734e-07,-2.351367525877002e-07,-4.1344762342678326e-07,1.8907288459250888e-07,-1.250034251841025e-07,-2.606225214824664e-07,6.042413891475245e-07,-3.116935731595613e-08,-8.055743917872395e-07,-3.60931899339846e-07,-5.476900779788588e-07
-2.09665726572283e-07,5.864816422147216e-07,-2.716600200064625e-07,-2.2235779708207902e-07,-3.4045888716796436e-07,-3.0486582770262167e-07,2.2188838091957516e-07,-1.4462157192397315e-07,-2.6289897505852213e-07,-4.305987473571045e-07,2.025304042672724e-07,-1.4058112843810928e-07,-2.495792531232052e-07,6.154250785173602e-07,-4.67170238545229e-08,-7.974829177194989e-07,-3.705839319099407e-07,-5.575977676134973e-07
-3.0890757775285567e-07,6.068049369434547e-07,-2.6143273060891953e-07,-2.1364462028686314e-07,-3.6532698494726074e-07,-3.201530947802878e-07,2.105458769047968e-07,-1.4682128046896024e-07,-2.8100697776961614e-07,-4.4591047374416617e-07,2.1028318620840702e-07,-1.6152774702407334e-07,-2.4724722078449864e-07,6.224840675731953e-07,-6.087372902013735e-08,-8.030626979556234e-07,-3.851692233289194e-07,-5.722631783195546e-07
-3.9259461984199217e-07,6.288411426032431e-07,-2.633697891323754e-07,-2.0253534189497522e-07,-3.8835454231541487e-07,-3.398066717135051e-07,2.0152314782581647e-07,-1.4075343426289653e-07,-2.8855522875682493e-07,-4.5520533023157644e-07,2.1298564603031598e-07,-1.8295791141239116e-07,-2.51949687429797e-07,6.245746531005116e-07,-7.223869434208666e-08,-8.251689272102138e-07,-4.030763039077649e-07,-5.884652066373374e-07
-4.536310619279155e-07,6.509301621614981e-07,-2.745111680245736e-07,-1.9269620552508602e-07,-4.080665974673498e-07,-3.648900759369536e-07,1.9420646206658613e-07,-1.2626015418777772e-07,-2.857253282105113e-07,-4.552921120944091e-07,2.1211549308137078e-07,-1.99374700483224e-07,-2.6025563656410634e-07,6.225576208684785e-07,-7.795726634216592e-08,-8.637049770848949e-07,-4.2217357177921717e-07,-6.006373959575276e-07
-4.871276388957541e-07,6.719592402432338e-07,-2.9022136019058614e-07,-1.8513928867779607e-07,-4.2054322831806007e-07,-3.93093768836551e-07,1.9032781844836705e-07,-1.0343221442353543e-07,-2.734656386134032e-07,-4.431082761016128e-07,2.0988717706014004e-07,-2.0586966442364e-07,-2.682226458216909e-07,6.182219173578996e-07,-7.482823944265813e-08,-9.154544697489673e-07,-4.4040044367713166e-07,-6.02480348127727e-07
-4.911073368279314e-07,6.911518581257301e-07,-3.061283446533744e-07,-1.7884914185229207e-07,-4.226213265095382e-07,-4.2064551272875657e-07,1.9060410509852982e-07,-7.351349438048016e-08,-2.5403179333037175e-07,-4.1606650410380576e-07,2.0867319994449223e-07,-1.9982049491151115e-07,-2.704778585424483e-07,6.126816176526389e-07,-6.098618818416461e-08,-9.74746685665346e-07,-4.5641348955928167e-07,-5.888915170850735e-07
-4.6698487755557995e-07,7.076407404993289e-07,-3.197545451406672e-07,-1.7178600064500328e-07,-4.1376103904806163e-07,-4.445624385588947e-07,1.9404593001385209e-07,-3.935675433165187e-08,-2.3078070310004996e-07,-3.7253086565309774e-07,2.1050440227124961e-07,-1.816617288404575e-07,-2.6129903497154005e-07,6.059031374847033e-07,-3.653442456432607e-08,-1.0332054437405114e-06,-4.6935975042504696e-07,-5.570648884852599e-07
-4.1932527649828603e-07,7.205963673958552e-07,-3.309960392540637e-07,-1.6144887835163076e-07,-3.969521336837555e-07,-4.624555090654673e-07,1.977180253877811e-07,-5.853764885097243e-09,-2.0716708602630904e-07,-3.1229182651675967e-07,2.166340034607699e-07,-1.5490350133094407e-07,-2.384474116344614e-07,5.963346834864191e-07,-3.6765974087331888e-09,-1.0809592705408343e-06,-4.787970004309633e-07,-5.072933910479521e-07
-3.551123208999689e-07,7.290272517421247e-07,-3.4178465144070215e-07,-1.4610117641991759e-07,-3.7868708900642224e-07,-4.7448642771219316e-07,1.9662948688567657e-07,2.2927625870221713e-08,-1.8616167779189392e-07,-2.3722523697266966e-07,2.269958501220939e-07,-1.2577262632374345e-07,-2.0258236574223079e-07,5.802419093830209e-07,3.323349844916733e-08,-1.1104141307497406e-06,-4.852676808756655e-07,-4.4353676021423656e-07
-2.828175301561422e-07,7.317369398189601e-07,-3.548931861144568e-07,-1.2621335129122596e-07,-3.680142673474337e-07,-4.834547396794495e-07,1.8569707594032712e-07,4.2361268049259635e-08,-1.6990038996284643e-07,-1.5136987543991962e-07,2.4017595057910335e-07,-1.0152573137634162e-07,-1.5788278635869688e-07,5.532344987898728e-07,6.894059251213312e-08,-1.1187041629042816e-06,-4.901002564081244e-07,-3.725901342248585e-07
-2.1123124728803566e-07,7.278839739771916e-07,-3.7182527508641814e-07,-1.0410622209781277e-07,-3.7263654018024726e-07,-4.922695357156155e-07,1.6178693873703627e-07,4.9780320297951895e-08,-1.5899864617186647e-07,-6.007726186458634e-08,2.542475307157963e-07,-8.757156968116368e-08,-1.1049236203370066e-07,5.139157758466976e-07,9.962192260130297e-08,-1.106655381988396e-06,-4.941238676613785e-07,-3.018667912100259e-07
-1.4825807687673806e-07,7.17795478914915e-07,-3.9123783525888486e-07,-8.26508029859821e-08,-3.944782312409431e-07,-5.017367120112539e-07,1.262875760029268e-07,4.6103463415685903e-08,-1.5269600834713264e-07,3.0707399410471084e-08,2.675390026951404e-07,-8.59008006187025e-08,-6.567688636387082e-08,4.6518853298411434e-07,1.237349190420798e-07,-1.0776129058031062e-06,-4.972678143706378e-07,-2.379150508536762e-07
-1.0012173546105059e-07,7.029440530301926e-07,-4.0945502200663524e-07,-6.47212592913054e-08,-4.307374234244004e-07,-5.123120406590602e-07,1.000093666029409e-07,3.349816199426927e-08,-1.5053278730957605e-07,1.145989452927877e-07,2.7858309159237094e-07,-9.607669608304002e-08,-2.8972978063451745e-08,4.1156434281826103e-07,1.4062934864054588e-07,-1.0380237670684307e-06,-4.996736706750421e-07,-1.8624117548743989e-07
-7.09489157600367e-08,6.847796510352985e-07,-4.223306031686243e-07,-5.300385457145302e-08,-4.765972091259489e-07,-5.245299625274718e-07,8.182499235536e-08,1.407587158495093e-08,-1.5355540226017602e-07,1.8544194800166333e-07,2.8593737978691267e-07,-1.1674868538953264e-07,-3.8031673267527215e-09,3.5658250883602705e-07,1.493941416126188e-07,-9.967836899700132e-07,-5.023488545123589e-07,-1.5112491363603746e-07
-6.23978753510186e-08,6.641992452444781e-07,-4.2659401869397613e-07,-4.897576644214326e-08,-5.270792731748747e-07,-5.394435534817307e-07,5.33264287988764e-08,-1.10526046887748e-08,-1.636416558631169e-07,2.3880724069577425e-07,2.886071806758033e-07,-1.4596383846611468e-07,7.802901056065526e-09,3.0297486137726495e-07,1.4929988047444248e-07,-9.622327846676045e-07,-5.064684540286463e-07,-1.3489651241539679e-07
-7.343653793467178e-08,6.418742516162525e-07,-4.204284541144246e-07,-5.1966445998912814e-08,-5.7766214096308e-07,-5.582248797211766e-07,2.068361129435085e-08,-4.1465965251997954e-08,-1.8242951213569278e-07,2.7301698617415783e-07,2.8656127415577064e-07,-1.812398800585316e-07,5.8960086706766026e-09,2.531743343293913e-07,1.403051356731616e-07,-9.400484426903946e-07,-5.127230793416876e-07,-1.3791399615123833e-07
-1.0057942274021943e-07,6.182891829522347e-07,-4.040962103043426e-07,-5.971613284152671e-08,-6.25025458326626e-07,-5.814788863157857e-07,-1.776775304636413e-08,-7.772905654315835e-08,-2.1127576421541933e-07,2.890143689377404e-07,2.8075336240863584e-07,-2.2012337794965237e-07,-7.534761675226635e-09,2.0876065428650915e-07,1.228169107938144e-07,-9.332629565244974e-07,-5.212581731984267e-07,-1.5929279649173674e-07
-1.3849819158011013e-07,5.93464932973459e-07,-3.8036714372920174e-07,-6.945306501598571e-08,-6.679651927406506e-07,-6.090034845117326e-07,-6.392655668399638e-08,-1.1972806605471393e-07,-2.5108945150136296e-07,2.8982196880993754e-07,2.729691297261446e-07,-2.6012520495320324e-07,-2.94162406915227e-08,1.708597469552492e-07,9.785602753125059e-08,-9.422437944519287e-07,-5.313366757034986e-07,-1.9710221711140768e-07
-1.8083219923144317e-07,5.671290040831587e-07,-3.5403073860069065e-07,-7.862490886973085e-08,-7.065235325967397e-07,-6.374105851277154e-07,-1.0899275649263872e-07,-1.6513158649108432e-07,-3.01318025259564e-07,2.7991344290642135e-07,2.656421551456052e-07,-2.979904568468885e-07,-5.468421005237182e-08,1.4138649701410736e-07,6.766454015625498e-08,-9.647271443136057e-07,-5.411176451512746e-07,-2.481672080678523e-07
-2.212864970314957e-07,5.38969481208889e-07,-3.308249477168242e-07,-8.610057365526969e-08,-7.415888764335679e-07,-6.630912249851221e-07,-1.5050666961633794e-07,-2.093532776932216e-07,-3.5976404753235386e-07,2.640118325581794e-07,2.6109102422641596e-07,-3.30067007683631e-07,-7.765157008411142e-08,1.2221585694173408e-07,3.539084004552989e-08,-9.979087255701167e-07,-5.48728653266347e-07,-3.0839028469552755e-07
-2.5486469308796704e-07,5.084389592978613e-07,-3.162424574702572e-07,-9.357210177005915e-08,-7.756316223364474e-07,-6.837915270517769e-07,-1.855963924161926e-07,-2.4723328606853564e-07,-4.237947334749934e-07,2.4573490120677234e-07,2.603332375285671e-07,-3.539752315456134e-07,-9.442644594965946e-08,1.1272311193769734e-07,4.015140072243498e-09,-1.0408306568909176e-06,-5.537748334779187e-07,-3.731453364864635e-07
-2.786870551122377e-07,4.7505173534441456e-07,-3.138402700837655e-07,-1.0472760064476904e-07,-8.118765536181415e-07,-6.985086528069583e-07,-2.0134152582494556e-07,-2.753214648095531e-07,-4.907197912618443e-07,2.2720360103968647e-07,2.626206541718148e-07,-3.6965435438569237e-07,-1.0491437271948046e-07,1.0934026179894603e-07,-2.4192390039262724e-08,-1.0938154597645701e-06,-5.574292287285692e-07,-4.3743729181284447e-07
-2.9218200968460675e-07,4.394209275384837e-07,-3.2347425602431546e-07,-1.2207745133084044e-07,-8.515172000155417e-07,-7.062891384580808e-07,-1.824311411916099e-07,-2.925072641320604e-07,-5.571817966527466e-07,2.0943154896860382e-07,2.660678005902857e-07,-3.7904828262254593e-07,-1.1060710513209584e-07,1.0745751430017756e-07,-4.789803117287453e-08,-1.1559164957379142e-06,-5.613410704801347e-07,-4.96260831260368e-07
-2.9697072415303887e-07,4.035273058063281e-07,-3.4125474967756075e-07,-1.4500617018602334e-07,-8.92649010245669e-07,-7.043932247974031e-07,-1.2252965347863914e-07,-2.9975360599635037e-07,-6.192990488111387e-07,1.9243913649035593e-07,2.6853565160560965e-07,-3.854133601114159e-07,-1.155151525467153e-07,1.0288734116352403e-07,-6.731985965161894e-08,-1.223269284708034e-06,-5.668150552936822e-07,-5.460563128470186e-07
-2.966159672732595e-07,3.697242365782618e-07,-3.6161154817628764e-07,-1.707449538068194e-07,-9.329026293769264e-07,-6.889356088106672e-07,-1.9199468223112438e-08,-3.004135929712253e-07,-6.74099494277289e-07,1.7521595953120788e-07,2.682657828578939e-07,-3.924901587031942e-07,-1.2371757856383923e-07,9.255817284068879e-08,-8.42444987570329e-08,-1.289670393738985e-06,-5.743524999068414e-07,-5.85779235157073e-07
-2.9600760611131534e-07,3.3974906374351895e-07,-3.7938723127136175e-07,-1.9598726495355192e-07,-9.718129445443532e-07,-6.555656120994819e-07,1.2366479515216604e-07,-2.984280660083611e-07,-7.205405672449829e-07,1.5632093795535504e-07,2.643934155871219e-07,-4.0323854750987384e-07,-1.3756711291963488e-07,7.566102772019627e-08,-1.0067206529260442e-07,-1.3474057588277817e-06,-5.832052894310378e-07,-6.159506970527255e-07
-3.002440174786999e-07,3.1472927174952195e-07,-3.9052039461327645e-07,-2.1738944955085054e-07,-1.0099867054681397e-06,-5.961393131756542e-07,2.959723588201354e-07,-2.9676621094568327e-07,-7.591500589590301e-07,1.3473927726445663e-07,2.570973646935168e-07,-4.190049567193956e-07,-1.5815529276613077e-07,5.404756322534918e-08,-1.1759623995454968e-07,-1.389201405367296e-06,-5.917098911603045e-07,-6.377563310259697e-07
-3.132533730575339e-07,2.952834266525658e-07,-3.9213668089870973e-07,-2.319338516732852e-07,-1.047887848310183e-06,-5.090387043918535e-07,4.94795689154067e-07,-2.9688490776028826e-07,-7.911528214099447e-07,1.1020575336032726e-07,2.471279637543669e-07,-4.3984191616927955e-07,-1.8536334681203447e-07,3.078573868648889e-08,-1.3513073518670751e-07,-1.4115061616989665e-06,-5.985234257487584e-07,-6.530273560641616e-07
-3.365130139099753e-07,2.811401197618751e-07,-3.828571061802671e-07,-2.3747996489421634e-07,-1.0851293836320926e-06,-4.0499634039118634e-07,6.750801764451245e-07,-2.982828681670931e-07,-8.172205134675893e-07,8.331348843189423e-08,2.3529372150634802e-07,-4.649471814923376e-07,-2.1954672413490827e-07,8.922301713808679e-09,-1.5280688605457e-07,-1.4154415260289866e-06,-6.031886425646341e-07,-6.638873279478277e-07
-3.681785982015123e-07,2.712612149434139e-07,-3.629902102293861e-07,-2.3265266599259872e-07,-1.1197585950527423e-06,-2.811674672443072e-07,8.215074828252224e-07,-2.9873692369568584e-07,-8.359337118562488e-07,5.569569135414563e-08,2.2245624590419727e-07,-4.923560763588591e-07,-2.583242434209074e-07,-8.15894650096062e-09,-1.6915444330785296e-07,-1.4041881552578196e-06,-6.053467258732278e-07,-6.716331651234825e-07
-4.03099398055257e-07,2.645042161148759e-07,-3.345220028889314e-07,-2.1670517386600844e-07,-1.1481121368970162e-06,-1.386012773200099e-07,9.813251503805603e-07,-2.9476974527417023e-07,-8.432759923363695e-07,2.944808850582546e-08,2.0960991474947046e-07,-5.187173965864075e-07,-2.9761150286404986e-07,-1.6480792822801413e-08,-1.8158832604480912e-07,-1.379962466834614e-06,-6.038848004590554e-07,-6.761104045552976e-07
-4.34126343477117e-07,2.5998145094463417e-07,-3.010828870087652e-07,-1.9032071185618833e-07,-1.1665044006386616e-06,1.6607065451998137e-08,1.1458306744092903e-06,-2.8230707403051306e-07,-8.341589495263584e-07,5.588710237763966e-09,1.976240850175198e-07,-5.398045376035928e-07,-3.321936146662798e-07,-1.216363828196619e-08,-1.8706722449219323e-07,-1.3431233751430479e-06,-5.968578657230447e-07,-6.756846840297206e-07
-4.544095368208232e-07,2.571445800337595e-07,-2.6731271609299763e-07,-1.5636045399355912e-07,-1.172778549585702e-06,1.796016793155391e-07,1.3184916931602358e-06,-2.5805002486517935e-07,-8.046527122197274e-07,-1.708606827304195e-08,1.870214920332157e-07,-5.512765872560926e-07,-3.5666644002916073e-07,8.12543952862546e-09,-1.82748894064014e-07,-1.2927558902252424e-06,-5.819349640215506e-07,-6.678524472149125e-07
-4.5973378544917953e-07,2.560331070113949e-07,-2.3728689340845917e-07,-1.1942998122769054e-07,-1.1662747490190995e-06,3.417054965298898e-07,1.5047069202584828e-06,-2.2028835576828465e-07,-7.536001018241562e-07,-4.183870436595277e-08,1.7802838970689748e-07,-5.495796054580764e-07,-3.675485073682035e-07,4.679350275158415e-08,-1.6662879983053334e-07,-1.2287456124839682e-06,-5.574790294241328e-07,-6.503317668510588e-07
-4.499363326025872e-07,2.573193221336389e-07,-2.129073842152992e-07,-8.475526299871526e-08,-1.1471283218554452e-06,4.76967365515217e-07,1.6648307698890566e-06,-1.6932375652775532e-07,-6.836870546553155e-07,-7.292813470041119e-08,1.7062959359524043e-07,-5.330710416279877e-07,-3.641179798828164e-07,1.042871041706509e-07,-1.3832926584058708e-07,-1.1545784962525004e-06,-5.2396914613299e-07,-6.222502190808241e-07
-4.287978557888261e-07,2.6207731010021433e-07,-1.930961358789969e-07,-5.6659836036851776e-08,-1.1153235073572647e-06,5.910101136050837e-07,1.8177038770824324e-06,-1.0777774534213366e-07,-6.014911069958124e-07,-1.1398388764307391e-07,1.6471558294326555e-07,-5.024371178354969e-07,-3.490329870287905e-07,1.7880669392411678e-07,-9.901627151528079e-08,-1.0777358043594636e-06,-4.842651458574852e-07,-5.84658073181658e-07
-4.023548054409753e-07,2.7177160023069364e-07,-1.7389626563657945e-07,-3.664316176262767e-08,-1.0695681207421392e-06,6.842147553226395e-07,1.971994018437979e-06,-3.980372489291607e-08,-5.159335240236742e-07,-1.6608885698287152e-07,1.605192147906769e-07,-4.5992188391855255e-07,-3.2697832831335513e-07,2.67442540501814e-07,-5.02058103948381e-08,-1.006653308501431e-06,-4.422233250808603e-07,-5.395803229302864e-07
-3.7638292549527076e-07,2.881223657796457e-07,-1.497893990373361e-07,-2.253846147326353e-08,-1.0074700727710532e-06,7.519412538446297e-07,2.120513910669931e-06,3.024008756669192e-08,-4.3621005949650484e-07,-2.2656541781745095e-07,1.5885864155427433e-07,-4.084791178893321e-07,-3.0356729413027916e-07,3.6677949423907857e-07,7.0006289484159335e-09,-9.469518261719574e-07,-4.010418061582055e-07,-4.891249695420404e-07
-3.5431943589721555e-07,3.1225343517891e-07,-1.1614117945250969e-07,-9.957379518936468e-09,-9.286186367702421e-07,7.996577121389014e-07,2.25670787231659e-06,9.866550508383765e-08,-3.700774634384254e-07,-2.891493770173123e-07,1.6076088704819184e-07,-3.5155283205700674e-07,-2.838004821434503e-07,4.724021321461061e-07,7.15318539770546e-08,-8.992720197674225e-07,-3.6224756988953915e-07,-4.351293271578007e-07
-3.366278679693253e-07,3.4378158046752226e-07,-7.122300104382253e-08,5.330328223011262e-09,-8.372007973727994e-07,8.348543511563744e-07,2.375777525486228e-06,1.6324809006139288e-07,-3.2212775280716966e-07,-3.4535188723340826e-07,1.6682016556162024e-07,-2.9293665989659716e-07,-2.699940836693412e-07,5.789518334040878e-07,1.415691560209325e-07,-8.592267389442661e-07,-3.252957840561651e-07,-3.7891347320954435e-07
-3.2178780118772637e-07,3.807742958005831e-07,-1.6446802892563838e-08,2.568847766510657e-08,-7.417753151766368e-07,8.585377882709676e-07,2.4429363159013397e-06,2.2324178856695807e-07,-2.9228857228042766e-07,-3.868458194595213e-07,1.7667391369467571e-07,-2.3653848341750214e-07,-2.620906339702578e-07,6.807820908513953e-07,2.1371103100561245e-07,-8.199557464316288e-07,-2.882039096859609e-07,-3.215613638872818e-07
-3.081772095159754e-07,4.201209745933658e-07,4.4728328281494433e-08,5.0512857184535956e-08,-6.529638575978238e-07,8.464269950741006e-07,2.4511788778547395e-06,2.797555125525914e-07,-2.7591419609483483e-07,-4.082418840700176e-07,1.8872519720569334e-07,-1.8623069378313148e-07,-2.588866825293643e-07,7.722778082993883e-07,2.824522446866779e-07,-7.768501797864208e-07,-2.491596836894443e-07,-2.6485131636339037e-07
-2.955160534592208e-07,4.581017889126017e-07,1.0819218813844358e-07,7.620039438814248e-08,-5.804888529664356e-07,8.179344514531998e-07,2.4169153467677355e-06,3.3459742177799516e-07,-2.6557786211117334e-07,-4.084538580871204e-07,2.00489705220484e-07,-1.4532872295082012e-07,-2.5919360528292466e-07,8.48631802176624e-07,3.41197627462779e-07,-7.307259886123943e-07,-2.0770749797140075e-07,-2.1135842945740946e-07
-2.848194767647123e-07,4.913889482695356e-07,1.7035977988940936e-07,9.792984738969366e-08,-5.301491456154211e-07,7.443724996092124e-07,2.259800410894876e-06,3.8931926178764817e-07,-2.5345059852752405e-07,-3.897979560219601e-07,2.096072955448314e-07,-1.157396977561477e-07,-2.621204441706976e-07,9.072124828409106e-07,3.8465082997263124e-07,-6.873400967892184e-07,-1.6487687875956683e-07,-1.6338326291142593e-07
-2.7709289732447035e-07,5.181739811751869e-07,2.2865091681859018e-07,1.1210238310801456e-07,-5.018875975557008e-07,6.15193212487283e-07,2.1868415743828756e-06,4.442058677012289e-07,-2.3392730239922398e-07,-3.5626956977084003e-07,2.1467841421249392e-07,-9.78158531356645e-08,-2.667365629888833e-07,9.476029857693895e-07,4.10501197664476e-07,-6.553058741509425e-07,-1.2306176011964607e-07,-1.2226806374630655e-07
-2.7211894727306015e-07,5.385659353655628e-07,2.8133579918447865e-07,1.1780062450377935e-07,-4.907273043854944e-07,5.866151394071765e-07,2.199860193709479e-06,4.9652100589344e-07,-2.061452379049205e-07,-3.123649141715053e-07,2.153908874727047e-07,-9.092590850419198e-08,-2.7348692403783146e-07,9.702638361444047e-07,4.1960043165481497e-07,-6.437184486569624e-07,-8.573370260550528e-08,-8.85047247413146e-08
-2.6842204624656454e-07,5.544725731172114e-07,3.2771204267274815e-07,1.1744174836325729e-07,-4.882263869364427e-07,5.847925335793539e-07,2.2194813470876072e-06,5.405619330283805e-07,-1.7426617912243538e-07,-2.623407907388273e-07,2.1235477329798764e-07,-9.358916305917628e-08,-2.8422102544227815e-07,9.759892185449735e-07,4.1554885971580994e-07,-6.590457055263293e-07,-5.63856850579976e-08,-6.212613346857232e-08
-2.6447586647873136e-07,5.691588320515869e-07,3.6871222500638985e-07,1.1665182282018144e-07,-4.837213649797561e-07,5.61702861267706e-07,2.2739663373349167e-06,5.698069893270702e-07,-1.4544236478414288e-07,-2.1011500357014795e-07,2.068389328765672e-07,-1.0326446339385669e-07,-3.0207668453863593e-07,9.660653593698931e-07,4.036409378036625e-07,-7.026346249791954e-07,-3.739696957241022e-08,-4.3596785610291385e-08
-2.605819291366335e-07,5.858311118287585e-07,4.0650518933215383e-07,1.2191053492059934e-07,-4.677124564721215e-07,5.658224397931921e-07,2.342727068705148e-06,5.800288187103931e-07,-1.2749641707956754e-07,-1.6033781682185639e-07,2.001461297689482e-07,-1.1694031436796378e-07,-3.3125979010539413e-07,9.415534094935616e-07,3.888502105331699e-07,-7.705598762569512e-07,-2.983041658458238e-08,-3.462248128416546e-08
-2.6036832425676984e-07,6.056780019466692e-07,4.4255695416442474e-07,1.367734572287311e-07,-4.367574688139812e-07,5.613725655175431e-07,2.283450985826053e-06,5.70886514054631e-07,-1.2711069727578775e-07,-1.1932054449664996e-07,1.9311037352715396e-07,-1.322811542293639e-07,-3.754514158808574e-07,9.028539887628541e-07,3.7441999930320993e-07,-8.540082036697503e-07,-3.350751969546896e-08,-3.729725489122181e-08
-2.7050621552430544e-07,6.271811900019771e-07,4.7567292250805156e-07,1.603718491228098e-07,-3.95685444099213e-07,4.789203086919727e-07,2.134559434601539e-06,5.466646575639952e-07,-1.4768207482739059e-07,-9.400466037952784e-08,1.8647654856832352e-07,-1.4824642192194974e-07,-4.350019269791858e-07,8.511858898445366e-07,3.621008250917232e-07,-9.389133131898432e-07,-4.6579638849032046e-08,-5.185137120469029e-08
-2.9814702424212485e-07,6.472895492368843e-07,5.012905802656008e-07,1.8916032839155724e-07,-3.5560294280137434e-07,3.6852598000688744e-07,1.998284663156565e-06,5.157723676432576e-07,-1.8737028929302422e-07,-9.004395261395253e-08,1.8153450851174677e-07,-1.6543037798916705e-07,-5.051190408135403e-07,7.899928380199548e-07,3.521927524395871e-07,-1.0076951665668513e-06,-6.560838933428688e-08,-7.614528728828939e-08
-3.4747124526519314e-07,6.62770120053312e-07,5.120181694675498e-07,2.1872608272849545e-07,-3.307785073012886e-07,3.2297166609472237e-07,1.8645107369461787e-06,4.879885991270364e-07,-2.3948646904423215e-07,-1.1123880428761209e-07,1.7976966062303065e-07,-1.8656028749167084e-07,-5.78092295018963e-07,7.240805450948997e-07,3.4230351705650794e-07,-1.0454869365656162e-06,-8.692501691001383e-08,-1.0825512665353529e-07
-4.1742478759553927e-07,6.70841197243883e-07,4.997785510707885e-07,2.4422395608195023e-07,-3.352616066277163e-07,2.5144301393891506e-07,1.7197018588634374e-06,4.7090831873624433e-07,-2.9511753351197907e-07,-1.594200869816092e-07,1.818317727764055e-07,-2.159224239096309e-07,-6.473507815679771e-07,6.581548097689461e-07,3.273520891544243e-07,-1.0465392662828872e-06,-1.0785439564344925e-07,-1.4845411673782873e-07
-5.015474234684943e-07,6.699466822465735e-07,4.599862907042492e-07,2.61417876135517e-07,-3.7759868740501695e-07,2.0017101151391446e-07,1.6308087664133325e-06,4.67733170003871e-07,-3.457931834253459e-07,-2.3236228788332617e-07,1.8713287196187568e-07,-2.569674517253262e-07,-7.100255159156463e-07,5.965444097033971e-07,3.025845741304471e-07,-1.0152416798051964e-06,-1.2660742837374353e-07,-1.977968208401136e-07
-5.895258950292956e-07,6.606535857857682e-07,3.9558428824545145e-07,2.687429632478312e-07,-4.560124124228752e-07,1.8639340359962428e-07,1.5577786188846538e-06,4.77008085371877e-07,-3.854298602910618e-07,-3.2079446203838096e-07,1.942633599707228e-07,-3.1005686203502726e-07,-7.664096958901718e-07,5.426286813802957e-07,2.668963302984464e-07,-9.62366824539458e-07,-1.4182866971405897e-07,-2.552762551805063e-07
-6.697549239913021e-07,6.453707425251034e-07,3.174095062970306e-07,2.683229718376538e-07,-5.585051949704734e-07,2.0124823140593183e-07,1.469262538343748e-06,4.937444293106639e-07,-4.115640850342191e-07,-4.082156430668008e-07,2.0152875103901847e-07,-3.723216741963585e-07,-8.179611220544281e-07,4.973253905296401e-07,2.2339876605341345e-07,-8.997847231741851e-07,-1.5264150532289788e-07,-3.1675423244961247e-07
-7.320553261432307e-07,6.270369551574508e-07,2.405045868861378e-07,2.653473021070588e-07,-6.679694306717503e-07,1.7613299187879946e-07,1.3818196064187301e-06,5.115095696575398e-07,-4.246676852107517e-07,-4.7477418422950574e-07,2.0752398470674025e-07,-4.3884083247263055e-07,-8.651285420541683e-07,4.5905765909367757e-07,1.779061974216762e-07,-8.35818035867387e-07,-1.584692529338675e-07,-3.757846458641114e-07
-7.696097778433113e-07,6.081868581137449e-07,1.7919559048228484e-07,2.6684428548535015e-07,-7.673187343387598e-07,9.851045450997677e-08,1.3113188603421114e-06,5.254962652924456e-07,-4.255752332442667e-07,-5.031734762246524e-07,2.1175014338732055e-07,-5.03808869818613e-07,-9.056029584253968e-07,4.257413066598608e-07,1.370714312085459e-07,-7.728741551883904e-07,-1.5856316619599644e-07,-4.251428598932189e-07
-7.797105671130216e-07,5.906790710352682e-07,1.4319008078141894e-07,2.79772056173585e-07,-8.431291738639201e-07,6.630208969519628e-08,1.2506443593189623e-06,5.341883031958524e-07,-4.138030730980372e-07,-4.840933475868003e-07,2.1456908405129325e-07,-5.618979403814895e-07,-9.352091872688103e-07,3.959217274375041e-07,1.0638851499588842e-07,-7.089491544253212e-07,-1.522531452453886e-07,-4.5884556850607114e-07
-7.635963517329328e-07,5.755529883386641e-07,1.3547339794154229e-07,3.0859664786213704e-07,-8.882904967866811e-07,3.38183088617814e-08,1.250007321068988e-06,5.384510284318219e-07,-3.8833558133379007e-07,-4.191541170266004e-07,2.16345563867407e-07,-6.096674945278153e-07,-9.504936155299306e-07,3.68172566407446e-07,8.860984586369908e-08,-6.412593588497101e-07,-1.3968166068966948e-07,-4.7374489634998145e-07
-7.257538218068012e-07,5.633118604928978e-07,1.5262250664813978e-07,3.5397494116408925e-07,-9.022375829693801e-07,5.992871203257446e-08,1.2811452312003036e-06,5.401672857190917e-07,-3.4905902508164904e-07,-3.201506866657236e-07,2.1677201611585665e-07,-6.45928089242383e-07,-9.507886172292343e-07,3.408669828495064e-07,8.361926040594739e-08,-5.686226987351182e-07,-1.2192553892517496e-07,-4.6976744973525384e-07
-6.729592620164047e-07,5.545705859850983e-07,1.8720432273243886e-07,4.1306498142003155e-07,-8.890835419255544e-07,1.387893893465423e-07,1.3412328735642405e-06,5.41476493185212e-07,-2.9756055127032846e-07,-2.0522120096821935e-07,2.149392745396854e-07,-6.712106987218889e-07,-9.388019574097772e-07,3.1261213030830013e-07,8.909596103741856e-08,-4.926441145297286e-07,-1.0082876181524486e-07,-4.4955651598638757e-07
-6.133191317632212e-07,5.499269841860886e-07,2.303942703341475e-07,4.799291529549289e-07,-8.562305975365398e-07,2.5197338123961994e-07,1.4339044479506489e-06,5.438380356420851e-07,-2.3773338234560732e-07,-9.404367196001268e-08,2.0971487811461002e-07,-6.873621660315658e-07,-9.201300793179826e-07,2.82072337620926e-07,1.0084789201647779e-07,-4.1874801890173065e-07,-7.918240728202904e-08,-4.1845030332035605e-07
-5.552961537536363e-07,5.489805658282434e-07,2.7363029229167764e-07,5.457749609923081e-07,-8.137671574636293e-07,4.004946251158652e-07,1.5649694525028682e-06,5.473380261328653e-07,-1.7586284073487797e-07,-3.393954010749618e-09,2.0019434467793275e-07,-6.969857041052549e-07,-9.01656122137729e-07,2.4812566695260553e-07,1.1358858091259251e-07,-3.552345018231166e-07,-6.035604993558199e-08,-3.836200322337534e-07
-5.064939927889047e-07,5.500501359612044e-07,3.0983978502485696e-07,6.007092853853963e-07,-7.728073814222875e-07,5.309959527537525e-07,1.6986386758192625e-06,5.510845859768661e-07,-1.1911769375422568e-07,5.62953506332266e-08,1.8627973341449953e-07,-7.022851783301809e-07,-8.88747574786897e-07,2.112606582066435e-07,1.2276813677138522e-07,-3.094492102861847e-07,-4.693248902853052e-08,-3.519442198522501e-07
-4.7239170916351036e-07,5.510977789921212e-07,3.344937331234374e-07,6.367529224539746e-07,-7.425149512979856e-07,5.835169299596532e-07,1.792296803847485e-06,5.54209356740334e-07,-7.33064064695246e-08,8.226002004374482e-08,1.6890767059259792e-07,-7.044411733392015e-07,-8.83618066343785e-07,1.7406484568768168e-07,1.2593286017244467e-07,-2.845566519931265e-07,-3.979673003293256e-08,-3.282731512427748e-07
-4.5563969022353836e-07,5.505802516700837e-07,3.4587910595589463e-07,6.499234095275701e-07,-7.28234453197653e-07,6.004883206209111e-07,1.8748379692359675e-06,5.565318769949981e-07,-4.157709679410173e-08,7.829092164391302e-08,1.4960485418426225e-07,-7.041165557098281e-07,-8.856408898267822e-07,1.3972379923621605e-07,1.2274322214744672e-07,-2.79349766668042e-07,-3.8368502022771565e-08,-3.1488772574342323e-07
-4.561416498927666e-07,5.477493511529277e-07,3.448215304200367e-07,6.408670428166875e-07,-7.309385269357284e-07,6.39870159188571e-07,1.913576375308369e-06,5.591862439106995e-07,-2.3644685305424642e-08,5.266319663704437e-08,1.3002426089302609e-07,-7.017295128395919e-07,-8.921913394907787e-07,1.1104082851166291e-07,1.1492637410319089e-07,-2.8912659608951993e-07,-4.0823090948407574e-08,-3.111870195163384e-07
-4.7157366512338966e-07,5.430262707133069e-07,3.3460385031940896e-07,6.147793013949966e-07,-7.465060173989557e-07,6.661015169890201e-07,1.9194616394793523e-06,5.654078154372761e-07,-1.5028936705888937e-08,1.6228064307795784e-08,1.1191398981029124e-07,-6.969867370148732e-07,-8.992130267938223e-07,9.085856407831014e-08,1.0638409522114853e-07,-3.05696890785542e-07,-4.4144517030156514e-08,-3.136553776563841e-07
-4.980529537785657e-07,5.381535241419028e-07,3.205888603964689e-07,5.799966810842252e-07,-7.665972491729216e-07,6.49216005857155e-07,1.9170945974850793e-06,5.799449784933379e-07,-7.909779742954212e-09,-1.9841813538001615e-08,9.68986245318494e-08,-6.892059881005807e-07,-9.026303924451378e-07,8.130350346433231e-08,1.0188005010432154e-07,-3.203878081475005e-07,-4.522090866559162e-08,-3.1721974345337465e-07
-5.309670595824384e-07,5.354111437953763e-07,3.0888144431895914e-07,5.450728613576052e-07,-7.81880509028934e-07,5.958963771731943e-07,1.9189338045186728e-06,6.067817019074866e-07,5.742293997693325e-09,-4.664364439228127e-08,8.57732479059321e-08,-6.787644728246343e-07,-9.007394762351465e-07,8.163920760070361e-08,1.0458393976756526e-07,-3.27857429642886e-07,-4.2532820318883404e-08,-3.1753870143515335e-07
-5.659180706426868e-07,5.365985513403177e-07,3.0487069779469504e-07,5.165213536984243e-07,-7.853926931039589e-07,5.70013110050699e-07,1.915493403191135e-06,6.46321355818627e-07,3.110231900804454e-08,-5.9025294065113694e-08,7.813562294437311e-08,-6.67840656931862e-07,-8.952127035670184e-07,8.78925251369642e-08,1.1481004317745867e-07,-3.270292548985798e-07,-3.660746351389835e-08,-3.123589323930166e-07
-5.995236896271108e-07,5.427050404915278e-07,3.123934601388164e-07,4.985545122018135e-07,-7.735382622137321e-07,5.736699869753125e-07,1.9340213415429264e-06,6.958716228588024e-07,6.92664617107183e-08,-5.5428477079434004e-08,7.27740745749398e-08,-6.597559271169466e-07,-8.900650773796563e-07,9.466171036696097e-08,1.3044537580472676e-07,-3.196042048575717e-07,-2.922980108668159e-08,-3.016584650229873e-07
-6.298090932631057e-07,5.536618386349232e-07,3.32741902955952e-07,4.930855457792472e-07,-7.466410102826715e-07,5.881696184945742e-07,1.9938689935571848e-06,7.501537937370459e-07,1.1707895748936687e-07,-3.7297492890551705e-08,6.809660304471563e-08,-6.580973602262298e-07,-8.902026033900341e-07,9.64006946183341e-08,1.4768162545928684e-07,-3.0849670511547764e-07,-2.270825461449804e-08,-2.875798838018289e-07
-6.56035221869645e-07,5.677746215789124e-07,3.634061922145703e-07,4.990373512620562e-07,-7.101607069664762e-07,6.258046750669276e-07,2.0761653882527444e-06,8.019385704016413e-07,1.678137423408783e-07,-8.641692894304956e-09,6.227838219942491e-08,-6.658058212940256e-07,-9.000311215459771e-07,8.80943782254394e-08,1.6208071917246652e-07,-2.9670872376154963e-07,-1.908653951411161e-08,-2.7365452513954965e-07
-6.779196886373351e-07,5.819044182599297e-07,3.982639187726243e-07,5.126736088285366e-07,-6.731793919949893e-07,6.820080697561677e-07,2.1848750642241167e-06,8.443336451382396e-07,2.138406713785177e-07,2.4951534261352785e-08,5.368926330135172e-08,-6.835457419069958e-07,-9.217509883655649e-07,6.713175518504129e-08,1.706096173401128e-07,-2.8540694846488303e-07,-1.8855648631946705e-08,-2.6279512933377975e-07
-6.945429450446212e-07,5.929827345917099e-07,4.2979424433223234e-07,5.295633237217831e-07,-6.439158413029458e-07,7.640282975381335e-07,2.3127663512451264e-06,8.732995319225472e-07,2.5030706089341525e-07,5.777783132431658e-08,4.1578898102116894e-08,-7.084042552803819e-07,-9.542252199668102e-07,3.502948545026424e-08,1.7314192612074854e-07,-2.734194820008469e-07,-2.0405236803712412e-08,-2.5576148624180747e-07
-7.036381336202353e-07,5.992869432061717e-07,4.514263429143023e-07,5.460909718474801e-07,-6.259337014171076e-07,8.303036111030678e-07,2.433094226102968e-06,8.889994889897923e-07,2.76840434188943e-07,8.491531167746974e-08,2.6259759070245022e-08,-7.34466895713135e-07,-9.937003722318875e-07,-3.2599877631708587e-09,1.7186428987600126e-07,-2.593369299128981e-07,-2.1051198042342725e-08,-2.516106856605805e-07
-7.017295159239658e-07,6.005265423878146e-07,4.5868570647207997e-07,5.595756363143883e-07,-6.174653765510328e-07,8.37337578992883e-07,2.4842791412470182e-06,8.953230207386855e-07,2.967919569556215e-07,1.0244910974450466e-07,8.711376468105127e-09,-7.54526571487574e-07,-1.0354840297327594e-06,-4.105673564049893e-08,1.6984615244541634e-07,-2.437176624797836e-07,-1.821448307415825e-08,-2.487892576391828e-07
-6.848989624992058e-07,5.97725552642405e-07,4.497627104638633e-07,5.683800477618775e-07,-6.12294324440204e-07,7.533036401176568e-07,2.508212105805097e-06,8.988250058051894e-07,3.157460690256239e-07,1.0758264672422596e-07,-9.851663230066592e-09,-7.614445616722323e-07,-1.0751526208071336e-06,-7.077911994560496e-08,1.7039961582277265e-07,-2.2881267307212602e-07,-9.647487884372886e-09,-2.453986370156115e-07
-6.498111134544995e-07,5.933306934459409e-07,4.258315989182088e-07,5.723427695389545e-07,-6.010099898878749e-07,6.454859726541502e-07,2.4853513215489797e-06,9.067409548501132e-07,3.398003661547552e-07,9.854673784396787e-08,-2.8359958846936124e-08,-7.493715321175019e-07,-1.1095338987183499e-06,-8.509862540086218e-08,1.7666325465520777e-07,-2.1718114465051975e-07,6.43658975768525e-09,-2.3919679316015115e-07
-5.949272774869968e-07,5.908394260141015e-07,3.9055439988062213e-07,5.726932326832797e-07,-5.737117378706821e-07,5.845834526687596e-07,2.394409304219345e-06,9.245113033997576e-07,3.7341571378331773e-07,7.444904599461739e-08,-4.620498218495123e-08,-7.152144768826702e-07,-1.1373382080206295e-06,-7.913830215731132e-08,1.9082221728150386e-07,-2.1065116302043804e-07,3.08682002014352e-08,-2.2795898584199144e-07
-5.218063912036579e-07,5.938543382831526e-07,3.489807761632702e-07,5.717412939055691e-07,-5.232655850286123e-07,5.46609228922617e-07,2.3262634487804714e-06,9.540506648851766e-07,4.178235553095436e-07,3.595972803411984e-08,-6.30522771360686e-08,-6.59557850724645e-07,-1.1585582242301855e-06,-5.191476079922953e-08,2.1362947924134987e-07,-2.089711773087856e-07,6.332269626529972e-08,-2.0994847660161365e-07
-4.3607832294294955e-07,6.05016202649788e-07,3.0642779971222896e-07,5.725835826511338e-07,-4.4771275946219907e-07,5.242026942580522e-07,2.182528400663961e-06,9.936397973589854e-07,4.7068288665496814e-07,-1.3441196381706812e-08,-7.827224573206071e-08,-5.86695405502626e-07,-1.1731086971118824e-06,-6.507742170561398e-09,2.44127452847212e-07,-2.0913754115776924e-07,1.0224050767632755e-07,-1.8479221038164986e-07
-3.4747529600844955e-07,6.246847840398887e-07,2.6714190678101787e-07,5.777307957132212e-07,-3.521473611808927e-07,4.2824358020790984e-07,1.984795877110726e-06,1.038725538279653e-06,5.261903124806601e-07,-6.734047303296566e-08,-9.083374604495508e-08,-5.043615660385825e-07,-1.1804221060124068e-06,5.005286538633434e-08,2.790513813759258e-07,-2.0761711729091103e-07,1.444204263814821e-07,-1.5479797834012564e-07
-2.6842316640990784e-07,6.498976609359414e-07,2.3297984124216965e-07,5.870188992006189e-07,-2.492396452163286e-07,2.4860963029429713e-07,1.7901171571404532e-06,1.0829555034453355e-06,5.759171563114236e-07,-1.1792778044569171e-07,-9.978052425688575e-08,-4.2228611026316295e-07,-1.1799352462887286e-06,1.0811770946719592e-07,3.1300026553059543e-07,-2.0269593546984865e-07,1.852768272307747e-07,-1.252068678598607e-07
-2.1138059411614517e-07,6.751054452119481e-07,2.0339456493718548e-07,5.972522174672758e-07,-1.5610449909726034e-07,7.03828777504672e-08,1.553638667404269e-06,1.1200332865425885e-06,6.111799371904805e-07,-1.58090087844106e-07,-1.0458312607849929e-07,-3.496583101849744e-07,-1.171326807560737e-06,1.5878119055840136e-07,3.402510011832064e-07,-1.9474128108975955e-07,2.2036571218177776e-07,-1.0227303167946794e-07
-1.8599084230778707e-07,6.94690161481162e-07,1.7692852537797898e-07,6.041107554939554e-07,-8.816755097894529e-08,-3.609984220667753e-08,1.3788877258994375e-06,1.1460255805427933e-06,6.258602209035789e-07,-1.8322942744870132e-07,-1.051955047305618e-07,-2.9288113338524927e-07,-1.1547382785876993e-06,1.9675006019954605e-07,3.5673963660762703e-07,-1.8545282837993679e-07,2.467785859103306e-07,-9.076417320720252e-08
-1.9711328406287176e-07,7.053237576436804e-07,1.5278031694268118e-07,6.043233211690288e-07,-5.405220426682304e-08,-1.0888743599148596e-07,1.2773183644309324e-06,1.1601103983459854e-06,6.17847962501875e-07,-1.923529445984179e-07,-1.0207740025281336e-07,-2.54779322298374e-07,-1.1313557858413764e-06,2.207238393381791e-07,3.6089375345532776e-07,-1.7745660595577622e-07,2.6346792100985363e-07,-9.262281226482727e-08
-2.439285607376462e-07,7.069513909039459e-07,1.3158808453105015e-07,5.971314224835206e-07,-5.3383301923068794e-08,-1.9102357791900203e-07,1.2275304492386658e-06,1.1646021017228631e-06,5.893888673057053e-07,-1.8770092468897717e-07,-9.596453678509587e-08,-2.3461971910866766e-07,-1.1032722101254268e-06,2.3298768095692586e-07,3.5400205522391767e-07,-1.7282533406716977e-07,2.7136829616556353e-07,-1.0636532563347228e-07
-3.1987629141840735e-07,7.025824539598006e-07,1.1551079072048568e-07,5.851363075371147e-07,-7.676589471392696e-08,-2.57515890269019e-07,1.246050741487505e-06,1.164637923553317e-06,5.471800865535356e-07,-1.731228418293448e-07,-8.732212188024263e-08,-2.2824092302569834e-07,-1.0720781258454245e-06,2.3931660403149826e-07,3.4031940107212207e-07,-1.7160762832663704e-07,2.735294307677413e-07,-1.2727747784039922e-07
-4.1356287098812406e-07,6.969432575291388e-07,1.0739696260167976e-07,5.735041024123849e-07,-1.0877121907427565e-07,-2.7290410725045164e-07,1.2977566361877837e-06,1.1666688806937657e-06,5.011726859280049e-07,-1.5267077627796684e-07,-7.614618844118854e-08,-2.2916352151016359e-07,-1.0379765852492798e-06,2.476042560729854e-07,3.2588960738028213e-07,-1.712595544322824e-07,2.7433160396784233e-07,-1.4905453943905024e-07
-5.108554781816436e-07,6.943183108217349e-07,1.0902327190356103e-07,5.673496294704035e-07,-1.337067441409093e-07,-2.161290938888974e-07,1.3667021015662086e-06,1.1761774826313446e-06,4.6162643738760564e-07,-1.3005925273756053e-07,-6.238209355598662e-08,-2.3055602837719337e-07,-1.0002368626328364e-06,2.6519343322865656e-07,3.164495225544723e-07,-1.681378683130697e-07,2.780400316417327e-07,-1.660257894602467e-07
-5.977518194509546e-07,6.971122152291474e-07,1.198182674551082e-07,5.695365528407717e-07,-1.4069984995832367e-07,-1.6595352384102293e-07,1.4422381757777287e-06,1.1960911209900026e-06,4.362753424826649e-07,-1.0836494199082682e-07,-4.6369370045161456e-08,-2.2689835222548436e-07,-9.580748461912423e-07,2.969539034956289e-07,3.158866712537273e-07,-1.591910755277213e-07,2.8779135914563113e-07,-1.7449640664950102e-07
-6.631779715098538e-07,7.058953872844113e-07,1.3700687903111564e-07,5.80338132995263e-07,-1.2543090068565e-07,-1.2943893737338275e-07,1.5077227204325766e-06,1.2264081658995629e-06,4.289527010205295e-07,-8.983352029697342e-08,-2.9016639970648997e-08,-2.1502187871451386e-07,-9.115759710010265e-07,3.442785889514521e-07,3.253743210793885e-07,-1.4305376102327402e-07,3.049440874508216e-07,-1.7332842392678986e-07
-7.009939355043307e-07,7.199079845339697e-07,1.5654476803544942e-07,5.980055109426349e-07,-8.957779858992323e-08,-9.52129969364483e-08,1.5524571339043675e-06,1.264386921887691e-06,4.3928646714278467e-07,-7.60986756044032e-08,-1.18993654007985e-08,-1.948586274496118e-07,-8.625795667997162e-07,4.042273328372838e-07,3.428809007070903e-07,-1.2154406625747445e-07,3.2855679045037057e-07,-1.6397602780183263e-07
-7.107155610885055e-07,7.373707980776892e-07,1.742420133239932e-07,6.195718064700615e-07,-3.9129868996640676e-08,-8.073367215574731e-08,1.5712315321504173e-06,1.3050785327581784e-06,4.6340982822916027e-07,-6.831032946336504e-08,2.9082511517119513e-09,-1.69169359098624e-07,-8.146130725413375e-07,4.7002567440586146e-07,3.6387486675378877e-07,-9.948489947470418e-08,3.55771338150129e-07,-1.496059872945668e-07
-6.967808733763324e-07,7.560186334028252e-07,1.8696343762173357e-07,6.41987648605006e-07,1.8204564648273414e-08,-7.984552578582843e-08,1.564616086882706e-06,1.3427212279291484e-06,4.957674799555835e-07,-6.678155976677802e-08,1.3476384281114867e-08,-1.4192994543293735e-07,-7.714998257707557e-07,5.335427939674852e-07,3.832656602126785e-07,-8.255614197446566e-08,3.8311328198060685e-07,-1.3372273506095077e-07
-6.667701900977497e-07,7.736999242658374e-07,1.933228324390143e-07,6.626497383758804e-07,7.499391691561173e-08,-8.955356742584289e-08,1.538056587178457e-06,1.3724514840493898e-06,5.308168182436193e-07,-7.076921395629403e-08,1.8692340378677946e-08,-1.1669148745909129e-07,-7.36085801217941e-07,5.878544732721289e-07,3.9708987418677456e-07,-7.522433386445695e-08,4.075264328296137e-07,-1.193607540068418e-07
-6.293151507464838e-07,7.885503087745354e-07,1.933923511587146e-07,6.789092009614336e-07,1.245676940316727e-07,-1.0607289480261798e-07,1.4990214299566997e-06,1.3913567701814762e-06,5.638202442076266e-07,-7.862054005203577e-08,1.8567495344808987e-08,-9.571662053015271e-08,-7.097354728614686e-07,6.287828799814307e-07,4.033555408200201e-07,-7.98131031060237e-08,4.2690951198537807e-07,-1.0886876583934286e-07
-5.922049777892206e-07,7.992217036398943e-07,1.88139811043997e-07,6.88131558460503e-07,1.6162791206364864e-07,-1.342983840449576e-07,1.4542180962996616e-06,1.3990415613212431e-06,5.914525063258096e-07,-8.781229586267193e-08,1.4250525265404205e-08,-7.958675568482018e-08,-6.921035294219242e-07,6.557993417001408e-07,4.0246202507420025e-07,-9.587910167534398e-08,4.406296374418465e-07,-1.034384857826137e-07
-5.609603978526672e-07,8.054560290798915e-07,1.7914319627370292e-07,6.889678813050629e-07,1.8396178466079494e-07,-1.6931181767345837e-07,1.4083748662952685e-06,1.3975695661402554e-06,6.123121053446025e-07,-9.515542533573854e-08,7.65975231946703e-09,-6.75922948347732e-08,-6.814969767717281e-07,6.715561686519397e-07,3.968058335554279e-07,-1.204622303358086e-07,4.495281056189945e-07,-1.0279077748134664e-07
-5.381034405142191e-07,8.082746500311367e-07,1.6821289111983793e-07,6.823452589941118e-07,1.9329025353069523e-07,-2.0353149633665758e-07,1.36421814426825e-06,1.390303625848936e-06,6.267065859463439e-07,-9.772174627509156e-08,6.977523257328439e-10,-5.8759895131993006e-08,-6.760298804210437e-07,6.79751692324119e-07,3.894915872182585e-07,-1.5010409091764173e-07,4.5516416140714133e-07,-1.0543207660792087e-07
-5.231862328845637e-07,8.09627445142125e-07,1.5696742377984982e-07,6.713879181606502e-07,1.9463898883515186e-07,-2.340930382867214e-07,1.3231409258792365e-06,1.3807766774898946e-06,6.361980760060747e-07,-9.392823897210732e-08,-5.354053785797696e-09,-5.227871203576965e-08,-6.74385343258823e-07,6.835050992705346e-07,3.8342749016690084e-07,-1.8233450381505337e-07,4.592503253420891e-07,-1.0885578691857001e-07
-5.134882435243041e-07,8.120503042269243e-07,1.4677930021464312e-07,6.609179444713894e-07,1.9514818696742596e-07,-2.558877898645445e-07,1.2865526152310929e-06,1.3721255512380821e-06,6.435105799614165e-07,-8.4027678115744e-08,-9.828151803715509e-09,-4.6861338718039855e-08,-6.754516068648893e-07,6.854630063675565e-07,3.812655587075363e-07,-2.1559868273204805e-07,4.6356870301379686e-07,-1.0967821243912746e-07
-5.053055436341935e-07,8.180652130381695e-07,1.38649157799045e-07,6.558194544200148e-07,2.0201265267886126e-07,-2.682458603015525e-07,1.256710306167001e-06,1.3669933832874781e-06,6.519969092499322e-07,-7.009168671777889e-08,-1.2418748675800022e-08,-4.020364242533911e-08,-6.777949412840144e-07,6.881508040336456e-07,3.8526426257685845e-07,-2.4919875940686426e-07,4.6966779661282717e-07,-1.044043723003774e-07
-4.95560033311991e-07,8.289856440776806e-07,1.3262355607177822e-07,6.58717508851669e-07,2.1954005750178186e-07,-2.7238045814931415e-07,1.2361384793992615e-06,1.367048068231791e-06,6.643100318777771e-07,-5.544514183054176e-08,-1.2976014093616114e-08,-2.925248388927335e-08,-6.795567105015461e-07,6.938295185788551e-07,3.9696351853651615e-07,-2.8286452974605825e-07,4.784745870172547e-07,-9.037832765733051e-08
-4.830959063659327e-07,8.440003450946108e-07,1.2752920997843393e-07,6.688529780727709e-07,2.473767066292286e-07,-2.6990237915206084e-07,1.2268661946979944e-06,1.3725981104209346e-06,6.81325498646836e-07,-4.334194225350287e-08,-1.1258254351755196e-08,-1.0981394064843268e-08,-6.784899658387365e-07,7.043294809141097e-07,4.170630717800922e-07,-3.1594384621461156e-07,4.902342394535987e-07,-6.628375952701973e-08
-4.69119557490732e-07,8.602773117400669e-07,1.2154231718345167e-07,6.82726830755886e-07,2.8110901075896234e-07,-2.631175552458722e-07,1.2302001301361586e-06,1.3825206817910058e-06,7.017225466080378e-07,-3.565724203045739e-08,-6.914134958579419e-09,1.6149342796063472e-08,-6.726630758459959e-07,7.201588825192516e-07,4.4485969190734896e-07,-3.4747710861639776e-07,5.041736338908769e-07,-3.289867351975256e-08
-4.567017958245745e-07,8.736019890223514e-07,1.1296428001504528e-07,6.953739585355085e-07,3.1371916319363773e-07,-2.5441299324972153e-07,1.24642788101769e-06,1.39396702152563e-06,7.218350306710026e-07,-3.252554713759712e-08,4.929658656296171e-11,5.049805929871605e-08,-6.619450909151923e-07,7.389654393653733e-07,4.772484193805244e-07,-3.777572562514159e-07,5.178910334137081e-07,5.9086361038404755e-09
-4.495250748490498e-07,8.794715470286102e-07,1.0096029983340461e-07,7.018235505625734e-07,3.3768148970427454e-07,-2.4594739839470654e-07,1.274805483469474e-06,1.4028459035264997e-06,7.36648238203283e-07,-3.263163787916536e-08,8.870761230939543e-09,8.714553002004108e-08,-6.486869548845744e-07,7.557870962482225e-07,5.089609478762068e-07,-4.089401952067209e-07,5.277898951016988e-07,4.3546885763028805e-08
-4.502829067372113e-07,8.749138029644501e-07,8.637307921584946e-08,6.990395977372545e-07,3.4811605537580454e-07,-2.3862681164997914e-07,1.314821541825713e-06,1.4054260489734327e-06,7.421750122159632e-07,-3.3712329408347894e-08,1.822420513647127e-08,1.1997976933985948e-07,-6.367672334783498e-07,7.656026964436421e-07,5.345069433745611e-07,-4.436728011609776e-07,5.30650676313842e-07,7.284565562208988e-08
-4.595048592233851e-07,8.599698350776173e-07,7.177584452600644e-08,6.869393451432606e-07,3.449128501403207e-07,-2.3181093773183956e-07,1.3660394611372304e-06,1.399702746305214e-06,7.371140133042411e-07,-3.3562118168978015e-08,2.6611189288074406e-08,1.4406637721591604e-07,-6.302627591593432e-07,7.653088962981166e-07,5.501168622200721e-07,-4.839891687165863e-07,5.247966589274351e-07,8.857123645359775e-08
-4.7542374458295474e-07,8.375974727407722e-07,6.023635301029634e-08,6.675533779297808e-07,3.315050560311387e-07,-2.2428778810094131e-07,1.427536417829505e-06,1.385232796479827e-06,7.224510768478699e-07,-3.120847618916247e-08,3.261527443158321e-08,1.5690253500890657e-07,-6.325839768383179e-07,7.539267732482131e-07,5.547102165376614e-07,-5.307893799605367e-07,5.10371116262106e-07,8.923677613786255e-08
-4.947629164530763e-07,8.125190084205048e-07,5.399972788949603e-08,6.437580882707694e-07,3.1269620129659867e-07,-2.15211368120613e-07,1.4998170617939125e-06,1.3625818698549464e-06,7.003282647898749e-07,-2.719153307182148e-08,3.525363339301243e-08,1.5885766938873544e-07,-6.45571910604784e-07,7.325844609475575e-07,5.501920539212202e-07,-5.828796880511404e-07,4.893669602107384e-07,7.772775335317086e-08
-5.13971293123985e-07,7.899543162627297e-07,5.416033410937837e-08,6.187462983324607e-07,2.9365201337467177e-07,-2.0398874385207825e-07,1.5753090939819943e-06,1.3333453339997558e-06,6.73364636595353e-07,-2.2981356167404978e-08,3.4315681426822094e-08,1.527815951122005e-07,-6.688807021921506e-07,7.043770890436484e-07,5.407432865494421e-07,-6.365647743964622e-07,4.6515545517201227e-07,6.00700147786467e-08
-5.305323750374102e-07,7.740388841446958e-07,6.073673718121912e-08,5.953460208811177e-07,2.787750250334003e-07,-1.901051918811639e-07,1.6496681936465947e-06,1.300074846684731e-06,6.440351260332442e-07,-2.0425633787786453e-08,3.026016743761808e-08,1.4266833668449425e-07,-7.003438446983026e-07,6.732165342528262e-07,5.309844010911049e-07,-6.869995942853864e-07,4.4124886729686517e-07,4.273536657448458e-08
-5.437917125945014e-07,7.662302660545441e-07,7.26410986704988e-08,5.750115567284691e-07,2.702093857827916e-07,-1.7338027013481668e-07,1.7197259546438142e-06,1.266023694093836e-06,6.142862515432126e-07,-2.127846292014176e-08,2.3906213222424427e-08,1.3233931051412313e-07,-7.36589253832923e-07,6.428260242456687e-07,5.244373530174474e-07,-7.297714667436364e-07,4.2037900024088175e-07,3.054380015934008e-08
-5.547028776094148e-07,7.650380311582167e-07,8.800985230132863e-08,5.577252875406185e-07,2.676422541926692e-07,-1.537884211880198e-07,1.7809882100102955e-06,1.235031520940639e-06,5.859919558252142e-07,-2.6629254928002668e-08,1.634007497498236e-08,1.2496600559530153e-07,-7.73466102924147e-07,6.167058078948908e-07,5.230399150908286e-07,-7.614126555912995e-07,4.0438721931507996e-07,2.595793458264858e-08
-5.646855981303502e-07,7.671380530355242e-07,1.0477907083296403e-07,5.425343502869883e-07,2.6894678355832083e-07,-1.3165879937840634e-07,1.831462094406409e-06,1.210796650562877e-06,5.61267852021423e-07,-3.6877507864721384e-08,8.718376218706183e-09,1.2247296502459907e-07,-8.071618778335743e-07,5.974084036635956e-07,5.266106128327369e-07,-7.807637141983613e-07,3.9386440907053287e-07,2.8581014578129375e-08
-5.745147290423508e-07,7.685421193231318e-07,1.20820011561386e-07,5.276185062263059e-07,2.7030095601071317e-07,-1.0874836366930632e-07,1.867920048806916e-06,1.1953762755953213e-06,5.417281291866951e-07,-5.227874704724265e-08,1.7477019399599368e-09,1.2461090034422517e-07,-8.358904709594842e-07,5.849629117464387e-07,5.32218554236806e-07,-7.910079250610523e-07,3.8751233453410293e-07,3.490212489653213e-08
-5.83806245324862e-07,7.655724540535783e-07,1.340263431655904e-07,5.106487794122548e-07,2.6727359492742214e-07,-8.818740122873188e-08,1.8872110502049383e-06,1.1883872767889205e-06,5.279883565174213e-07,-7.278000418213221e-08,-4.489694981284213e-09,1.292935724371436e-07,-8.60192521694401e-07,5.77203568707533e-07,5.352299446613749e-07,-7.989911425832566e-07,3.827380658209296e-07,3.9655247612545127e-08
-5.911168218557092e-07,7.562334360322283e-07,1.430939878967395e-07,4.906965790288881e-07,2.5758789201290523e-07,-7.245933342458758e-08,1.8881995991622567e-06,1.1879974142232326e-06,5.203057291715089e-07,-9.684912978679497e-08,-1.001115926974703e-08,1.3439221206892376e-07,-8.812229707250558e-07,5.722769095369658e-07,5.320447613212572e-07,-8.11187478573516e-07,3.7743536413802724e-07,3.8534366840158954e-08
-5.948049935991565e-07,7.41235255566966e-07,1.483412991992009e-07,4.6955082481416737e-07,2.4296650277347886e-07,-5.8142619339561904e-08,1.8765495914688913e-06,1.19223585896827e-06,5.186974011415108e-07,-1.2086075989684583e-07,-1.4464881265695339e-08,1.3896885436127719e-07,-8.993215596395275e-07,5.699372414676452e-07,5.221137596314219e-07,-8.305834504616545e-07,3.710581665994373e-07,3.018159128474076e-08
-5.945864236235325e-07,7.23501323713435e-07,1.5166960723671835e-07,4.5075839824877835e-07,2.2755209956834088e-07,-4.291113867367007e-08,1.867585186947547e-06,1.199208821845437e-06,5.216465834575627e-07,-1.400198575367017e-07,-1.7238363493235423e-08,1.4296834537712087e-07,-9.13980197705682e-07,5.70527539254586e-07,5.080049173835907e-07,-8.560030504625891e-07,3.643805367623163e-07,1.6590626083747206e-08
-5.927010484858627e-07,7.067534530820335e-07,1.5598528350925931e-07,4.379824049541531e-07,2.150662084424475e-07,-2.0703084185039824e-08,1.8736649063237656e-06,1.207060090767256e-06,5.254824872491964e-07,-1.5010660018698026e-07,-1.7676182969175883e-08,1.4655175862042847e-07,-9.242327156822675e-07,5.74073765775207e-07,4.942416947022261e-07,-8.825640837156109e-07,3.5891798015008775e-07,2.334930892728209e-09
-5.935509561000722e-07,6.943294308648789e-07,1.645576540989788e-07,4.341557070167934e-07,2.0753247513387984e-07,1.5245061353506036e-08,1.9038248053511845e-06,1.2144092674954048e-06,5.257872838716449e-07,-1.492045746219563e-07,-1.511504087135585e-08,1.4974119215667722e-07,-9.29117680707103e-07,5.804623355476397e-07,4.853588969473954e-07,-9.033732353882774e-07,3.562806700673127e-07,-7.508866032901693e-09
-6.021149366846826e-07,6.881862418080353e-07,1.800343142724886e-07,4.407099302666395e-07,2.052124995499457e-07,7.347950636594089e-08,1.971144387544229e-06,1.220705586686617e-06,5.194412717141403e-07,-1.3879689238367535e-07,-9.022912958875488e-09,1.5212569612984457e-07,-9.284615915936251e-07,5.896673536223267e-07,4.837555408636788e-07,-9.123703832711648e-07,3.5735609756111353e-07,-1.0163297544676445e-08
-6.22289520530597e-07,6.880521621131104e-07,2.0336933649345392e-07,4.5658919909866843e-07,2.063202382998354e-07,1.607321764691485e-07,2.0803049429007282e-06,1.2265473736618722e-06,5.059830044519532e-07,-1.2320845890190678e-07,8.216425485508756e-10,1.5298812585188398e-07,-9.231664855234126e-07,6.021654489896057e-07,4.890563947465262e-07,-9.062451783998263e-07,3.6214521205337704e-07,-6.431894077582607e-09
-6.556951442694286e-07,6.915292444354635e-07,2.336548759673324e-07,4.784039234540535e-07,2.0785251290898124e-07,2.803062512939906e-07,2.2322632849072553e-06,1.2342386824739025e-06,4.881954976879944e-07,-1.0741895286585357e-07,1.4349655366102104e-08,1.520229837494856e-07,-9.143552357244339e-07,6.195790522038866e-07,4.993838458710628e-07,-8.839378320820955e-07,3.70482052544488e-07,4.1998239635693194e-10
-7.009803070543098e-07,6.951036105826439e-07,2.688378732497519e-07,5.015762758423524e-07,2.0690789152733928e-07,4.2656396198456727e-07,2.388028833242954e-06,1.2474543001139678e-06,4.714860779262219e-07,-9.513811272517807e-08,3.1070484560722293e-08,1.4955268992104396e-07,-9.028354847127764e-07,6.438298461637471e-07,5.125818066652054e-07,-8.461434516922005e-07,3.8237055243640106e-07,6.449525768660528e-09
-7.538115174720741e-07,6.949949075125638e-07,3.064094333479572e-07,5.212252122046168e-07,2.0061417656589303e-07,5.595228298098501e-07,2.5524273292373135e-06,1.269294135653321e-06,4.6192445726413634e-07,-8.836380249565494e-08,4.960972014891294e-08,1.457478194697816e-07,-8.896330095650647e-07,6.748090388629613e-07,5.26419056829498e-07,-7.957520427555073e-07,3.9746816973408264e-07,8.502255180775007e-09
-8.077324214233474e-07,6.877498271711791e-07,3.4392205977275936e-07,5.330506066151318e-07,1.8595795758427582e-07,6.689409669933214e-07,2.6591106507949328e-06,1.3004105692041125e-06,4.6431523461938695e-07,-8.764835414923366e-08,6.759409845990022e-08,1.4001770884174683e-07,-8.763113518305713e-07,7.093909552396629e-07,5.388572112066884e-07,-7.377028416935907e-07,4.147428309445735e-07,5.421265398518885e-09
-8.559276135471798e-07,6.711132718390792e-07,3.7963247923610314e-07,5.347449715125316e-07,1.6058779605264409e-07,6.970806272242575e-07,2.6388954819419606e-06,1.3389662158038802e-06,4.812456611891749e-07,-9.253510605620462e-08,8.229686659759816e-08,1.3120993978797735e-07,-8.645114968342706e-07,7.427500661556269e-07,5.485672197624116e-07,-6.774982427868086e-07,4.3262130966618633e-07,-1.567763011974212e-09
-8.937396046309912e-07,6.446212414919211e-07,4.1286800196985767e-07,5.267143224978348e-07,1.2381986274163842e-07,6.775783280613178e-07,2.5136889129296904e-06,1.3823950191789214e-06,5.126585085101781e-07,-1.0244861303348564e-07,9.15752674097918e-08,1.1787632925502412e-07,-8.55494015143097e-07,7.701691252356123e-07,5.548978136713199e-07,-6.199770981414734e-07,4.491668139646676e-07,-9.86348011828663e-09
-9.209473103063945e-07,6.094196723364548e-07,4.4396185016367673e-07,5.115483486845227e-07,7.653609283317775e-08,6.885892367667511e-07,2.444761503814136e-06,1.426996608255506e-06,5.561347367972458e-07,-1.1729113552577469e-07,9.472037930797889e-08,9.8605808716034e-08,-8.496946117537028e-07,7.887064797461124e-07,5.5784643392424e-07,-5.679590123824686e-07,4.6264604950734e-07,-1.662772728364109e-08
-9.419903669210453e-07,5.682389256493954e-07,4.7434969874936065e-07,4.935068908794736e-07,2.158722013382591e-08,7.333814447939368e-07,2.4944121946391103e-06,1.4710807339469041e-06,6.082844749469089e-07,-1.369090934668036e-07,9.305751570081913e-08,7.294782569341211e-08,-8.460762325537395e-07,7.988067092611808e-07,5.585559030399267e-07,-5.206235770748766e-07,4.7251720657842755e-07,-1.921291433976089e-08
-9.632901916421054e-07,5.258519435433523e-07,5.06482590237162e-07,4.781361229749523e-07,-3.5312290672783194e-08,7.297325942523024e-07,2.420193491037801e-06,1.5146152736001469e-06,6.645348802803809e-07,-1.605367897645082e-07,8.967177779758033e-08,4.2087761028202656e-08,-8.426751043945546e-07,8.040636149344188e-07,5.589795615520083e-07,-4.748056038953034e-07,4.793953795808443e-07,-1.6130742731350373e-08
-9.891366136978918e-07,4.886252889236022e-07,5.423773786052258e-07,4.7028148924295695e-07,-8.668804496634224e-08,6.58689796392218e-07,2.2952070053870716e-06,1.5571166370212004e-06,7.210826856830433e-07,-1.873614225143859e-07,8.795116089434759e-08,8.333042225856564e-09,-8.388629481155696e-07,8.084907309270508e-07,5.601935154446227e-07,-4.295051201320932e-07,4.836275424263544e-07,-8.727381859132834e-09
-1.0187250209451746e-06,4.6257349102346176e-07,5.813827329719437e-07,4.7151951277391823e-07,-1.258031453949141e-07,5.279971470493122e-07,2.181221645201484e-06,1.596723023608373e-06,7.688992917092445e-07,-2.171781817539317e-07,8.995682063006074e-08,-2.570884231069255e-08,-8.368295813205264e-07,8.142753638294951e-07,5.614339644408154e-07,-3.884203121501886e-07,4.844670618774818e-07,-1.369414493380873e-09
-1.0460535151078816e-06,4.5147814828048244e-07,6.193880181118669e-07,4.798331150368333e-07,-1.4839700501960854e-07,4.1017256152670017e-07,2.019374950274463e-06,1.6298282294226612e-06,7.988158918615564e-07,-2.499668000387972e-07,9.581517195478245e-08,-5.733679104481219e-08,-8.404274643413113e-07,8.219013947854535e-07,5.610094536568035e-07,-3.575614315550234e-07,4.80880699698396e-07,6.929582324863025e-10
-1.0628801016272812e-06,4.5607933953472446e-07,6.502265255853158e-07,4.914070084719488e-07,-1.530308886717694e-07,3.0231472296542824e-07,1.8211429360982712e-06,1.652647936559499e-06,8.193671108368294e-07,-2.8520365673076414e-07,1.0405158126380388e-07,-8.4227290797433e-08,-8.52886342347981e-07,8.305506338489589e-07,5.573266199716228e-07,-3.4165321215204315e-07,4.7242677957639773e-07,-6.426159430657056e-09
-1.0634010031482282e-06,4.7380409250036157e-07,6.679244108537093e-07,5.022697362362344e-07,-1.41892650545621e-07,2.2155865222608978e-07,1.652685380861597e-06,1.6622730185477295e-06,7.927534515367083e-07,-3.218956424395506e-07,1.1222600226260414e-07,-1.0560916089236348e-07,-8.753641447821969e-07,8.377054245198467e-07,5.489358727187427e-07,-3.4212340499960207e-07,4.5923392594186793e-07,-2.4401318132238575e-08
-1.0479745360933652e-06,4.991202040887538e-07,6.687233979245666e-07,5.093750501438106e-07,-1.21093192460925e-07,1.6835422263868594e-07,1.5049266214198299e-06,1.6580221362296974e-06,7.32662690729678e-07,-3.587407131691686e-07,1.1783198319520744e-07,-1.2263514920650322e-07,-9.062161003874543e-07,8.401663052623483e-07,5.349441771054434e-07,-3.5624021505845174e-07,4.421245197586445e-07,-5.235896621945886e-08
-1.0235124842932422e-06,5.251852573932808e-07,6.525621403856753e-07,5.118925190532538e-07,-9.837374456840694e-08,1.2553593489056599e-07,1.3790788623853782e-06,1.6419637406050025e-06,6.562780303853082e-07,-3.939788618777033e-07,1.1933001863194122e-07,-1.373045154615037e-07,-9.409469682452921e-07,8.364847733048664e-07,5.160184141745044e-07,-3.767675084304867e-07,4.230112092138767e-07,-8.686942071168237e-08
-1.0004877794313276e-06,5.459366812608508e-07,6.231255606826024e-07,5.113860204706888e-07,-8.042457252566848e-08,9.339644287623577e-08,1.275724589121252e-06,1.618683020742742e-06,5.871135869626318e-07,-4.258582950452233e-07,1.1642300595424646e-07,-1.5165507325397408e-07,-9.741095221377112e-07,8.272137766461337e-07,4.939852662710786e-07,-3.948336912652173e-07,4.0412347610142733e-07,-1.234838213083059e-07
-9.88640049995888e-07,5.569947147323016e-07,5.859106677275125e-07,5.097682433619178e-07,-7.255245379789366e-08,6.423522032131832e-08,1.1391313739457068e-06,1.5931058566364505e-06,5.170936471923452e-07,-4.539295817182749e-07,1.0926042254826397e-07,-1.6806761071071693e-07,-1.002516227709561e-06,8.125122978558762e-07,4.69971239995366e-07,-4.0504763936711456e-07,3.863689912846494e-07,-1.5907487913253426e-07
-9.935297684010903e-07,5.556591150821253e-07,5.458352338999307e-07,5.071895904725664e-07,-7.894375401304023e-08,3.983359173003317e-08,1.0300353636033824e-06,1.5683622864493127e-06,4.5248291296147267e-07,-4.797047042810188e-07,9.76904007007108e-08,-1.8901012918036732e-07,-1.026696264892945e-06,7.912715793072007e-07,4.4384425968712956e-07,-4.076647766814295e-07,3.691077492536863e-07,-1.924928200298238e-07
-1.0148831175662719e-06,5.414386445814204e-07,5.063823517068599e-07,5.022743444933196e-07,-1.0073743541637133e-07,1.9269562314183392e-08,9.505398746128727e-07,1.5462123392128156e-06,4.01360162934054e-07,-5.059301430532157e-07,8.140423078722831e-08,-2.1540515874871196e-07,-1.0495109388616878e-06,7.631113021964086e-07,4.1575775825545135e-07,-4.058161532310471e-07,3.516036649880977e-07,-2.2316667466400944e-07
-1.0467633534621262e-06,5.168843599891012e-07,4.700768916584297e-07,4.934863100551551e-07,-1.3385590824778926e-07,-2.6885793285581377e-09,8.792219323740723e-07,1.5279584109376961e-06,3.645490491562437e-07,-5.355268425341351e-07,6.031722073142195e-08,-2.4562828506877085e-07,-1.0743781286055277e-06,7.295782498495747e-07,3.8730873963317473e-07,-4.0301385614848654e-07,3.338844890048056e-07,-2.49997291703117e-07
-1.0792541951013047e-06,4.872686418093206e-07,4.3890406058555436e-07,4.795190726872581e-07,-1.6986188354436146e-07,-3.023826857504166e-08,8.226372852492026e-07,1.5141151789180925e-06,3.4284889509978815e-07,-5.70753301397073e-07,3.456560207237831e-08,-2.7622271315172543e-07,-1.1046395469909052e-06,6.929541052504276e-07,3.611335414967355e-07,-4.031697770647562e-07,3.162750418943813e-07,-2.712015556392606e-07
-1.1011309090950675e-06,4.5907341928827507e-07,4.1451435965833953e-07,4.5957076786571517e-07,-1.9855238974576404e-07,-6.729252622462499e-08,7.597853163590455e-07,1.5046025950961354e-06,3.3602733700264343e-07,-6.11794441467104e-07,4.668561985469811e-09,-3.0307023425184357e-07,-1.1429245681477184e-06,6.55458336160686e-07,3.4052191467202645e-07,-4.093125021532391e-07,2.992111107021509e-07,-2.8393223964946706e-07
-1.1029542281298453e-06,4.3839570647132153e-07,3.9855766003291324e-07,4.3464782269006147e-07,-2.1014006700677312e-07,-1.1475350766492456e-07,6.861247109985052e-07,1.4988418207386174e-06,3.4348782889524757e-07,-6.551998945782452e-07,-2.7895373794196993e-08,-3.222491663591532e-07,-1.1890069040409018e-06,6.196529696988502e-07,3.2910203224139413e-07,-4.2108398173262135e-07,2.836406992732171e-07,-2.84251512654297e-07
-1.0800404780647147e-06,4.293729877803665e-07,3.923533255185127e-07,4.0805496354116655e-07,-1.981623570751739e-07,-1.6958088030176224e-07,6.051874122551299e-07,1.4961922791051882e-06,3.641250295805553e-07,-6.944251218611818e-07,-6.064754796752493e-08,-3.3145110844153267e-07,-1.2398258572404545e-06,5.874364327569247e-07,3.297048912722665e-07,-4.349062698706742e-07,2.7050364582393635e-07,-2.6900155152446893e-07
-1.0344030999522106e-06,4.3240754732556393e-07,3.954623334672826e-07,3.832996476756988e-07,-1.634327567272964e-07,-2.2638588518272142e-07,5.305219345368368e-07,1.4952976563303126e-06,3.9473657594531483e-07,-7.230725554225921e-07,-9.106954731578289e-08,-3.3159535299975146e-07,-1.2914523506135947e-06,5.57945719640324e-07,3.4152539397865915e-07,-4.470365325404435e-07,2.594775526527974e-07,-2.387683656917187e-07
-9.744736596524714e-07,4.43511187415539e-07,4.047630036859826e-07,3.61589693855554e-07,-1.1524806390434626e-07,-2.7993586823907065e-07,4.53173957800641e-07,1.4937360442037024e-06,4.29391311186199e-07,-7.38263206627331e-07,-1.175300800398579e-07,-3.2645832440507205e-07,-1.3407248663016699e-06,5.281181319050416e-07,3.5964633989460716e-07,-4.5555193955831025e-07,2.4899976347984624e-07,-1.9885163409237075e-07
-9.122500402147508e-07,4.560612657098993e-07,4.155404620712672e-07,3.415392514183649e-07,-6.69256855642691e-08,-3.25803743837129e-07,3.782944293304348e-07,1.4897239996299115e-06,4.6128983831091955e-07,-7.417476341953853e-07,-1.3935076201760373e-07,-3.202558864812461e-07,-1.3858142061290345e-06,4.95875013976416e-07,3.776119276964077e-07,-4.595310569967307e-07,2.3761544524190255e-07,-1.574256453023315e-07
-8.591980826055095e-07,4.6378327806436754e-07,4.2342484123051875e-07,3.2022231776470424e-07,-2.9572852741459014e-08,-3.607337262602596e-07,3.1425111268595365e-07,1.4833657801617465e-06,4.85037080179586e-07,-7.389731845115816e-07,-1.566008226336134e-07,-3.1588165805683557e-07,-1.4264205370243072e-06,4.614679920822042e-07,3.897201245275376e-07,-4.586923576162983e-07,2.245707209508793e-07,-1.2302757008213963e-07
-8.229993441944529e-07,4.627566930738446e-07,4.2534821244701286e-07,2.939540873996299e-07,-9.045939172648797e-09,-3.8381699133379366e-07,2.6020164309878103e-07,1.4760333998755238e-06,4.973400951005387e-07,-7.371090657624976e-07,-1.701806033508449e-07,-3.1507198310084686e-07,-1.4641291468475602e-06,4.257725222160676e-07,3.919896950248964e-07,-4.5497037192070906e-07,2.092274581021717e-07,-1.0265552195689034e-07
-8.062776879569438e-07,4.520808362796125e-07,4.1977709341406476e-07,2.5952281042225605e-07,-5.75460252856902e-09,-3.963605310337215e-07,2.2040307015952903e-07,1.469023715929672e-06,4.97133447797331e-07,-7.423260823779076e-07,-1.816679338861363e-07,-3.188497205526922e-07,-1.5024425268573777e-06,3.8895408782245094e-07,3.829904736974421e-07,-4.518202754284806e-07,1.9084852333104896e-07,-9.98306668490252e-08
-8.070748289213436e-07,4.339530694404277e-07,4.07094016313305e-07,2.1626448377309302e-07,-1.4958080025933654e-08,-4.008046263363963e-07,1.9381457300326e-07,1.4632580194750507e-06,4.860568078266593e-07,-7.572880762071212e-07,-1.9264553127281323e-07,-3.273028683108213e-07,-1.5449052854253357e-06,3.5081604809178563e-07,3.638813345157528e-07,-4.524179142622802e-07,1.690257668768051e-07,-1.132621996136861e-07
-8.203833927225466e-07,4.1292026767792826e-07,3.8948449596014786e-07,1.668258230181236e-07,-2.8519776484847563e-08,-3.9983185605795236e-07,1.7789022842163235e-07,1.4589210898221893e-06,4.6802659012647505e-07,-7.806242853096652e-07,-2.042350627012454e-07,-3.396633182861515e-07,-1.5938713371765215e-06,3.108066155866437e-07,3.380726438227687e-07,-4.593367670531477e-07,1.4376902699056348e-07,-1.3739681150451934e-07
-8.400733603054163e-07,3.9407541967771514e-07,3.6983966628685675e-07,1.1568451277723383e-07,-3.8511848151309915e-08,-3.962588603722206e-07,1.707678812064724e-07,1.4549811790703203e-06,4.4761140439167664e-07,-8.085316543778269e-07,-2.1717579174635164e-07,-3.547506955302029e-07,-1.6505508416446715e-06,2.6771923235827e-07,3.099040486996925e-07,-4.737873844049668e-07,1.155424205657971e-07,-1.640808355873359e-07
-8.605686030897889e-07,3.8140603659230933e-07,3.510790565300085e-07,6.766386150677223e-08,-3.9460919178376254e-08,-3.9307717455027023e-07,1.7009364256177077e-07,1.4499464103913708e-06,4.290824398509674e-07,-8.36637048761715e-07,-2.318199504349341e-07,-3.7079408295997646e-07,-1.7145478351332214e-06,2.2090031827218818e-07,2.8470300997161827e-07,-4.942441186517713e-07,8.588602604338047e-08,-1.841531928174229e-07
-8.780646514821891e-07,3.77140572812741e-07,3.3681131257762613e-07,2.7631432845997446e-08,-2.8030467189460538e-08,-3.91194370944034e-07,1.74182556859356e-07,1.4433458606448387e-06,4.1639395718905706e-07,-8.609256418943146e-07,-2.478460368375902e-07,-3.851391666995044e-07,-1.783516904097634e-06,1.7173721135764102e-07,2.674758927130892e-07,-5.160014890152133e-07,5.752548550383827e-08,-1.8938577858162832e-07
-8.915967668122181e-07,3.8122110972842215e-07,3.31920182869623e-07,-4.0109549319809424e-10,-2.9809217049705897e-09,-3.8911129329312703e-07,1.8207734933609734e-07,1.435910353575768e-06,4.1208155066696225e-07,-8.780875210569844e-07,-2.642886350594126e-07,-3.9501719631627087e-07,-1.8538930403844563e-06,1.2300512690058313e-07,2.614502753638663e-07,-5.335728476683073e-07,3.3070026750674115e-08,-1.7523739199135297e-07
-9.038368346689327e-07,3.9053670729508507e-07,3.418612354195161e-07,-1.524616246868703e-08,3.329586303663321e-08,-3.841640855839434e-07,1.9221926648078675e-07,1.4280746715123735e-06,4.150104214883967e-07,-8.85450473106625e-07,-2.7995869164872924e-07,-3.986968933030464e-07,-1.922051711636257e-06,7.725447266164216e-08,2.667954137179558e-07,-5.437253494983033e-07,1.3712599705059253e-08,-1.426965950669189e-07
-9.207254983527933e-07,3.9920797486581706e-07,3.7143505082485576e-07,-1.931292040149519e-08,7.452475860080546e-08,-3.728520456135389e-07,2.0181888714083064e-07,1.419676619954625e-06,4.1936255342944053e-07,-8.805064439791221e-07,-2.9371514589674317e-07,-3.9564011134896984e-07,-1.9843218844269656e-06,3.646063745431272e-08,2.803840791552761e-07,-5.463201712899685e-07,-7.433858914295595e-10,-9.709525528559837e-08
-9.494845976481348e-07,4.0037793023250525e-07,4.2364281869152713e-07,-1.7538430037618698e-08,1.1240719028568056e-07,-3.511170030743129e-07,2.0736632712391039e-07,1.4099880200002404e-06,4.1581950687003173e-07,-8.610586192111721e-07,-3.045979742167789e-07,-3.860939900839549e-07,-2.0370239059863266e-06,2.075181493633297e-09,2.9718712164986005e-07,-5.438292623505517e-07,-1.1379616555017224e-08,-4.788183642575118e-08
-9.957503492654521e-07,3.88215266608234e-07,4.981521301922681e-07,-1.6066832520890382e-08,1.3843593585018813e-07,-3.1540290290022113e-07,2.0549255979508218e-07,1.3987208396682859e-06,3.9405679670491246e-07,-8.266800193533909e-07,-3.121364644979591e-07,-3.709730942291735e-07,-2.0766905223037537e-06,-2.555482012061773e-08,3.1081790347236284e-07,-5.41031622073305e-07,-1.9977228063474267e-08,-5.926435966115707e-09
-1.0609930137120869e-06,3.593550148477168e-07,5.89756300508279e-07,-2.1229152886193643e-08,1.4544878207435763e-07,-2.643074374807538e-07,1.938186569958854e-07,1.3869502674647023e-06,3.462218128142063e-07,-7.803053579188514e-07,-3.165662821149147e-07,-3.5158187324121407e-07,-2.1004510554468498e-06,-4.707127911879663e-08,3.150616659167331e-07,-5.43940723208081e-07,-2.8534233761707938e-08,1.8480734047642407e-08
-1.1411275456286855e-06,3.1389010544848814e-07,6.88118354308988e-07,-3.8206189873825726e-08,1.297606423231129e-07,-1.9948045468413124e-07,1.721010302306089e-07,1.377225963975292e-06,2.718389807243801e-07,-7.285316220955926e-07,-3.187378189567964e-07,-3.2922636972567785e-07,-2.106918445916588e-06,-6.323455480381973e-08,3.058417412257706e-07,-5.571998627650916e-07,-3.85112373584383e-08,1.932408832137577e-08
-1.2268723544205365e-06,2.554180242895915e-07,7.782024814686167e-07,-6.981834753930753e-08,9.257180879954366e-08,-1.266852060753699e-07,1.4271972487703115e-07,1.3724737930093753e-06,1.7721208067598376e-07,-6.805086055649596e-07,-3.2010899993090397e-07,-3.057250130153334e-07,-2.098002929670425e-06,-7.524642998635886e-08,2.8255279449008106e-07,-5.820858874332747e-07,-5.0627915088904305e-08,-3.978480487294089e-09
-1.3056796809278414e-06,1.897434606258601e-07,8.464628161447356e-07,-1.158589651421517e-07,3.930743753964979e-08,-5.510793413284137e-08,1.0956969142824984e-07,1.373848996937386e-06,7.52368746002315e-08,-6.455481551765211e-07,-3.2284539239997226e-07,-2.841943661372113e-07,-2.080515464813896e-06,-8.563830653494473e-08,2.4810617043464897e-07,-6.159853118258308e-07,-6.472910636934891e-08,-4.678733615423821e-08
-1.3643331706238178e-06,1.2343276664786227e-07,8.901903736680967e-07,-1.722709696218321e-07,-2.1247017359015272e-08,5.081391249765525e-09,7.68576543605657e-08,1.3804940977125117e-06,-1.9521489042634616e-08,-6.295716361191434e-07,-3.294433278727274e-07,-2.68305106392168e-07,-2.0649994392096744e-06,-9.72019689125531e-08,2.085710839184766e-07,-6.521333519053949e-07,-7.903362414334358e-08,-9.981390399030244e-08
-1.3915907676945285e-06,6.309118385699585e-08,8.779262605786762e-07,-2.3080274930562658e-07,-7.736078256173391e-08,4.824991853657881e-08,4.871205524991967e-08,1.3914574185593133e-06,-1.0637486353288736e-07,-6.320326457601426e-07,-3.4199351542417245e-07,-2.605465634714214e-07,-2.06189476946134e-06,-1.1077062599722356e-07,1.7193043247344188e-07,-6.813865454623123e-07,-9.004363463415629e-08,-1.5265642763940267e-07
-1.380769038137427e-06,1.4429860512374808e-08,8.471587605862955e-07,-2.8102224182217104e-07,-1.1687091403355785e-07,7.446003572261442e-08,2.816154710192057e-08,1.4074385395795124e-06,-1.3735597055098943e-07,-6.457649291866286e-07,-3.6193198902527787e-07,-2.61633801000033e-07,-2.0782161401852024e-06,-1.2455913738973197e-07,1.4524895014322105e-07,-6.96571838863061e-07,-9.417960291906054e-08,-1.9770622537085506e-07
-1.331667751356286e-06,-1.9287385997275336e-08,7.914101235118109e-07,-3.1420743713037555e-07,-1.3153380167579238e-07,8.804594671925268e-08,1.793806381413914e-08,1.43043836168256e-06,-1.4786416473574665e-07,-6.602498092369873e-07,-3.903006011166895e-07,-2.7114947357414067e-07,-2.114379802253754e-06,-1.348409107419002e-07,1.3179427116226862e-07,-6.956445516481509e-07,-8.96668966729054e-08,-2.334913370350641e-07
-1.2508825280949203e-06,-3.806975292444588e-08,7.275212434284175e-07,-3.2638334793445147e-07,-1.1986286895873432e-07,9.555873966570033e-08,1.9099125459587856e-08,1.462326534947928e-06,-9.149485766935526e-08,-6.664874539330445e-07,-4.2770291723079736e-07,-2.8804286549722586e-07,-2.1671369883842682e-06,-1.3666565153147974e-07,1.3021146427315607e-07,-6.79007933353557e-07,-7.710551653184787e-08,-2.643926577261954e-07
-1.1505160475359295e-06,-4.4443977448072535e-08,6.659501669028407e-07,-3.1928481670620746e-07,-8.716452370091737e-08,1.018116451702338e-07,3.132279958695247e-08,1.5032092819284031e-06,-4.034872981906393e-08,-6.611517987146033e-07,-4.737581744922753e-07,-3.1072892242933033e-07,-2.2283070121576366e-06,-1.2540569394893303e-07,1.3531270886062747e-07,-6.523983132414386e-07,-5.909591500760257e-08,-2.978823624979947e-07
-1.0460627719846682e-06,-4.180472374451583e-08,6.114967045383736e-07,-2.9947223941056914e-07,-4.396922685052022e-08,1.0898520380064863e-07,5.3736399172426596e-08,1.550347980662587e-06,8.663412228594673e-09,-6.480162347188574e-07,-5.264369840035844e-07,-3.370106110977633e-07,-2.2876199611734306e-06,-9.908971323240407e-08,1.4057965704990184e-07,-6.210376202300488e-07,-3.9341086244764995e-08,-3.39827196072646e-07
-9.538649797595452e-07,-3.254939659578393e-08,5.628427259028676e-07,-2.7522718336988394e-07,-2.806751612872148e-09,1.1508384278767266e-07,8.470491917924283e-08,1.599416015631777e-06,6.471707406396241e-08,-6.331501054046052e-07,-5.814345275605451e-07,-3.6361048035036354e-07,-2.335079646710293e-06,-5.916711591975055e-08,1.4137504074043927e-07,-5.878008395018058e-07,-2.103830554627209e-08,-3.903914859619025e-07
-8.88418340338516e-07,-1.664873818525694e-08,5.152925264455674e-07,-2.521446904332001e-07,2.6410244966971563e-08,1.1731038507871654e-07,1.229179335128386e-07,1.647711302298514e-06,1.1769676981026055e-07,-6.267523849789678e-07,-6.32114986865179e-07,-3.860836108215966e-07,-2.361751499233119e-06,-9.09110300479295e-09,1.3714184432991689e-07,-5.489737657192446e-07,-5.505770809849242e-09,-4.4351785838031457e-07
-8.601043589868545e-07,8.104349707890368e-09,4.651918121647026e-07,-2.307638171254215e-07,3.9459776132810205e-08,1.1516766817045751e-07,1.6815138669626625e-07,1.6960436489753452e-06,1.6251103756969268e-07,-6.329387011046096e-07,-6.70970892874288e-07,-4.000534458193991e-07,-2.3601370744039882e-06,4.737443619355791e-08,1.3086412615725032e-07,-4.986177258505142e-07,7.689568792086429e-09,-4.967290899116664e-07
-8.732350172239113e-07,4.4016606531164875e-08,4.1345199693815477e-07,-2.079437732611579e-07,3.7870989395636856e-08,1.1121985737146147e-07,2.2171406730248799e-07,1.7477237530147476e-06,2.0139195016048888e-07,-6.529155765936452e-07,-6.922195702020921e-07,-4.0275812594611867e-07,-2.3305761817654324e-06,1.072878228718793e-07,1.2656594198804857e-07,-4.349172530154249e-07,1.9620776199191175e-08,-5.421845432784092e-07
-9.235871684162933e-07,9.128944988427265e-08,3.664864208068054e-07,-1.7990912396342594e-07,2.7751616177898418e-08,1.1086991011336124e-07,2.8319798797705293e-07,1.805081118770904e-06,2.3561233100217845e-07,-6.803263453494101e-07,-6.937568177513299e-07,-3.93440393343272e-07,-2.2775934653570374e-06,1.6917704505817445e-07,1.2721584225905465e-07,-3.6132132916497927e-07,3.109584662887567e-08,-5.761166980193992e-07
-9.962818852235226e-07,1.469930723652912e-07,3.339771379676632e-07,-1.447652775373315e-07,1.8227755047697624e-08,1.1988710167994063e-07,3.509644470592267e-07,1.8659342935424772e-06,2.656682498040406e-07,-7.032113146369298e-07,-6.774294414732373e-07,-3.730025750623218e-07,-2.206859510213e-06,2.3240962142180738e-07,1.3391358702230283e-07,-2.8721436581298264e-07,4.221206825550981e-08,-5.94825783483065e-07
-1.0704233719596834e-06,2.0528846181005248e-07,3.23943992586747e-07,-1.0375677985625336e-07,1.8321740806106466e-08,1.4174986719276728e-07,4.2177456036080445e-07,1.922780713913838e-06,2.9045423129272337e-07,-7.095539452481711e-07,-6.480158410732179e-07,-3.437595824336738e-07,-2.1260492858627187e-06,2.9562110860640306e-07,1.4624139004010932e-07,-2.2167307215404602e-07,5.2559643832179474e-08,-6.017389268225359e-07
-1.1163793310553355e-06,2.5900250922969074e-07,3.376862101157126e-07,-6.07289652373111e-08,3.311579581082749e-08,1.7585679873696437e-07,4.903152180958917e-07,1.966104080893388e-06,3.115722635029658e-07,-6.884016878066343e-07,-6.116582754269564e-07,-3.089345505804308e-07,-2.0412155963784826e-06,3.5611022680635875e-07,1.6351626881207752e-07,-1.686166627990066e-07,6.219657569681153e-08,-5.979947769649536e-07
-1.0898010485405838e-06,3.021248871862604e-07,3.680019704837715e-07,-1.993083073133681e-08,6.176332810197011e-08,2.1848178658194245e-07,5.516196092682733e-07,1.9896905092332233e-06,3.3007590600329377e-07,-6.358891491771625e-07,-5.743436098714854e-07,-2.7180479159450977e-07,-1.956636798758328e-06,4.103955361170141e-07,1.857683977887068e-07,-1.2534109000961893e-07,7.230933235325075e-08,-5.83053800833597e-07
-1.0701895464160642e-06,3.3154319859994753e-07,4.020161333161694e-07,1.6187326135117295e-08,9.812675516266386e-08,2.643847193727146e-07,6.023462453942709e-07,1.9934613119072744e-06,3.505074785488302e-07,-5.541537519869393e-07,-5.407292834721127e-07,-2.3499039960891333e-07,-1.8786264749659646e-06,4.547264902957717e-07,2.1319934614885917e-07,-8.204589165501253e-08,8.46654393066132e-08,-5.575843339117078e-07
-9.669032202646208e-07,3.4720070091455644e-07,4.26971934946389e-07,4.805086698754674e-08,1.335800843588761e-07,3.078611327732245e-07,6.415415015925568e-07,1.98249439893677e-06,3.818710525422521e-07,-4.56330865965784e-07,-5.131263844771881e-07,-1.997807377338581e-07,-1.8079857781485018e-06,4.858957033183345e-07,2.4530331512944343e-07,-2.8247422032472084e-08,1.01025493188017e-07,-5.018340039183193e-07
-8.515596749727232e-07,3.5153250775969105e-07,4.3581785029248517e-07,7.907398087240552e-08,1.6119860255050524e-07,3.445046086783435e-07,6.713256941980516e-07,1.964078065171073e-06,4.224223813797563e-07,-3.5472065691982435e-07,-4.906862589807749e-07,-1.6565975866200796e-07,-1.7429557626634546e-06,5.027137815345363e-07,2.810574470667486e-07,4.329877567733651e-08,1.2163019532294508e-07,-4.134935633692548e-07
-7.342988316936871e-07,3.4867688845663563e-07,4.2969071709250186e-07,1.1433175879416291e-07,1.7840742700382748e-07,3.715140396117294e-07,6.964923122304538e-07,1.9444872591494677e-06,4.84095062961578e-07,-2.5953889387370587e-07,-4.6949779119494426e-07,-1.3101635242976585e-07,-1.6909875738268434e-06,5.066625949022417e-07,3.188392368295243e-07,1.3503032749004798e-07,1.4593462484085691e-07,-2.9309094691569797e-07
-6.296047273070664e-07,3.433986962681934e-07,4.1654244357883327e-07,1.57607740147944e-07,1.8610727087408756e-07,3.867025059182327e-07,7.220735461593612e-07,1.9263563285078232e-06,6.114239425236946e-07,-1.7624299442380934e-07,-4.4393929463564976e-07,-9.485752565366905e-08,-1.6425619032348235e-06,5.011058453056854e-07,3.5595020736463897e-07,2.2041432124871365e-07,1.7201497067223898e-07,-1.5612179498069323e-07
-5.484600379450638e-07,3.4030811586082693e-07,4.075389999847866e-07,2.0882404041374587e-07,1.8628954019040796e-07,3.882563616557888e-07,7.504204583987655e-07,1.907990884281235e-06,7.417455481254965e-07,-1.0441995350085907e-07,-4.088676376288124e-07,-5.8096233014518956e-08,-1.5953684133552849e-06,4.900408427923034e-07,3.883470783690415e-07,2.9606604423987817e-07,1.9664920778464004e-07,-1.3415905720013784e-08
-4.963637827190153e-07,3.435291261606064e-07,4.1291085688229926e-07,2.638688705477465e-07,1.8055128109247869e-07,3.750116574421671e-07,7.798981798708234e-07,1.885010297989618e-06,8.675063627103319e-07,-3.985459586311402e-08,-3.621438333171113e-07,-2.3969992536653705e-08,-1.5552504618692218e-06,4.765053099272633e-07,4.113346758248267e-07,3.548828353143183e-07,2.1650221889485324e-07,9.616144261169297e-08
-4.718723579892833e-07,3.559037448341525e-07,4.3776892017343077e-07,3.1494450429259193e-07,1.693237873256313e-07,3.4751777059940296e-07,8.052822418603621e-07,1.8530285542419824e-06,9.858694168902034e-07,1.833605516147373e-09,-3.0645272567729944e-07,2.2583660730282396e-09,-1.5221534631834104e-06,4.609844210914044e-07,4.203095082487039e-07,4.03740420062948e-07,2.2834097071638276e-07,1.324985428898755e-07
-4.6926844429768527e-07,3.779181003434145e-07,4.791816595878867e-07,3.5759365046390075e-07,1.5131367672676977e-07,3.0798680675264336e-07,8.198023621653657e-07,1.810079450151303e-06,1.050296576917604e-06,3.905910724863776e-08,-2.486774896576597e-07,1.489237160820017e-08,-1.5020605708411883e-06,4.417994472633442e-07,4.121100800409144e-07,4.324139230059605e-07,2.2977165908762962e-07,1.418025018918316e-07
-4.785525170912636e-07,4.0782301273018986e-07,5.263765613703733e-07,3.8754763084705934e-07,1.239621364709926e-07,2.6009715198344045e-07,8.18161697393328e-07,1.7586775654132242e-06,1.0925008689173872e-06,6.888208765073938e-08,-1.967364453258175e-07,1.0349463642768617e-08,-1.5048553414946938e-06,4.175153509831698e-07,3.8678941756114767e-07,4.277834402215015e-07,2.198487856316318e-07,1.2513569493207544e-07
-4.894708954557853e-07,4.429817605804734e-07,5.640717102662736e-07,4.023680575720176e-07,8.445153855833639e-08,2.0827790431755485e-07,7.98629624265177e-07,1.7047724849113476e-06,1.137328437809069e-06,1.0880782701093862e-07,-1.5637177819135862e-07,-1.1166511739318477e-08,-1.5220782011464959e-06,3.8857397577882574e-07,3.492511553375342e-07,3.851305238414115e-07,1.9915730461608262e-07,1.5423282020736596e-07
-4.886869658691567e-07,4.810764550163901e-07,5.77560742387838e-07,4.0181237096005567e-07,3.091496328808343e-08,1.5616140727564444e-07,7.628744758804806e-07,1.655384150524968e-06,1.1299494733483099e-06,1.5558928184410006e-07,-1.2991226677163806e-07,-4.5134338570469114e-08,-1.5559113675885588e-06,3.5726884942322687e-07,3.067991228214923e-07,3.036011032341944e-07,1.694484371501e-07,1.6736861322451362e-07
-4.6916464632180224e-07,5.207723078142903e-07,5.575081087119073e-07,3.8419891584285845e-07,-3.504890392967375e-08,1.065343168934506e-07,7.254952659192499e-07,1.6159797482836799e-06,1.0857414713790003e-06,1.8900059979576444e-07,-1.1663737916154217e-07,-8.484884752057504e-08,-1.6084724603414722e-06,3.2746932026430607e-07,2.677260888559543e-07,2.349715830354401e-07,1.30739177235225e-07,1.2440982348264526e-07
-4.3029992708292414e-07,5.620949129149142e-07,5.05624747498161e-07,3.5455659285953864e-07,-1.0330539390400407e-07,6.218506672908187e-08,6.997516241355032e-07,1.5882098134432445e-06,1.043333870663228e-06,2.0417066542851988e-07,-1.1374747889083275e-07,-1.2299810345027883e-07,-1.6752760808188182e-06,3.03897761608668e-07,2.432148662376031e-07,1.8013789058961126e-07,8.489162770689951e-08,7.62741018385833e-08
-3.7711160721013095e-07,6.060454425437727e-07,4.33717955684113e-07,3.189110581552235e-07,-1.6343763032027085e-07,2.5425033008096555e-08,6.994717917179152e-07,1.5686124469337104e-06,1.0144638565958897e-06,1.8715577507164392e-07,-1.1754944277862212e-07,-1.5260096391261466e-07,-1.738609459278783e-06,2.9027499489566145e-07,2.40923239078706e-07,1.318975355694493e-07,3.447971285220542e-08,3.086716038010097e-08
-3.1685968090887524e-07,6.534084152544919e-07,3.598280216873745e-07,3.016803558483351e-07,-1.9807293057550316e-07,-3.012166514171585e-09,7.441711928364334e-07,1.5484666437947654e-06,9.961006750321723e-07,1.7449861249216312e-07,-1.2440924345323753e-07,-1.6985477710819313e-07,-1.769041728869288e-06,2.8780620176503366e-07,2.635143937131043e-07,6.745064282624984e-08,-2.1830036303206325e-08,-7.187191077093069e-09
-2.5929228602506717e-07,7.035322664724969e-07,3.007621729790231e-07,3.0858519293802865e-07,-1.6696028630177612e-07,-2.5773309803393146e-08,8.481127585730573e-07,1.5142842231553354e-06,9.952001252674478e-07,1.2529320041025484e-07,-1.310871796685424e-07,-1.7464080356798888e-07,-1.784455338832553e-06,2.9516691261587256e-07,3.0646620588051263e-07,-1.2342735131048059e-08,-8.401944827305332e-08,-2.0773987895459995e-09
-2.224232328815338e-07,7.534716709970693e-07,2.674419702926833e-07,3.616137209691663e-07,-1.4283526418453952e-07,-4.460559057868783e-08,1.0096433288049605e-06,1.4573377839153182e-06,1.0123310609629029e-06,6.832206227584293e-08,-1.3470622460023355e-07,-1.704255041096989e-07,-1.827821879605368e-06,3.0932094941223333e-07,3.586416893593143e-07,-8.779578405053921e-08,-1.548872182966392e-07,2.9520102651790836e-08
-2.0452038004085916e-07,7.978136098846147e-07,2.624549888953887e-07,4.2399484379078347e-07,-3.047664806397662e-08,-6.089044491890123e-08,1.2163488870201883e-06,1.3718216665552135e-06,1.0479933846817805e-06,-3.1356345054788355e-08,-1.3273240616261867e-07,-1.640656300753101e-07,-1.9153266621508875e-06,3.2695659502515497e-07,4.0042811750784987e-07,-1.1070764513659565e-07,-2.2702519178270346e-07,7.361363254113057e-08
-1.8260358623755525e-07,8.298959100596846e-07,2.8006551018227907e-07,4.6032739397591813e-07,1.0529554196581396e-07,-7.507331564541242e-08,1.4531817689245918e-06,1.258860029580564e-06,1.105721556922801e-06,-1.671074622561367e-07,-1.2311412420025595e-07,-1.6380491302359157e-07,-2.0331180105508424e-06,3.462157474252093e-07,4.1837887205906933e-07,-8.410629141470958e-08,-2.999139895672816e-07,1.1629271560590527e-07
-1.6959391415265522e-07,8.440495190968536e-07,3.102414661133853e-07,5.419859485149546e-07,2.510453415997279e-07,-8.050627627738513e-08,1.5944514535415392e-06,1.1270626589254286e-06,1.1800685039566444e-06,-2.740159272840441e-07,-1.0477903699337824e-07,-1.764685010293324e-07,-2.1108471104622456e-06,3.6681272283735773e-07,3.9122137317518027e-07,7.657711917530439e-10,-3.56628910086635e-07,1.3335976250035714e-07
-1.6631054825602337e-07,8.373072452558666e-07,3.4201011045129387e-07,6.40593257308465e-07,3.7378819270314695e-07,-8.543187705450076e-08,1.5793837891944225e-06,9.838621469765239e-07,1.2547015847195497e-06,-3.0037969311283717e-07,-7.84008905918157e-08,-2.0609761608713503e-07,-2.1686995413894357e-06,3.881779974989903e-07,3.8107055711694615e-07,7.05300383346437e-08,-3.8830010170420117e-07,1.232640759434094e-07
-1.7677629875938223e-07,8.100394288663168e-07,3.66863533044823e-07,7.04363328021987e-07,3.9897026623347583e-07,-9.30916022531238e-08,1.557243040244748e-06,8.372291354159498e-07,1.3117010355068397e-06,-2.5055897917294305e-07,-4.6838099097627695e-08,-2.524429070641855e-07,-2.1618495486434134e-06,4.0813482298466644e-07,3.8475083175737647e-07,2.8349577928040267e-09,-4.054431078017249e-07,9.046022742289677e-08
-2.131755553220237e-07,7.660533048988927e-07,3.804841220440311e-07,7.130873358178371e-07,3.536695844253766e-07,-1.0579473309013818e-07,1.4829665941921932e-06,6.947181186609377e-07,1.3369831654485824e-06,-1.8953358581626565e-07,-1.498660371375863e-08,-3.1387777283744895e-07,-2.1576445333316447e-06,4.233833062207884e-07,3.5180854391352856e-07,-5.096980639185309e-08,-4.3824105609983147e-07,3.922655951971189e-08
-2.735714421468833e-07,7.120745736492557e-07,3.853010131390934e-07,7.249341020190926e-07,3.042499645170302e-07,-1.2859694397438906e-07,1.4312166944376807e-06,5.770652180334391e-07,1.3174698558897307e-06,-2.002778598016367e-07,1.0755044831873724e-08,-3.845383078197581e-07,-2.1740470475334808e-06,4.306899877340603e-07,2.8717715432566353e-07,-4.8797475167229416e-08,-4.3588711504980764e-07,-1.9884215233372605e-08
-3.325905768925246e-07,6.562870611551498e-07,3.837822330123858e-07,7.466203058347918e-07,3.3586139227132415e-07,-1.590733381893766e-07,1.3024195914219823e-06,4.845059022076126e-07,1.2682158856799499e-06,-2.074424826162287e-07,2.3655961223231114e-08,-4.5803353340575486e-07,-2.206945005208235e-06,4.281851454348301e-07,2.2116209359209453e-07,2.637056835547693e-08,-4.230191548165347e-07,-7.549352216676753e-08
-3.6956393566704947e-07,6.063210539265249e-07,3.794426792708693e-07,7.590850742458127e-07,2.8120054650549155e-07,-1.8996997364432717e-07,1.1245835113913853e-06,4.627940351769863e-07,1.2651144430001638e-06,-2.0416737615353168e-07,1.871063760746357e-08,-5.290567644856349e-07,-2.228346497543651e-06,4.1623809949661993e-07,1.4738628936150912e-07,1.3344216972470198e-07,-4.012392594491392e-07,-1.2443783763262435e-07
-4.3600604461916154e-07,5.671140846910851e-07,3.769256187601403e-07,7.690249142352496e-07,1.738293483952635e-07,-2.1000317685965737e-07,1.0129374972304777e-06,4.352784021160722e-07,1.3171837005457489e-06,-1.6971779637115688e-07,-5.1765263613976664e-09,-6.011657103464152e-07,-2.2103607991698172e-06,3.963961335888646e-07,8.283254870471499e-08,2.601414627869767e-07,-3.9786502265350794e-07,-1.4590282343801897e-07
-5.101282128933799e-07,5.390732389710333e-07,3.9244658628391867e-07,7.614542137545869e-07,8.749321738313399e-08,-2.1065025191982707e-07,8.893819055642716e-07,3.8013150142887697e-07,1.396069219696974e-06,-7.539956583333241e-08,-4.3988672092391335e-08,-6.78315324945505e-07,-2.1172942057695626e-06,3.6868245184289137e-07,6.404282825289233e-08,4.119174964778246e-07,-3.831623151225104e-07,-1.1961808670347209e-07
-5.956141192769671e-07,5.177234866567126e-07,4.4497511244023914e-07,7.638415840750576e-07,1.0348652220259394e-09,-1.877637164122762e-07,7.423350889817369e-07,3.825300479880907e-07,1.4454519975599366e-06,8.0890078466726e-08,-8.84593543889734e-08,-7.604030870142075e-07,-2.0137142169170578e-06,3.312789931830812e-07,9.34203368509757e-08,5.730592343034622e-07,-3.5898763726490004e-07,-7.060771879083959e-08
-6.756950268251013e-07,4.957254478854373e-07,5.595337639321302e-07,8.180994242497979e-07,-7.875373774002393e-08,-1.5048288392889448e-07,6.273119997228456e-07,4.1259064143274576e-07,1.4966406269314317e-06,2.1006858067374775e-07,-1.2791626951400793e-07,-8.53109263865058e-07,-1.9610350203388923e-06,2.804653863981254e-07,1.0718586794854032e-07,7.174092389509038e-07,-3.760749883354335e-07,-1.4306021105263503e-08
-7.439245226814709e-07,4.66565065555163e-07,6.852824251498237e-07,8.436205103065411e-07,-1.0400075022066426e-07,-1.1416159792895612e-07,5.094920021315236e-07,4.072359720106032e-07,1.5092922762365046e-06,2.6159198966498213e-07,-1.5646919233848623e-07,-9.321456692170299e-07,-1.874335036345848e-06,2.158815796386951e-07,1.1306465382129058e-07,8.676705826722517e-07,-3.9705152928447073e-07,5.5463786840598e-08
-7.307315294078676e-07,4.2818700252339664e-07,8.347929771367921e-07,8.695334337351255e-07,-8.657416126984868e-08,-8.557967437970269e-08,4.0407698801257593e-07,4.0872551811853456e-07,1.428628176559011e-06,2.2553227938054876e-07,-1.5453578350122326e-07,-9.750710719481462e-07,-1.8187529043621232e-06,1.4698413470912441e-07,1.1850656300272485e-07,9.628238632466975e-07,-4.5598037214338564e-07,1.2812104355449163e-07
-6.406392870410868e-07,3.843486336515353e-07,9.084471476372236e-07,9.14807736984344e-07,-3.4349182064524625e-08,-9.840144488350626e-08,3.218756116687596e-07,3.3895364654107564e-07,1.3589449381873973e-06,1.7977607890028485e-07,-1.3677814724429964e-07,-9.533932763190587e-07,-1.838030429890915e-06,8.429362021019586e-08,1.0831954257082163e-07,9.799482724718438e-07,-4.983118824274435e-07,1.7726741256271428e-07
-6.019551028946903e-07,3.421800744451074e-07,9.072111990129084e-07,9.784841996928323e-07,3.83717828342797e-08,-1.254521916455711e-07,2.5396770115232407e-07,2.7550874917437007e-07,1.297695512250239e-06,1.997844903047831e-07,-9.971430215546731e-08,-9.244473812095236e-07,-1.8601048954862973e-06,5.3338082218333916e-08,9.722911863030586e-08,1.0327442530888504e-06,-5.158773997525523e-07,2.0457634560600692e-07
-5.72849429623617e-07,3.0756263535700174e-07,8.754745238257016e-07,1.0350320471415366e-06,1.0449431915119432e-07,-1.7405628295069985e-07,2.047367969308683e-07,2.277211310248538e-07,1.2177571753106699e-06,1.1467770240292923e-07,-5.129456264545582e-08,-9.161077850131003e-07,-1.8609885703961534e-06,4.533976883186006e-08,8.937528566932213e-08,1.147620803432408e-06,-5.108233923955764e-07,2.1008503328839762e-07
-5.544679341712869e-07,2.820411160092317e-07,8.439338008410513e-07,1.0576895272914315e-06,1.5333477735732082e-07,-2.319675656636123e-07,1.656276713546232e-07,1.9917975370701688e-07,1.1629311577448701e-06,-1.2796586673669297e-08,2.6528897387350717e-09,-8.959788192260027e-07,-1.8206908362514017e-06,1.1094077900654246e-07,8.373308443008446e-08,1.250028548382407e-06,-5.041500106576571e-07,1.935791477545798e-07
-4.999988493342301e-07,2.6286269135793773e-07,8.036645064957758e-07,1.050244031202546e-06,1.7979212993314533e-07,-2.868608779295081e-07,1.2168920678031084e-07,1.940939330661522e-07,1.0856084628923401e-06,-5.670137157486606e-08,5.6353623448171894e-08,-8.07132791714209e-07,-1.7767010309144153e-06,1.4073094909727016e-07,7.92409847924551e-08,1.2537388855953806e-06,-4.749290239146598e-07,1.6239442199117695e-07
-4.1671793849614915e-07,2.4491237965078853e-07,7.219584324899127e-07,1.0469732228760501e-06,1.8331259975446032e-07,-3.315131732156641e-07,6.245309713783676e-08,2.0122347312336516e-07,1.0540454613662925e-06,-9.83857997762441e-08,1.0551366845605563e-07,-7.10057808575714e-07,-1.6453235494089152e-06,1.4949888406098307e-07,6.915476759023687e-08,1.1802750305746356e-06,-4.4867280893396095e-07,1.2699779130754045e-07
-3.3658083342116947e-07,2.231484746610412e-07,6.057012037575026e-07,1.0681742763707026e-06,1.663562143386235e-07,-3.6312902204630787e-07,-1.5147576478387025e-08,2.0685241787721888e-07,1.0087681873007116e-06,-1.3215003264386917e-07,1.4574197564038557e-07,-6.855303168416072e-07,-1.510151582210568e-06,1.4692087989564063e-07,5.146545023477107e-08,1.0933474422023821e-06,-4.323736508949422e-07,8.539020897284665e-08
-3.0593660028958315e-07,1.945970452870696e-07,4.657030802514437e-07,1.084771659482697e-06,1.3197755383222026e-07,-3.809408353489139e-07,-1.0545050484664184e-07,2.0225711815354837e-07,9.556406016201844e-07,-9.367224122923665e-08,1.727359459572237e-07,-6.765493433741689e-07,-1.3826260324508467e-06,1.2784426365645045e-07,2.3821016911129483e-08,1.0075446618124295e-06,-4.3315208264374374e-07,3.4988715327697534e-08
-3.050054758918861e-07,1.5901750880966367e-07,3.468166214653556e-07,1.08831307328602e-06,8.446327240588645e-08,-3.873801494076933e-07,-1.983221628116238e-07,1.8342443766159693e-07,9.295247595963729e-07,-3.254580223129974e-08,1.7277421214749664e-07,-6.646282098749002e-07,-1.2809226427122525e-06,9.189271444228922e-08,-1.1815158216259655e-08,9.164621834064706e-07,-4.5107806850697587e-07,1.2818568070374063e-09
-2.3544274106553614e-07,1.1829089074221528e-07,2.489717437292977e-07,1.0876168418078051e-06,2.5580142973014732e-08,-3.87498597655106e-07,-2.828470480602617e-07,1.5074443151107895e-07,9.127835633672847e-07,4.621257251706597e-08,1.5629061280625562e-07,-6.615281250492266e-07,-1.2064067073131645e-06,4.5782575538728413e-08,-5.5577739152918196e-08,8.511465486796939e-07,-4.861375883150199e-07,-3.618375780007677e-08
