0,1,2,3,4,5,6,7,8,9,10,11,12,13,14,15,16,17
-1.6465717278795828e-07,6.080377811160788e-10,-1.3117226519051945e-07,-2.1211253855404002e-07,-1.7223830946508077e-07,-1.0051990802399341e-07,-9.909867974864394e-08,-1.6066908978184145e-07,-1.0300363845491596e-07,-3.669319140950737e-08,-5.968110189936443e-08,-2.5018552124206195e-08,-1.402144368412151e-07,-1.0634539934984031e-07,-1.3723318502025254e-07,-1.5843557664317427e-07,-1.6026232984225376e-07,-1.0419803290803234e-07
-2.5289224147552754e-07,5.83051010632342e-08,-1.0752870399327919e-07,-1.786971322179851e-07,-8.998594320230336e-08,-7.20835963060976e-08,-8.21850596033612e-08,-1.329037370068706e-07,-5.928326001689466e-08,-1.2329123464771372e-08,-4.92620442764857e-08,-2.3577887990847827e-08,-6.371242939025265e-08,-9.626613598926567e-08,-1.0613648451729108e-07,-1.3997999271976528e-07,-1.2119077694861946e-07,-9.319406172554546e-08
-3.435238356298168e-07,1.0728845475885931e-07,-8.828779629606433e-08,-1.4647230962615823e-07,-2.1132250050948807e-08,-5.076364108423757e-08,-6.870152687421244e-08,-1.1007263917108837e-07,-1.9768932904066496e-08,1.0314957523204284e-08,-3.601902281828097e-08,-2.4818675281121915e-08,1.2385498373096514e-08,-8.54106621200614e-08,-7.626944516325704e-08,-1.2723862301394084e-07,-8.661515850925844e-08,-8.25765408639359e-08
-4.3957779175242276e-07,1.3709057564197775e-07,-7.43365222568097e-08,-1.1694929217792898e-07,3.590219686756235e-08,-3.7140476484055195e-08,-5.7193763971104735e-08,-9.186622813679226e-08,1.3459577160444839e-08,3.1818613333802054e-08,-2.215111067212898e-08,-2.7962576027415354e-08,7.699014675362226e-08,-7.514878067515726e-08,-4.793854435640059e-08,-1.1603263843548934e-07,-5.870969834155557e-08,-7.201534459117482e-08
-5.264401154571387e-07,1.3537324134299904e-07,-6.483371665453022e-08,-9.033471685894276e-08,8.458875385432693e-08,-2.9847217475202936e-08,-4.579014750180571e-08,-7.644009791524654e-08,3.87806712889919e-08,5.1687246011767164e-08,-1.1081790880182427e-08,-3.173927813978534e-08,1.2121277274290693e-07,-6.618219946023113e-08,-2.21020585853705e-08,-1.0183158110805273e-07,-3.8380356407655965e-08,-6.110615422653554e-08
-5.933573974502946e-07,9.051873018402436e-08,-5.7311858711827316e-08,-6.58133235176444e-08,1.2570849415865797e-07,-2.682265132073782e-08,-3.33836590265263e-08,-6.177588401181104e-08,5.4517588226580916e-08,6.730736004383543e-08,-3.3698562140014615e-09,-3.5161968966143565e-08,1.3951303290605288e-07,-5.8993470688229796e-08,-1.2438384135669755e-09,-8.199695119412404e-08,-2.558862771256075e-08,-4.993314547021091e-08
-6.190740378925007e-07,4.5394363315949016e-08,-4.834985014246111e-08,-4.204959089497568e-08,1.565788555036826e-07,-2.5978253278221988e-08,-2.0068162483676933e-08,-4.616259292331442e-08,5.913157316161597e-08,7.50383804578624e-08,9.41028486636764e-10,-3.7182036225765614e-08,1.3038392117853683e-07,-5.274022385371926e-08,1.2038740394549101e-08,-5.5886643391420494e-08,-1.9320014086406163e-08,-3.870853566707517e-08
-4.912091189763574e-07,2.0717387005576905e-08,-3.4474828894430166e-08,-1.746584254790783e-08,1.7278538451496256e-07,-2.4872022642581547e-08,-6.345191411317796e-09,-2.8027718665592442e-08,5.229403219325879e-08,7.034184190402899e-08,2.7030204601926173e-09,-3.706156011579685e-08,9.700462824375738e-08,-4.465664888964902e-08,1.661848519269319e-08,-2.406997095061674e-08,-1.719093474242251e-08,-2.7200809638589787e-08
-3.335339232231112e-07,1.6097024577830362e-09,-1.356967587395329e-08,9.157493343101464e-09,1.6889207356892358e-07,-2.0821005730548808e-08,7.3582711242447605e-09,-6.483749460310906e-09,3.559944304151289e-08,5.418145841702875e-08,4.2232105108246246e-09,-3.3626187315573245e-08,4.738835618455627e-08,-3.1648618203388504e-08,1.3477104309373095e-08,1.147348528741678e-08,-1.569096413622596e-08,-1.473879340940787e-08
-2.147118843435851e-07,-1.1810808273810353e-08,1.3817565538688081e-08,3.789907247677659e-08,1.410005208872454e-07,-1.1792019278698715e-08,2.0576866503049165e-08,1.8082986306601885e-08,1.2694940265435843e-08,2.808089627244258e-08,6.801729902932364e-09,-2.575956118071679e-08,-6.819766545808552e-09,-1.1739180641493853e-08,6.212214632033855e-09,4.751975625267549e-08,-1.0679018929425376e-08,-2.870631594335687e-10
3.1374089525183885e-08,-2.2044510181119314e-08,4.457718523806041e-08,6.773931104923695e-08,8.860307742444623e-08,3.0600857096856743e-09,3.315485546788796e-08,4.474002140042732e-08,-1.0767976966671851e-08,-4.2986926322775096e-09,1.1186585145112556e-08,-1.2746623400853509e-08,-5.313256555942687e-08,1.5999285564280788e-08,1.055988156004572e-09,8.096167242407312e-08,1.6143421390903806e-09,1.7640795314190053e-08
3.570234804974876e-07,-4.558530697949195e-08,7.448734321351802e-08,9.736358947742749e-08,1.630942306307001e-08,2.3867978825509825e-08,4.5557774532916567e-08,7.282946202021079e-08,-2.815894524371207e-08,-3.607406862298523e-08,1.7551303114783986e-08,6.0120561052898275e-09,-8.19555104706926e-08,5.1235392406980896e-08,4.993924453111858e-09,1.0933923729776298e-07,2.4658300309587483e-08,4.050090421224816e-08
6.392391627320831e-07,-8.818167495270356e-08,9.979899307342879e-08,1.2598595098197472e-07,-6.661626953463636e-08,4.96675569803631e-08,5.8125869327703126e-08,1.0160563100996654e-07,-3.4238662784965746e-08,-6.310954998087738e-08,2.5422929080568883e-08,3.086161873595992e-08,-8.983321970853701e-08,9.019344218566071e-08,2.278765726114782e-08,1.302093951406848e-07,5.939318149104896e-08,6.879739075257182e-08
8.489129033521465e-07,-1.1766731766119157e-07,1.1839197593489568e-07,1.5279503653170533e-07,-1.4893251924399703e-07,7.830974089008152e-08,7.048847939110267e-08,1.3017944695109666e-07,-2.694683753329753e-08,-8.031269366385475e-08,3.296828947319633e-08,5.999709279510442e-08,-8.043434061268662e-08,1.2758438305450175e-07,5.5624129320755946e-08,1.4173716063814834e-07,1.0381600289666078e-07,1.0186603403767508e-07
1.0034792358716091e-06,-1.4566040398799297e-07,1.3047626569749652e-07,1.7763774139071825e-07,-2.1996880061774845e-07,1.0789059861111695e-07,8.247817985414463e-08,1.5864590870328962e-07,-7.087637689239124e-09,-8.320942693558346e-08,3.829378395150675e-08,9.192754876381228e-08,-6.253383420686975e-08,1.5965441486129217e-07,1.0155291622551761e-07,1.4427332658979577e-07,1.5488238965592826e-07,1.3840513740012002e-07
1.0989486470102113e-06,-1.659555715152103e-07,1.3831588931778717e-07,2.0131655114464278e-07,-2.7149468772815924e-07,1.3784483060761778e-07,9.502589441960133e-08,1.8831828068127529e-07,2.277806625591975e-08,-7.274400725411563e-08,4.1473046634687715e-08,1.258565903680586e-07,-4.624225304704012e-08,1.844644017983197e-07,1.565623961109516e-07,1.3995794382602573e-07,2.0926366316406804e-07,1.7674821994313528e-07
1.1465274724429452e-06,-1.8850246522161836e-07,1.4480450566668545e-07,2.2489718602733266e-07,-2.991940946456695e-07,1.6804445852945408e-07,1.0939868167893994e-07,2.202262654475653e-07,5.87767753129359e-08,-5.243857315860604e-08,4.026554315966974e-08,1.5978324038168058e-07,-3.9660955194567434e-08,2.0024157895209955e-07,2.151296229856375e-07,1.3060586808667992e-07,2.6410559222998024e-07,2.149437217167723e-07
1.1660881537530926e-06,-1.9804186261496532e-07,1.5205989491203625e-07,2.4928115985850907e-07,-3.038053733039623e-07,1.978296771085439e-07,1.2611080494780008e-07,2.541732029248321e-07,9.623223497060676e-08,-2.7391296533454493e-08,3.18258503579337e-08,1.9133330017801897e-07,-4.724000193257268e-08,2.0583928027354493e-07,2.717939209022328e-07,1.170002927037658e-07,3.175610471246993e-07,2.5138661045424346e-07
1.1720184823815742e-06,-1.871611357850038e-07,1.6094114134974945e-07,2.7491664642891725e-07,-2.8960522478137227e-07,2.2640402894993841e-07,1.450371059279517e-07,2.8941904699452466e-07,1.3086906389332276e-07,-2.050796643224509e-09,1.4049685005371055e-08,2.1857977498028692e-07,-6.964718609717787e-08,2.0063810763697136e-07,3.23621687660771e-07,9.98416014667878e-08,3.681554764578417e-07,2.860995982206461e-07
1.1781078117075872e-06,-1.7003077142088123e-07,1.709625601558103e-07,3.01536720093433e-07,-2.624033632572975e-07,2.5303164697119376e-07,1.6583822979906858e-07,3.2527364615545065e-07,1.5972304617068496e-07,1.9438216542309993e-08,-1.3966852344062799e-08,2.4012475812812523e-07,-1.0428843989535162e-07,1.8551829096982898e-07,3.6970062499566496e-07,8.035556283040628e-08,4.139052478746001e-07,3.1940775283177256e-07
1.1892373908866668e-06,-1.421247201501167e-07,1.8020624514308545e-07,3.2765632238398117e-07,-2.2837317830727572e-07,2.7666272486136826e-07,1.8791511361625724e-07,3.6103564805724635e-07,1.8133007064735127e-07,3.568279592335727e-08,-5.18311937295148e-08,2.549705193995882e-07,-1.4599174086711023e-07,1.6365507450247603e-07,4.115757856325062e-07,6.081148214061589e-08,4.522113342046561e-07,3.5195568536876225e-07
1.2024852811141438e-06,-1.1211686637381559e-07,1.8587743650285846e-07,3.509024143176034e-07,-1.9269686820263796e-07,2.9730965669404056e-07,2.1075141886487444e-07,3.9636186167602267e-07,1.9595855666892968e-07,4.722983413198887e-08,-9.676647794151134e-08,2.63406502026112e-07,-1.8794164343974976e-07,1.4188254519863967e-07,4.529569441044036e-07,4.5708904603232035e-08,4.805660404822267e-07,3.8525645105848677e-07
1.2164239117813345e-06,-7.556107660318498e-08,1.8561571425463653e-07,3.687760109916579e-07,-1.584331973994229e-07,3.1365967311510076e-07,2.346215654884851e-07,4.3175699054652025e-07,2.057556615711667e-07,5.514572248330954e-08,-1.4355304836134683e-07,2.661669984016554e-07,-2.229414864562715e-07,1.2914950345256606e-07,4.979302546795819e-07,4.175156406839317e-08,4.978522189916344e-07,4.2088679748076053e-07
1.2301505130794128e-06,-4.2321287117433635e-08,1.786162949228856e-07,3.7914017867186823e-07,-1.2685800160656433e-07,3.2427827474232843e-07,2.6043606765541254e-07,4.6755417491297105e-07,2.1405968427468407e-07,6.180442655531284e-08,-1.8258939293244506e-07,2.647220774757708e-07,-2.4477147322455514e-07,1.3376358979017665e-07,5.491248723368898e-07,5.5527845103420115e-08,5.052195260563826e-07,4.593833300966035e-07
1.246165238483234e-06,-2.0025027051256678e-08,1.661970898115679e-07,3.803083495659395e-07,-9.940243913339108e-08,3.2696264298518043e-07,2.8898028193571385e-07,5.031987831238699e-07,2.2454846209062116e-07,6.677291532257349e-08,-2.1073795247402338e-07,2.5738006290073087e-07,-2.494259001232322e-07,1.617390006928795e-07,6.072915645538447e-07,9.10942475473014e-08,5.069007108309401e-07,5.001372203755191e-07
1.2704012329708424e-06,-8.838848822151164e-09,1.5209180861887216e-07,3.714544681054086e-07,-7.82931859350726e-08,3.215261085855929e-07,3.2073108019419494e-07,5.381308154232785e-07,2.411138848868138e-07,6.360249704022747e-08,-2.2828878716706442e-07,2.43643012845115e-07,-2.363196338765559e-07,2.1594837809490228e-07,6.723391639717795e-07,1.4865399895268045e-07,5.108457191574125e-07,5.411503229211759e-07
1.3122632581708002e-06,-1.2709236684623003e-08,1.4202691923454411e-07,3.5319403784651084e-07,-6.616357080257821e-08,3.1034194276932245e-07,3.555961354981644e-07,5.724602433992711e-07,2.674364194385777e-07,5.2933591372391194e-08,-2.417117282340958e-07,2.2439160231515825e-07,-2.0957269660054607e-07,2.949636584705588e-07,7.436784823619476e-07,2.2277438473568003e-07,5.273116116708608e-07,5.80804044147884e-07
1.380875202551052e-06,-2.931551384177396e-08,1.4187641631229572e-07,3.280074491716539e-07,-6.579333679215775e-08,2.968969781370333e-07,3.916521761720951e-07,6.060729031848366e-07,3.0524698073718327e-07,3.089555863724869e-08,-2.613567550019741e-07,1.9923680735593334e-07,-1.7879357894798655e-07,3.9014339525655734e-07,8.195756904588843e-07,3.005800195231666e-07,5.643030923788571e-07,6.171576854771588e-07
1.4868804410864996e-06,-6.730526057387975e-08,1.551876446042042e-07,2.987314761379699e-07,-7.9942142693975e-08,2.8415742722807464e-07,4.245249787194319e-07,6.374916940028074e-07,3.526913833804532e-07,-6.883167625011338e-09,-3.0028594038261435e-07,1.6705527504825497e-07,-1.5801221275182533e-07,4.860385810813575e-07,8.958600202788437e-07,3.6343824481745404e-07,6.236767582060945e-07,6.474210534419671e-07
1.632604306070341e-06,-1.2225301908675483e-07,1.81678311663782e-07,2.673695201814211e-07,-1.1043638378545258e-07,2.72529111093858e-07,4.491920601074876e-07,6.642256446076193e-07,4.0455160076921517e-07,-5.879599591368528e-08,-3.695954786629242e-07,1.2593161326613314e-07,-1.6195980665281315e-07,5.646718767902767e-07,9.667654550304766e-07,3.926905822686976e-07,6.99866360782021e-07,6.691411914250141e-07
1.8093300004039205e-06,-1.8446147554153284e-07,2.1724482331753347e-07,2.3421380946433507e-07,-1.568791756158263e-07,2.607976947989215e-07,4.627779130088199e-07,6.836161524664852e-07,4.539001856955007e-07,-1.2243528345636406e-07,-4.752728517497638e-07,7.194668742600628e-08,-2.012120208911772e-07,6.119652922359367e-07,1.024253645814637e-06,3.7579004123956246e-07,7.814195126204352e-07,6.803866686337221e-07
2.007866548021241e-06,-2.51389499665783e-07,2.552821571361584e-07,1.9759727161363728e-07,-2.1624662709697806e-07,2.476711198742563e-07,4.6592273318668854e-07,6.9499330008457e-07,4.940697758810122e-07,-1.9067467158060324e-07,-6.209900941402967e-07,3.289932881337401e-09,-2.796076504240456e-07,6.20820020548784e-07,1.0635615146968036e-06,3.100820848908791e-07,8.555722339084112e-07,6.794793062204479e-07
2.2106494065856635e-06,-3.0907968622746745e-07,2.892132719292522e-07,1.555116006567538e-07,-2.827821071364664e-07,2.2885090047351664e-07,4.651985808673472e-07,6.98081693788467e-07,5.206932686550349e-07,-2.5341998457828405e-07,-7.974240027908483e-07,-7.820691016789402e-08,-3.955830868762522e-07,5.96990481452337e-07,1.083272535979769e-06,2.0377066406104318e-07,9.125236877101116e-07,6.684187109194358e-07
2.402136181243283e-06,-3.479811901020902e-07,3.1667752285939705e-07,1.0804004818465204e-07,-3.470114263221738e-07,2.0575419380969972e-07,4.671259398005118e-07,6.947791332160881e-07,5.332059585489868e-07,-2.723082020088675e-07,-9.86249049334486e-07,-1.67421667739415e-07,-5.451781544397878e-07,5.596746428957555e-07,1.0853951855134246e-06,7.373272025086303e-08,9.509126765445703e-07,6.518024085196457e-07
2.575901889092089e-06,-3.7071563271098184e-07,3.370326742228787e-07,5.895281790662879e-08,-3.966238085450565e-07,1.8369364684516637e-07,4.794047178189138e-07,6.927019463693754e-07,5.347315301549207e-07,-2.7234200797138854e-07,-1.146349549979553e-06,-2.5533524813849786e-07,-7.236888784437449e-07,5.242173212849061e-07,1.0745384093430443e-06,-5.90422379485059e-08,9.76069390965523e-07,6.35814563021783e-07
2.70921085058395e-06,-3.747746330286134e-07,3.5528030853912085e-07,1.5176750321952165e-08,-4.190614625404088e-07,1.6989051348914337e-07,5.086144597874885e-07,7.002779210421064e-07,5.30665342689034e-07,-2.461703431595117e-07,-1.2415647725640013e-06,-3.3096435641778414e-07,-9.252662273045339e-07,5.4362039656219e-07,1.0586247504545237e-06,-1.736882409165114e-07,9.97596809195306e-07,6.253105890180725e-07
2.8181868822217406e-06,-3.6544285248405444e-07,3.78754522616951e-07,-1.469671732325662e-08,-4.042958184151757e-07,2.1053300616664973e-07,5.625930524682612e-07,7.263400548662752e-07,5.27073822030728e-07,-1.7973118795903071e-07,-1.2264009321565954e-06,-3.8316553443089424e-07,-1.1414602483186985e-06,6.557392427662299e-07,1.0411357071601685e-06,-2.5197924024291905e-07,1.0243477210080507e-06,6.2333370477002e-07
2.936546884648394e-06,-3.495668421770833e-07,4.1211392733346475e-07,-2.4604121899744987e-08,-3.475753471810585e-07,2.5337833433888174e-07,6.497503659000213e-07,7.739063757531207e-07,5.287942419380756e-07,-1.403438510923523e-07,-1.2061753805250563e-06,-4.059419164488869e-07,-1.3603101115467994e-06,7.388794958616783e-07,1.0229205486017735e-06,-2.821519035865118e-07,1.061773440843485e-06,6.30394464850651e-07
3.0753863969603063e-06,-3.342664508314517e-07,4.59530919248653e-07,-1.3337530516104241e-08,-2.488819712044894e-07,2.738933962580905e-07,7.693160715762527e-07,8.391637090721102e-07,5.370350365886776e-07,-6.432112649042206e-08,-1.2056555968018344e-06,-3.9935893621743606e-07,-1.5676653304743427e-06,7.961088749581005e-07,1.0032764421704826e-06,-2.6324335545274876e-07,1.1102849545262868e-06,6.435206811092065e-07
3.1997816893628264e-06,-3.2743326550287933e-07,5.161736100643534e-07,1.3181174625811116e-08,-1.218760137443035e-07,3.292814857230246e-07,9.130461118390613e-07,8.985636363974897e-07,5.482659480310403e-07,3.8107231214604455e-08,-1.2172297481211902e-06,-3.7032553565228245e-07,-1.7512946422312441e-06,9.717637787632346e-07,9.763433058881585e-07,-2.0641286169742386e-07,1.1648341951931888e-06,6.580020248588201e-07
3.2755842778305913e-06,-3.1940459711050367e-07,5.718810764197597e-07,4.250749900694044e-08,1.1366134157730433e-08,3.9041494686414313e-07,1.0406459374860257e-06,9.260176881239486e-07,5.552903582200506e-07,1.30509956730143e-07,-1.1460769074839579e-06,-3.353033447990147e-07,-1.9058971805829348e-06,1.1375011265716784e-06,9.411649073143397e-07,-1.3227824167495412e-07,1.2190988976917e-06,6.678561384183721e-07
3.2206404056149333e-06,-3.2524072683701017e-07,6.105700021168775e-07,6.022882905627469e-08,1.259352787002218e-07,3.916236797377153e-07,1.0912643806294408e-06,9.200922249494541e-07,5.496695729299597e-07,2.4673320090940766e-07,-1.0637934701886377e-06,-3.1461675967069375e-07,-2.0349404513793396e-06,1.1825718934943368e-06,8.95007546026112e-07,-6.558992567908573e-08,1.2657706727370473e-06,6.686570853529935e-07
3.0391552550611952e-06,-3.172011603308547e-07,6.064663134031936e-07,5.457826648877397e-08,1.4968438447095405e-07,3.582789907365458e-07,1.0754472808449584e-06,9.155485898360939e-07,5.244197455437122e-07,3.2220076116434786e-07,-1.061045405712066e-06,-3.2210872490204667e-07,-2.1466165205140343e-06,1.1995051006932185e-06,8.358791355136667e-07,-2.817992587919947e-08,1.3003227070529262e-06,6.56790252839009e-07
2.902046098715784e-06,-2.7707814232340033e-07,5.663260376285901e-07,2.050440232085342e-08,1.1539783367561091e-07,3.261675563403319e-07,1.0334306105274254e-06,9.335347562340944e-07,4.768022145818205e-07,3.5570336520835917e-07,-1.1243689078127628e-06,-3.6262813270444206e-07,-2.2466316487172025e-06,1.2136849725323266e-06,7.698319095902874e-07,-3.164132628484895e-08,1.3223416422258415e-06,6.323589365856265e-07
2.8442128463937365e-06,-2.6165415325394667e-07,5.344175928716819e-07,-3.878933923650989e-08,9.289311185537716e-08,2.9364673010058107e-07,9.98630678316156e-07,9.404898083142363e-07,4.1008607257206793e-07,3.616061950019759e-07,-1.2071141316218318e-06,-4.4004015379688906e-07,-2.333811096521786e-06,1.2369722207155791e-06,7.088338936886697e-07,-7.184047889750444e-08,1.3320621586089285e-06,5.968530852323231e-07
2.8067512697150924e-06,-2.611532826173323e-07,5.191786553690906e-07,-1.1376071653202757e-07,3.3724729146863035e-08,2.766766978614436e-07,9.723116977928313e-07,9.105398484154582e-07,3.334789974253485e-07,3.378025727729296e-07,-1.2547826724521964e-06,-5.406584327491925e-07,-2.4007988852061776e-06,1.2125024960534495e-06,6.600295112385743e-07,-1.3856541501265313e-07,1.3298874018254807e-06,5.556054416272787e-07
2.785948366593029e-06,-2.6563898588495425e-07,4.6129015755118224e-07,-1.936479951902397e-07,-9.805852198753491e-08,2.410826734334175e-07,9.311557506320854e-07,8.687128822436043e-07,2.560894694739059e-07,3.123085121511163e-07,-1.294632994641372e-06,-6.382978427862706e-07,-2.437048417287352e-06,1.148949615110995e-06,6.432270615592718e-07,-2.1611849236141614e-07,1.3147726295016906e-06,5.126350492269468e-07
2.633405098766301e-06,-2.7167970327148157e-07,3.7771145584378897e-07,-2.7000239715558997e-07,-2.651040797751407e-07,1.7984514235436557e-07,8.398000594784637e-07,8.297598116700747e-07,1.8526036771679206e-07,2.9808129252687954e-07,-1.37476195059863e-06,-7.281974973949401e-07,-2.432293197018391e-06,1.1229735435097198e-06,6.451662189336171e-07,-2.8655808728464176e-07,1.2829874350679849e-06,4.801906332344381e-07
2.427668466401529e-06,-2.4487015177919833e-07,3.0950757761254005e-07,-3.372934379876914e-07,-4.021020211550322e-07,1.0859094771186554e-07,7.173922914984815e-07,7.937401753718414e-07,1.2519118031656815e-07,2.9757597526008497e-07,-1.4655184776817317e-06,-8.063518458937657e-07,-2.381591712741158e-06,1.1740225250337813e-06,6.393801951779439e-07,-3.311225607628138e-07,1.2406551257279496e-06,4.588609836892841e-07
2.211112490628104e-06,-1.967877524200077e-07,2.3661034446495484e-07,-3.9240221753206485e-07,-5.119520298794441e-07,4.51552483107769e-08,6.581493502406269e-07,7.780573241977263e-07,8.25367283260992e-08,3.1013646295094073e-07,-1.5688232229281057e-06,-8.734381510154698e-07,-2.2905271428407174e-06,1.2684831131692453e-06,6.025926668142619e-07,-3.3344859812843905e-07,1.1858042184414945e-06,4.456167991136585e-07
2.1029777497903975e-06,-1.7502402328029572e-07,1.8090713203981295e-07,-4.340389718817025e-07,-5.999963596548655e-07,-2.762680671125674e-08,5.992103462716446e-07,7.737193755803571e-07,6.135651303781385e-08,3.2497858920497944e-07,-1.6334940117407999e-06,-9.387162234322889e-07,-2.176105134784054e-06,1.3581358655756736e-06,5.514569002944406e-07,-2.814560896822605e-07,1.1187772608939726e-06,4.2378487357154077e-07
2.0674624029640826e-06,-1.5421943279971988e-07,1.4540694683455426e-07,-4.623281252836898e-07,-6.640658968934922e-07,-6.585128366301352e-08,5.565458424123141e-07,7.795692466176924e-07,6.383941595051726e-08,3.332471062356755e-07,-1.585890788328251e-06,-9.812724729165709e-07,-2.0619156912377824e-06,1.4536843833963965e-06,4.809753908275504e-07,-1.7225782572383596e-07,1.0399910960217644e-06,3.961456817023999e-07
2.0252581659732007e-06,-1.401257969923881e-07,1.236626009444242e-07,-4.777423362738689e-07,-7.078817104657862e-07,-7.278061918796271e-08,5.822606810575576e-07,7.953300753153815e-07,8.611244461460101e-08,3.388386285371379e-07,-1.5089124804642486e-06,-9.912408413065755e-07,-1.9704460253764284e-06,1.5958533941416565e-06,4.5433937366923833e-07,-1.4091142305058442e-08,9.77610549015824e-07,3.863117277265238e-07
1.9304035023628316e-06,-1.3138874545239295e-07,1.1946828085961923e-07,-4.800001287589484e-07,-7.360263785729964e-07,-7.508016290090357e-08,6.409122791157538e-07,8.141304423926796e-07,1.1049152915671086e-07,3.4581857245845083e-07,-1.4649931759985763e-06,-9.239910287402577e-07,-1.9161542919812647e-06,1.7584606043058649e-06,5.585406877463542e-07,1.746251477829218e-07,9.666727634792468e-07,3.8793891302951083e-07
1.819902146910298e-06,-1.1871535482799861e-07,1.233295634114086e-07,-4.682592981523034e-07,-7.526413130868828e-07,-4.261522411876321e-08,7.053408039148329e-07,8.396749318304881e-07,1.2354028641889155e-07,3.619085299927658e-07,-1.4459502170873712e-06,-8.160576457072799e-07,-1.9018468554215272e-06,1.975716997901812e-06,6.514661448979707e-07,3.685469756516126e-07,1.0196068945837986e-06,4.2120927356604026e-07
1.7611672570414473e-06,-1.0955955049781121e-07,1.3093451933655992e-07,-4.4319811849475576e-07,-7.657308653057205e-07,-1.0834009750614958e-08,6.710469181742275e-07,8.747877766455846e-07,9.051070933779601e-08,4.175636063669342e-07,-1.4184234791399463e-06,-7.465946387603152e-07,-1.9192835201932196e-06,2.171652731699957e-06,7.644375254301088e-07,5.370427468996592e-07,1.0821907621874623e-06,4.7811069164173e-07
1.760180219780054e-06,-1.0404947991605501e-07,1.396220292467348e-07,-4.0665464377514035e-07,-7.849855966263471e-07,-1.8910168555908652e-08,5.557163039631119e-07,9.002991857982485e-07,3.550033890505468e-08,5.045057671390246e-07,-1.4047475562519292e-06,-7.041375803528105e-07,-1.952936689456282e-06,2.33471686597498e-06,8.620764478249117e-07,6.541288566859738e-07,1.1306481392847806e-06,4.7399670839165237e-07
1.9009382419644173e-06,-1.150669945045394e-07,1.4528534877560484e-07,-3.6214740081969024e-07,-8.194656209548946e-07,-7.059321885585117e-08,4.5658271889759646e-07,9.213744021992553e-07,-2.015036363558332e-08,5.370388448498057e-07,-1.3758696012265766e-06,-6.754950770845786e-07,-1.985039342367588e-06,2.4784140118548824e-06,9.4689000932116e-07,7.077755406365716e-07,1.1729988371957012e-06,4.6194799854494476e-07
2.069593679675268e-06,-1.2450293814449742e-07,1.446449699447629e-07,-3.153540268530119e-07,-8.766708533634642e-07,-5.923734847853016e-08,4.1489851316692896e-07,9.12309350290711e-07,-5.908434423534329e-08,6.193060880746992e-07,-1.3591579642551757e-06,-6.623730153675287e-07,-2.0008424999219323e-06,2.5654679859774227e-06,1.0024789111832537e-06,7.015419885128989e-07,1.2004126588805066e-06,4.7039145636580426e-07
2.2671615813679498e-06,-1.3641711648663125e-07,1.3515511462157253e-07,-2.7377372684727976e-07,-9.591025731481691e-07,2.9643209605933e-08,3.0093975383435726e-07,8.688052869014251e-07,-1.1162210508790895e-07,7.361623530449994e-07,-1.3436706448711884e-06,-6.491540486821642e-07,-1.9931686884336882e-06,2.639966746105863e-06,1.1122029977148726e-06,6.54705194541993e-07,1.2170226163539948e-06,4.7344520035991986e-07
2.446022784361616e-06,-1.5209759719901035e-07,1.1550646786635314e-07,-2.432213026310359e-07,-1.0600678595387068e-06,1.1520227645808153e-07,2.020055694915487e-07,8.515090118153867e-07,-2.3756876735086133e-07,7.789857050224987e-07,-1.261965541380775e-06,-5.662600619464723e-07,-1.9640756279778324e-06,2.6977186130905013e-06,1.188735287688135e-06,5.929809075370696e-07,1.2623641485869444e-06,4.894703065205358e-07
2.488831423097992e-06,-1.6037954731733963e-07,8.606967730071747e-08,-2.282436942954802e-07,-1.166160932763422e-06,2.1238609900412393e-07,1.5668202279376985e-07,8.368208885566005e-07,-3.2065083151220834e-07,7.063022672375396e-07,-1.192186169373614e-06,-5.370354827133709e-07,-1.9221777476227465e-06,2.7274472616914514e-06,1.1719654297534468e-06,5.396882008130881e-07,1.295925835335012e-06,5.021556779010111e-07
2.461307302329811e-06,-1.6879514311062127e-07,4.939212048218532e-08,-2.2611731182113793e-07,-1.2606246573642701e-06,2.841922782055011e-07,1.1976091176050089e-07,7.866584787033654e-07,-3.3956605832502286e-07,6.267088620838385e-07,-1.1582072708253134e-06,-4.928674849874165e-07,-1.877790677629015e-06,2.7316142134222e-06,1.1803652588525263e-06,5.088774818691866e-07,1.2992193944987582e-06,4.6275146137205826e-07
2.426356680890501e-06,-1.9331309712875736e-07,1.0425158499588086e-08,-2.2901143099056534e-07,-1.3245538442675619e-06,3.243000310649147e-07,1.1775041833652681e-07,7.353685664738376e-07,-3.35808973660962e-07,5.833677205754056e-07,-1.1278323522501818e-06,-4.444562390279689e-07,-1.8391480598737575e-06,2.7234384910586698e-06,1.1557078534807397e-06,5.073862517782406e-07,1.2827545410630177e-06,4.396838500729554e-07
2.3905069208817947e-06,-2.2808086180053615e-07,-2.454322535171339e-08,-2.2862878510249426e-07,-1.3461322635626314e-06,3.23785571201268e-07,1.3100367051947977e-07,6.855464741109738e-07,-3.3129429944285654e-07,5.261243444107019e-07,-1.0718557976418177e-06,-4.110182471731071e-07,-1.8103853022788294e-06,2.689723987663732e-06,1.1448118822787276e-06,5.359411140137295e-07,1.282850461666273e-06,4.156741349527826e-07
2.3374071180288123e-06,-2.723576331722301e-07,-5.0177700070718316e-08,-2.1748793780377498e-07,-1.3259070135767869e-06,3.401612635065104e-07,1.5126478522190917e-07,6.493297567477294e-07,-3.2618478661203903e-07,4.767465497108942e-07,-9.97555366647058e-07,-3.8923399665710396e-07,-1.790954952260503e-06,2.633072669832709e-06,1.2068344749324799e-06,5.891377282661047e-07,1.2737848727827499e-06,4.1142051602378927e-07
2.2891707887314735e-06,-3.2483729784979933e-07,-6.392416341160906e-08,-1.952638405395356e-07,-1.272382628574467e-06,3.417227451387227e-07,2.261141298308623e-07,6.555813782729566e-07,-2.965813693385213e-07,4.178657342647747e-07,-9.696757479272326e-07,-3.904143198619302e-07,-1.7768487527084392e-06,2.5686566361938455e-06,1.1654065198428098e-06,6.548396022431525e-07,1.274903596775588e-06,4.08784283313202e-07
2.2596542014775804e-06,-3.7776899483131686e-07,-6.632403455197275e-08,-1.6460367687106796e-07,-1.2004528035147057e-06,3.401603073607287e-07,3.2707024090471414e-07,6.65150647924688e-07,-2.5571385497212257e-07,3.447104941881125e-07,-9.354967157907615e-07,-4.35509948896099e-07,-1.7630883204006052e-06,2.4550527025933544e-06,1.1014384465897866e-06,7.269569470553255e-07,1.2390888053480645e-06,3.869813285996747e-07
2.2465658450090996e-06,-4.265251152649285e-07,-6.016532573620231e-08,-1.3334170575220416e-07,-1.1259395738948007e-06,3.4448261906908845e-07,4.2299096127376385e-07,6.766113616001299e-07,-1.8659878007063e-07,2.0443078318859746e-07,-9.199193810762388e-07,-4.891752422437808e-07,-1.7454212805764889e-06,2.3404434313595936e-06,1.0387807946775485e-06,7.83833252948548e-07,1.1722621596684878e-06,3.4202629550689406e-07
2.2471147940183075e-06,-4.703711946294729e-07,-4.943420941319446e-08,-1.0315645553043515e-07,-1.0601941235683754e-06,3.439758484582915e-07,5.00651495790032e-07,6.947006797416495e-07,-1.2435437350842804e-07,8.689641324769104e-08,-8.885872911808902e-07,-5.319251066653397e-07,-1.719684638117431e-06,2.250057927573848e-06,9.378530490078897e-07,8.165263064443077e-07,1.0928505578415466e-06,3.0322679506520234e-07
2.2474578290088937e-06,-5.071934170713807e-07,-3.757832069386863e-08,-7.89986666279827e-08,-1.0099655036910736e-06,3.4253156350968253e-07,5.585655539803e-07,7.080449704508538e-07,-7.765859800519323e-08,7.86937198468165e-09,-8.697198019245037e-07,-5.923559509164458e-07,-1.6796795921828537e-06,2.1732467317801703e-06,8.354851251519654e-07,8.149439595544562e-07,1.0130542067016933e-06,2.8442726943111294e-07
2.2373514770412103e-06,-5.306807185306745e-07,-2.650191866236865e-08,-6.532739022470929e-08,-9.763857582366876e-07,3.3723887917509656e-07,5.696003891495665e-07,7.161698551524181e-07,-4.515252643890945e-08,-5.815515155354066e-08,-8.713925860863028e-07,-6.361767569476546e-07,-1.616241734068618e-06,2.09672626018033e-06,7.679978783677306e-07,7.727077794649822e-07,9.173336764601054e-07,2.757223676108112e-07
2.2092766103269715e-06,-5.4393010107346e-07,-1.6900038179105783e-08,-6.257163360430169e-08,-9.568782699899265e-07,3.228039199464158e-07,5.394486094778907e-07,7.202419193834502e-07,-4.841900295737459e-08,-7.121202433765766e-08,-8.801166643973216e-07,-6.560297361077903e-07,-1.519620715175383e-06,2.013498923516169e-06,7.183679503910168e-07,6.966721560909558e-07,8.35973473472228e-07,2.690734746288474e-07
2.1654644502471615e-06,-5.469413065660691e-07,-8.768176259471887e-09,-7.099272498745604e-08,-9.47634692501584e-07,2.916137859934924e-07,4.823555446852427e-07,7.199615134024226e-07,-7.743851964173435e-08,-7.148437237012664e-08,-8.800275574048983e-07,-6.505863084106457e-07,-1.384840594485344e-06,1.91854296686871e-06,6.751149390838212e-07,5.857440056443713e-07,8.159543333081025e-07,2.3711500136525984e-07
2.1178883229311805e-06,-5.396294214461084e-07,-1.6446246969192786e-09,-8.819127691233619e-08,-9.451767583195211e-07,2.4948447620437033e-07,4.022331081764116e-07,7.171735833177332e-07,-1.246606439734124e-07,-7.261976132754293e-08,-8.75613295835094e-07,-6.200386343260019e-07,-1.2171936834348557e-06,1.8111181359233586e-06,6.208778981775764e-07,4.5752796516305074e-07,8.257502401394325e-07,1.8200509274532484e-07
2.0795461726169313e-06,-5.270815438093779e-07,5.031306588045965e-09,-1.100068459163906e-07,-9.461520548698787e-07,1.992182930337565e-07,3.084890978142025e-07,7.138141049676377e-07,-1.846396422049876e-07,-7.634296530740977e-08,-8.881898927979894e-07,-6.243578286605509e-07,-1.0342252325219574e-06,1.735983043770489e-06,5.509106676218172e-07,3.138454455260877e-07,8.007232442389883e-07,1.0970108202821969e-07
2.060601307124156e-06,-5.140101259943381e-07,1.1200915519325513e-08,-1.400760609241783e-07,-9.484417288916484e-07,1.4447518790672573e-07,2.0117198840850684e-07,7.106637361622367e-07,-2.4652178416262823e-07,-7.453890528014818e-08,-8.97260087431146e-07,-6.439534954390305e-07,-8.627590941306601e-07,1.673099626243366e-06,4.423084221068593e-07,2.0382206050462109e-07,7.652693601956965e-07,2.5008685851867578e-08
2.0694961285114933e-06,-5.116393062604207e-07,1.6235979257143232e-08,-1.5849838906038173e-07,-9.501256304150429e-07,9.359190128933819e-08,8.271611293553822e-08,7.075432121123878e-07,-2.828577087042276e-07,-8.519041827909949e-08,-9.098509537251846e-07,-7.037782415272312e-07,-7.33063002569969e-07,1.6215065494816653e-06,3.290714427253538e-07,2.1228845248791067e-07,7.130855159405554e-07,-6.55453942615531e-08
2.0949655925257995e-06,-5.3480922382673e-07,1.9890346148404976e-08,-1.6395858519884283e-07,-9.46759966052586e-07,5.202496737129152e-08,-3.944265400260127e-08,7.040484575449863e-07,-2.784037115084403e-07,-1.2016758010531272e-07,-9.004167530627933e-07,-7.859176771402308e-07,-6.732008156073422e-07,1.5961590597519091e-06,2.0426319177345547e-07,3.3830342923411626e-07,6.101572334081151e-07,-1.6299208429605612e-07
2.1604536112901535e-06,-5.790232968251655e-07,2.3236832824556595e-08,-1.575692436545952e-07,-9.315539009652611e-07,2.6076176364061356e-08,-1.573505832113097e-07,7.011477096180136e-07,-2.2183918538029703e-07,-1.6282055507790805e-07,-8.692146523090475e-07,-8.766642658795573e-07,-7.041131360101341e-07,1.5929815914917565e-06,5.482231459891148e-08,5.061307100897305e-07,5.299443141414143e-07,-2.648635726058563e-07
2.3571220682044046e-06,-6.357460370249516e-07,2.905423025754519e-08,-1.337130774862678e-07,-8.926434081916487e-07,2.0548089490247117e-08,-2.632499069566739e-07,7.010311873442372e-07,-1.775410864210542e-07,-2.26115035311377e-07,-8.154471655086172e-07,-9.9012755741055e-07,-8.339383373154792e-07,1.6145965987532998e-06,-8.759530336025308e-08,5.548207049592091e-07,4.5222685601844234e-07,-3.5343331561493567e-07
2.6537791825101264e-06,-6.786483434752391e-07,4.094085450333622e-08,-1.0459359750677943e-07,-8.245388626973375e-07,3.736545024377469e-08,-3.5012795568433647e-07,7.061140829624537e-07,-1.601381043642425e-07,-3.083184046157126e-07,-7.33961431529655e-07,-1.095079416672098e-06,-1.0523892440686044e-06,1.646723919066534e-06,-2.1774792738384807e-07,7.637232650215565e-07,3.6089145844315e-07,-4.247208704869948e-07
2.9738829969021123e-06,-7.367642971701237e-07,6.371060260574465e-08,-6.371973053154395e-08,-7.248745466284524e-07,7.579796179233272e-08,-4.124832779062147e-07,7.192947840141764e-07,-1.4138012178572695e-07,-4.30173378908073e-07,-6.582563968065027e-07,-1.1857767024992521e-06,-1.3299225840085613e-06,1.6726394264290056e-06,-3.226764811783211e-07,1.0374542609421203e-06,2.438355947621298e-07,-4.940410493244494e-07
3.287605833937158e-06,-8.166451896732674e-07,1.0055225824728123e-07,-7.139074260291927e-09,-5.953746906251288e-07,1.3141997893711805e-07,-4.4798560798200985e-07,7.412029499552906e-07,-8.267135781349228e-08,-5.80203134627234e-07,-5.813880120647474e-07,-1.212947736951243e-06,-1.624599221741243e-06,1.6708088056940006e-06,-3.9377835560472343e-07,1.172532333447757e-06,1.5415369621026865e-07,-5.562876759668652e-07
3.555950503134948e-06,-8.935391710709569e-07,1.5195294006003172e-07,8.5222444753172e-08,-4.43860030317506e-07,1.9657762204247604e-07,-4.5823544693587956e-07,7.701826305020054e-07,1.6948414572299154e-09,-7.215114671538777e-07,-5.167517377779458e-07,-1.187192215181706e-06,-1.89288393634692e-06,1.641275658927854e-06,-4.143523249820292e-07,1.2915675023622147e-06,1.321354397015468e-07,-6.085951286253808e-07
3.7847765495562153e-06,-9.536185437873839e-07,2.1489877415755437e-07,1.7135173035472018e-07,-2.8065143932429254e-07,2.6322359414714626e-07,-4.4720973482318556e-07,8.032168097941101e-07,9.384551292805555e-08,-8.224186449012401e-07,-4.918125112812398e-07,-1.1605635758335398e-06,-2.098441712286933e-06,1.5826822060170857e-06,-4.1230753850391613e-07,1.3930894973583836e-06,1.5594114793312592e-07,-6.521263456155817e-07
3.969294615985288e-06,-9.779335369538056e-07,2.843719097015302e-07,2.4800344454397583e-07,-1.3573798819684048e-07,3.2548713585780225e-07,-4.1895070281814344e-07,8.399171244656677e-07,1.335899832259462e-07,-8.383227234149104e-07,-4.903217936182591e-07,-1.117138405365131e-06,-2.2167792290511507e-06,1.5059583328270833e-06,-4.041724979297957e-07,1.4225248616918872e-06,1.6242745326099695e-07,-6.86040240368794e-07
4.121411247011832e-06,-9.857916204681933e-07,3.541491608334664e-07,3.266358676994126e-07,-1.9265097379237074e-08,3.7947229242145077e-07,-3.7607220310295845e-07,8.79439646645985e-07,1.4874956096407559e-07,-8.614341010335908e-07,-4.065490138406661e-07,-1.1070846570990714e-06,-2.236944683999178e-06,1.4317447761429669e-06,-4.150713771850896e-07,1.420316667811501e-06,1.4571908250129902e-07,-7.111352519030156e-07
4.214523100766578e-06,-9.893380719544788e-07,4.1947360993779057e-07,4.019504519277627e-07,6.064954313815185e-08,4.247807223486719e-07,-3.194776934744071e-07,9.154223299914821e-07,1.2575694283617283e-07,-9.20949528763932e-07,-2.435554163694332e-07,-1.0847023484535925e-06,-2.161982113678749e-06,1.3739885686450193e-06,-4.4109461556931583e-07,1.372811282469855e-06,1.2300381761449687e-07,-7.331757799839719e-07
4.269439171760882e-06,-9.85049668862987e-07,4.821667952958843e-07,4.954621253531857e-07,9.762758438624981e-08,4.622983766163673e-07,-2.498828132723524e-07,9.225250214557688e-07,1.059731385158276e-07,-1.0040515680104032e-06,-2.2312458077124747e-08,-1.0388457357719688e-06,-2.008882063281776e-06,1.3484020871601855e-06,-4.573257396897615e-07,1.2325902622871254e-06,9.063230304329522e-08,-7.422693542089208e-07
4.289464214557969e-06,-9.605819126974628e-07,5.369724431558024e-07,5.954349529156513e-07,9.86585740457081e-08,4.914407531373752e-07,-1.708550813429012e-07,9.096600177080095e-07,9.330623947503301e-08,-1.0323596296975446e-06,2.2635079556576706e-07,-9.732172605786253e-07,-1.8068594393788363e-06,1.3583394443297615e-06,-4.4924334037989625e-07,1.0957132783632328e-06,1.3331255790604987e-07,-7.383959220353936e-07
4.261529635717064e-06,-9.31899702140083e-07,5.853575239340418e-07,6.9273745957023e-07,8.200977203520385e-08,5.101646966091629e-07,-9.043883148175894e-08,8.892421390130519e-07,5.517505178928059e-08,-1.0213926661826058e-06,4.070177049738786e-07,-9.187784587929463e-07,-1.5913406917247549e-06,1.3930509274733184e-06,-3.956921915217918e-07,8.997256979897087e-07,1.7392964981018727e-07,-7.255955152929787e-07
4.231142741004938e-06,-9.131124321752895e-07,6.127343801608589e-07,7.441939200830139e-07,5.5567558364249575e-08,5.167875979468042e-07,-1.899331329101695e-08,8.714152283900235e-07,7.8066660544118e-09,-9.807385153035688e-07,5.829665823614538e-07,-7.957234346270887e-07,-1.3936734491313249e-06,1.4366057768610057e-06,-3.4322503822118813e-07,8.495765821618546e-07,1.5784808406065736e-07,-7.115378552202828e-07
4.199488535640778e-06,-8.98183918010935e-07,5.990934687941181e-07,7.480562211420229e-07,3.712870194465589e-08,5.123014237294778e-07,3.45070531055562e-08,8.458767823248836e-07,-8.095619161743075e-08,-9.435407518707089e-07,6.63443034356829e-07,-7.303017366229691e-07,-1.2320854913502083e-06,1.4760857121945952e-06,-2.8726925898113045e-07,8.332341614066579e-07,1.0001856455211622e-07,-6.955839448960861e-07
4.151979156784482e-06,-8.845550415874381e-07,5.686129144410857e-07,7.291853747270544e-07,5.469939326593182e-08,5.000298714403433e-07,6.430350475306509e-08,8.217642178689762e-07,-1.7444189215153748e-07,-8.98980940547205e-07,7.481023303334706e-07,-6.545795380121934e-07,-1.109874097260732e-06,1.503441140315472e-06,-2.145119517336204e-07,7.208900076326687e-07,8.270588627023036e-08,-6.863364314330792e-07
4.100031708399652e-06,-8.842637781180881e-07,5.35264916588847e-07,7.090590659137789e-07,1.035771084358259e-07,4.841069229585587e-07,6.818081764568879e-08,7.997113360435752e-07,-2.59717644662626e-07,-8.997564028665633e-07,8.292787863685078e-07,-5.585021666537765e-07,-1.0203321993491322e-06,1.5187604127779825e-06,-8.363182098862545e-08,5.652992550694401e-07,5.994609490565964e-08,-6.784567173901554e-07
4.095182233965823e-06,-8.844130107278913e-07,5.036587784524721e-07,6.931891393722967e-07,1.5744277415853631e-07,4.681085178296932e-07,4.780215096180661e-08,7.700882922568455e-07,-3.4097347074351017e-07,-9.399666485693633e-07,8.812621485586075e-07,-4.920869614911964e-07,-9.52927397167599e-07,1.526664260987802e-06,9.979804425125763e-08,4.094065588563927e-07,3.19967941037165e-08,-6.666523149589494e-07
4.065907309631016e-06,-8.81134360321098e-07,4.828330865701955e-07,6.83108682308835e-07,2.4284834385091316e-07,4.539802131804501e-07,7.992148963782639e-09,7.349282530998997e-07,-3.956078541100822e-07,-9.963448863396895e-07,8.916621633942451e-07,-4.079481876573941e-07,-8.967772834096507e-07,1.5338902389025392e-06,3.0408641404768206e-07,2.8895473419706785e-07,-1.7208712424506542e-08,-6.526853180646754e-07
4.0030091927404634e-06,-8.69728060257691e-07,4.722044732660751e-07,6.702944104475015e-07,3.4258316535659656e-07,4.4016532418314423e-07,-4.5737760854238774e-08,6.920621053638971e-07,-4.374577716382229e-07,-1.0570462599715773e-06,8.860575789257163e-07,-3.6688076409136847e-07,-8.416461738777811e-07,1.541367120477716e-06,5.089920818118134e-07,2.548126630942331e-07,-1.0068348544456043e-07,-6.231614129390127e-07
3.929695113321543e-06,-8.44801406643831e-07,4.685214142170159e-07,6.697943357251337e-07,3.894916646455567e-07,4.215515711096731e-07,-1.0897911250152617e-07,6.390256039426462e-07,-4.810463087242708e-07,-1.1068405374289209e-06,9.085433066135265e-07,-3.286242457133003e-07,-7.788056423303627e-07,1.5485126304292013e-06,6.458603339337728e-07,2.0168126576984932e-07,-2.1159006738984097e-07,-5.891877093543096e-07
3.84237997572585e-06,-8.135008297272977e-07,4.609347457628967e-07,6.44323396449905e-07,3.117507179503957e-07,3.9275746996512507e-07,-1.7782463500611613e-07,5.782369960653481e-07,-5.302997915368492e-07,-1.1507510810983689e-06,9.071586844839167e-07,-3.2196374400586224e-07,-7.031894336057632e-07,1.5532530857121548e-06,6.892041887432895e-07,1.0180923578328891e-07,-3.089702410391152e-07,-5.615392352548384e-07
3.739151182777284e-06,-7.820894029838841e-07,4.4886309536600443e-07,5.950071153600156e-07,1.5377419595263763e-07,3.5053340849837526e-07,-2.478101920610103e-07,5.122901973453968e-07,-5.902185379173332e-07,-1.1985713075500785e-06,9.035599702222754e-07,-3.6284053226027375e-07,-6.159135156379174e-07,1.5523677352581349e-06,7.436073070198724e-07,-7.53496872350982e-08,-3.853259668768694e-07,-5.460672199799619e-07
3.6640938730954364e-06,-7.529673627859942e-07,4.340995735827369e-07,5.433862254863397e-07,-3.621748283339494e-08,2.9380656844687335e-07,-3.151200449529124e-07,4.4478802719376794e-07,-6.560162812465795e-07,-1.2488168494336604e-06,8.727333854890334e-07,-4.109943580882336e-07,-5.248226374224377e-07,1.5406727958558942e-06,8.174001652486674e-07,-2.9162544540427174e-07,-4.6552395665786953e-07,-5.460872854695242e-07
3.630234258371811e-06,-7.283775033159144e-07,4.149920663746422e-07,5.15425111998862e-07,-1.5294572065946818e-07,2.233818087907001e-07,-3.7739968973746957e-07,3.783347126848983e-07,-7.224376369922988e-07,-1.2955979903164825e-06,8.033183880842969e-07,-4.6180480607782394e-07,-4.4195524410314196e-07,1.508029731810844e-06,9.606670272751787e-07,-5.188932840457762e-07,-5.281544147263318e-07,-5.606821348726059e-07
3.5645228815876395e-06,-7.143046278530308e-07,3.9204854729410905e-07,5.090499504666856e-07,-1.77656507023288e-07,1.4215471971541785e-07,-4.3317181946265934e-07,3.147897955921785e-07,-7.858674046694258e-07,-1.3288505172637234e-06,7.324607550289226e-07,-5.172353440069094e-07,-3.797267807784473e-07,1.448495593059744e-06,9.955963570053957e-07,-7.549929276683774e-07,-5.789982174460322e-07,-5.835899152041074e-07
3.553090910163696e-06,-7.103277887014228e-07,3.6326585062859636e-07,4.798015374581114e-07,-1.6085453989316846e-07,5.586096023761245e-08,-4.812723996579952e-07,2.565887698546229e-07,-8.423509290058781e-07,-1.341391905231994e-06,6.665476046627205e-07,-5.675177953588296e-07,-3.486378633956053e-07,1.3606284400181743e-06,9.585658773858945e-07,-9.767751771510725e-07,-6.277520612785327e-07,-6.080266723921685e-07
3.5998177135648706e-06,-7.191360691073689e-07,3.281365848122752e-07,4.4027724543684203e-07,-1.7556679666124442e-07,-2.8593933300002175e-08,-5.215249223058757e-07,2.0580643992355818e-07,-8.891613355297078e-07,-1.3276864669911023e-06,6.30904571884326e-07,-6.159504200858443e-07,-3.56946677300649e-07,1.2471309826540082e-06,9.349336686033167e-07,-1.190038992426293e-06,-6.683931646110289e-07,-6.279812795728045e-07
3.6594343154772642e-06,-7.350880440245551e-07,2.8751614746145415e-07,3.9519239377824003e-07,-2.483497770560042e-07,-1.0578416502747548e-07,-5.558810309604968e-07,1.6322411567664504e-07,-9.261848784195044e-07,-1.2823213155464594e-06,5.842012867754659e-07,-6.487757848427604e-07,-4.101860295078393e-07,1.1138321560485403e-06,8.954017806962434e-07,-1.363580419730871e-06,-6.989361964051689e-07,-6.379672754283183e-07
3.7324504806631326e-06,-7.467087780528233e-07,2.4294320389439755e-07,3.530912634731747e-07,-3.074137845542069e-07,-1.729313829598249e-07,-5.882918050401198e-07,1.283633011259891e-07,-9.562389070055426e-07,-1.2235372034259817e-06,5.628814407138787e-07,-6.444546669460505e-07,-5.086795672091345e-07,9.684877905000562e-07,8.38542577467431e-07,-1.5217305854234628e-06,-7.145754821752647e-07,-6.326516346480053e-07
3.78662393255732e-06,-7.471500525100906e-07,1.9573281111042895e-07,3.239149670185534e-07,-3.284180400340551e-07,-2.3031299259694324e-07,-6.236297892109646e-07,9.977161031486802e-08,-9.842756572410223e-07,-1.1615861334569072e-06,5.246264746950781e-07,-6.089194645321388e-07,-6.440221282559083e-07,8.197744416317089e-07,8.315580215032107e-07,-1.6444942098926585e-06,-7.152108126975279e-07,-6.192098355636148e-07
3.793702368704932e-06,-7.339540357212982e-07,1.4641505079597894e-07,2.990039453222091e-07,-3.960233400035722e-07,-2.8253847822238265e-07,-6.658627018121131e-07,7.572411574738028e-08,-1.0155586942007726e-06,-1.1064885792227011e-06,4.851359171354369e-07,-5.514601378519055e-07,-7.984647147069076e-07,6.759512035432832e-07,8.460179803865519e-07,-1.747069650579398e-06,-7.010978103966891e-07,-5.965487168476391e-07
3.7540198987649897e-06,-7.127802194410631e-07,9.486712882113069e-08,2.6897522070222424e-07,-4.4259564374019285e-07,-3.335474244563382e-07,-7.159322992246481e-07,5.541796140892939e-08,-1.0530990469281559e-06,-1.07066300312453e-06,4.507747043905526e-07,-4.896667380468428e-07,-9.504826674209166e-07,5.44688719160137e-07,8.753943922960405e-07,-1.8515989045684366e-06,-6.77208312448e-07,-5.728663691930476e-07
3.6928718768226713e-06,-6.861348774038301e-07,4.0531801561345544e-08,2.3719363117667705e-07,-5.342889154062722e-07,-3.864741860115415e-07,-7.705970398243785e-07,3.8757626237546316e-08,-1.096186461870789e-06,-1.055548959022305e-06,3.956089123365069e-07,-4.357602108148891e-07,-1.0844480510481264e-06,4.29588034604282e-07,9.028848150509736e-07,-1.963595813138775e-06,-6.500884652022268e-07,-5.540139650136489e-07
3.6008244909880923e-06,-6.593995725404302e-07,-1.731610260009814e-08,2.359616473329874e-07,-7.025133535408499e-07,-4.42923355397182e-07,-8.235373317433445e-07,2.460830719182658e-08,-1.1412828361404753e-06,-1.0577580625454646e-06,3.3365556925201766e-07,-3.9515743698082404e-07,-1.1977411163406142e-06,3.287375312687712e-07,8.955587426924764e-07,-2.0888978507384997e-06,-6.262165154077332e-07,-5.41035848323672e-07
3.4977743026896516e-06,-6.314098385434955e-07,-7.929760926934955e-08,2.420815954101057e-07,-8.991096334141588e-07,-5.061254984032613e-07,-8.67428940985133e-07,1.0097907760919735e-08,-1.183843478751243e-06,-1.0682569522464954e-06,2.6293629057116447e-07,-3.672730660365179e-07,-1.3001277268719396e-06,2.594086753969193e-07,8.536754051457045e-07,-2.2388495246926147e-06,-6.273240910714005e-07,-5.449253045411083e-07
3.415718612108644e-06,-6.096397052405007e-07,-1.4447430096771998e-07,2.562193903135329e-07,-1.1168650184706467e-06,-5.781187222752346e-07,-8.944962969329291e-07,-7.823932801215449e-09,-1.2194392000511507e-06,-1.0856774104548601e-06,2.078033298500227e-07,-3.592233392720202e-07,-1.4059035693335602e-06,2.1095339302925654e-07,7.804896300355519e-07,-2.4052755025048494e-06,-6.472498174113614e-07,-5.617281989515537e-07
3.3254445194909227e-06,-5.997041871304292e-07,-2.09775113414566e-07,2.8372924730368596e-07,-1.3248463610203023e-06,-6.595991867583482e-07,-8.977615855710417e-07,-3.050654412458593e-08,-1.2444871770441572e-06,-1.1093065797695717e-06,1.5067548578630736e-07,-3.6778735526226525e-07,-1.5238127034856594e-06,1.739889504196901e-07,6.822131393890524e-07,-2.5612590874894075e-06,-7.287093273733674e-07,-5.895221886914786e-07
3.262228425076414e-06,-6.069393267051465e-07,-2.7011272758446985e-07,3.13789570493201e-07,-1.4969741425222645e-06,-7.46194734594957e-07,-8.732620765832593e-07,-5.676816591738937e-08,-1.2568760704574524e-06,-1.1409993087941152e-06,9.970822345218827e-08,-3.897943373896521e-07,-1.650406036402316e-06,1.4919593320900867e-07,5.693730384439815e-07,-2.6779578552415134e-06,-7.746717172078536e-07,-6.275639962318208e-07
3.2341712552211115e-06,-6.463368899574891e-07,-3.198802963914704e-07,3.420168573634023e-07,-1.6204719074506718e-06,-8.11567314648575e-07,-8.199689861757732e-07,-8.220151110758018e-08,-1.2559060482336958e-06,-1.1889751849879449e-06,4.854360031908792e-08,-4.2921229799236886e-07,-1.7698646488047955e-06,1.1526738199029454e-07,4.536590055373537e-07,-2.765146555852999e-06,-7.742086648924569e-07,-6.747353525873096e-07
3.227762872135635e-06,-6.479905997886378e-07,-3.5476104120462013e-07,3.649905143348252e-07,-1.7063416088596845e-06,-8.50957778168511e-07,-7.463135450210788e-07,-1.0020016026475665e-07,-1.2419536587149623e-06,-1.2550907802425255e-06,-1.2571044091834347e-08,-4.851316516463158e-07,-1.8595577248173825e-06,9.059911373503856e-08,3.489478589809175e-07,-2.8268452611158927e-06,-7.130496687894527e-07,-7.291516539268e-07
3.2827133084971176e-06,-6.528275501268552e-07,-3.724512105213951e-07,3.880462958932781e-07,-1.757395761338196e-06,-8.435208112365326e-07,-6.67686347623599e-07,-1.0454040175479967e-07,-1.2166389981052165e-06,-1.3364636176377604e-06,-7.472316527538181e-08,-5.541569670121545e-07,-1.898261171144285e-06,9.337722663241227e-08,2.682955347595951e-07,-2.864813986194952e-06,-6.553582197923436e-07,-7.87404209854936e-07
3.3772522153931226e-06,-6.900720335271861e-07,-3.7464981298345305e-07,3.696837255942161e-07,-1.787795639640223e-06,-7.85662143002332e-07,-6.026414639373414e-07,-9.099877249028461e-08,-1.182714371741579e-06,-1.4257395031809428e-06,-1.4091656573374277e-07,-6.331569476374951e-07,-1.8739025190076378e-06,1.3338757189054607e-07,2.2201667185665981e-07,-2.8934750889084557e-06,-6.019358534212048e-07,-8.443497279663127e-07
3.48908433903302e-06,-7.451337163958803e-07,-3.6586918846066215e-07,2.960444953474313e-07,-1.8234277414098688e-06,-7.865885983008849e-07,-6.030219755381103e-07,-5.730384240075973e-08,-1.143104345603467e-06,-1.5128552331957587e-06,-2.12517038126414e-07,-7.102517333129603e-07,-1.7886197521693538e-06,1.7652221748596804e-07,2.1512585455491616e-07,-2.9105021980718107e-06,-5.419967005584591e-07,-8.916208791996633e-07
3.5235795528818146e-06,-8.039542126606285e-07,-3.5177729213745456e-07,2.44347177647416e-07,-1.8672638156418975e-06,-8.141057830604491e-07,-6.463051105235005e-07,-3.2644230742179213e-09,-1.1002050741272812e-06,-1.5884543276284444e-06,-2.9005297644806346e-07,-7.836814320806995e-07,-1.6596835992214895e-06,2.3244179455377212e-07,2.438212874067277e-07,-2.9202134728326454e-06,-4.998264397751759e-07,-9.243376628666545e-07
3.4526482669790445e-06,-8.604902017348892e-07,-3.3882506415953163e-07,1.6861134663683853e-07,-1.93583961485011e-06,-7.74479116096749e-07,-6.941066101423185e-07,6.818147438808018e-08,-1.0557692084200083e-06,-1.6451001159991889e-06,-3.682301820684377e-07,-8.532622299788264e-07,-1.5159427418621085e-06,3.006217286341354e-07,2.9522409308588463e-07,-2.9165259010182347e-06,-4.009388667413986e-07,-9.415019599063191e-07
3.31382034077773e-06,-8.999526627871201e-07,-3.324093561691535e-07,3.4486654039461225e-08,-2.0268617998011213e-06,-6.876182582566438e-07,-7.423904982528084e-07,1.50881592169727e-07,-1.0104781602147689e-06,-1.6849891076959176e-06,-4.4491809079814495e-07,-9.267396379743942e-07,-1.3908980835151822e-06,3.6349249133997273e-07,3.5046854141080705e-07,-2.9087982637342414e-06,-2.982029734651268e-07,-9.425836110218848e-07
3.1912372202841295e-06,-9.23850225304081e-07,-3.358680388195807e-07,-1.222547246145776e-07,-2.1246776704158685e-06,-5.819650073386785e-07,-8.602074361951728e-07,2.3680782437850438e-07,-9.634101078289563e-07,-1.7171843486274414e-06,-5.179930585130116e-07,-1.0106985620269278e-06,-1.3138547921272836e-06,4.590580350732293e-07,3.91516020991696e-07,-2.888510395451335e-06,-2.2971233148281627e-07,-9.329929748870787e-07
3.100249673551513e-06,-9.414199528546645e-07,-3.477871938092404e-07,-2.597943999321078e-07,-2.2261198332784316e-06,-4.7257627656031325e-07,-9.873447244349483e-07,3.174854740100719e-07,-9.126859472869425e-07,-1.7531057895814673e-06,-5.792395123281956e-07,-1.1047646586255869e-06,-1.3007630310258232e-06,5.5549478236351e-07,4.0718965568436223e-07,-2.837473788251106e-06,-1.747259948777743e-07,-9.164863957855262e-07
3.0419130137175395e-06,-9.538676437866657e-07,-3.6497583205305565e-07,-3.6723300827864996e-07,-2.3157989853545993e-06,-4.1125147213107287e-07,-1.0769772084508159e-06,3.85155694724325e-07,-8.568812286632289e-07,-1.8030545763639287e-06,-6.255365550277776e-07,-1.2058993123910919e-06,-1.3483225050917039e-06,6.294803207587461e-07,3.9542809400921266e-07,-2.744319005943672e-06,-1.4240792993051556e-07,-8.972144429989842e-07
3.0157898480705507e-06,-9.697000010440024e-07,-3.8292048109707187e-07,-4.833046758987644e-07,-2.3632084002067502e-06,-3.5140875382607007e-07,-1.1307469621315825e-06,4.348077484540642e-07,-7.959601119891459e-07,-1.869294141463433e-06,-6.53295938805525e-07,-1.3067935062814604e-06,-1.43567936509036e-06,6.831265192669158e-07,3.6496469045317906e-07,-2.5985627186272013e-06,-1.7609377908161153e-07,-8.794571630912509e-07
3.031862024658063e-06,-9.854255248151087e-07,-3.995180877674884e-07,-5.501381103627876e-07,-2.379073259921189e-06,-3.191712181858355e-07,-1.1571647327942798e-06,4.6464661237755876e-07,-7.319153929224967e-07,-1.952271177388407e-06,-6.486783643985221e-07,-1.4118896998236049e-06,-1.5340528457176887e-06,7.432491282398366e-07,3.290116626887103e-07,-2.4050110060075693e-06,-2.3444018809142095e-07,-8.638707380526313e-07
3.0634282631590566e-06,-9.890838235364453e-07,-4.124377985416438e-07,-5.86948381616819e-07,-2.378876792139363e-06,-3.180052102251193e-07,-1.1637765427526868e-06,4.754492045299971e-07,-6.691706512343342e-07,-2.0383263635097195e-06,-6.243446154490294e-07,-1.5044170774875428e-06,-1.6193027761529557e-06,8.059862378491746e-07,3.0043696030531016e-07,-2.1838977869984437e-06,-2.548228878888062e-07,-8.544814919586684e-07
3.1014786706334297e-06,-9.769873693313974e-07,-4.22011099938722e-07,-6.16637704728527e-07,-2.3719945826882074e-06,-3.65022628048404e-07,-1.1645231843699216e-06,4.702212217898786e-07,-6.137475623772409e-07,-2.115745564057846e-06,-6.027353524248146e-07,-1.5937154978007099e-06,-1.681027890236902e-06,8.664458233541032e-07,2.888748784146883e-07,-2.0170029968000398e-06,-2.0667251422116229e-07,-8.540711627015343e-07
3.1292168379029825e-06,-9.598429363933045e-07,-4.3054147631521494e-07,-6.302185843839539e-07,-2.371866195559605e-06,-4.140206889619684e-07,-1.1730649664864972e-06,4.543585391118864e-07,-5.713631813787837e-07,-2.1785065277589327e-06,-6.012311926207042e-07,-1.6503678501257763e-06,-1.724463274651904e-06,9.220816963646636e-07,2.98469101821604e-07,-1.9893606777286367e-06,-1.460677043801446e-07,-8.642460476813438e-07
3.1110685216093244e-06,-9.175020766110029e-07,-4.3798431498234025e-07,-6.533062597137427e-07,-2.3829057846949222e-06,-4.5903961249649544e-07,-1.1987407583604863e-06,4.348119434991463e-07,-5.460315946588004e-07,-2.1695522563304703e-06,-6.33570779682769e-07,-1.6307502692630808e-06,-1.7652846710594709e-06,9.242537662280917e-07,3.288980037789933e-07,-2.0346917839505075e-06,-1.1210682157143722e-07,-8.855630867978472e-07
3.0620468043120986e-06,-8.826907000552035e-07,-4.4752058419135133e-07,-6.817582819703967e-07,-2.40646422399452e-06,-4.998714592418377e-07,-1.2450584791005786e-06,4.188214896770389e-07,-5.395587321192524e-07,-2.132193708537294e-06,-7.105540389303996e-07,-1.548788561666566e-06,-1.8201241009093084e-06,8.839255857967141e-07,3.745123139825488e-07,-2.1201313889406603e-06,-8.747872773959677e-08,-9.175252054819096e-07
2.971712402003885e-06,-8.649313916329221e-07,-4.6478398637376326e-07,-7.033431027051771e-07,-2.441852724985493e-06,-5.269646133668746e-07,-1.3086827800663134e-06,4.127023699975257e-07,-5.515464164363181e-07,-2.0761591081701664e-06,-8.309470114812883e-07,-1.4717882512425147e-06,-1.896702891599987e-06,8.21779047412316e-07,4.2884132224334325e-07,-2.1170274626523565e-06,-7.089404804522422e-08,-9.58760271096016e-07
2.848356468749418e-06,-8.501714981048712e-07,-4.887549695986811e-07,-7.224009188041087e-07,-2.4866919382657515e-06,-5.383329549434366e-07,-1.3807070863363096e-06,4.198687400834372e-07,-5.795384060201511e-07,-2.007597102490769e-06,-9.867580104881376e-07,-1.4088589030417433e-06,-1.986426581801521e-06,7.384226655869322e-07,4.864786622036235e-07,-2.200027794235616e-06,-4.316386317519604e-08,-1.0072984638184053e-06
2.7146068380617282e-06,-8.492481684522812e-07,-5.169696980274188e-07,-7.341028775201308e-07,-2.529885243116489e-06,-5.35087036093758e-07,-1.4503338539754599e-06,4.392451979179423e-07,-6.201257272380699e-07,-1.8986824641706685e-06,-1.1452426945660792e-06,-1.3686050869454424e-06,-2.06099075803075e-06,6.442651528782407e-07,5.468877705225528e-07,-2.3566479051645243e-06,-8.23271982974395e-09,-1.0613224474748684e-06
2.5718944049779685e-06,-8.30484157642342e-07,-5.474445101186483e-07,-7.360249455093467e-07,-2.563199910759585e-06,-5.278896556275277e-07,-1.50823016625261e-06,4.655356322548361e-07,-6.694707762264729e-07,-1.8021420538910944e-06,-1.2810750058879863e-06,-1.3592685432387328e-06,-2.0902513057712226e-06,5.601292571425784e-07,6.128660794641333e-07,-2.5463890173217884e-06,8.898905552704356e-09,-1.1174448703608267e-06
2.4944949965314734e-06,-7.891991077203123e-07,-5.77274370820582e-07,-7.522889700851621e-07,-2.579447840452673e-06,-5.250146411376845e-07,-1.5489798179291438e-06,4.91346375011168e-07,-7.231800654017864e-07,-1.7385645523131402e-06,-1.3858105490271173e-06,-1.3900029500394778e-06,-2.046951383276029e-06,5.558991857692689e-07,6.913158137868554e-07,-2.5996767970931832e-06,2.0035508875336603e-08,-1.1718100582958987e-06
2.4896269496462824e-06,-7.328454060307481e-07,-6.097662704175673e-07,-7.734336062618424e-07,-2.5723389326198097e-06,-5.338210816015043e-07,-1.572133956266342e-06,5.089576573084267e-07,-7.769744882247503e-07,-1.7024134261039616e-06,-1.4058729210892774e-06,-1.440945070349691e-06,-1.906442841401343e-06,6.170712528895649e-07,7.90261889497263e-07,-2.622825524372908e-06,3.602980676119415e-08,-1.2210369956048053e-06
2.634135369871185e-06,-7.027026809401251e-07,-6.378726051717964e-07,-7.917474587338018e-07,-2.5325301558766055e-06,-5.570239268926063e-07,-1.5828563732289947e-06,5.112780948412632e-07,-8.279704930285424e-07,-1.6930508487742e-06,-1.303650544306335e-06,-1.5014275081530614e-06,-1.6644893908529994e-06,7.30540194585611e-07,9.145707365941294e-07,-2.5826114033735627e-06,6.628469841407344e-08,-1.2627730377478506e-06
2.7069828149283183e-06,-6.833523284946831e-07,-6.638753910416085e-07,-8.15061775492473e-07,-2.4618959913443693e-06,-5.99002908522878e-07,-1.590080975333601e-06,4.932426331501615e-07,-8.755232754800542e-07,-1.70582936788567e-06,-1.1970247617972607e-06,-1.5660915732231576e-06,-1.3311531044020493e-06,8.130860488761752e-07,1.0642776096059082e-06,-2.530518125556183e-06,1.1796684031881244e-07,-1.296436254152298e-06
2.6574027987954312e-06,-6.809469643093405e-07,-6.809610699669717e-07,-8.500761558279122e-07,-2.3715832984128134e-06,-6.621636100244271e-07,-1.6030235702019067e-06,4.533908360605314e-07,-9.212108526619984e-07,-1.735638236022986e-06,-1.1343700538256909e-06,-1.621357123468e-06,-9.451285874725659e-07,8.486877835564298e-07,1.2337488296618683e-06,-2.406972240639274e-06,1.2845376828761856e-07,-1.3232890234656307e-06
2.6190819745402716e-06,-6.89747516989656e-07,-6.469289717081292e-07,-8.815165792626283e-07,-2.2768621100123567e-06,-7.419774441059488e-07,-1.6291025043146198e-06,3.9401251980650247e-07,-9.68573923736351e-07,-1.7754585668614901e-06,-1.0500870500063156e-06,-1.6645024825849095e-06,-5.697620782256843e-07,9.225539605290026e-07,1.4091807025439496e-06,-2.1409997392156473e-06,1.3713395853628975e-07,-1.3466321802907142e-06
2.600636083257364e-06,-6.835627624078531e-07,-5.63786458561615e-07,-9.024272094085701e-07,-2.1886247611247383e-06,-8.281361990616457e-07,-1.6711225367522643e-06,3.2065932000796696e-07,-1.021971313368078e-06,-1.8210837033424926e-06,-9.620174906717196e-07,-1.708835070986961e-06,-3.045902234961194e-07,9.818310181914321e-07,1.5710926449481461e-06,-1.8657940929572414e-06,1.3555559130676209e-07,-1.370989354030584e-06
2.636609229679108e-06,-6.71382605486953e-07,-4.626414372069325e-07,-9.252212010298299e-07,-2.1126840400068777e-06,-9.061396840922361e-07,-1.7254189712155743e-06,2.419330580823745e-07,-1.084199650279443e-06,-1.8676071716654126e-06,-9.29468340697972e-07,-1.7195466225217373e-06,-2.7639450583810224e-07,1.1694374459109284e-06,1.7036780760315903e-06,-1.7185019292341329e-06,1.27599186927917e-07,-1.400102795472973e-06
2.7010846171069547e-06,-6.433065099232804e-07,-3.5571958595453793e-07,-8.975051656889938e-07,-2.0464244134542527e-06,-9.072133058890606e-07,-1.781561496227807e-06,1.684221802414313e-07,-1.1542755248994514e-06,-1.910779923145414e-06,-8.857250645277406e-07,-1.7075956139387188e-06,-3.4897059605789547e-07,1.3647768560117479e-06,1.7954012298240154e-06,-1.535394828242346e-06,1.117365202046434e-07,-1.4352911714665242e-06
2.8280475522478943e-06,-6.371649054170766e-07,-2.6584700659194776e-07,-8.164520786161685e-07,-1.994772878061093e-06,-8.737650567314738e-07,-1.824735977166392e-06,1.0977326236755005e-07,-1.2270926457930854e-06,-1.9503988651180184e-06,-8.001018171513545e-07,-1.686368232416733e-06,-4.0479305271261784e-07,1.5461096177577965e-06,1.84211632706475e-06,-1.401628116381581e-06,8.542304152196068e-08,-1.4750831119255837e-06
3.019359295814031e-06,-6.56694481013583e-07,-1.9556351860095933e-07,-7.310785208122952e-07,-1.9465216131933813e-06,-8.80508044089687e-07,-1.8413599225471807e-06,7.167506877117431e-08,-1.2947873491168938e-06,-1.9871593307092832e-06,-7.449810919508754e-07,-1.6724718921558445e-06,-3.819837528832952e-07,1.7433136322036913e-06,1.8471004707411607e-06,-1.268233648286013e-06,1.128796005152071e-07,-1.5156788106327778e-06
3.1834794333771964e-06,-6.863135900284531e-07,-1.3947730006193068e-07,-6.426955972488176e-07,-1.886807504955578e-06,-8.65158567945686e-07,-1.8245153929088926e-06,5.467969639584763e-08,-1.348730366581407e-06,-2.021547405456787e-06,-6.595716662593282e-07,-1.653255859319641e-06,-5.470135970643462e-07,1.8764980961314142e-06,1.8251552630685497e-06,-1.094509542313782e-06,1.6550940425494695e-07,-1.551961942076456e-06
3.3348932325485733e-06,-7.298607909344364e-07,-9.9603820471917e-08,-5.674122766281068e-07,-1.8044493464771367e-06,-8.230535474766343e-07,-1.7758068822093029e-06,5.474430599578069e-08,-1.3819688992496825e-06,-2.055476882934528e-06,-5.752506142171122e-07,-1.6344047570691719e-06,-8.306365193525479e-07,1.9905218777073474e-06,1.7967505275905447e-06,-9.189184181430356e-07,2.316180619899499e-07,-1.5792538835178403e-06
3.4646824744715363e-06,-7.723217089529649e-07,-7.339208669828398e-08,-5.038681869527788e-07,-1.706455233574627e-06,-7.939802294916288e-07,-1.7050885039466837e-06,6.42337018320967e-08,-1.3915290004196505e-06,-2.0890633182230053e-06,-4.986316638776576e-07,-1.6226758783086428e-06,-1.0655218179756264e-06,2.1092852599874992e-06,1.7816349017762745e-06,-7.274814290245056e-07,2.4333668983404196e-07,-1.5948669898383828e-06
3.5567026706359315e-06,-8.150587011881493e-07,-5.439743935272433e-08,-4.583566610692798e-07,-1.5807394220766815e-06,-7.989228313924349e-07,-1.6250278906598156e-06,7.379855153218752e-08,-1.3795250534004107e-06,-2.1224504959988247e-06,-3.62988162151588e-07,-1.619243477517785e-06,-1.2894288640683903e-06,2.221629603401974e-06,1.7943157388144368e-06,-5.139791747578149e-07,1.9583844396031754e-07,-1.5981629654316129e-06
3.6508727918170723e-06,-8.547408154166626e-07,-3.389245113001889e-08,-4.441422790942384e-07,-1.4234053141450394e-06,-8.383323667202395e-07,-1.5472099011681538e-06,7.482824704466144e-08,-1.3520841194104864e-06,-2.1586789891522225e-06,-2.000673074569371e-07,-1.620949198831088e-06,-1.4702351004347909e-06,2.3191492971862176e-06,1.8443011177043966e-06,-2.8095373558001823e-07,1.5975873647406278e-07,-1.5900412162209596e-06
3.744209381111797e-06,-8.804196515269723e-07,-1.213637318850697e-08,-4.153291438271073e-07,-1.2417356504594847e-06,-9.13835078042176e-07,-1.480806133293063e-06,6.08306310853169e-08,-1.3181172220271217e-06,-2.199495440665873e-06,-4.437925358326474e-08,-1.6246654120885058e-06,-1.5262741994169319e-06,2.4411724731154786e-06,1.9222024418430276e-06,-6.790195268309661e-08,1.423649322806726e-07,-1.5726020795501992e-06
3.792230597052147e-06,-9.006538435653794e-07,1.261752672064813e-08,-3.767590191439445e-07,-1.0715623956746212e-06,-1.00872639625534e-06,-1.4283492472477698e-06,2.7797364726236696e-08,-1.2879771135420478e-06,-2.248243077292531e-06,1.0176401346836372e-07,-1.632940028020244e-06,-1.510635956338616e-06,2.5359082727665035e-06,2.0072189221405218e-06,8.032776333811037e-08,8.949387068503448e-08,-1.5497600213952405e-06
3.8100879557283693e-06,-9.192158894970447e-07,4.7825715535494434e-08,-3.4595925876043507e-07,-1.0115385604517605e-06,-1.0886136408258224e-06,-1.3964067862876517e-06,-2.5326015683797654e-08,-1.2711338420160658e-06,-2.308279707292201e-06,2.360068902167364e-07,-1.6500057119221389e-06,-1.4567503132439631e-06,2.568989668688154e-06,2.075303842866233e-06,2.682247284625907e-08,5.6348254547934064e-08,-1.5266599414167582e-06
3.827233599542061e-06,-9.419969314042967e-07,8.144553118223127e-08,-3.234555133539767e-07,-1.056583844302029e-06,-1.1399254281679677e-06,-1.3899650373199937e-06,-9.67586382663171e-08,-1.2740696933044794e-06,-2.379450471128685e-06,3.1723725630385544e-07,-1.6801281342432789e-06,-1.4014059460189232e-06,2.5400434043282885e-06,2.059917552529117e-06,-1.2941109124536658e-07,1.8156858462195872e-08,-1.508754298742076e-06
3.825273599905194e-06,-9.690637111338002e-07,1.0409377289973428e-07,-3.1029341818405673e-07,-1.1286607312939082e-06,-1.1761640919216239e-06,-1.4110294167264024e-06,-1.8317496789557943e-07,-1.2994558050699464e-06,-2.4593234323195734e-06,3.5566033599034716e-07,-1.7270932872853534e-06,-1.3858877568915462e-06,2.440414780339623e-06,1.9911589546997043e-06,-2.4750459794361473e-07,-1.6745145156752267e-08,-1.5016202426201856e-06
3.81924241944129e-06,-9.988406713159457e-07,1.0967649152871372e-07,-3.084838178703478e-07,-1.1571481519129975e-06,-1.2556435816758858e-06,-1.4605345228589858e-06,-2.8077653594163814e-07,-1.3462663747228405e-06,-2.5442455758715693e-06,3.599308238509715e-07,-1.7918811091570167e-06,-1.4065539594838694e-06,2.4919429802717738e-06,1.9327508939423487e-06,-1.9094242319301815e-07,-7.185559396503727e-08,-1.5090943283877664e-06
3.805376075999532e-06,-1.023332009348529e-06,8.83797672281685e-08,-3.2005967742896545e-07,-1.1697204069826244e-06,-1.3834200980072193e-06,-1.5347423670827915e-06,-3.849767033432761e-07,-1.4100356677666306e-06,-2.6291096438924804e-06,3.371490199178709e-07,-1.8713633747580385e-06,-1.451454782987105e-06,2.582014609019873e-06,1.84488296692106e-06,-1.1520406470015966e-08,-1.4551088061593867e-07,-1.5319645779707748e-06
3.7659457316473193e-06,-1.0418957437133003e-06,4.5306367464556626e-08,-3.4106335470850945e-07,-1.16710417474319e-06,-1.5347753433992476e-06,-1.626169852424519e-06,-4.901585386769082e-07,-1.4838195326897214e-06,-2.709180288983977e-06,3.0466610917970864e-07,-1.96052362793894e-06,-1.5092130973078264e-06,2.5852621453868296e-06,1.698897618930178e-06,6.625472260537485e-08,-2.3090516554475982e-07,-1.5680038622440343e-06
3.710334757219852e-06,-1.0584951810555917e-06,-1.2313231870994454e-08,-3.7017780642666064e-07,-1.3099734772167693e-06,-1.697294612312851e-06,-1.7253412252844855e-06,-5.902618818609781e-07,-1.559680665292282e-06,-2.781458216973099e-06,2.5113128689846945e-07,-2.0527309850095015e-06,-1.5689074069504805e-06,2.4909657540085013e-06,1.5307923322750665e-06,-6.679420262059476e-08,-3.040203864255301e-07,-1.6128291605828376e-06
3.656357178313855e-06,-1.0700439927306166e-06,-7.849835173196206e-08,-4.0077364996204796e-07,-1.5343645844138674e-06,-1.8328720006722023e-06,-1.8265389436781339e-06,-6.796463311882976e-07,-1.6300192901034938e-06,-2.8440652040892993e-06,1.9079167184986945e-07,-2.1396207752249253e-06,-1.6216272688396893e-06,2.366946986574845e-06,1.3916334449745859e-06,-2.448578109945822e-07,-3.775438041388942e-07,-1.6610141882405985e-06
3.583424160682172e-06,-1.0815294038963762e-06,-1.452857181101671e-07,-4.3931631013849894e-07,-1.7401740904069124e-06,-1.939475580831314e-06,-1.9232398186785897e-06,-7.543762558287043e-07,-1.688442170528929e-06,-2.896790867196165e-06,1.319815070347725e-07,-2.215543635429734e-06,-1.6633781838358104e-06,2.240031090282882e-06,1.300730549742407e-06,-3.9019466601281615e-07,-4.516547037062053e-07,-1.7072438339438685e-06
3.506376517870568e-06,-1.093460197975594e-06,-2.083733372424286e-07,-4.798717626726008e-07,-1.920711168271324e-06,-2.041049048187901e-06,-2.008430498644861e-06,-8.127342803866527e-07,-1.7319504207280227e-06,-2.940636658248251e-06,9.065585302060226e-08,-2.2742002235057907e-06,-1.6954041113804369e-06,2.1559567979616976e-06,1.2503911345606066e-06,-5.170718814589443e-07,-5.127306730772465e-07,-1.7471873267033117e-06
3.4406375851142978e-06,-1.104966451293779e-06,-2.6423883712776296e-07,-4.990871825018601e-07,-2.0576852848714476e-06,-2.1316099275075127e-06,-2.077672917398053e-06,-8.568017109124681e-07,-1.7606017378100705e-06,-2.9768641852652245e-06,7.453894005409682e-08,-2.3110882419004513e-06,-1.7206705356032004e-06,2.077689511310778e-06,1.227512859052779e-06,-4.990987539159777e-07,-5.629860744509339e-07,-1.7776868742091097e-06
3.379367377933437e-06,-1.109161863010815e-06,-3.111012118447865e-07,-4.992714170330883e-07,-2.142303006776994e-06,-2.1903618244893807e-06,-2.1190937408273165e-06,-8.903731723474459e-07,-1.7758706285671042e-06,-3.006892436650521e-06,7.99686947237127e-08,-2.3235508222582428e-06,-1.7463216719585788e-06,2.0043643960970647e-06,1.2226228825341864e-06,-4.4619743084469456e-07,-5.905152019417336e-07,-1.7963564456322795e-06
3.361817291035644e-06,-1.1095290387314399e-06,-3.4933470822607383e-07,-4.901786606448206e-07,-2.196711302042512e-06,-2.22477322027261e-06,-2.1332776634428266e-06,-9.170426466295299e-07,-1.7809227220502314e-06,-3.031150383089545e-06,1.0071174464255706e-07,-2.311429381121766e-06,-1.7784822766260601e-06,1.92158116985137e-06,1.21155428078573e-06,-3.9496373471365033e-07,-6.212950304650183e-07,-1.8016176264087582e-06
3.376710037227878e-06,-1.1089738095670941e-06,-3.775066257523613e-07,-4.798057402177272e-07,-2.234890348860996e-06,-2.23806621016116e-06,-2.1245596444032153e-06,-9.392872344150926e-07,-1.7770538218305713e-06,-3.0488262190921625e-06,1.309142185754925e-07,-2.2792764943407584e-06,-1.8188611780039388e-06,1.8143079322823488e-06,1.1769572678639433e-06,-3.37773900377659e-07,-6.661132766502851e-07,-1.7932646533101204e-06
3.402977600733028e-06,-1.1076326860854825e-06,-4.0021552161346136e-07,-4.6902581911543724e-07,-2.213488619043098e-06,-2.2338229286820117e-06,-2.0946316036029263e-06,-9.581334048762935e-07,-1.7642176101798023e-06,-3.0583609578258355e-06,1.72770186487972e-07,-2.231024020415853e-06,-1.8633890373893588e-06,1.7376504590316971e-06,1.1369185681762136e-06,-2.753251395616094e-07,-7.191590834110643e-07,-1.7714142790610642e-06
3.4417640017922392e-06,-1.1076677224802884e-06,-4.1480218625223426e-07,-4.616749641004244e-07,-2.177573932781947e-06,-2.2188734425704374e-06,-2.0528489129180423e-06,-9.732729523758635e-07,-1.7417674155943067e-06,-3.056648199896807e-06,2.18875588272561e-07,-2.1689314558502466e-06,-1.900923218551163e-06,1.6848187874863973e-06,1.1469599384685847e-06,-2.0988738136646908e-07,-7.51243360434262e-07,-1.7359865360947583e-06
3.5061374101013362e-06,-1.105855659755108e-06,-4.257467364741934e-07,-4.7210936487458103e-07,-2.1348365910777235e-06,-2.1887234807359187e-06,-1.9995129536950705e-06,-9.803351919269696e-07,-1.7085214320310968e-06,-3.042923255742426e-06,2.60605126522892e-07,-2.0861077439306606e-06,-1.913767597004327e-06,1.648527387189129e-06,1.1645629974202731e-06,-1.6007584325706793e-07,-7.526581473309257e-07,-1.6871384016264613e-06
3.57231455406531e-06,-1.0935610631101421e-06,-4.2910655605283157e-07,-5.0936401619995e-07,-2.0786896347982764e-06,-2.1369362975604547e-06,-1.9217814518907497e-06,-9.860659378315623e-07,-1.665633068181766e-06,-3.016003363484224e-06,2.8901802585063026e-07,-1.979102993573315e-06,-1.8803504273377217e-06,1.637982326271301e-06,1.2359642275174493e-06,-1.3357953561838187e-07,-7.129494338214363e-07,-1.6249554067265344e-06
3.5130828882024824e-06,-1.052848463233092e-06,-4.575364146848303e-07,-6.241435834251241e-07,-2.0367990937657836e-06,-2.0930976541217314e-06,-1.8497212805696838e-06,-9.91856083605268e-07,-1.6163198146781473e-06,-2.975342794149278e-06,2.9348861302019074e-07,-1.851626806348531e-06,-1.780917259163098e-06,1.658946553218638e-06,1.3389363364127578e-06,-1.520716412257735e-07,-6.378105047333394e-07,-1.5496774692016865e-06
3.2686552562502284e-06,-1.0043358493447172e-06,-5.186388180092409e-07,-7.572514792250207e-07,-1.9854873113169213e-06,-2.0939061895989796e-06,-1.8464762147037716e-06,-9.965847659585084e-07,-1.5638578099300484e-06,-2.9227214494240554e-06,2.688001673649262e-07,-1.7564470812891777e-06,-1.6033644648671212e-06,1.7118342073783556e-06,1.3014791804749286e-06,-1.8219134381141528e-07,-5.82921597751102e-07,-1.4628094014884239e-06
3.0530582067644373e-06,-9.834691998717893e-07,-6.031241086470055e-07,-8.479683779380847e-07,-1.9200633404355274e-06,-2.130421828108786e-06,-1.9151496059439068e-06,-1.0084681523822071e-06,-1.5117625408561133e-06,-2.8618445984901086e-06,2.0821198391305867e-07,-1.7091647785323213e-06,-1.3503167578045116e-06,1.7938614908011574e-06,1.2276778826894953e-06,-2.1556232795724848e-07,-5.370348034951721e-07,-1.3681008719567097e-06
2.646379970265349e-06,-9.873348307521788e-07,-6.870062843061635e-07,-1.0203595942919521e-06,-1.84180307463746e-06,-2.200242943000781e-06,-2.02208277330255e-06,-1.0134858353770433e-06,-1.463473706223793e-06,-2.7987087424508813e-06,1.2102720695883504e-07,-1.7073400400674417e-06,-1.037041576890392e-06,1.8928685003960593e-06,1.3165455056868332e-06,-2.4568908452851906e-07,-4.97466828349139e-07,-1.2707462251676514e-06
2.1446330132994456e-06,-9.729158798401454e-07,-7.467725995412659e-07,-1.170037991099817e-06,-1.7528182261364238e-06,-2.2834301572232047e-06,-2.1223392652311066e-06,-1.0080509239142957e-06,-1.419813805597049e-06,-2.7391061313831516e-06,2.474120171813519e-08,-1.7143609652511514e-06,-7.041291455613419e-07,1.9809017899282583e-06,1.4458264169075963e-06,-2.50063581165254e-07,-4.511619557565301e-07,-1.176095626633182e-06
1.7742537321763215e-06,-9.213292285654129e-07,-7.800520055146386e-07,-1.2421758007124945e-06,-1.6428683589249758e-06,-2.3320089183813895e-06,-2.1778026450215895e-06,-9.93020481100891e-07,-1.3821787266000248e-06,-2.6864368715063388e-06,-6.431708675121616e-08,-1.7143834100945715e-06,-3.9313943316174697e-07,2.047608330024636e-06,1.5258823014661876e-06,-2.120087228858671e-07,-4.1329740169666175e-07,-1.0894337774658428e-06
1.6165790972024176e-06,-8.397699768573322e-07,-8.103041405906147e-07,-1.268424908547659e-06,-1.5159262686156165e-06,-2.354762528430742e-06,-2.2099303119357844e-06,-9.624304751455082e-07,-1.352777714588922e-06,-2.639879361299898e-06,-1.2643276712745213e-07,-1.7101913286377278e-06,-1.4501413337955124e-07,2.084849631329206e-06,1.5503407466205842e-06,-1.449608363332233e-07,-3.697350607807254e-07,-1.0149526659104636e-06
1.6022044431001293e-06,-7.711217951670028e-07,-8.199261713056321e-07,-1.2808522570640416e-06,-1.394274566861958e-06,-2.378935786370673e-06,-2.233745584104392e-06,-9.298106385992552e-07,-1.332094465481113e-06,-2.597362064319587e-06,-1.4513958471737477e-07,-1.6740819898210138e-06,-3.650840450156218e-08,2.08701021644339e-06,1.5141719013545429e-06,-7.793876804586149e-08,-3.27624992927111e-07,-9.562169643756167e-07
1.7025653235734677e-06,-7.371501707725576e-07,-8.02524642121511e-07,-1.2975825129849765e-06,-1.2915242586733469e-06,-2.387566529399985e-06,-2.2494870903977876e-06,-9.009407399663734e-07,-1.3207538786940994e-06,-2.5531941994137877e-06,-1.1647958347757064e-07,-1.6115576869532742e-06,-2.727536106327635e-08,2.0547846358557037e-06,1.457674357548662e-06,-4.1166212043524326e-08,-2.826507739093242e-07,-9.161147960254657e-07
1.736019071431124e-06,-7.150342159667236e-07,-7.437106702169298e-07,-1.3226681186963191e-06,-1.3080175751941932e-06,-2.3748869366385764e-06,-2.2847380513114057e-06,-8.786271317081314e-07,-1.3186863783579173e-06,-2.504019589551437e-06,-4.591871407510458e-08,-1.4925925645302062e-06,-3.3916368986677217e-08,1.9914241093101866e-06,1.4175833454699513e-06,-1.730902712247991e-07,-2.3689759691470114e-07,-8.970544042116914e-07
1.7072082920513685e-06,-6.994481265787855e-07,-6.653404659933521e-07,-1.3243255880542057e-06,-1.3856657866031098e-06,-2.342388420354689e-06,-2.3364996591528887e-06,-8.689883256640091e-07,-1.3239352555369217e-06,-2.4513903100838492e-06,5.368532406626564e-08,-1.3259274030537492e-06,-1.4669509945732592e-07,1.9031526038790296e-06,1.4290551480452639e-06,-3.5993112528955353e-07,-2.1541294639983241e-07,-8.978928830995292e-07
1.7804801358824692e-06,-6.901104238463852e-07,-6.020104947296993e-07,-1.2879878613263437e-06,-1.469687244985365e-06,-2.325485369224578e-06,-2.3963753021757983e-06,-8.742587871791246e-07,-1.3355324646275e-06,-2.389030118595734e-06,1.6082436066823114e-07,-1.2037139976603146e-06,-3.728204094795009e-07,1.7964916941603033e-06,1.4877332239701173e-06,-5.627605997330638e-07,-2.598746095750953e-07,-9.154004467269958e-07
1.8508941368255345e-06,-7.124011947905718e-07,-5.532647395799861e-07,-1.208547628756203e-06,-1.5073049451702392e-06,-2.317595207035148e-06,-2.4610965580763465e-06,-8.929498516644424e-07,-1.3516247873773794e-06,-2.3279071336427605e-06,2.5555311246915185e-07,-1.1221350380969673e-06,-5.854139319063995e-07,1.678155587958678e-06,1.5024446595189476e-06,-7.183191159629016e-07,-3.4188459044260686e-07,-9.42839567690299e-07
2.037869494371382e-06,-7.482015912010768e-07,-5.300428726766244e-07,-1.1493995589168973e-06,-1.6843518746753223e-06,-2.3243248586074858e-06,-2.5307665703242964e-06,-9.222258999135525e-07,-1.371643382820188e-06,-2.273618874390815e-06,3.237480800999595e-07,-1.1088501312834243e-06,-7.517649945969199e-07,1.5564373422543392e-06,1.4820285738104076e-06,-1.060318872410962e-06,-3.703216052675237e-07,-9.72231702950832e-07
2.1489225581478362e-06,-7.721072403399997e-07,-5.258622505007781e-07,-1.1077784657157548e-06,-1.9074540644824337e-06,-2.352024601984736e-06,-2.601733683707688e-06,-9.583326075601973e-07,-1.402300753139402e-06,-2.2265923091287024e-06,3.6171935915571503e-07,-1.1825644278279998e-06,-8.731165200943376e-07,1.4330830418487116e-06,1.4119228621914488e-06,-1.4100585928246768e-06,-3.603019498850324e-07,-9.991274287381798e-07
2.163002438514302e-06,-7.93843241568952e-07,-5.468518132230278e-07,-1.0795528433524791e-06,-2.077902657162597e-06,-2.402450447798198e-06,-2.6710148623300877e-06,-9.971086172235087e-07,-1.4409127387023194e-06,-2.191421690225578e-06,3.68999811621844e-07,-1.2790679765501873e-06,-9.374812935524648e-07,1.3151199595683062e-06,1.3797963942480904e-06,-1.644077639159359e-06,-3.1644295232765543e-07,-1.0242673602719084e-06
2.1469299172916196e-06,-7.908067296689282e-07,-5.79152973948083e-07,-1.0909983475544962e-06,-2.2048145061777727e-06,-2.476047726167169e-06,-2.7305116639249473e-06,-1.0334122029259907e-06,-1.4796690179889293e-06,-2.1697571554411827e-06,3.5244281312512666e-07,-1.3429636185244316e-06,-9.522672198832376e-07,1.211297992031399e-06,1.3884741722904646e-06,-1.7233784631645825e-06,-2.8297337565671985e-07,-1.0493959650901935e-06
2.0767931552988176e-06,-7.711958310347941e-07,-6.141025368618014e-07,-1.1366825126058138e-06,-2.292351717088584e-06,-2.56111345470748e-06,-2.7679712834767933e-06,-1.067918003882167e-06,-1.518218334774653e-06,-2.166642334244085e-06,3.170154850131907e-07,-1.3875176744092717e-06,-9.343021971772031e-07,1.1209172435868542e-06,1.3848084911432543e-06,-1.675208767397677e-06,-3.577448523799297e-07,-1.0772419599946326e-06
2.006176922080704e-06,-7.550476274326927e-07,-6.503588514999193e-07,-1.2067857740929715e-06,-2.3308859636046113e-06,-2.656202594102968e-06,-2.7810955388185956e-06,-1.1007715921431244e-06,-1.5541582661995926e-06,-2.1861632048125675e-06,2.650515322027771e-07,-1.4533697284027483e-06,-9.0634361740639e-07,1.047010142909192e-06,1.3609561229367852e-06,-1.5682799960890062e-06,-5.05716693245972e-07,-1.113341013246508e-06
1.9468163331866924e-06,-7.460487377805997e-07,-6.867022448830689e-07,-1.268754550644328e-06,-2.354596413061526e-06,-2.7541250243745963e-06,-2.7734204052209953e-06,-1.1238637126109581e-06,-1.5834443782516749e-06,-2.2371229623327546e-06,2.0017531871345696e-07,-1.5541891619619394e-06,-8.893402045659522e-07,1.0014614998276167e-06,1.3201966347520466e-06,-1.5571880085419044e-06,-6.5236521895935e-07,-1.1607429369006873e-06
1.8830915635973435e-06,-7.535926485271052e-07,-7.217706432773733e-07,-1.293607120697453e-06,-2.3448164909866476e-06,-2.8443178417550526e-06,-2.7423118082204137e-06,-1.1355027489452708e-06,-1.6023966936916073e-06,-2.322118045391629e-06,1.3288114208024877e-07,-1.6682769919233814e-06,-8.838107980688213e-07,9.704957739599415e-07,1.2501383915917507e-06,-1.5486713380077386e-06,-7.254872923597552e-07,-1.2212204994611616e-06
1.8005556496603093e-06,-7.65273717505423e-07,-7.299861045328669e-07,-1.2563585782310954e-06,-2.3048190256428974e-06,-2.878297370829063e-06,-2.6842373001488574e-06,-1.1346409372622823e-06,-1.607558696832415e-06,-2.4309431125618518e-06,6.357628266166482e-08,-1.8263031341170006e-06,-8.983542318698e-07,9.491548847666698e-07,1.1779762919245958e-06,-1.4979165826885257e-06,-7.76476909070871e-07,-1.2960022994385858e-06
1.8221471292072919e-06,-7.728235134736886e-07,-7.265148944722396e-07,-1.1955394511438583e-06,-2.2133495897927227e-06,-2.849217862388977e-06,-2.608882791483287e-06,-1.1188000893104698e-06,-1.5874477988555518e-06,-2.5485075469504623e-06,1.6320661873800928e-08,-2.0139735066302352e-06,-9.331813966102372e-07,9.364742706344991e-07,1.0667514991710139e-06,-1.4710242305506985e-06,-7.994037118849502e-07,-1.3822895568230665e-06
1.9441230137631205e-06,-7.698311330599701e-07,-6.712429442145634e-07,-1.1216609928356814e-06,-2.068702528652508e-06,-2.820675206380209e-06,-2.500217695782114e-06,-1.085677601752468e-06,-1.555037079190097e-06,-2.6388002019570564e-06,5.359012277054477e-09,-2.1609670831958423e-06,-9.77474561924466e-07,9.250488598780588e-07,9.217929693154277e-07,-1.364172257555481e-06,-7.852303839445708e-07,-1.4725463280430303e-06
2.0958747350840753e-06,-7.727295087034741e-07,-5.612713216915127e-07,-1.0708436540604154e-06,-1.9103988953541096e-06,-2.798504070296792e-06,-2.3761198519854226e-06,-1.042576079514227e-06,-1.5256886994834469e-06,-2.65571408273002e-06,-7.771699842497819e-09,-2.2748189867485957e-06,-1.0334832648011009e-06,9.126780649408679e-07,8.296705609088981e-07,-1.1285061565190431e-06,-7.505049212236582e-07,-1.5580723646716311e-06
2.2400587480978304e-06,-7.859430023745508e-07,-4.6791554149741533e-07,-1.015578537443895e-06,-1.7431447919538678e-06,-2.794074017523479e-06,-2.2475491612131707e-06,-9.869827840025583e-07,-1.5006167720334374e-06,-2.6150259416285843e-06,4.399041949909955e-08,-2.354513166779939e-06,-1.0824936854782673e-06,8.949464498773395e-07,8.014038442073115e-07,-8.419573808979772e-07,-7.210454277252696e-07,-1.6322257696271417e-06
2.300058300674833e-06,-7.879413162793567e-07,-3.545781602560278e-07,-9.300663332956894e-07,-1.5755988957963593e-06,-2.7833424153992226e-06,-2.1172775287433322e-06,-9.240218804399751e-07,-1.4729687420400871e-06,-2.5538155129537133e-06,9.932423675963194e-08,-2.379825189648116e-06,-1.1120675450183288e-06,8.675833103138419e-07,8.020303343862536e-07,-5.741718558484442e-07,-6.970644556605793e-07,-1.6905639050081825e-06
2.3426852232611952e-06,-7.763834910560606e-07,-2.693600497092597e-07,-8.023901852156557e-07,-1.4210391728026662e-06,-2.7115164021517656e-06,-1.972748243902984e-06,-8.598674716805705e-07,-1.442376849482577e-06,-2.5044666395964053e-06,7.756291640856216e-08,-2.391869241605652e-06,-1.125163575703688e-06,8.258967702749097e-07,8.359307240818639e-07,-4.4926764510564103e-07,-6.733134588468947e-07,-1.7209058866127499e-06
2.301176889342782e-06,-7.476115296406416e-07,-2.1957252246130054e-07,-6.92005158348643e-07,-1.2831770284049804e-06,-2.5951684643865224e-06,-1.8417408147549076e-06,-8.09018339606074e-07,-1.425504689378171e-06,-2.3606620953151457e-06,1.1622775579017855e-07,-2.3889481999727023e-06,-1.125594648845395e-06,7.707654102024878e-07,8.970243400993978e-07,-4.7573167456331415e-07,-6.598482920298821e-07,-1.7250268797493431e-06
2.1311788619698225e-06,-6.997744470051898e-07,-2.1647865900189158e-07,-6.358655868094056e-07,-1.1514864967426089e-06,-2.5288171014413646e-06,-1.723285528187925e-06,-8.139466087425868e-07,-1.4279494860699023e-06,-2.1991899434592097e-06,1.4396289575190383e-07,-2.3646083404113242e-06,-1.1220447049988763e-06,6.920562658378818e-07,9.712211749842557e-07,-5.271527735706079e-07,-6.255472858178039e-07,-1.7122333798595167e-06
2.0622753084274704e-06,-6.613159488140364e-07,-2.63031963023155e-07,-6.197271580178422e-07,-1.0954706539924597e-06,-2.4721616303225084e-06,-1.6872950688038675e-06,-7.985898652516242e-07,-1.4786237127909828e-06,-2.0736942178997995e-06,-5.377443084708378e-09,-2.3411613921813454e-06,-1.1174535823041012e-06,6.183453161980483e-07,1.044939357029382e-06,-4.6201188059068984e-07,-5.401125549771486e-07,-1.6865327082316374e-06
2.022368106971433e-06,-6.486411644030375e-07,-2.977020606191547e-07,-6.226439673339664e-07,-1.1263001220976518e-06,-2.4296540709040085e-06,-1.7143241330614103e-06,-8.141512367997398e-07,-1.5615073616290138e-06,-1.9727061670384276e-06,-1.2056071886369332e-07,-2.3053675899788957e-06,-1.105549261532299e-06,5.478378213435182e-07,1.1324696954350203e-06,-3.3483883811965825e-07,-4.828703820814438e-07,-1.6547993697679444e-06
1.9985720137061576e-06,-6.414149517177379e-07,-3.259321297987764e-07,-6.006169344169573e-07,-1.2038731728105463e-06,-2.453287998045312e-06,-1.7323262337137715e-06,-8.766585105822643e-07,-1.6237908581389027e-06,-1.8928753880516904e-06,-1.8460711558579907e-07,-2.2645704568717725e-06,-1.0686497803836953e-06,4.668489778590746e-07,1.1506600072095904e-06,-2.4655771438413127e-07,-4.2615544105209743e-07,-1.6248456280155814e-06
1.984815582902969e-06,-6.276570185479631e-07,-3.2678592358883153e-07,-5.882908484596922e-07,-1.2619723060943166e-06,-2.4606209993434103e-06,-1.7428529450884279e-06,-9.445846326605454e-07,-1.6647090105527294e-06,-1.7876951594470726e-06,-2.3860951012652344e-07,-2.230146253258338e-06,-9.964415765189582e-07,4.274398969488149e-07,1.1526892627087129e-06,-1.233466886565129e-07,-3.738352958589519e-07,-1.608587636298271e-06
1.9754770067527503e-06,-6.064815700249673e-07,-2.816578081638638e-07,-5.561900115934456e-07,-1.2267808218981809e-06,-2.432572535118162e-06,-1.7302165479258072e-06,-9.783921460648828e-07,-1.6941820997971814e-06,-1.6270192737985231e-06,-2.6651627745589227e-07,-2.197688676360984e-06,-8.754055336393531e-07,4.3386563434936594e-07,1.2360231865641628e-06,-1.5439325967512715e-07,-3.5564908057411394e-07,-1.5827962389228935e-06
1.998865191555206e-06,-5.899615710006518e-07,-2.7983625713938305e-07,-5.218240920401397e-07,-1.0847095264711227e-06,-2.386005096528798e-06,-1.665494911296046e-06,-9.746620833164574e-07,-1.693782961934709e-06,-1.538567883429293e-06,-2.348616876486058e-07,-2.171489555759923e-06,-7.025073646630324e-07,5.048191777116439e-07,1.2759086995071907e-06,-5.986956209242015e-08,-3.160860901786328e-07,-1.55099827578623e-06
2.051394083290042e-06,-5.807808591511496e-07,-2.756618944215444e-07,-5.319920491495948e-07,-9.587920983590881e-07,-2.316399781510228e-06,-1.6524920318669758e-06,-9.59995281005472e-07,-1.7057353438915645e-06,-1.4678794907132342e-06,-2.44233303962816e-07,-2.1433950804588297e-06,-5.281453636921563e-07,6.355966149030388e-07,1.3159030786471303e-06,1.6830326964415706e-07,-2.3475195618456182e-07,-1.5009719589427418e-06
1.9869347566600244e-06,-5.727198747928558e-07,-2.634720284487371e-07,-5.457270558230676e-07,-8.560713777975337e-07,-2.240831319540051e-06,-1.7148806796188103e-06,-9.438530115666677e-07,-1.7595893937591635e-06,-1.4285547228031512e-06,-2.5050224893019266e-07,-2.0988539768378827e-06,-3.86855901397046e-07,7.804832048738322e-07,1.3040379157611967e-06,3.4692317322037426e-07,-1.767411670314827e-07,-1.441698097113926e-06
1.910163004061816e-06,-5.506124104699996e-07,-2.532146965402775e-07,-5.378525451350356e-07,-7.502694721824795e-07,-2.170841015665717e-06,-1.7212838850197298e-06,-9.289160043220763e-07,-1.8208020286649858e-06,-1.4310984353806332e-06,-2.4025945141514104e-07,-2.043467427819794e-06,-3.2660721076723384e-07,8.437449480639649e-07,1.2689322940505159e-06,4.5527681067390297e-07,-1.0130385674368807e-07,-1.3972427922162447e-06
1.9056014615081835e-06,-5.438470679400451e-07,-2.566769255089305e-07,-4.879657159423131e-07,-6.663087187962615e-07,-2.1046527594842655e-06,-1.6296592818883758e-06,-9.235018361507311e-07,-1.8178757364630543e-06,-1.4202231684841362e-06,-1.9190153947646454e-07,-1.963065539697925e-06,-3.3256387478146956e-07,8.268111566729986e-07,1.261462104305421e-06,5.73626530079215e-07,-8.290341809982238e-08,-1.3724077171692202e-06
2.0433012415896634e-06,-5.348643540955848e-07,-2.466155654850513e-07,-3.990693399933658e-07,-6.405491745341895e-07,-2.049069632547345e-06,-1.5655624722400264e-06,-9.263137300831464e-07,-1.7933281769372436e-06,-1.343718023214651e-06,-1.600599390836893e-07,-1.8653539399750398e-06,-3.2759688382880974e-07,8.388507911333168e-07,1.268989459561176e-06,6.831515280775231e-07,-7.245732325048308e-08,-1.3611648666122469e-06
2.1489296297606713e-06,-5.354506051372357e-07,-1.8198885896453414e-07,-2.6849585387135507e-07,-5.822203757475619e-07,-2.004848601223589e-06,-1.4465821559220168e-06,-9.388270552996347e-07,-1.7584461696489827e-06,-1.241983197160923e-06,-1.1205619847840493e-07,-1.7620824931551971e-06,-3.0693682284642333e-07,8.733992125855901e-07,1.2659001490177596e-06,8.141060994209579e-07,-9.799153087420188e-08,-1.3110818661009957e-06
2.1745736178489826e-06,-5.368346105038323e-07,-1.3686545236278612e-07,-1.847190276806233e-07,-5.474983991495882e-07,-1.9748199929517608e-06,-1.3233074806940915e-06,-9.597288031468443e-07,-1.7112368280507072e-06,-1.1655535640289393e-06,-7.25968534358448e-08,-1.6811579953892289e-06,-2.471474528510411e-07,9.194196552576649e-07,1.2582394404181158e-06,9.53595381537668e-07,-1.0314747673145567e-07,-1.2508534842264958e-06
2.240516795622125e-06,-5.421206641423893e-07,-1.023848545317293e-07,-1.3474985237373323e-07,-5.343373462129039e-07,-1.9596010216321335e-06,-1.2471080605731414e-06,-9.84875422149898e-07,-1.6623299562988582e-06,-1.1659394741477623e-06,-1.670553169423904e-08,-1.6463067845666645e-06,-1.1898707285066307e-07,9.24796736488558e-07,1.2884367628272422e-06,1.0893114588215942e-06,-7.642856657213784e-08,-1.2301985080474296e-06
2.2723727433715366e-06,-5.455494697467837e-07,-7.68565595288991e-08,-9.407550747833598e-08,-5.213508723861321e-07,-1.9592671441604283e-06,-1.1711243739027666e-06,-9.927161425792064e-07,-1.626976588757757e-06,-1.1219818209288848e-06,1.6109313552357437e-08,-1.6844740095470488e-06,7.140287704658408e-08,8.953669148600825e-07,1.2680010772183585e-06,1.1869878806293327e-06,-4.960006617607091e-08,-1.2284724744658436e-06
2.319832745497004e-06,-5.458073719062004e-07,-6.419565193100833e-08,-4.361611947402073e-08,-4.973473195455755e-07,-1.942648377346273e-06,-1.1306813069962164e-06,-9.788356661311557e-07,-1.5989255193233307e-06,-1.0739798062019263e-06,5.513559858459183e-08,-1.7364493942265451e-06,3.3609108913372683e-07,8.365625050945312e-07,1.2383159857531763e-06,1.2973729558068936e-06,5.431437158249062e-09,-1.2365781536803502e-06
2.379707092933299e-06,-5.467935224274405e-07,-4.828805319336544e-08,1.8245270026185695e-08,-4.188672046228398e-07,-1.8991524151447982e-06,-1.060532509349578e-06,-9.180367203147322e-07,-1.5794637490268355e-06,-1.0591142280840042e-06,7.096788552780816e-08,-1.771028216578039e-06,6.378330127003592e-07,7.672834245483493e-07,1.2013588305250395e-06,1.387903551995307e-06,1.720275055487092e-08,-1.2484621157129691e-06
2.4541634001254925e-06,-5.461689268110717e-07,-3.2460623242602886e-08,6.449323277807789e-08,-3.374099626064674e-07,-1.8259576275316975e-06,-9.90854220726796e-07,-8.107434689244961e-07,-1.5495971410478189e-06,-1.0355546236553394e-06,1.3704558779126716e-07,-1.8112838682214786e-06,9.645621194231156e-07,7.567545784478125e-07,1.1951281816457e-06,1.4084604573739152e-06,-1.322427614489942e-08,-1.2516161158118029e-06
2.5035983051058615e-06,-5.468008001076063e-07,-1.5005503383182372e-08,9.600211583470174e-08,-3.2428868731202635e-07,-1.7345442629171617e-06,-9.247799553154838e-07,-7.296031305005309e-07,-1.4969172206218052e-06,-1.0300029957793064e-06,1.688874447531878e-07,-1.8228074302699615e-06,1.247459648065921e-06,8.395319083941494e-07,1.1918391412335973e-06,1.4876362968950406e-06,-5.8348959489908344e-08,-1.2295533000763211e-06
2.5738970604015647e-06,-5.455493205114198e-07,2.4630700485977028e-08,1.4468275425673096e-07,-3.134373717336906e-07,-1.6372565523194931e-06,-8.3816545455417e-07,-6.81297837556139e-07,-1.4432089894940213e-06,-9.913418085890944e-07,2.1669660670109335e-07,-1.8022294054779956e-06,1.4520338450252635e-06,9.801377397625168e-07,1.196140295743167e-06,1.530613207240927e-06,-1.1740860211334648e-07,-1.1879656270581736e-06
2.624738643112421e-06,-5.494129759462663e-07,7.813557849207202e-08,2.3692328429572592e-07,-4.1151542665662846e-07,-1.5362143218863801e-06,-7.438050465588947e-07,-6.174465421078724e-07,-1.3888428126125929e-06,-9.538127762188848e-07,2.489945637910384e-07,-1.8461241991646638e-06,1.4705028079123863e-06,1.1270552014234813e-06,1.2228199198596174e-06,1.5939440803123823e-06,-1.5601235202098298e-07,-1.177525337084216e-06
2.67124833922423e-06,-5.456966771449266e-07,1.2602387056110826e-07,3.1173811200340395e-07,-4.7637886700033045e-07,-1.4212159074398016e-06,-6.404940210933917e-07,-5.322701616568062e-07,-1.3088158291849511e-06,-9.873337711579366e-07,2.6289619444993915e-07,-1.9353281564064945e-06,1.2495625288676198e-06,1.2387403753626238e-06,1.2438364564292345e-06,1.7007669847424807e-06,-1.9851978264938052e-07,-1.2074873923982907e-06
2.76573545171233e-06,-5.511482335818944e-07,1.4101526437919542e-07,3.3748995100074896e-07,-4.644361418324651e-07,-1.3299333476130974e-06,-5.495556373797834e-07,-4.686579494214223e-07,-1.217623484455779e-06,-9.951974787360017e-07,2.2820179399272456e-07,-1.999097764948978e-06,1.1118826471335055e-06,1.1561444005283348e-06,1.2410919732877812e-06,1.6127097637540734e-06,-2.3556668709974833e-07,-1.2159769741705846e-06
2.8568470541680947e-06,-5.509210181096365e-07,1.5338616629464395e-07,3.0991964528095876e-07,-4.87317418903719e-07,-1.2656313471420272e-06,-5.512962017677362e-07,-4.529787260045125e-07,-1.1513925385607889e-06,-1.0741330943889846e-06,2.0447185896051344e-07,-2.0395056575360293e-06,1.0984916680527585e-06,1.0231212961301218e-06,1.2116226448970667e-06,1.53647905539645e-06,-2.7733243382025855e-07,-1.2040619158144883e-06
2.9263251894122425e-06,-5.519497453980432e-07,1.7304449323464571e-07,2.920861995437979e-07,-5.580868512665979e-07,-1.2321925238668854e-06,-5.611419712117486e-07,-4.229468504635602e-07,-1.09885788409244e-06,-1.1526723198477015e-06,2.2390121098500914e-07,-2.1287733866660687e-06,1.1006614652993406e-06,9.544335559845619e-07,1.2109031543368037e-06,1.5367994534347014e-06,-2.942640265071495e-07,-1.1870737371904507e-06
3.004068567617517e-06,-5.538287645024325e-07,1.7169818475686212e-07,2.6892065251509036e-07,-5.968609870821758e-07,-1.2215915783148176e-06,-5.525167295090165e-07,-3.905504574432626e-07,-1.0590388546786018e-06,-1.1941947202070397e-06,2.229211051882927e-07,-2.124965439069682e-06,1.2087798271553032e-06,8.766513748036134e-07,1.2409789029210092e-06,1.5976108150394833e-06,-2.981997191165051e-07,-1.167459587173819e-06
3.1585310945458215e-06,-5.517267692958724e-07,1.8845361661621764e-07,2.562580039108063e-07,-5.552296956739583e-07,-1.2159008348697878e-06,-5.569857812828949e-07,-3.8306690372213486e-07,-1.0461024569323184e-06,-1.2168247765481163e-06,1.4933040601795537e-07,-2.1007911400191467e-06,1.2076679810485014e-06,8.242912317676638e-07,1.1883083620123071e-06,1.7023577435489685e-06,-3.1191927892511533e-07,-1.1961340064376344e-06
3.2496294070601498e-06,-5.629504169083321e-07,2.0310540694030502e-07,2.7812175318472773e-07,-5.0279574728915e-07,-1.2166276907605924e-06,-5.277083180579137e-07,-4.033037093936476e-07,-1.033732997048884e-06,-1.20894695260172e-06,-2.1363510664737376e-08,-2.063268360056993e-06,1.101567134804323e-06,7.682280363205729e-07,1.1831394793488417e-06,1.6813428563896414e-06,-3.1966381340422043e-07,-1.1683267377615974e-06
3.3322807121291418e-06,-5.726891821225939e-07,2.0446801027731717e-07,2.87781968279831e-07,-4.6087574513873945e-07,-1.217754390137448e-06,-5.150589681729559e-07,-4.514264450133332e-07,-9.954998270726034e-07,-1.1665531651280714e-06,-1.1747002822918377e-07,-2.031426399222215e-06,1.0081262373154585e-06,6.670349249826055e-07,1.1510128879465317e-06,1.5975481768102868e-06,-3.6451205721436823e-07,-1.1122932343948833e-06
3.4010624658310546e-06,-5.797849641788274e-07,2.313031899128041e-07,2.845018867257195e-07,-4.069544500056872e-07,-1.2286752320091926e-06,-4.6428843440766205e-07,-5.022188797017971e-07,-1.0089845539359428e-06,-1.1179803604203209e-06,-1.9886971290622916e-07,-2.0403849145597457e-06,1.007587147203742e-06,6.3430814702557e-07,1.0904364723566218e-06,1.4630329352669585e-06,-3.9779160140765605e-07,-1.0990336010401983e-06
3.4284698862160126e-06,-5.905258479722451e-07,2.1926421979152547e-07,2.847399087353837e-07,-3.648616300862299e-07,-1.2472254825915403e-06,-4.668206346680474e-07,-5.306303861845971e-07,-9.933936997726294e-07,-1.1472794053570406e-06,-1.8378999213979967e-07,-1.99862446946554e-06,8.746144019869906e-07,6.51062300417297e-07,1.0110238743440027e-06,1.3590212558572369e-06,-3.8270466436988884e-07,-1.0456464109030775e-06
3.4041315968784494e-06,-5.982335252318986e-07,2.0866596541805322e-07,2.8327194297116417e-07,-3.480789732677003e-07,-1.279233833200695e-06,-5.650825172119396e-07,-5.492803773289488e-07,-9.48948329922858e-07,-1.2054198984661768e-06,-5.2585821897614e-08,-1.8594335160650157e-06,7.210623485809638e-07,6.200162852556972e-07,9.238603099770246e-07,1.2909012160763464e-06,-3.77229833555444e-07,-1.008762163505368e-06
3.2319876943174414e-06,-6.065607796926814e-07,2.0179683390123132e-07,2.876175738539663e-07,-3.333033200225851e-07,-1.3374328431644454e-06,-5.864403211853495e-07,-5.357025873628516e-07,-9.427721150543897e-07,-1.2556152203110068e-06,7.246533769326225e-08,-1.7857927176152696e-06,7.11892296543714e-07,6.373070002503167e-07,9.319725554497398e-07,1.1191415084378654e-06,-3.7504244776608183e-07,-9.801517706328483e-07
3.1160365784275384e-06,-6.139679958766134e-07,1.938846790358939e-07,2.664615173203443e-07,-3.3875562618565926e-07,-1.4187554468064878e-06,-5.929265474182721e-07,-5.355544987014662e-07,-9.50349635889834e-07,-1.3909360476189514e-06,3.853932879534125e-08,-1.7436755580880753e-06,7.155288991157336e-07,6.967689747906905e-07,8.0560737075192e-07,9.574914218069885e-07,-3.9624276626838475e-07,-9.322784540531216e-07
3.113733737799939e-06,-6.203906326084843e-07,1.6414321126294443e-07,1.655670038960616e-07,-3.486904141773222e-07,-1.5105195310237002e-06,-6.154430220716368e-07,-5.658805727736915e-07,-9.373770153736745e-07,-1.4979967037073217e-06,-1.385812146936363e-07,-1.6525852195379586e-06,6.233228431925056e-07,7.287672907189492e-07,6.4846199499527e-07,7.870946363927054e-07,-4.5698879457390075e-07,-8.964390799149972e-07
3.130115631814624e-06,-6.259016986067323e-07,1.065151734675428e-07,7.254895659434282e-08,-3.1109140949241534e-07,-1.6043541891800404e-06,-6.613085124133398e-07,-6.306395056083139e-07,-9.067907947788246e-07,-1.5364058158112416e-06,-2.510745791961855e-07,-1.5904938966311536e-06,4.2601013636283477e-07,7.429052429134211e-07,5.876896171382666e-07,6.572084588700641e-07,-4.864286602525533e-07,-8.441783014633029e-07
3.19292863696306e-06,-6.332649199370674e-07,7.522683968323084e-08,-4.817785067457623e-09,-3.956535374642166e-07,-1.6911180786657276e-06,-8.149769789465804e-07,-6.939180411167598e-07,-9.039078105948869e-07,-1.5608982796750928e-06,-3.4806549584571743e-07,-1.4756383809929414e-06,1.775464174781261e-07,7.21576412693958e-07,4.821923223289065e-07,6.148331234695253e-07,-4.87990908476498e-07,-7.92498014719447e-07
3.191434623293348e-06,-6.306876038261541e-07,8.362747374191818e-08,-5.8000419644492653e-08,-4.826451617743659e-07,-1.7171967504022703e-06,-9.589889599305088e-07,-7.203924615481223e-07,-9.628918797413906e-07,-1.5650831657731146e-06,-4.236275717375819e-07,-1.3128069427056305e-06,-7.3639399191279e-08,6.926029741626248e-07,3.9596697945295793e-07,4.839587679010695e-07,-5.093424225890881e-07,-7.67688815167053e-07
3.1191881061232666e-06,-6.16642185601838e-07,9.963786803511016e-08,-4.983836064146187e-08,-5.020964040047562e-07,-1.6826250298861856e-06,-1.0438983954063023e-06,-6.786399048233173e-07,-1.0375668118445401e-06,-1.4954226054167735e-06,-4.7538799154245503e-07,-1.1533919328514424e-06,-2.1689942071487315e-07,6.172097635669055e-07,2.62248603686421e-07,3.187406918722432e-07,-5.179500010016961e-07,-7.249807717738017e-07
3.0618722571837125e-06,-6.050939917630863e-07,1.0998388436320904e-07,-6.090677374346022e-08,-5.034801370787435e-07,-1.6686301270330624e-06,-1.118891149381789e-06,-6.119277084654522e-07,-1.0868577282472153e-06,-1.4349700083793885e-06,-6.621052766571305e-07,-1.01323778547421e-06,-1.8515563533997768e-07,6.246959026295376e-07,1.288669878000136e-07,1.26887946780104e-07,-5.175201451068334e-07,-6.751468633044026e-07
3.0370887983050495e-06,-6.064026464310631e-07,1.1137009475119667e-07,-1.0896805360143027e-07,-4.649591651737993e-07,-1.6495264896498931e-06,-1.186527593013759e-06,-5.679631445138318e-07,-1.1371768879225163e-06,-1.416324894930749e-06,-7.814898564691913e-07,-8.4719361852557e-07,-1.0779647869642782e-07,5.435517341553038e-07,3.0438970055325104e-08,-4.0136108633670275e-08,-5.271413432296803e-07,-6.313758014749339e-07
2.949520072843817e-06,-6.014627803410831e-07,8.192843482422614e-08,-1.6300312759196012e-07,-4.822377785610059e-07,-1.5807859733518778e-06,-1.2637320511247677e-06,-5.375686733841517e-07,-1.211185476610885e-06,-1.4037545381689255e-06,-8.055638319291468e-07,-7.190215760978248e-07,1.4098972552900268e-07,4.482423080953826e-07,-8.793237206207866e-08,-1.5795642564612575e-07,-5.336949972400193e-07,-5.858115612236968e-07
2.8594489040019817e-06,-5.945499829758262e-07,2.809511107450766e-08,-2.637808767935753e-07,-5.337093808652082e-07,-1.4665209421047244e-06,-1.3807635108138608e-06,-5.151221363212478e-07,-1.3085111940963877e-06,-1.365057103237235e-06,-8.225957202250382e-07,-6.105452744322245e-07,4.2846710872688166e-07,3.794534068444315e-07,-2.270093301160076e-07,-1.5742490350312708e-07,-5.365037069871532e-07,-5.414725656984821e-07
2.7448266343277046e-06,-5.800444408836921e-07,-1.9343818454569647e-09,-3.6713473596943546e-07,-5.865982383434535e-07,-1.350811910261197e-06,-1.5260676529521623e-06,-4.499007844674866e-07,-1.3809309562101862e-06,-1.3515489633370028e-06,-8.969260117058705e-07,-4.726897333590167e-07,7.112750446600288e-07,3.0873446570309413e-07,-3.637476503429424e-07,-1.688466791163062e-07,-5.6523150030094e-07,-5.325358520464339e-07
2.6037611322124253e-06,-5.413759273277393e-07,-2.8993193532909017e-09,-4.335732806287723e-07,-6.144885730107903e-07,-1.2491778028281894e-06,-1.6007746414767292e-06,-3.5787657471909734e-07,-1.4163424252262319e-06,-1.3274011773764588e-06,-9.98953034277284e-07,-3.465068678454919e-07,9.36582043080055e-07,1.7161759007506646e-07,-5.244278963562258e-07,-1.7557408957608647e-07,-5.985875901658594e-07,-5.086745228249328e-07
2.5497987863557045e-06,-5.086741652233339e-07,4.539392598572248e-08,-4.7152262584015914e-07,-5.927337883395723e-07,-1.1398195783135938e-06,-1.5920435102413652e-06,-2.4680489656610233e-07,-1.4083128175269629e-06,-1.333308449898135e-06,-1.200944418085553e-06,-2.8590232425867343e-07,1.0668712392203883e-06,1.3032961394063628e-08,-6.478454984549763e-07,-1.9095755362068703e-07,-6.172622504181644e-07,-4.851979678602774e-07
2.5418430391652162e-06,-4.981069751692807e-07,8.961118727541444e-08,-4.739839753167337e-07,-5.78685900364191e-07,-1.065095562017856e-06,-1.5764831969318767e-06,-1.3813511086877317e-07,-1.3484450093638728e-06,-1.385030955004223e-06,-1.3871112564276174e-06,-2.4980334044881975e-07,1.0803936678410593e-06,-1.0496791885347917e-07,-7.114070787243705e-07,-1.1744178543572464e-07,-6.318591002531109e-07,-4.6921853705946193e-07
2.6423063890364295e-06,-4.944702036864584e-07,1.1540638156085159e-07,-4.8572851151282e-07,-5.867479157499091e-07,-1.0195371878394906e-06,-1.6436859548095493e-06,-4.758249124868214e-08,-1.2645183066961457e-06,-1.5145697817016163e-06,-1.5229039525735686e-06,-2.3003808542013607e-07,1.0162303625452454e-06,-2.2550930482919997e-07,-7.419020274540719e-07,-2.9750610634972532e-08,-6.239358263126949e-07,-4.2211531323626805e-07
2.624854795239262e-06,-4.897014858744376e-07,1.5799719118170518e-07,-4.878885663973055e-07,-5.668032108636471e-07,-9.823434142172788e-07,-1.6756172273558267e-06,3.347658461822526e-08,-1.1735587664709524e-06,-1.6277690764981477e-06,-1.5990693752893918e-06,-2.115079412218669e-07,8.999699432817092e-07,-2.543108197373639e-07,-7.818107235709436e-07,-2.2069275364757694e-08,-6.386693445949628e-07,-3.9933626785326175e-07
2.608005804233255e-06,-4.5833884883284146e-07,1.8255014920671533e-07,-4.5531329810282336e-07,-6.758988356975035e-07,-9.58612125716898e-07,-1.6702541351185756e-06,8.778694065267482e-08,-1.089076097562162e-06,-1.7360162088760708e-06,-1.6389503599623475e-06,-1.6030207539770027e-07,7.544654883829276e-07,-3.142102935363393e-07,-8.544281751076948e-07,-2.6480254841703764e-08,-6.055950247899437e-07,-3.7140172911449845e-07
2.679860018356197e-06,-4.465284882069013e-07,1.9151441731223565e-07,-4.324076488586417e-07,-7.935542881558468e-07,-9.392506541481792e-07,-1.584058888993267e-06,1.190003766048593e-07,-1.040706860350377e-06,-1.7869215149283419e-06,-1.6734312564913073e-06,-8.29583758837626e-08,6.089479681957675e-07,-3.9951144176772657e-07,-8.634771099356322e-07,-1.0417949053773466e-07,-6.009590313739016e-07,-3.074157674514427e-07
2.7603055139314356e-06,-4.389778665123191e-07,1.9567654340571102e-07,-4.2537780211800417e-07,-8.226529839048849e-07,-9.226932496541649e-07,-1.5224506834786094e-06,1.4329792549015609e-07,-1.030396113364885e-06,-1.7364852327681217e-06,-1.7310501484502836e-06,-3.1484700971922996e-08,4.7661935278768783e-07,-4.73464251795055e-07,-8.72133690487367e-07,-1.8653228268531375e-07,-6.251334633375054e-07,-2.754915541169378e-07
2.7259811880059044e-06,-3.9831100078496613e-07,1.8662627066080804e-07,-4.10435272357254e-07,-8.036618654882957e-07,-9.143718969735028e-07,-1.5240898737119925e-06,1.5618260642677518e-07,-1.03760765991053e-06,-1.689435687045423e-06,-1.7820113865146054e-06,-7.0155448723351465e-09,3.716209172183985e-07,-5.452742234723213e-07,-8.878958072231312e-07,-3.3138699059326086e-07,-6.138146116649141e-07,-2.4885231471581456e-07
2.607865614571716e-06,-3.4327250340203524e-07,1.7681070890052364e-07,-3.970906683884047e-07,-7.541194190411517e-07,-9.059939440214114e-07,-1.5585685526272148e-06,1.4374476964297604e-07,-1.072361977921203e-06,-1.644449562776635e-06,-1.8322216882096094e-06,5.046456284653592e-10,3.0322642363599907e-07,-5.606769870298442e-07,-8.857118445134481e-07,-5.300401874288583e-07,-6.251650904106611e-07,-2.2584226093089827e-07
2.551576965312225e-06,-3.012906002348642e-07,1.7815051218191017e-07,-3.744890769155386e-07,-6.515114819960018e-07,-8.924163105262907e-07,-1.6152639921425271e-06,1.2283591691383e-07,-1.1224191368658542e-06,-1.5775181205422525e-06,-1.8661295200881007e-06,2.651847415040867e-09,2.703498619422741e-07,-5.254604785086632e-07,-9.048135085907323e-07,-6.896092999079602e-07,-6.320911474630806e-07,-2.1372883007414676e-07
2.541169766912516e-06,-2.9163788173805006e-07,1.9137735369448135e-07,-3.251187503339747e-07,-5.532854173231299e-07,-8.727333296239244e-07,-1.6270674647535334e-06,1.1424628901157033e-07,-1.1743135965594887e-06,-1.5129971793104486e-06,-1.8609725859593769e-06,5.855767350035596e-09,2.6254906124990247e-07,-4.535491226575727e-07,-9.17909250115347e-07,-8.155075703605591e-07,-6.12289781931327e-07,-1.972710829555903e-07
2.5136835526696204e-06,-3.182298098046731e-07,1.9729824430677478e-07,-2.712169676979212e-07,-4.3910587444892945e-07,-8.521350561168446e-07,-1.5341980739563146e-06,1.0932786746421551e-07,-1.2213787837681455e-06,-1.465803081098889e-06,-1.831474452930989e-06,2.3157524977100278e-08,2.5768094377854683e-07,-3.794137025848198e-07,-9.029160342262134e-07,-8.997016372284516e-07,-6.286173008144153e-07,-1.9170816159113393e-07
2.6236184827307943e-06,-3.4169639823056883e-07,2.1375618588337189e-07,-2.3656005449138354e-07,-2.811995966256151e-07,-8.390056789809983e-07,-1.4874769161986215e-06,1.0703215567846199e-07,-1.262953555982173e-06,-1.4557861648368924e-06,-1.783338330858826e-06,2.9058175096841456e-08,2.2687500893186465e-07,-3.1009044641928265e-07,-8.634078178858021e-07,-9.428694591402912e-07,-6.311437733287747e-07,-1.9525170115986326e-07
2.7935708961275993e-06,-3.564888621415764e-07,2.3813854803801263e-07,-1.9953642134628643e-07,-1.8029627184913308e-07,-8.350955171548783e-07,-1.3380508806025801e-06,9.774066373808915e-08,-1.3004027382203557e-06,-1.4820928133728646e-06,-1.7348509223741776e-06,1.530294723235647e-08,1.4694993633578028e-07,-2.486776084135641e-07,-8.655995849545104e-07,-9.842835361860724e-07,-6.457180734273656e-07,-1.825714899791329e-07
2.946807884479356e-06,-3.8901441467652054e-07,2.553766614522862e-07,-1.5872336990649956e-07,-1.547635651369513e-07,-8.347038349759641e-07,-1.1598794814416545e-06,6.802997088941364e-08,-1.335295750035499e-06,-1.5508319744948915e-06,-1.6995363839415942e-06,-5.557508057231599e-09,7.675954307626657e-09,-2.1357554384305953e-07,-8.966536974822718e-07,-1.0356445266720404e-06,-6.519931343502611e-07,-1.658191662960625e-07
3.081843903964544e-06,-4.4430720475704523e-07,2.653516623235373e-07,-1.2417889778901197e-07,-2.735599697305875e-07,-8.45059679331178e-07,-1.0231229416674494e-06,1.6926721179407293e-08,-1.3735484826916858e-06,-1.657017187197832e-06,-1.7057434819473914e-06,-4.113561417809115e-08,-1.824653027378689e-07,-2.2398122070963616e-07,-9.397882260443858e-07,-1.095634399472346e-06,-6.416499910901414e-07,-1.5103580363951398e-07
3.1663958887848817e-06,-5.029300897669154e-07,2.564190559313485e-07,-9.2458513172132e-08,-4.405638936764486e-07,-8.743471394730883e-07,-9.76879631007878e-07,-3.141037194016958e-08,-1.4140055139974068e-06,-1.7882934454332774e-06,-1.7341367262265801e-06,-8.838113433367575e-08,-3.988143036918205e-07,-2.760169693989825e-07,-1.0120873946112838e-06,-1.184582986642045e-06,-6.440631086542843e-07,-1.425712203259285e-07
3.2118406912663934e-06,-5.491203686513392e-07,2.2365399249486761e-07,-7.32040448791382e-08,-5.751697727358894e-07,-9.129872700912809e-07,-1.00869226508521e-06,-7.935369002228843e-08,-1.4561140452311667e-06,-1.932070258822726e-06,-1.7695111823532295e-06,-1.488931660830944e-07,-6.1186513050576e-07,-3.537150170265287e-07,-1.0961343918674338e-06,-1.306918721004174e-06,-6.318432578251767e-07,-1.557935217750605e-07
3.1970410122359404e-06,-5.896080724579652e-07,1.7136908052828267e-07,-7.458865099113258e-08,-6.901971955882036e-07,-9.67947761838043e-07,-1.054498158456758e-06,-1.370167448637945e-07,-1.5039663660985384e-06,-2.072063757994707e-06,-1.8098782917557316e-06,-2.2361366762609e-07,-8.0329782405503e-07,-4.4269716853803184e-07,-1.1888921981358419e-06,-1.4552763814276666e-06,-6.085686724316646e-07,-1.8574584512302555e-07
3.1271445343492673e-06,-6.125087160769787e-07,1.077893495644193e-07,-9.119965787285935e-08,-7.668659654383137e-07,-1.0519724216972926e-06,-1.0994849482049011e-06,-1.9799084646466723e-07,-1.5628357068737236e-06,-2.1923231096125827e-06,-1.8470972966991097e-06,-3.137366750868463e-07,-9.5917247271691e-07,-5.118382515638466e-07,-1.293331964394045e-06,-1.6223035486631487e-06,-6.002092962989095e-07,-2.277659515062661e-07
3.0122664488161567e-06,-6.190293632767109e-07,3.5056930371079766e-08,-1.1899648765077098e-07,-7.819776339621218e-07,-1.1333287788513564e-06,-1.1286817297453881e-06,-2.753786517818237e-07,-1.6334599864672467e-06,-2.2860918398844703e-06,-1.886748597325059e-06,-4.115500533406756e-07,-1.0777785825397604e-06,-5.723716129431138e-07,-1.3906840078291241e-06,-1.7956987377580242e-06,-6.110510587071341e-07,-2.728997543279618e-07
2.8839865651159903e-06,-6.195783975829296e-07,-4.2170303664960066e-08,-1.58586710859895e-07,-9.115019006702582e-07,-1.2133222339883925e-06,-1.202761780047756e-06,-3.6228502172491365e-07,-1.71549381324478e-06,-2.3515013832047294e-06,-1.928743267545468e-06,-5.143848965757963e-07,-1.169093400184608e-06,-6.300004731540971e-07,-1.469674008252735e-06,-1.9714574386040646e-06,-6.497965914544305e-07,-3.1990687605231244e-07
2.7598010240697486e-06,-6.159643551182594e-07,-1.1761426779251423e-07,-1.9344044289830256e-07,-1.174635274696485e-06,-1.3145379944080368e-06,-1.3166859589562419e-06,-4.486262746393941e-07,-1.8061824196871708e-06,-2.3910155117780892e-06,-1.971237460903807e-06,-6.219363161088778e-07,-1.2452795975216761e-06,-6.817437513798277e-07,-1.5348820419793684e-06,-2.138963763417829e-06,-7.137538232871923e-07,-3.6448320616041213e-07
2.6510555958823863e-06,-6.15088040268602e-07,-1.9371657877702715e-07,-2.334819052670313e-07,-1.4595809124689566e-06,-1.4187250956656332e-06,-1.4132264873944445e-06,-5.322945827019592e-07,-1.8991622519822613e-06,-2.411262258383968e-06,-2.005894399271848e-06,-7.300157676949628e-07,-1.3192340637288727e-06,-7.254487972868087e-07,-1.5950547714813198e-06,-2.2889464349806464e-06,-7.883176938208509e-07,-4.049993336050443e-07
2.5678254218550467e-06,-6.200937439802124e-07,-2.658079643981716e-07,-2.764762921350133e-07,-1.7361320202402328e-06,-1.5229424797870042e-06,-1.5363489629845728e-06,-6.210693272491175e-07,-1.9885208324529757e-06,-2.417481176318069e-06,-2.0150537591896605e-06,-8.363851347532061e-07,-1.3993551841178496e-06,-7.559408920088612e-07,-1.6501178294367163e-06,-2.4215812496317666e-06,-8.557410150863543e-07,-4.430649160751789e-07
2.514450906207993e-06,-6.308323380505038e-07,-3.3215607912152445e-07,-3.153068482400407e-07,-2.034583388317927e-06,-1.628281109408736e-06,-1.6308598036181739e-06,-7.097855560238377e-07,-2.069784350305459e-06,-2.416442916419468e-06,-2.0028367892250593e-06,-9.367809587349117e-07,-1.487465817703821e-06,-7.719506384381175e-07,-1.7008673004897505e-06,-2.533887862208024e-06,-9.118763340789982e-07,-4.758306112841146e-07
2.4830858826649838e-06,-6.471827613965115e-07,-3.9208942915827457e-07,-3.558788123302135e-07,-2.2653667168324186e-06,-1.723664206277063e-06,-1.6918911097067851e-06,-7.822940333034749e-07,-2.1384283086610244e-06,-2.4134669771298817e-06,-1.9942762767573775e-06,-1.0266885289536203e-06,-1.5791812045057317e-06,-7.735625932704824e-07,-1.7417940419276015e-06,-2.6250267144326098e-06,-9.553672301986687e-07,-5.102833262662437e-07
2.474816931141843e-06,-6.67454790647678e-07,-4.428266287197378e-07,-3.9410319445285553e-07,-2.459508513163879e-06,-1.8050797947726044e-06,-1.7356001479154043e-06,-8.442145746649667e-07,-2.1947050561761715e-06,-2.4042138962423846e-06,-1.988490368475002e-06,-1.1162983983823485e-06,-1.668913923229381e-06,-7.617931108241303e-07,-1.779856261648576e-06,-2.6959106969792164e-06,-9.798259695053451e-07,-5.45085164383332e-07
2.479020988227966e-06,-6.887895409600609e-07,-4.88564415899069e-07,-4.241685429094517e-07,-2.6551098031875215e-06,-1.8949519353783932e-06,-1.7489428720393176e-06,-8.933842065559851e-07,-2.2375443678816222e-06,-2.3901508586119964e-06,-1.985104006312442e-06,-1.1886014314437694e-06,-1.7516592631885218e-06,-7.37286302960319e-07,-1.8218062321980552e-06,-2.749003982686023e-06,-9.837854070776013e-07,-5.703937076294848e-07
2.4892724153354378e-06,-7.08559632514406e-07,-5.31603308661201e-07,-4.49366090835441e-07,-2.8506075066091312e-06,-1.987671835944005e-06,-1.757400787767397e-06,-9.338190317728254e-07,-2.2676715559267122e-06,-2.3787631096679366e-06,-1.983693162102223e-06,-1.2436223730567584e-06,-1.8251593082056097e-06,-7.029606765021521e-07,-1.8564262519673234e-06,-2.785670902350886e-06,-9.689192183851848e-07,-5.903529571331267e-07
2.498783835324255e-06,-7.241106025999399e-07,-5.689218865793067e-07,-4.741648441732767e-07,-3.0108466814537033e-06,-2.060896277634626e-06,-1.7614584516727815e-06,-9.736264934332427e-07,-2.288605680916482e-06,-2.364706126584215e-06,-1.978534939366759e-06,-1.2857448561812294e-06,-1.8914569438732287e-06,-6.66326102206107e-07,-1.8820464722659594e-06,-2.8180254421643563e-06,-9.397488249270794e-07,-6.050583210744066e-07
2.4978199402051407e-06,-7.325805086908032e-07,-6.024589586238848e-07,-4.954250202684266e-07,-3.1470243673188216e-06,-2.1216892916026984e-06,-1.7603765789859579e-06,-1.0124667212305814e-06,-2.3016717146702957e-06,-2.339967962838457e-06,-1.969358604727074e-06,-1.310514616390533e-06,-1.9551812240318967e-06,-6.398610138799449e-07,-1.8950659919112832e-06,-2.8527225144064305e-06,-9.062839578101874e-07,-6.157610881712037e-07
2.4829689545483874e-06,-7.321943812392834e-07,-6.327839123951151e-07,-5.158861889265341e-07,-3.268158921318469e-06,-2.16769688979463e-06,-1.759707272295637e-06,-1.0460922935669671e-06,-2.309258061253091e-06,-2.2991201545726046e-06,-1.958868695255151e-06,-1.3219387469482489e-06,-2.021838369327133e-06,-6.275754904184287e-07,-1.892954728414737e-06,-2.8922189846074605e-06,-8.830176138897745e-07,-6.248464064914276e-07
2.449658404133727e-06,-7.233927324266222e-07,-6.611530503464808e-07,-5.361888233778265e-07,-3.357826253265094e-06,-2.2075132328834526e-06,-1.7537342879070408e-06,-1.0729892638521412e-06,-2.3130796682802797e-06,-2.2387821268994683e-06,-1.9432522805614535e-06,-1.3199895398967643e-06,-2.095725219604262e-06,-6.314005425066491e-07,-1.8796998275009928e-06,-2.9391688640644222e-06,-8.715621409252369e-07,-6.295164806815406e-07
2.400345194925325e-06,-7.070715668985406e-07,-6.894187345338429e-07,-5.53147057063142e-07,-3.4352993328282674e-06,-2.2445020909026445e-06,-1.7446607467854055e-06,-1.1040758998113069e-06,-2.3140325367763134e-06,-2.1636075939540613e-06,-1.9171207848966918e-06,-1.3048030047963157e-06,-2.178598772392632e-06,-6.500178406052991e-07,-1.8590131373625225e-06,-2.9905554210005893e-06,-8.743105800366805e-07,-6.303220226782152e-07
2.33790563966562e-06,-6.847256464757082e-07,-7.172213059125745e-07,-5.663293680052306e-07,-3.4963858304931254e-06,-2.2656427982475958e-06,-1.7352174463139154e-06,-1.1342966608801016e-06,-2.3129440978603908e-06,-2.0870363907005413e-06,-1.8819007772580896e-06,-1.2760116771040993e-06,-2.2695306021104674e-06,-6.798472067140494e-07,-1.829523682468195e-06,-3.042839550082069e-06,-8.883119949277587e-07,-6.303982572175676e-07
2.267411960377464e-06,-6.581745359264236e-07,-7.42540905595655e-07,-5.730597560502553e-07,-3.533140555154718e-06,-2.2696345402709436e-06,-1.7248825090961806e-06,-1.1539907240963304e-06,-2.3113047371826406e-06,-2.018894652413494e-06,-1.842163204694024e-06,-1.2413113547369561e-06,-2.3651298572135355e-06,-7.086487822225918e-07,-1.7799892893800104e-06,-3.0919620766835864e-06,-9.068828565318838e-07,-6.354211884135232e-07
2.1965196332104204e-06,-6.286167230436308e-07,-7.638318072655387e-07,-5.706585014055092e-07,-3.546401106842375e-06,-2.260266841342489e-06,-1.7180498134588903e-06,-1.1679603361259703e-06,-2.3099694113730384e-06,-1.9666540127703928e-06,-1.8058867210322334e-06,-1.2037308666368391e-06,-2.4598035617081304e-06,-7.331322899878803e-07,-1.7363536028585698e-06,-3.1350028058649294e-06,-9.355391734653088e-07,-6.476003044747295e-07
