0,1,2,3,4,5,6,7,8,9,10,11,12,13,14,15,16,17
5.745175066731267e-08,-4.3347620659875006e-08,1.3952913559605112e-07,1.6043339232013185e-07,3.7092102910090753e-07,7.914581363461796e-08,3.554354153437041e-07,1.0052745963980697e-07,2.0380559576965191e-07,1.8708946407589633e-07,6.913935285364052e-08,5.9576771738866676e-08,3.809222662966192e-09,1.8708624666356599e-07,1.1429640096055794e-07,3.572946618784233e-07,2.5134502617331193e-07,2.004583162900296e-07
1.472531582920764e-09,-9.752892377070052e-08,8.187899933849174e-08,1.0022113418887682e-07,2.704312689443205e-07,1.0343387917638467e-08,2.769009523037328e-07,2.0147177193256213e-08,1.3670349692064363e-07,1.1450563847496792e-07,3.7817868543046586e-08,2.255300749341787e-08,-3.1269179032195856e-08,7.932936221280075e-08,6.176485187860167e-08,2.481148834072401e-07,1.6132775321217517e-07,1.2965518160148183e-07
-5.35902168206438e-08,-1.291303730668802e-07,2.4654117298833758e-08,4.5728557876939014e-08,1.8561103697781397e-07,-3.74561848583907e-08,2.0439040872519948e-07,-3.616821489430582e-08,7.555512213182835e-08,5.300913000082002e-08,1.1711152025865567e-08,-9.166428718537766e-09,-5.350419803128789e-08,1.169422501256991e-08,2.682487923833272e-08,1.791737594440313e-07,1.247683114218322e-07,8.697112234571368e-08
-5.738107079675751e-08,-1.244511383976262e-07,-4.801799601475294e-09,9.809530301397559e-09,1.3879030815209603e-07,-5.313945625588124e-08,1.508259284312784e-07,-5.699491011435385e-08,3.175191418571357e-08,2.4204298029716985e-09,-2.476817096932916e-09,-2.0776951727231898e-08,-5.549800784295301e-08,-6.287449664683849e-09,1.6201021002740255e-08,1.4238856530027554e-07,8.688922250807128e-08,4.149652310537776e-08
-5.1273209306881866e-08,-8.512057031299044e-08,-2.0682447329770447e-08,-3.378549562795423e-09,1.2329181213341203e-07,-4.112407638418551e-08,1.1696482761979899e-07,-4.986691394758397e-08,6.129818880760678e-09,-1.803127883688235e-08,-4.219660768527662e-09,-1.0753732478352697e-08,-3.951474333951475e-08,1.4296110263427339e-08,2.4462628076574425e-08,1.290497215869949e-07,4.5007658375840594e-08,-9.856432112506765e-09
-8.312082671883853e-09,-2.781706614609634e-08,-1.9008890058916495e-08,-1.341447982122836e-10,1.2433539217092243e-07,-1.736455172204893e-08,9.251057452663256e-08,-3.2974819504920675e-08,-7.099764736518171e-09,-2.690793436919654e-08,5.072294523422781e-10,1.3175864513921089e-08,-1.2190729433714753e-08,5.241916810115351e-08,3.9033703216920094e-08,1.3508418288241795e-07,3.1714235754937564e-08,-6.432641372373984e-09
2.9822472000044395e-08,2.4545775676184302e-08,-1.3469425674023774e-08,7.113775321437566e-09,1.1612794887185926e-07,-3.2756755328845684e-09,6.323223796189996e-08,-2.4689523897701778e-08,-1.856111723124905e-08,-3.866327767527704e-08,3.639195161471945e-09,3.635305493049623e-08,1.3218343539985284e-08,7.884993768381793e-08,4.694066482029132e-08,1.2853744237896254e-07,2.5819102558491174e-08,2.775587221636979e-09
4.482395160169119e-08,5.4862291346094435e-08,-1.5163613175769357e-08,7.024429485930512e-09,7.596110613286785e-08,-9.8034109860674e-09,1.8738191129049728e-08,-3.5148349179059946e-08,-3.5529557642568705e-08,-5.7802630779868554e-08,2.308164926416593e-10,4.694508256921999e-08,2.634253301641559e-08,8.116825933209082e-08,3.886518180480393e-08,8.202410593431832e-08,7.236283437120981e-09,-5.863411372211489e-09
4.869571296388285e-08,5.96919622212558e-08,-2.7502328632340882e-08,-4.9748631625751985e-09,3.8549402451858605e-09,-3.3928458124405904e-08,-4.0799429590881225e-08,-5.825868006443255e-08,-5.939441661726132e-08,-8.926957221207969e-08,-8.031064264529337e-09,4.988271518415187e-08,2.395711355785915e-08,5.866919953554922e-08,1.6066653174662898e-08,1.8124620105527848e-09,-2.7986464249239748e-08,-2.576227204382143e-08
1.58548335596e-08,4.863599949635377e-08,-4.391769075009418e-08,-2.5287073145410365e-08,-7.664699969051498e-08,-6.170348203944819e-08,-1.0521117838773358e-07,-7.803893149575734e-08,-8.108652436302946e-08,-1.1494983825020009e-07,-1.6817247078451854e-08,4.68433515138853e-08,1.0264696594758347e-08,2.792205542801172e-08,-1.4237394628892076e-08,-3.0553109509504314e-08,-6.17041898073335e-08,-4.5675592766105163e-08
-8.013594056143585e-09,3.6814909914289365e-08,-4.9979987299392193e-08,-4.4576342736433114e-08,-1.41182088972432e-07,-7.488908512265817e-08,-1.614781161261981e-07,-8.001799434276583e-08,-9.041342261170268e-08,-1.0786747883609146e-07,-1.9497899697971544e-08,4.685228974390612e-08,2.704335749973288e-10,-1.1724392708901354e-08,-3.7099484908722425e-08,-9.805315378935949e-08,-8.734405065881843e-08,-5.9190825426713935e-08
-1.7105701967517476e-08,3.535306040933486e-08,-4.5033592992852985e-08,-5.601418150515177e-08,-1.9641863308315944e-07,-5.970164394636706e-08,-1.9905303337273814e-07,-5.728816867312065e-08,-7.888463665540001e-08,-9.449522504258258e-08,-1.1892363023156694e-08,3.841372024346017e-08,-1.904239648666892e-09,-5.153795295628101e-08,-4.860465624721011e-08,-1.9026352305712817e-07,-1.0397270904929767e-07,-6.672285274331522e-08
-1.0179460772622455e-08,4.5564319542521204e-08,-2.993392339986757e-08,-5.73404575413346e-08,-2.2419863457589646e-07,-1.691818115276815e-08,-2.1664751555124545e-07,-4.688946416181657e-09,-4.797385996192767e-08,-4.1044123612640206e-08,-3.668449202063486e-09,6.998419092095648e-09,5.956057268211155e-09,-9.138881605354177e-08,-6.089640738777085e-08,-2.91797680235509e-07,-1.1198247818616187e-07,-6.676312988336396e-08
-1.0861139704010225e-08,6.00196546214889e-08,-9.045499547026658e-09,-5.241142188190799e-08,-2.3512666427453273e-07,4.2539549541337765e-08,-2.1151390951940845e-07,6.438134231255019e-08,-2.2844129204176293e-08,1.770258953357873e-08,-2.130510339414126e-09,-4.485157101327191e-08,2.0178287858686154e-08,-1.337054854677413e-07,-7.127522641778802e-08,-2.9950825120260226e-07,-1.2221996059638283e-07,-6.355346887614435e-08
-4.10429511040461e-09,6.937035500233067e-08,5.174656289434481e-09,-4.628963243684852e-08,-2.5423404212720854e-07,1.0700662796003344e-07,-1.899571812191182e-07,1.3673045820323502e-07,-9.654789956170858e-09,7.848145810667241e-08,-1.4272934153623385e-08,-1.1208616149168689e-07,3.765036327239787e-08,-1.5400354093115015e-07,-7.903283222588732e-08,-2.622131437507282e-07,-1.1928247292315618e-07,-5.9134467603975975e-08
2.2699518831413855e-08,7.253736412431636e-08,2.7302289938718207e-08,-3.9924152724043846e-08,-2.815177800056405e-07,1.7026882707147797e-07,-1.543381722739729e-07,1.9234901518133557e-07,-2.503728908593131e-09,1.358226496199115e-07,-4.003866890433792e-08,-1.6995943159433917e-07,5.2234045982054917e-08,-1.427869264506907e-07,-7.330998235721412e-08,-2.3109092327838458e-07,-9.961526797139112e-08,-5.240163636370713e-08
7.673432549970014e-08,7.46624341427611e-08,5.9268508367109865e-08,-3.106690285057398e-08,-3.638973703548941e-07,2.3302207355842882e-07,-1.0640380606248413e-07,2.3418220833493029e-07,3.9841708311310674e-09,1.9614933805322623e-07,-7.680882795898486e-08,-1.911032494521572e-07,8.92181966230881e-08,-7.001578459122396e-08,-4.70179295023302e-08,-2.0052319595790786e-07,-6.483416926584141e-08,-3.8425577545053635e-08
1.634458645053581e-07,8.631656581451133e-08,7.930365838839993e-08,-1.3139329241324847e-08,-4.722613362723586e-07,3.0301736412894747e-07,-4.322803951438456e-08,2.820073959157337e-07,7.604245202200934e-09,2.4355288080811056e-07,-1.0325705419823927e-07,-1.654321832672121e-07,1.5446820259204026e-07,5.653986925123919e-08,1.2885375599297737e-09,-1.9000827011156315e-07,-2.136677574639356e-08,-1.3756446579072126e-08
2.068666621271835e-07,1.1495738723784912e-07,9.21737203715329e-08,1.652327332212653e-08,-5.892055116761144e-07,3.643619843567531e-07,3.3568648019315813e-08,3.412289039285728e-07,1.7447738547542572e-08,2.779935520302049e-07,-1.2213497851920462e-07,-1.2369148516805113e-07,2.3354405146105103e-07,1.3084155391987645e-07,5.593437915582987e-08,-1.703162591584899e-07,3.1795198904917542e-09,1.8306445377603296e-08
2.2247540995275975e-07,1.6453199715203945e-07,1.0001271931062172e-07,6.201453392924193e-08,-7.161793253558132e-07,4.0556740156256873e-07,1.2018285334926036e-07,4.0684027182477603e-07,-1.1074727097040965e-08,2.8089343448627964e-07,-1.2889424564740182e-07,-8.262633411156354e-08,3.2091488536618284e-07,1.8696050244324868e-07,7.918154960613551e-08,-1.6162726037308631e-07,1.6899124933942972e-08,5.065419438783263e-08
2.1816146993124994e-07,2.3375140654654653e-07,3.806924644742725e-08,1.2026555363072383e-07,-9.724458592127465e-07,4.1782222204466736e-07,2.1669546913343856e-07,4.449966344251687e-07,-1.1365041969958945e-07,2.3749093130348635e-07,-6.881329266875413e-08,-3.918990586849083e-08,4.0077568762767634e-07,2.4393674023755016e-07,1.2243139704821084e-07,-1.495902223913321e-07,3.0808816747376096e-08,7.605429873198684e-08
2.6130907702356164e-07,3.2220721912668187e-07,-3.3469281882861204e-09,1.8797614133309957e-07,-1.134193832993339e-06,3.977145628520338e-07,2.4284520143089465e-07,4.327929092984853e-07,-1.988692432691092e-07,2.2823798130189815e-07,-3.0035538306125843e-08,-1.0540662592594262e-09,4.369002514320361e-07,2.921582437798431e-07,1.860179450538259e-07,-1.37237316808242e-07,5.943151314072177e-08,9.268135099454403e-08
3.189809324509658e-07,4.2852535224718085e-07,-1.750184243311357e-08,2.5992933402079486e-07,-1.2469990848051787e-06,3.382208034801204e-07,2.1043326129686216e-07,3.4026862947126835e-07,-2.590046825405702e-07,2.3168178854236183e-07,-1.7561797489285154e-08,2.1938306968892076e-08,4.773334832291579e-07,3.579781184990714e-07,2.3395375873300177e-07,-1.1342742287311584e-07,1.1434992948107784e-07,1.0448751194188791e-07
3.693506663248004e-07,5.260429476566037e-07,-3.5776533819502567e-08,3.191069616648896e-07,-1.3830868392547282e-06,2.3917983231398466e-07,7.939755260542172e-08,1.9075885638016062e-07,-3.2567143774346305e-07,1.9778734734982396e-07,2.821032227495374e-08,4.266216526438408e-08,5.26325036569714e-07,4.00098522077006e-07,2.858780085108622e-07,-8.148064554894784e-08,1.7675574254513107e-07,1.1696984503829019e-07
4.089308777555283e-07,6.066898556178918e-07,-4.679069391527668e-08,3.6179961904407575e-07,-1.5455736195563183e-06,1.1497684579040369e-07,-2.265334622945705e-07,5.4740259755611476e-08,-3.735091291124906e-07,1.551949240357856e-07,9.81990324479277e-08,6.244035912921096e-08,6.430867596859113e-07,4.947615390093382e-07,2.981499048316224e-07,3.505826459259791e-09,2.1866328882080424e-07,1.3182071440272636e-07
3.8142884504307664e-07,6.319593091427158e-07,-5.845861529586047e-08,3.6838751020196823e-07,-1.7177935748995514e-06,-2.150181963982731e-08,-4.1801501519641127e-07,2.3081641228164513e-09,-4.5765641980165344e-07,1.065406128596067e-07,1.828735720757613e-07,9.723114824761644e-08,7.281459280230996e-07,6.246663965348014e-07,2.855947248386058e-07,9.715519966237289e-08,2.2729753487263844e-07,1.4465643708613787e-07
3.7187440963127546e-07,5.778367642222654e-07,-6.002402010611989e-08,3.145306800689917e-07,-1.9646970332346647e-06,-1.4766552604440594e-07,-5.195916236820416e-07,4.55218908100909e-10,-6.325603913182047e-07,7.266508327700711e-08,2.033684222935174e-07,1.423314341780693e-07,7.860733355584027e-07,7.23984443603725e-07,2.7393903854939963e-07,1.913693612099512e-07,2.3456269663857066e-07,1.479001335135633e-07
3.722163247894916e-07,5.752030691448166e-07,-7.751325404544761e-08,2.813092185894509e-07,-2.1752070412816164e-06,-2.6393350107123267e-07,-6.895016554773056e-07,-4.0598550435921576e-08,-8.04186003651035e-07,4.611676356102366e-08,2.2721295113966937e-07,1.8170483510902797e-07,8.404891281766892e-07,8.171457013342217e-07,2.672120609548613e-07,2.5506808020073065e-07,2.4447292086818137e-07,1.361888061680034e-07
3.743178257423266e-07,6.224312591199093e-07,-1.076885313387541e-07,2.6906564325769144e-07,-2.4219858799168276e-06,-3.6178841732094924e-07,-9.204453016768833e-07,-1.7473933682600473e-07,-8.911188585236445e-07,2.6323864935113588e-08,2.4052425893017566e-07,2.1371902091208585e-07,8.556872447210678e-07,9.442210805616239e-07,2.508899586636954e-07,3.4053856135255075e-07,2.534736376916481e-07,1.1019893590663767e-07
3.791905035089053e-07,6.169402496705925e-07,-1.0142984355170018e-07,2.488867237903852e-07,-2.6669462005623847e-06,-4.3509495324121067e-07,-1.1182564356916558e-06,-2.872789775451668e-07,-9.776208080073826e-07,5.380310238621634e-09,2.4774015143160705e-07,2.510457976087161e-07,8.883734528237127e-07,1.0436676924592693e-06,2.2395536598927503e-07,4.4386206122737955e-07,2.510301766035312e-07,7.637738657042157e-08
3.561737908903991e-07,5.29243235771355e-07,-9.95847256544232e-08,1.7033124510890602e-07,-2.9060778572615986e-06,-4.802100721379216e-07,-1.2139005201307507e-06,-2.843985431578769e-07,-1.0541161444959337e-06,-1.3651205090862822e-08,2.3178340578575376e-07,3.000773364726209e-07,9.338353368475119e-07,1.1224837098473215e-06,1.9091411339703348e-07,5.434184332807291e-07,2.108476772880374e-07,4.3110898890751225e-08
3.3251038628736945e-07,3.9437707695777684e-07,-1.3410328387600985e-07,8.221235568820708e-08,-3.0827034486594032e-06,-4.919146640089591e-07,-1.346083678492681e-06,-2.9662112305004913e-07,-1.13917815020216e-06,-3.102893795913386e-08,1.9669356024202425e-07,3.2364811529514366e-07,9.023919175554414e-07,1.170476268026169e-06,1.5147868963960955e-07,6.123437062549044e-07,1.501179740380602e-07,1.602155099127516e-08
3.027028620115552e-07,2.893555917968853e-07,-1.7182646105722893e-07,6.937040322779916e-08,-3.255778082116762e-06,-5.149025812556069e-07,-1.4941239701105138e-06,-3.331388832616324e-07,-1.2334132528382633e-06,-5.0343400519395175e-08,1.6011440176089e-07,3.642937116719036e-07,8.681276369108641e-07,1.2188351372554052e-06,1.306373972549981e-07,6.545236885322605e-07,9.552344246224804e-08,-4.188787556633293e-09
2.840648215487743e-07,2.1152137295736786e-07,-1.9995352214575518e-07,9.524026145884557e-08,-3.3618423935597516e-06,-5.681529013134993e-07,-1.601997670826679e-06,-3.594292780921525e-07,-1.2929806645017083e-06,-7.254424040151685e-08,1.3404185076916064e-07,3.9244705522631774e-07,8.644732480738283e-07,1.2121179556066207e-06,1.3721811766095072e-07,6.883059285242467e-07,5.154066669324835e-08,-1.987704302959137e-08
2.5509291676323183e-07,1.7904626956292674e-07,-2.62409262570701e-07,1.4827873135624507e-07,-3.422356083859667e-06,-6.886809645252996e-07,-1.6198494077514808e-06,-3.395488679461616e-07,-1.2739915321799462e-06,-1.0034158236296726e-07,1.1033151573426014e-07,4.238347466329605e-07,8.379265651944037e-07,1.2048348885373448e-06,1.3835127771018931e-07,6.954259106645827e-07,1.3345869543028581e-08,-3.2640264196232346e-08
1.9429569153006896e-07,1.8060087409075186e-07,-3.0981824034494e-07,1.958984366587769e-07,-3.51503814836697e-06,-9.107647648471779e-07,-1.6451213894693423e-06,-3.5570922972518144e-07,-1.2566287802797824e-06,-1.31055724186163e-07,1.0234497960661388e-07,4.4917525654840227e-07,8.017765114973996e-07,1.2150879515972159e-06,1.4439075600822795e-07,6.992233764429366e-07,3.525559693690989e-10,-4.127041051261905e-08
1.549945481552328e-07,1.9672627035069283e-07,-3.450769810784506e-07,2.598711152679547e-07,-3.695355514517109e-06,-1.0783296010013013e-06,-1.7853073213011404e-06,-3.5019566029387695e-07,-1.2521015056867818e-06,-1.5696480605520713e-07,1.0246395639267493e-07,4.7481569477202575e-07,8.145472490353735e-07,1.2422039023433587e-06,1.6568303429251757e-07,7.278287788735963e-07,5.837143926053144e-09,-4.307846637517946e-08
1.3103776486719474e-07,2.2432829848940713e-07,-3.6456082705920036e-07,3.305870329311028e-07,-3.9080457039025864e-06,-1.2416558894543551e-06,-1.947062053076412e-06,-3.238749689037184e-07,-1.242903388161864e-06,-1.732178049601618e-07,1.0968744584346664e-07,4.887961055357524e-07,8.186143037160108e-07,1.3223677935771335e-06,1.8778888067191596e-07,7.876640911033065e-07,2.5261691943439718e-08,-3.6865733715677e-08
1.336105992856495e-07,2.5289594063095446e-07,-3.8906969680034225e-07,3.6202331758604116e-07,-4.042129571535491e-06,-1.392609724830243e-06,-2.0751314287579445e-06,-2.847213569002666e-07,-1.2981452865796247e-06,-1.6956460459379407e-07,1.283634832280813e-07,5.17400367268666e-07,8.582744508173414e-07,1.4256179567174927e-06,2.0928578309965146e-07,8.705636253059673e-07,5.3831625484980485e-08,-2.4537673882561012e-08
1.5477323914125256e-07,2.856707419953215e-07,-4.226129515200975e-07,4.0561844576307777e-07,-4.243948360656696e-06,-1.5164735906911928e-06,-2.2337944428685515e-06,-2.1592639957230884e-07,-1.367383845932833e-06,-1.4763235929308072e-07,1.515309457211077e-07,5.806251474603716e-07,8.918930542871932e-07,1.510689656070299e-06,2.6428334360178333e-07,9.55533629747335e-07,8.048115470527404e-08,-9.832533871717558e-09
1.969427826906777e-07,3.2573865281381193e-07,-4.610262265607468e-07,5.154739650800902e-07,-4.584181296267479e-06,-1.6449617736506325e-06,-2.404747144255101e-06,-1.5805629153831868e-07,-1.4259766268794755e-06,-1.2158128387502413e-07,1.8488014209020126e-07,6.492566203482365e-07,9.497002754751283e-07,1.5772475858191618e-06,3.365971885206726e-07,1.0297378543227587e-06,1.0409969827848457e-07,4.622938589169663e-09
2.5476684376663076e-07,3.732242603362348e-07,-5.00766419767761e-07,6.684780242664137e-07,-4.8164329805864e-06,-1.8471354359990438e-06,-2.594401438630652e-06,-1.1206115969164743e-07,-1.4908761965148474e-06,-8.60915769762144e-08,2.297173226407142e-07,7.169837587393314e-07,1.043331518535338e-06,1.65068103998074e-06,4.0580599115273557e-07,1.0821113786777477e-06,1.250697311344089e-07,1.927708109122804e-08
3.0933655546034386e-07,4.286668031066905e-07,-5.578762222347244e-07,7.543251034441136e-07,-4.949826979354072e-06,-1.969774486025656e-06,-2.7718284853858504e-06,-4.124080698895393e-08,-1.5555978540996342e-06,-4.324616176418676e-08,2.831617990322922e-07,7.790396624309324e-07,1.0793868325621216e-06,1.6886655016713114e-06,4.662618213329101e-07,1.1202101790154953e-06,1.450512051244393e-07,3.6991317703567035e-08
3.632847930411863e-07,4.898008110311693e-07,-6.235302228169499e-07,8.369759311171052e-07,-5.017503781728205e-06,-2.067169856283568e-06,-2.872250426032567e-06,5.4499354370908744e-08,-1.5836339697579893e-06,1.4520496080694665e-08,3.402140016073473e-07,7.989120434362825e-07,1.0747605640060243e-06,1.7081664807181539e-06,5.00210581735057e-07,1.139212813856751e-06,1.6576759162291484e-07,6.044879724307005e-08
4.1687114408188095e-07,5.503673273582577e-07,-7.054989098366479e-07,9.257800161988175e-07,-5.03514364402969e-06,-2.1583691884725995e-06,-2.876710720939471e-06,1.5957924698532277e-07,-1.5595580595504618e-06,9.23236491869812e-08,3.9561082355279366e-07,7.644423367199059e-07,1.0697916979410114e-06,1.7148360401215278e-06,5.074324200535598e-07,1.1407917836693925e-06,1.8811404826633236e-07,9.019573453518224e-08
4.6882575795247967e-07,6.026118921817876e-07,-7.900391304574265e-07,9.989303749914164e-07,-5.033673754299884e-06,-2.237269049444306e-06,-2.925620161187772e-06,2.631815110367623e-07,-1.4790400041655693e-06,1.637513735944334e-07,4.4219787702083977e-07,7.228941998291725e-07,1.054965734393919e-06,1.6981304026184563e-06,5.077627905109166e-07,1.120893257155939e-06,2.13752651901128e-07,1.2499955096869332e-07
5.212410037182441e-07,6.423716749446219e-07,-8.359508611958195e-07,1.0801149365311892e-06,-4.946109124291881e-06,-2.299774862780365e-06,-2.9232375628553605e-06,3.5676846785012666e-07,-1.3985861884673518e-06,2.399305847131154e-07,4.791502750440833e-07,6.809734978679474e-07,1.0435607980682318e-06,1.6796003268214882e-06,5.057185766883828e-07,1.1035811351536776e-06,2.4582104627096674e-07,1.633463860393089e-07
5.719060490387688e-07,6.720099231223482e-07,-8.322896200080916e-07,1.1504900078971994e-06,-4.853394609431043e-06,-2.42616692992193e-06,-2.886719537985418e-06,4.3413841313719685e-07,-1.330588164605256e-06,3.1839237802608277e-07,5.088929611234448e-07,6.574901037507633e-07,1.0481487532591628e-06,1.672833989262761e-06,5.082556325390046e-07,1.10753331142631e-06,2.8753002544654345e-07,2.0365887120279344e-07
6.180979185862716e-07,6.981457802968669e-07,-8.154245566146203e-07,1.1975780842276097e-06,-4.679309729908356e-06,-2.4477779953216095e-06,-2.885762161011891e-06,4.911529582907977e-07,-1.26187310351883e-06,3.7442078200956064e-07,5.328006690803365e-07,6.419297887678947e-07,1.0674280248237507e-06,1.6805487434346763e-06,5.264227511629299e-07,1.1330435137477933e-06,3.390020648274199e-07,2.426738318750763e-07
6.621522579619555e-07,7.259425720066933e-07,-7.918468614775769e-07,1.1986083577544586e-06,-4.509901304415098e-06,-2.389906761894527e-06,-2.8082295682934204e-06,5.315473565297519e-07,-1.2134386822252227e-06,4.16950370282452e-07,5.54781090686091e-07,6.345589677770963e-07,1.0957174980479168e-06,1.6957559405465444e-06,5.499892832149091e-07,1.2048040837731973e-06,3.9524833909140243e-07,2.7427828241845535e-07
7.012889001521504e-07,7.544392330663841e-07,-7.983728020306883e-07,1.2020618965563877e-06,-4.347253815973646e-06,-2.336512995757945e-06,-2.7164867487105784e-06,5.193124101143314e-07,-1.1965068080568815e-06,4.3640896134260245e-07,5.733922040536569e-07,6.517210034137762e-07,1.1176861773877772e-06,1.7123966172000207e-06,5.725946211659124e-07,1.281882539929325e-06,4.478458659661286e-07,2.9147729232757526e-07
7.282219520039844e-07,7.773881222765875e-07,-8.100278832736503e-07,1.2062228144297453e-06,-4.252094167120888e-06,-2.2778450493573533e-06,-2.6755074989856303e-06,4.6163333119568134e-07,-1.2006413565504726e-06,4.2892137155928405e-07,5.861937525356775e-07,6.594076525448533e-07,1.1250084050122626e-06,1.7171503988829475e-06,5.899380211568304e-07,1.3679123216196444e-06,4.896053529669195e-07,2.9102205937955994e-07
7.395741061017975e-07,7.89003037898063e-07,-7.989063356712627e-07,1.203959377779602e-06,-4.256596036428866e-06,-2.214712650123548e-06,-2.617461731539952e-06,3.8726363996932715e-07,-1.2291261164957306e-06,4.096386067400798e-07,5.930178189093664e-07,6.592402250011176e-07,1.1187973244881498e-06,1.7086513554592988e-06,5.969438170859956e-07,1.4514812406573996e-06,5.18651109061036e-07,2.769547865501035e-07
7.376025616712508e-07,7.898364382916297e-07,-8.484037294839388e-07,1.214828829566749e-06,-4.34623875555315e-06,-2.17928907475863e-06,-2.5450663861039913e-06,3.0494771434420863e-07,-1.271883025292136e-06,3.8498754638453046e-07,5.972766480692315e-07,6.701727124849461e-07,1.1048237286442229e-06,1.6965256444648723e-06,5.988463168073414e-07,1.5357937024587213e-06,5.389038020308883e-07,2.598189613104918e-07
7.322185489313797e-07,7.879315767139381e-07,-8.93076966277501e-07,1.2221023111235505e-06,-4.428159067666735e-06,-2.3530788587120436e-06,-2.4815039673754427e-06,2.4732162660837256e-07,-1.31064900966899e-06,3.685190164354658e-07,6.049390725452508e-07,6.827302278353058e-07,1.095421145316394e-06,1.690521245529261e-06,6.0204436550984e-07,1.6204817753739922e-06,5.568679775901635e-07,2.515428644498737e-07
7.356725415312098e-07,7.939516645886266e-07,-8.895608834435236e-07,1.222429396955758e-06,-4.461605601936621e-06,-2.514603610509263e-06,-2.53215788334237e-06,2.261812999089171e-07,-1.3327707906082314e-06,3.7133798116118007e-07,6.211794154499424e-07,7.022263166891126e-07,1.0985470036847868e-06,1.7030745094560328e-06,6.101147881006291e-07,1.706155924474517e-06,5.768398200094274e-07,2.5878495120963224e-07
7.537557403512992e-07,8.134559983520953e-07,-8.710386231869042e-07,1.2165523916690052e-06,-4.42087949605897e-06,-2.555030332896462e-06,-2.5746186380752618e-06,2.2612151360357334e-07,-1.3289327521817747e-06,3.91486439323945e-07,6.462957882499203e-07,7.240858319944675e-07,1.114497538621789e-06,1.7294048095275142e-06,6.21100728193044e-07,1.7892645819593306e-06,5.973759632473755e-07,2.7869110103726213e-07
7.827555077616501e-07,8.417490065463905e-07,-8.300926292019669e-07,1.1995852421026665e-06,-4.329157647828662e-06,-2.536314932836927e-06,-2.5335964853497975e-06,2.3285693698178613e-07,-1.3045581417507423e-06,4.1722784648987495e-07,6.724940602623962e-07,7.331585341489064e-07,1.1349432682668583e-06,1.7534440447556336e-06,6.271175984948424e-07,1.8592580539447296e-06,6.115113863043978e-07,3.0010988510863453e-07
8.070835925716039e-07,8.656181997673033e-07,-7.91034089437209e-07,1.1774334490592424e-06,-4.219911918228426e-06,-2.4696082510507576e-06,-2.440675450359897e-06,2.2579924449629194e-07,-1.276481871770743e-06,4.3239371607341897e-07,6.88535434768031e-07,7.17763638285971e-07,1.146514463533876e-06,1.7637997387895739e-06,6.194123767508786e-07,1.9061143861089085e-06,6.11085326961663e-07,3.099958130962034e-07
8.009389879847641e-07,8.712256516804086e-07,-7.684463897648504e-07,1.1386297425057074e-06,-4.133765211408521e-06,-2.4236541904500903e-06,-2.324825919477859e-06,1.800510463691286e-07,-1.2615343666181355e-06,4.2353038842510494e-07,6.854280534011582e-07,6.802763264475634e-07,1.1398789981817444e-06,1.7430289196378769e-06,5.943680925037211e-07,1.9255168238515313e-06,5.925541734058446e-07,3.0110504607854066e-07
7.91440246960851e-07,8.527754329451081e-07,-7.58754642498448e-07,1.0806007883985722e-06,-4.087999683726138e-06,-2.402544253858304e-06,-2.2297110450609052e-06,9.542556209874535e-08,-1.2682774476304509e-06,3.8798932168849193e-07,6.606212309752439e-07,6.289167919506756e-07,1.1148761059390365e-06,1.6968436619162917e-06,5.565963758883897e-07,1.9227780593861155e-06,5.604343786501289e-07,2.763734339925363e-07
7.446102594078271e-07,8.161004463659695e-07,-7.65293089879887e-07,9.984179987643163e-07,-4.067743556885266e-06,-2.4059776191765676e-06,-2.1670303678478998e-06,-9.887688835048591e-09,-1.2921366320349435e-06,3.37601613916287e-07,6.220002378836985e-07,5.73360627845984e-07,1.080233462628663e-06,1.6461476777069695e-06,5.174025245790747e-07,1.9148584192268686e-06,5.259992953260491e-07,2.476163336046837e-07
6.988652556502676e-07,7.75252355806806e-07,-7.768105731352464e-07,9.171092642370565e-07,-4.047396808019464e-06,-2.4100377532784297e-06,-2.1270431399821415e-06,-1.0860998844521341e-07,-1.3194395630599988e-06,2.9075902379139627e-07,5.832506897944669e-07,5.273778608164223e-07,1.051463098099721e-06,1.6111658351103705e-06,4.894278836573981e-07,1.9129734684595027e-06,5.029110860711371e-07,2.2918075346332567e-07
6.663674395097663e-07,7.44179350433333e-07,-7.803246023820312e-07,8.555041138707434e-07,-4.006575360101046e-06,-2.361016460734975e-06,-2.1070623778452194e-06,-1.7272099965123683e-07,-1.3348241060449718e-06,2.6330163047458723e-07,5.584457543230972e-07,5.051026140072661e-07,1.0405648361142903e-06,1.606897830507747e-06,4.79920025150958e-07,1.9237838085803732e-06,4.967237652901831e-07,2.2975191104977803e-07
6.545739831745356e-07,7.280447068103628e-07,-7.649956608967019e-07,8.166702559071788e-07,-3.929293906078731e-06,-2.2654716748254956e-06,-2.0920399869318223e-06,-1.9183041217274692e-07,-1.3297770194677347e-06,2.603459157279793e-07,5.556316062657843e-07,5.094231504289991e-07,1.0493691878735017e-06,1.6320817314716368e-06,4.860513512624585e-07,1.9433828657421668e-06,5.047610309401836e-07,2.468891104090867e-07
6.606177291373229e-07,7.19246124483629e-07,-7.295408257257337e-07,7.96990229471859e-07,-3.815098783107641e-06,-2.13618992606813e-06,-2.05925265951106e-06,-1.783341638716635e-07,-1.3067546522558865e-06,2.7384930127690993e-07,5.710817449581194e-07,5.33168393163975e-07,1.0675139759244678e-06,1.66835903521524e-06,4.953661455503991e-07,1.95501436670754e-06,5.169660307469678e-07,2.677581742835521e-07
6.554359785582034e-07,7.011269660537498e-07,-6.7892584623734e-07,7.711483464075254e-07,-3.6804685103750065e-06,-1.9822155243693778e-06,-2.0293286773023246e-06,-1.5990330913824635e-07,-1.277208174364545e-06,2.8352487945277887e-07,5.92788281192793e-07,5.521677964790226e-07,1.0756431534867552e-06,1.6890942394330947e-06,4.918226682245266e-07,1.940694714392793e-06,5.071017887840378e-07,2.759218533884181e-07
6.088492205783316e-07,6.577235486765079e-07,-6.239446740041881e-07,7.198863800490031e-07,-3.5449438101153778e-06,-1.8185046550229155e-06,-2.0189309419412655e-06,-1.6382473661693054e-07,-1.2543563366444995e-06,2.6006162675976397e-07,6.061730791096598e-07,5.613070750835094e-07,1.0573037808849667e-06,1.6767350623805565e-06,4.6422756326343124e-07,1.888719726796333e-06,4.690485419910506e-07,2.6020348763618655e-07
5.680116197662627e-07,5.838036034553171e-07,-5.737560449207635e-07,6.369206244775955e-07,-3.4158112337420758e-06,-1.6592938334178366e-06,-2.0236322397395336e-06,-2.0288379011225903e-07,-1.2453762153933182e-06,2.3427357672326216e-07,6.014008230493987e-07,5.527377130922094e-07,1.0076838993702352e-06,1.6270306628109209e-06,4.122819231363112e-07,1.8006249714704137e-06,4.49067769693928e-07,2.2050663788016918e-07
5.207105831604167e-07,4.892739159514571e-07,-5.321466604198397e-07,5.337807944406267e-07,-3.2973117509237392e-06,-1.5242445680853397e-06,-2.042684584881199e-06,-2.7032135684004217e-07,-1.248193980987511e-06,1.6770254851973339e-07,5.780270711083142e-07,5.175605420136719e-07,9.368441732119768e-07,1.55266118506411e-06,3.457428813262729e-07,1.6907398586765516e-06,3.953096220426506e-07,1.665195762328092e-07
4.192989855747184e-07,3.95859314348155e-07,-5.100186470958132e-07,4.291586722082358e-07,-3.1889255452395256e-06,-1.3838010498023417e-06,-2.0689256965713778e-06,-3.4401048749819597e-07,-1.2532345743832078e-06,1.00972837981166e-07,5.447943026005745e-07,4.76620949081824e-07,8.637433786808626e-07,1.4793587709202976e-06,2.841381882059693e-07,1.5826725293937957e-06,3.2977810116139935e-07,1.1641212614107022e-07
3.414263506347522e-07,3.281415944525317e-07,-4.957023610672066e-07,3.602905052170105e-07,-3.084516926639375e-06,-1.2443822194629328e-06,-2.0709359852605934e-06,-3.9827013393810094e-07,-1.2489424309863802e-06,4.54164518508029e-08,5.148120271284231e-07,4.40215316772556e-07,8.073985807430694e-07,1.4290649619145725e-06,2.559599751041073e-07,1.4973868474322927e-06,2.815332519128546e-07,9.521493027356645e-08
3.0419447414546547e-07,3.0277301655125183e-07,-4.763900985532322e-07,3.5232897124771506e-07,-2.97852010595146e-06,-1.109713416779096e-06,-2.033582812848209e-06,-4.1654248679480983e-07,-1.2285330402034814e-06,1.0451827393235106e-08,4.983810333653002e-07,4.154564470470086e-07,7.778487172769629e-07,1.4130949495163787e-06,2.2960022188641834e-07,1.4446937635717223e-06,2.56000572171943e-07,7.37670229290205e-08
2.7641020688680705e-07,3.201428114967275e-07,-4.509967189706382e-07,3.181969239496635e-07,-2.87340638120268e-06,-9.770058216577827e-07,-1.965550094264305e-06,-4.0031382538597843e-07,-1.1947782799343801e-06,-7.125253515474024e-09,4.976361034771543e-07,4.0751085223926425e-07,7.714840321419227e-07,1.4239953225258315e-06,2.4527348482043713e-07,1.4202702612208058e-06,2.439783013986462e-07,8.501903636331895e-08
2.4250163935065245e-07,3.6275236491514185e-07,-4.196686316543374e-07,3.1394835686562674e-07,-2.7862272257094457e-06,-8.703208125313258e-07,-1.8760094178484162e-06,-3.6877158604246724e-07,-1.159863768489409e-06,-2.192013436728448e-08,5.050771885577377e-07,4.0923363938259047e-07,7.742898227224586e-07,1.4381681784230686e-06,2.62857152786109e-07,1.4079395313888062e-06,2.3396167989685e-07,9.15608621887163e-08
2.583459760949389e-07,4.0244119580766126e-07,-3.9643331422265274e-07,3.288979232205388e-07,-2.7298340528900444e-06,-8.039059386398095e-07,-1.7868842773331123e-06,-3.482894601848744e-07,-1.139651472939744e-06,-5.278506487991613e-08,5.083776588469767e-07,4.042865337077863e-07,7.691652459625398e-07,1.4319397301192037e-06,2.7112401708152477e-07,1.3893911016352175e-06,2.075159509115848e-07,8.276997388729115e-08
2.6050970969164766e-07,4.1338585908765106e-07,-4.2745565410513066e-07,3.5367785518643e-07,-2.7235770894588783e-06,-7.844369219077187e-07,-1.7167656885522077e-06,-3.581774129624775e-07,-1.1455630658029451e-06,-1.1088194255518544e-07,4.962390909776016e-07,3.846936715813598e-07,7.447329784472167e-07,1.39141226964629e-06,2.6068554467934697e-07,1.3534591866185301e-06,1.7513898418647995e-07,5.135981215306315e-08
2.462469327808109e-07,3.835777383839285e-07,-4.710139970623744e-07,3.608074730271668e-07,-2.7743887482401376e-06,-8.034476539121035e-07,-1.6682589905618413e-06,-4.005619398102305e-07,-1.1788656871892723e-06,-1.933804601680503e-07,4.6534091603016194e-07,3.538199849291343e-07,7.00587853817948e-07,1.3205360295009377e-06,2.3348073701178972e-07,1.3003931269939207e-06,1.1777248706900467e-07,1.1343666163191914e-09
1.8795071530239228e-07,3.187263999055569e-07,-5.062691142982557e-07,3.5595742668854826e-07,-2.867904696823002e-06,-8.478032651884111e-07,-1.6296255020984415e-06,-4.5996218582596897e-07,-1.2300252747730428e-06,-2.9189606971602506e-07,4.208767284739079e-07,3.215630454542068e-07,6.465573366470896e-07,1.238604370578241e-06,2.0109901562549306e-07,1.2398724118687328e-06,5.6287002079585773e-08,-5.5302707994471735e-08
1.2719808864620448e-07,2.3772789731273202e-07,-5.773387689931867e-07,3.5264472335988047e-07,-2.9730423647840528e-06,-9.032540179305699e-07,-1.5841766081283237e-06,-5.11585889713804e-07,-1.2828908801644978e-06,-3.7059430942041316e-07,3.747631708788963e-07,3.033567378639141e-07,5.980508713006647e-07,1.1697963315125313e-06,1.7852977527072444e-07,1.1843420456822547e-06,5.097551369303476e-10,-1.0255344142529457e-07
7.126886038799985e-08,1.628830729190812e-07,-6.478507246081216e-07,3.614367539734768e-07,-3.054703164388981e-06,-9.359581492237178e-07,-1.519807850067225e-06,-5.342291397604071e-07,-1.3218158747731968e-06,-4.014314257097907e-07,3.402028885023164e-07,3.0970798919342267e-07,5.680722442112591e-07,1.1305512186708377e-06,1.7624879991770834e-07,1.1412763357650207e-06,-4.079810053029515e-08,-1.2944940903425037e-07
5.417145661602343e-08,1.0950217601714286e-07,-6.679168187712967e-07,3.830625811431226e-07,-3.089406126880926e-06,-9.300660597217049e-07,-1.4404802332798612e-06,-5.215052475358145e-07,-1.3388078486734637e-06,-4.3864716016223063e-07,3.234582605951524e-07,3.4128316349380325e-07,5.603090893928009e-07,1.121052184463225e-06,1.944294948803015e-07,1.1082383441294243e-06,-6.689191557296077e-08,-1.3411384346305115e-07
4.5594078993867746e-08,7.969723890101512e-08,-6.964500870839028e-07,4.1759261316007983e-07,-3.073297364833887e-06,-8.919341630390603e-07,-1.3554451969385686e-06,-4.856767794357658e-07,-1.3372151973700188e-06,-4.6365454299073967e-07,3.2154855917685516e-07,3.872464797322777e-07,5.668376641629944e-07,1.1253285041986143e-06,2.226699475324012e-07,1.0737633185080094e-06,-8.505630606302067e-08,-1.2459756179395425e-07
6.10853335619195e-08,6.340805943917068e-08,-7.389510974575714e-07,4.5161002805195176e-07,-3.0190769647110294e-06,-8.406376592849105e-07,-1.2825218925960721e-06,-4.511715919158577e-07,-1.3296075592798715e-06,-4.443180602566426e-07,3.2541962365073425e-07,4.3032610479987054e-07,5.733781705837562e-07,1.1198479033993208e-06,2.4574916823772767e-07,1.0221267308413952e-06,-1.0580431070800003e-07,-1.1450834344582098e-07
6.318935929958034e-08,4.6031562039657074e-08,-7.211188362682298e-07,4.6949043143686437e-07,-2.9560633598341234e-06,-8.041607652480833e-07,-1.2405391703757042e-06,-4.4115988800629815e-07,-1.330889436790183e-06,-4.208618675912753e-07,3.293078576796261e-07,4.5643963955340537e-07,5.666101605219309e-07,1.0877599082309893e-06,2.5185624215142186e-07,9.45276752245737e-07,-1.3630302271503718e-07,-1.1595407474161693e-07
5.019238718556957e-08,1.7897006829368353e-08,-6.872657989852814e-07,4.6065558591639496e-07,-2.908638463087443e-06,-7.971077271571334e-07,-1.2366005763278002e-06,-4.656642276061496e-07,-1.3507516600128622e-06,-4.18230000224158e-07,3.105875694281243e-07,4.606551735965337e-07,5.406628653747907e-07,1.0276937412381962e-06,2.3820259266412405e-07,8.516679858923675e-07,-1.7619488699172913e-07,-1.337641718705841e-07
2.1205852977616262e-08,-2.0049792796383458e-08,-6.64567126884754e-07,4.275416716529464e-07,-2.886554321346381e-06,-8.267480701025922e-07,-1.262886461102269e-06,-5.180651785346127e-07,-1.3894717461026055e-06,-4.339911901007117e-07,2.914218199420715e-07,4.41166027067263e-07,5.00302272128345e-07,9.53781976227837e-07,2.1125670079280632e-07,7.550046712276256e-07,-2.1807969493762567e-07,-1.63890560414995e-07
-1.5627048097034824e-08,-5.723064648710896e-08,-6.459514573348884e-07,3.8229079443309217e-07,-2.893184086789726e-06,-8.74664710910496e-07,-1.3060414797505604e-06,-5.804393716046358e-07,-1.4386776908217112e-06,-4.468787356900704e-07,2.6861961216797214e-07,4.082475229110596e-07,4.576680733892493e-07,8.890232111188164e-07,1.8234464389624904e-07,6.963353628868157e-07,-2.5190947814518425e-07,-1.964094576038781e-07
-4.563026087830253e-08,-8.013650045190546e-08,-6.234597136339609e-07,3.389859593085432e-07,-2.9172559627504883e-06,-9.222708872442386e-07,-1.3490014798951617e-06,-6.337654475884358e-07,-1.486293702644812e-06,-4.492228010921772e-07,2.5242001037947316e-07,3.740864400019935e-07,4.260996573712751e-07,8.538318062032531e-07,1.6153738974313645e-07,7.165766960193153e-07,-2.705144121964009e-07,-2.212449858597519e-07
-5.7979770229121545e-08,-8.069915947863078e-08,-5.989149871314218e-07,3.0885667082735083e-07,-2.9468336193178343e-06,-9.58940328937454e-07,-1.3772626214788118e-06,-6.6740230203833e-07,-1.5229544469280616e-06,-4.397129306695687e-07,2.468533056477131e-07,3.457404085765668e-07,4.1389743666306225e-07,8.573249083346394e-07,1.532698340625656e-07,7.06315463183561e-07,-2.7313400029118967e-07,-2.3326595095784476e-07
-5.0617272691336635e-08,-6.124950310235863e-08,-5.770436940369808e-07,2.9750692606645623e-07,-2.980405867552971e-06,-9.795664465536842e-07,-1.390866915172988e-06,-6.827481174005303e-07,-1.5461094304734955e-06,-4.2067243987592294e-07,2.5051626190525856e-07,3.2648518531923974e-07,4.216206495220696e-07,8.953673577155633e-07,1.5597081791699748e-07,7.152402611293226e-07,-2.6509265186130056e-07,-2.3371085103251258e-07
-2.9865648039626906e-08,-3.2825424752684046e-08,-5.632195060580772e-07,2.99098303285125e-07,-3.0235641281136274e-06,-9.90889707732358e-07,-1.3971719780741022e-06,-6.890035234522653e-07,-1.559406638802169e-06,-4.018902736451174e-07,2.5943341700769545e-07,3.1428266376626963e-07,4.4407246570532134e-07,9.550050104092572e-07,1.65260600768409e-07,7.815803685155953e-07,-2.5417617686867296e-07,-2.2753696615755257e-07
-5.426725328755584e-09,-8.124143500104812e-09,-5.626571659739861e-07,3.0577994722287776e-07,-3.0751036911582833e-06,-9.996333948697857e-07,-1.4043707409100511e-06,-6.945681704534574e-07,-1.5684780887774524e-06,-3.891950555254147e-07,2.715076938978092e-07,3.053172092790041e-07,4.749585461786769e-07,1.0221188205912413e-06,1.7779383024164662e-07,8.8023572101169e-07,-2.4636820732879004e-07,-2.1936123210490423e-07
1.588268577002212e-08,5.596133693670219e-09,-5.756866469201562e-07,3.102499952945349e-07,-3.12731552491328e-06,-1.0081557597614831e-06,-1.4164804730659702e-06,-7.009911387328935e-07,-1.576719024671611e-06,-3.8248156730865445e-07,2.8785958329597725e-07,3.0108932854666496e-07,5.101015850255314e-07,1.0858448662737233e-06,1.9283145480541652e-07,9.476359883517524e-07,-2.43689210642091e-07,-2.1121469873397305e-07
3.24667815195362e-08,8.615444528158471e-09,-6.039454490465163e-07,3.1458323325694345e-07,-3.1668464901812093e-06,-1.0122698798091004e-06,-1.4310523425380614e-06,-7.034775522272911e-07,-1.5838821339344915e-06,-3.7805661893357367e-07,3.114330219849921e-07,3.1034668129314836e-07,5.463617769432277e-07,1.1391178177565963e-06,2.1085015470273934e-07,9.622940138740197e-07,-2.450600213132282e-07,-2.0323276719972675e-07
4.5947098985120857e-08,5.150419119596077e-09,-6.438952109373761e-07,3.232754013185593e-07,-3.1779694467312874e-06,-1.0062284355138842e-06,-1.4409412830441558e-06,-6.965797928257786e-07,-1.5875849818564474e-06,-3.7206859352738325e-07,3.426902402206654e-07,3.328832304860208e-07,5.796613611508653e-07,1.1757010687098656e-06,2.3078318840311336e-07,9.191310259049857e-07,-2.489619708706542e-07,-1.9593342083734384e-07
5.7350502731636714e-08,-2.243764383090497e-09,-6.909679720462858e-07,3.3886010610945044e-07,-3.1547727222499135e-06,-9.954727426494941e-07,-1.4402136184617626e-06,-6.797672618344917e-07,-1.5855530215167607e-06,-3.640562215143294e-07,3.767862643240914e-07,3.6295179057061294e-07,6.028549517762146e-07,1.1880770257772619e-06,2.485209627075293e-07,8.735784555306518e-07,-2.5547756406413634e-07,-1.91598563833902e-07
6.443526031192314e-08,-1.5476123933209228e-08,-7.134545517286451e-07,3.6186581699617646e-07,-3.1004469814158018e-06,-9.90130017489596e-07,-1.4272500183583382e-06,-6.586872839900535e-07,-1.5763153495570075e-06,-3.569402681761766e-07,4.0528373670009935e-07,3.9556133077244284e-07,6.068157486471828e-07,1.1695864590581131e-06,2.5843758193014344e-07,8.151118664156633e-07,-2.659251928672389e-07,-1.9318701695420456e-07
6.291653950742944e-08,-3.88560543386641e-08,-7.022717618090234e-07,3.871669205726019e-07,-3.021792539568884e-06,-1.0001038935491734e-06,-1.403201685812885e-06,-6.414028932754106e-07,-1.5583090735362053e-06,-3.539753048081465e-07,4.1990866621544176e-07,4.107569842828016e-07,5.850427632675279e-07,1.1190967507972063e-06,2.569819666601926e-07,7.136106612400479e-07,-2.8062764121214926e-07,-2.0179937443577333e-07
5.00839596197005e-08,-7.440584256814697e-08,-6.795233813887937e-07,4.102094908839503e-07,-2.9260382007729088e-06,-1.0299895501762607e-06,-1.3707547764235094e-06,-6.33427530696849e-07,-1.529438183543713e-06,-3.5576794589642886e-07,4.1671799920121356e-07,4.0162058008303724e-07,5.372764264991952e-07,1.0441067649738724e-06,2.452520878135275e-07,6.042408346443461e-07,-2.972035204493775e-07,-2.1475706977829703e-07
2.702114381168264e-08,-1.1896100884993383e-07,-6.504357460561844e-07,4.276980007184237e-07,-2.8169370798416776e-06,-1.0737538352230633e-06,-1.3332350182234356e-06,-6.358198148587002e-07,-1.4885621599250765e-06,-3.600913308493451e-07,3.973447745117324e-07,3.7147188311905115e-07,4.7067956459914985e-07,9.589707993974403e-07,2.284285959661199e-07,5.734832691928624e-07,-3.1114574367311103e-07,-2.2686976802166872e-07
-2.0238063501881728e-09,-1.6532068603210313e-07,-6.221698117627473e-07,4.381020141902364e-07,-2.6982141389853493e-06,-1.119484232773994e-06,-1.294743275051383e-06,-6.467160410667406e-07,-1.4380670458033543e-06,-3.6385195034533104e-07,3.6733469128978243e-07,3.147092570738647e-07,3.9731768969152325e-07,8.795958046284656e-07,2.127614492778412e-07,6.069351858623692e-07,-3.1822103923039017e-07,-2.335807622595711e-07
-3.240406098753717e-08,-2.058368361365262e-07,-5.950023394673254e-07,4.398270938332612e-07,-2.578251216364822e-06,-1.1561985114454792e-06,-1.2600879610072e-06,-6.641191665696968e-07,-1.3850270171094228e-06,-3.6511900621981206e-07,3.332871453589943e-07,2.565085607536161e-07,3.299521912280621e-07,8.177579607344072e-07,2.0262260274071055e-07,6.174304857749493e-07,-3.165852934589347e-07,-2.333408697792328e-07
-6.116799438997859e-08,-2.3515859744707446e-07,-5.729868418742983e-07,4.32699457261221e-07,-2.468583701858303e-06,-1.1793712509712183e-06,-1.233230838286423e-06,-6.865446278537172e-07,-1.3389309008889264e-06,-3.626241273320154e-07,3.008384995417885e-07,2.0674392551216123e-07,2.7857269486849286e-07,7.794660072751038e-07,1.996325749238207e-07,6.775035988266989e-07,-3.0595604978340546e-07,-2.2750312655734064e-07
-8.666463582414581e-08,-2.504161831013137e-07,-5.631524299600463e-07,4.1918415701049544e-07,-2.3813119592376968e-06,-1.1881458927338648e-06,-1.214952502905606e-06,-7.11632054929119e-07,-1.3068237405993502e-06,-3.5628740073737936e-07,2.743538385388131e-07,1.6843519631226413e-07,2.4903635860734383e-07,7.657594759812511e-07,2.0367668306218616e-07,7.748591942800248e-07,-2.8785329088884154e-07,-2.1816202575611452e-07
-1.0704735542152691e-07,-2.4999808687298416e-07,-5.628758335544989e-07,4.0389353994764916e-07,-2.321505790098465e-06,-1.1837196838804316e-06,-1.2023664712923095e-06,-7.351822529535666e-07,-1.289608723880689e-06,-3.4623478653553335e-07,2.5727235367015737e-07,1.5507066931953933e-07,2.430269116575534e-07,7.743264265754515e-07,2.140295804679788e-07,8.990249127014754e-07,-2.631381301551182e-07,-2.063700418956899e-07
-1.1981270118371567e-07,-2.3319972006751598e-07,-5.704218584439643e-07,3.927273172148887e-07,-2.2839189851740445e-06,-1.1679054196412767e-06,-1.1906064804495243e-06,-7.524121197378165e-07,-1.2824751748036218e-06,-3.3193344056717185e-07,2.5209344278366257e-07,1.544763451191368e-07,2.581589235103243e-07,8.003959022334003e-07,2.2947608660938928e-07,1.000752710537619e-06,-2.326881933691772e-07,-1.9237281457858725e-07
-1.22921975376248e-07,-2.0124229939455488e-07,-5.845318635558644e-07,3.8989653098434453e-07,-2.257942029079698e-06,-1.1427178997703999e-06,-1.1758765220389398e-06,-7.60232489843047e-07,-1.2785348561058568e-06,-3.1474038623420863e-07,2.5959384101053976e-07,1.64185237737976e-07,2.8891178077110815e-07,8.370931873006501e-07,2.4813068352367545e-07,1.0651648777088435e-06,-1.9721510601980315e-07,-1.7604791998961407e-07
-1.1578193665121042e-07,-1.5774959792881876e-07,-6.005575696866868e-07,3.9655046400185694e-07,-2.233392595286596e-06,-1.1114803707497828e-06,-1.1572826155946407e-06,-7.578201266590326e-07,-1.27223278966103e-06,-2.971299497982665e-07,2.787156644502546e-07,1.8342776728888805e-07,3.28849588183978e-07,8.773876219539336e-07,2.682284361438484e-07,1.1164671929981034e-06,-1.5782367323609667e-07,-1.56619602770304e-07
-9.861744433927829e-08,-1.0706399237158614e-07,-6.145810652591261e-07,4.1176050052039067e-07,-2.203258128970151e-06,-1.0770331248027758e-06,-1.1356796606534756e-06,-7.450044088563314e-07,-1.2603111732467255e-06,-2.80607239225147e-07,3.0774259172957643e-07,2.059651164504105e-07,3.734331002897655e-07,9.172550776081677e-07,2.8965976738644387e-07,1.1541633238036445e-06,-1.1549141541797612e-07,-1.321131442416856e-07
-7.074645013864742e-08,-5.162440703080588e-08,-6.206277935082682e-07,4.343039464546435e-07,-2.1638248520476446e-06,-1.0398230250352929e-06,-1.1112332781888111e-06,-7.204539794272927e-07,-1.2410773186989343e-06,-2.648350864742157e-07,3.455464270158936e-07,2.3309210434580902e-07,4.214272662370682e-07,9.571850085933423e-07,3.1442566096749307e-07,1.1790449031103824e-06,-6.996556568341238e-08,-9.972092758589229e-08
-3.06596816031419e-08,8.683553338918866e-09,-6.14599528258693e-07,4.635985946835291e-07,-2.114325325397966e-06,-9.983622776725955e-07,-1.0824784928259672e-06,-6.822015915862052e-07,-1.2140067141398298e-06,-2.4823213655685927e-07,3.916244455864231e-07,2.6578754589754093e-07,4.7341903594858474e-07,1.0004202015609153e-06,3.4498801280158514e-07,1.2049161246488827e-06,-2.1226218139583543e-08,-5.785314530935309e-08
2.3030758389020036e-08,7.416068834036323e-08,-5.957686221945895e-07,4.985921155910673e-07,-2.056932289061345e-06,-9.519194597773125e-07,-1.0479365800370262e-06,-6.303003802177174e-07,-1.1802285194620382e-06,-2.2950133373980514e-07,4.449711783807664e-07,3.0357367341055025e-07,5.295598800041576e-07,1.049781969060112e-06,3.8191714007592107e-07,1.2330861568590778e-06,3.009800130416168e-08,-8.267995126529716e-09
8.722843464068085e-08,1.423223524367605e-07,-5.674603128878509e-07,5.367295217728199e-07,-1.9977855035849264e-06,-9.027644716138899e-07,-1.0078810215830032e-06,-5.684971516524147e-07,-1.142459238143869e-06,-2.086771803674066e-07,5.03236296103843e-07,3.4457470181113016e-07,5.88448074904615e-07,1.1058264196543875e-06,4.231780905097481e-07,1.2671923354097017e-06,8.260506331593018e-08,4.3992834327325634e-08
1.5483559353047506e-07,2.0766184718620823e-07,-5.342841569878628e-07,5.744962610687522e-07,-1.945075015683725e-06,-8.552382299212842e-07,-9.64151244273852e-07,-5.026440169185114e-07,-1.1032439844448505e-06,-1.8616228500451283e-07,5.633261447744279e-07,3.8643372726051067e-07,6.476460775550791e-07,1.1676925061205427e-06,4.6560035657310573e-07,1.3100481148475916e-06,1.36650112766211e-07,9.479996019590865e-08
2.2154069742272465e-07,2.644768148686766e-07,-4.994151308137323e-07,6.094146422111729e-07,-1.9043028238415201e-06,-8.126423060915651e-07,-9.182262353388769e-07,-4.37234408426819e-07,-1.0628276220228939e-06,-1.592291320054784e-07,6.228456184685522e-07,4.2636662426843147e-07,7.048738340033806e-07,1.2346468734037972e-06,5.067030818737704e-07,1.361715953021048e-06,1.9266682401783334e-07,1.4101440036185723e-07
2.8451952643715686e-07,3.097389766517842e-07,-4.643713339229763e-07,6.412782372014526e-07,-1.876152115204756e-06,-7.757023750936192e-07,-8.702984301925363e-07,-3.738456491669758e-07,-1.019303111851794e-06,-1.2531984966557466e-07,6.805586634090809e-07,4.627400335479482e-07,7.583902880119344e-07,1.3056651572074847e-06,5.449761917766384e-07,1.4213695995830238e-06,2.510103748180341e-07,1.8234137327126292e-07
3.3931978212567666e-07,3.433687276474769e-07,-4.2904592958284993e-07,6.708940333978961e-07,-1.8585178647537216e-06,-7.443307570990625e-07,-8.209954163239565e-07,-3.1315259244366273e-07,-9.714958446871325e-07,-8.395839975174057e-08,7.350913685372146e-07,4.945019066731597e-07,8.066247278842582e-07,1.3773632702291812e-06,5.788660418953145e-07,1.4856631172197326e-06,3.1044593254329635e-07,2.1879093376425537e-07
3.833486515237136e-07,3.664613728444591e-07,-3.9455190710825105e-07,6.979662872357614e-07,-1.850243849495387e-06,-7.200556856601931e-07,-7.735917090313976e-07,-2.575692884315546e-07,-9.216203571838746e-07,-3.938229573428349e-08,7.835222155217773e-07,5.208454812679634e-07,8.480554216585709e-07,1.4434360095386663e-06,6.063786287224272e-07,1.5487098496948403e-06,3.6619800881506387e-07,2.510668680482995e-07
4.121387338351978e-07,3.8021351430799397e-07,-3.6336389713031845e-07,7.206305302365487e-07,-1.8522046054193507e-06,-7.054218852888858e-07,-7.334868174352228e-07,-2.1074134831759115e-07,-8.744869167598466e-07,-4.1702653074425415e-09,8.2215434318619e-07,5.411534141821633e-07,8.821755115799463e-07,1.4975729879166711e-06,6.264703831353562e-07,1.6048353860274374e-06,4.0766513587194205e-07,2.7980690784778047e-07
4.2406550143272287e-07,3.8722470063046076e-07,-3.377123378545844e-07,7.374642012920063e-07,-1.8641233005959869e-06,-7.004343246420799e-07,-7.042992642955675e-07,-1.7362431125352687e-07,-8.337150966516179e-07,1.9768178072215838e-08,8.493497504907086e-07,5.58511978526947e-07,9.107876910187572e-07,1.538456922284659e-06,6.410310777651616e-07,1.6523855284302132e-06,4.3820114961454006e-07,3.08198606742451e-07
4.2409040026921354e-07,3.9339673984493447e-07,-3.1729007580345073e-07,7.497412741742656e-07,-1.8809878135081726e-06,-7.001908337915614e-07,-6.848054549192078e-07,-1.4196506355568017e-07,-7.987954221340487e-07,4.268090707690486e-08,8.659109590330964e-07,5.787248875076064e-07,9.379850413274778e-07,1.5714587591014196e-06,6.566518758370152e-07,1.6947505562908479e-06,4.638408273318441e-07,3.409949319983547e-07
4.2122769328573996e-07,4.068501732548743e-07,-2.9813885120224765e-07,7.613470694881739e-07,-1.8939378834085184e-06,-6.972453042326129e-07,-6.695225216579978e-07,-1.0898632047088951e-07,-7.660803097567253e-07,6.699090097325172e-08,8.782349319887173e-07,6.071820437626128e-07,9.67813264902118e-07,1.603936599820312e-06,6.759667549861362e-07,1.73664535547363e-06,4.86000305033176e-07,3.678505721352325e-07
4.2368514982355847e-07,4.3281587517159416e-07,-2.7963861205410775e-07,7.75702964713649e-07,-1.8962860636438714e-06,-6.877677418653468e-07,-6.536128930703673e-07,-7.19573141949401e-08,-7.331247554092475e-07,8.278160424814677e-08,8.9138626404372e-07,6.455438780120741e-07,1.000681777269995e-06,1.6371665694524155e-06,6.990260940769271e-07,1.7782313552456085e-06,5.065793723197877e-07,3.889845916807124e-07
4.232277313633077e-07,4.67797553196197e-07,-2.6263429989357915e-07,7.917231403143739e-07,-1.8905708126206064e-06,-6.767987947490121e-07,-6.386178464309194e-07,-3.768206069117355e-08,-7.02868035777258e-07,8.87511935007263e-08,9.027533674717736e-07,6.870011653848222e-07,1.0313395491843916e-06,1.661853898582484e-06,7.205669714209956e-07,1.8122192165475916e-06,5.087417343866867e-07,3.8648290402315667e-07
4.2570945867784204e-07,4.981333833574231e-07,-2.5188769919114477e-07,8.02276949451782e-07,-1.8909066043264041e-06,-6.778986459222846e-07,-6.339104215734034e-07,-2.1774931164099567e-08,-6.840268963512092e-07,6.404601425711724e-08,9.044574509290405e-07,7.180668836181936e-07,1.0506304051466149e-06,1.6612464746115384e-06,7.107766656513411e-07,1.8267516039692775e-06,4.7243365962816015e-07,3.4635940542160175e-07
3.9011512466468406e-07,5.055288662148146e-07,-2.746004781209846e-07,7.969841010789015e-07,-1.917541766823882e-06,-7.064382747035323e-07,-6.52334820212461e-07,-4.3818658697117413e-08,-6.86903930799276e-07,-2.8220433456525142e-09,8.851848128804481e-07,7.212365857622029e-07,1.049535251014649e-06,1.6183675367632256e-06,6.629060727216807e-07,1.8119468117040494e-06,4.555777436764497e-07,3.3334642524388657e-07
3.299885787479665e-07,4.7421615459230557e-07,-3.3331453289494927e-07,7.685158742977444e-07,-1.9860738243181225e-06,-7.705903103812757e-07,-7.023749612448359e-07,-1.1069801679268298e-07,-7.174372998110682e-07,-3.9399798748957124e-08,8.392489204337108e-07,6.892206510339161e-07,1.024451113441873e-06,1.5328398306746158e-06,6.430902405833656e-07,1.7653782265091749e-06,4.616885872854427e-07,3.3943322480924407e-07
2.9385657156234535e-07,4.073707282776266e-07,-3.6255279915132637e-07,7.167087515484603e-07,-2.0977049857112223e-06,-8.654526576632462e-07,-7.816521382407718e-07,-2.101768745893518e-07,-7.733599806130621e-07,-5.021464902033149e-08,7.706406066607657e-07,6.239533210902968e-07,9.793062449735397e-07,1.4205682191070377e-06,5.721041272225628e-07,1.694042196621575e-06,4.82526074728285e-07,3.4156046430285174e-07
2.271367617734211e-07,3.2211928629315607e-07,-4.3968841178560823e-07,6.51775165729431e-07,-2.236096378173306e-06,-9.732433298132128e-07,-8.757675324177163e-07,-3.2326101723908144e-07,-8.44272797519378e-07,-8.579193708917379e-08,7.071555426202906e-07,5.331158791821203e-07,9.245030375606666e-07,1.304865266547848e-06,4.753464670733729e-07,1.6087265436176304e-06,4.900550217917532e-07,2.808606071537845e-07
1.6829634397086632e-07,2.4150767862292983e-07,-5.40121214726945e-07,5.895016439106564e-07,-2.372505685697743e-06,-1.0692995107366673e-06,-9.6265301885681e-07,-3.9406127296446404e-07,-9.150435400588918e-07,-1.5560279006014336e-07,6.624710937918485e-07,4.5674812147530605e-07,8.737847360229959e-07,1.2584643155545535e-06,4.11901916904408e-07,1.5216378393644039e-06,4.50431141719651e-07,2.2740977551375637e-07
1.5886332703694483e-07,2.1145546421768945e-07,-6.052472680115695e-07,5.316447397750448e-07,-2.476928814129852e-06,-1.1314734368368496e-06,-1.0205322294758196e-06,-3.7405331216150985e-07,-9.710036740049362e-07,-2.0377156415278993e-07,6.684571513922948e-07,4.5974738970248866e-07,8.394144411019544e-07,1.2712885510294256e-06,4.08983980872693e-07,1.4410481717651833e-06,3.8974396392396585e-07,1.875899199757663e-07
1.427211353222084e-07,2.2002675737224163e-07,-6.36820962929077e-07,5.111711325388936e-07,-2.5301955147278156e-06,-1.14897222970942e-06,-1.0363364020541816e-06,-3.8895519748697846e-07,-1.0029838066485997e-06,-2.1946421670739033e-07,6.772290704474761e-07,4.602194222477725e-07,8.278863501719157e-07,1.2429932639173579e-06,3.82264948350368e-07,1.3683137739504243e-06,3.424566312747518e-07,1.551189857716577e-07
1.381890533760309e-07,2.2700440176025584e-07,-6.612024196177084e-07,5.389862561505838e-07,-2.5310559946152107e-06,-1.1259825153100516e-06,-1.0103561918870905e-06,-4.0853573450628796e-07,-1.0096294497939126e-06,-2.3251264443606126e-07,6.573527097373439e-07,4.433481604889786e-07,8.380964160577801e-07,1.2493870674501438e-06,3.5359700866341435e-07,1.300363206912102e-06,3.0222497048477177e-07,1.2351433400834399e-07
1.2527399860391832e-07,2.7976440150665645e-07,-6.919075096128434e-07,5.762077916114509e-07,-2.494470518957072e-06,-1.0775598617653746e-06,-9.543257117182629e-07,-3.1784038888483494e-07,-9.953394758356086e-07,-2.519680180722016e-07,6.45562029906093e-07,4.895972643611116e-07,8.634642193189488e-07,1.3269996829167108e-06,3.855590026809769e-07,1.233512112408467e-06,2.8397240451874437e-07,1.3341085702314974e-07
1.5090691850159108e-07,3.8189439508374593e-07,-6.695833343987427e-07,6.130009829152862e-07,-2.442708171597422e-06,-1.0205809330461707e-06,-8.843050584533154e-07,-1.975082002733331e-07,-9.654532397515806e-07,-2.430691353632287e-07,6.736146894991853e-07,5.663712610799212e-07,8.962356710057123e-07,1.4403745888318926e-06,4.332561170945309e-07,1.1685494731729227e-06,2.6618584100686015e-07,1.605931350646055e-07
1.9985699984741793e-07,4.6801536846169094e-07,-6.33550569970717e-07,6.517102908114878e-07,-2.395476179158655e-06,-9.66428692287088e-07,-8.135752756985209e-07,-1.1054671276889212e-07,-9.22755657257303e-07,-2.2764965738936144e-07,7.177745790746973e-07,6.232295796736763e-07,9.311244290182623e-07,1.528620400453202e-06,4.6357541779864087e-07,1.1120192860076625e-06,2.449316543158203e-07,1.8802090656839708e-07
2.247151627606923e-07,5.004846722759892e-07,-6.059730879499935e-07,6.87694926770498e-07,-2.36469231961411e-06,-9.200587737881179e-07,-7.4969149230501e-07,-4.986045606587461e-08,-8.678685401318021e-07,-2.2375731367173597e-07,7.644226321497971e-07,6.64299030867511e-07,9.659430188229132e-07,1.605926402152364e-06,4.839687857100303e-07,1.0730546972008637e-06,2.2674566142860378e-07,2.076441784145023e-07
2.328072660368939e-07,4.927896338053898e-07,-5.842833184092577e-07,7.163389662092499e-07,-2.355051293278748e-06,-8.844567141036788e-07,-6.965468501986023e-07,-3.897937489712002e-09,-8.025072296342839e-07,-2.074472157497525e-07,8.074996807365477e-07,7.079137549474921e-07,9.99707475785534e-07,1.6840712455338578e-06,5.029115145923632e-07,1.0562607959721587e-06,2.1862608066864435e-07,2.448025855521883e-07
2.4098633577444464e-07,4.633077426021659e-07,-5.639227929607208e-07,7.417368886790098e-07,-2.3674693420423865e-06,-8.655017362751353e-07,-6.581561155419397e-07,2.466708401802545e-08,-7.323396726972936e-07,-1.5667700420028084e-07,8.395247827628665e-07,7.46893369046991e-07,1.030625798294065e-06,1.7562402971534696e-06,5.192720046171234e-07,1.0556084580438088e-06,2.194849564731141e-07,2.85401589513719e-07
2.2364282509648358e-07,3.9911100567958726e-07,-5.454262529265313e-07,7.665779538146912e-07,-2.401152810225074e-06,-8.725418864024847e-07,-6.401815468281312e-07,3.608750898556475e-08,-6.666301803877616e-07,-9.71082685833523e-08,8.678306653666729e-07,7.795705491637415e-07,1.0557344210198944e-06,1.813329451033539e-06,5.322029483564741e-07,1.0598241652844814e-06,2.217003649500676e-07,3.293491178549156e-07
1.7996697373522425e-07,3.4047018415572283e-07,-5.30035406857568e-07,7.935627294848403e-07,-2.4523025158867805e-06,-9.141265427026208e-07,-6.47994953826702e-07,3.292734207661078e-08,-6.146421592971715e-07,-3.670295637211337e-08,8.886968743248397e-07,8.051318139483939e-07,1.0723819161208402e-06,1.8471381983622014e-06,5.413716308738852e-07,1.055743195377813e-06,2.2092591782745867e-07,3.802423764872023e-07
1.3077307888522582e-07,2.841166971949938e-07,-5.229197478189194e-07,8.267456940939823e-07,-2.511627202208276e-06,-9.955395472559842e-07,-6.833908430384229e-07,2.27906007862413e-08,-5.815349653487138e-07,4.257577552142812e-09,9.038411539362937e-07,8.216101021774131e-07,1.0800813466111702e-06,1.8522663399143077e-06,5.486634485457667e-07,1.033001203443854e-06,2.1442964926301915e-07,3.8911699165363343e-07
6.425509429935985e-08,1.9336081962866202e-07,-5.259662821263792e-07,8.733031696135569e-07,-2.564506377743914e-06,-1.1089542116521727e-06,-7.432851050825723e-07,1.6909076447312296e-08,-5.665926106575062e-07,2.8883859829756586e-08,9.177310260559493e-07,8.32065138906274e-07,1.0803248042430439e-06,1.8304251253935009e-06,5.572339312161928e-07,9.888544654677833e-07,2.097876842358471e-07,3.8228532262179e-07
4.939849565240383e-09,1.0631397588043357e-07,-5.295802819459204e-07,9.284375030230072e-07,-2.5950729556710773e-06,-1.232448909750989e-06,-8.211370367104971e-07,2.470571395566548e-08,-5.645899048538146e-07,4.868746421981592e-08,9.2840458399154e-07,8.386617648060042e-07,1.0746339880688272e-06,1.7863750490874203e-06,5.686004325642414e-07,9.1431294064296e-07,2.1066320484910244e-07,3.6963050952491177e-07
-4.389899891068245e-08,3.703779965583482e-08,-5.059136459874968e-07,9.8531872374343e-07,-2.5917195234604804e-06,-1.3481598944515959e-06,-9.086244127289291e-07,4.8471522763389885e-08,-5.689648819475468e-07,6.147148067692229e-08,9.349567141304243e-07,8.410263295451322e-07,1.062434109452272e-06,1.7234850870338069e-06,5.806365049732845e-07,8.162436810600376e-07,2.1684253369028831e-07,3.5368440091086773e-07
-9.590622386118835e-08,-2.7606384014011387e-08,-4.43837824221929e-07,1.0405687198370095e-06,-2.550430172099406e-06,-1.4148662276594727e-06,-9.954332477183333e-07,8.282442867703716e-08,-5.744052232452079e-07,7.33142041971493e-08,9.370591206274467e-07,8.383963924246014e-07,1.0410498893044369e-06,1.6464284251025707e-06,5.887547077274547e-07,6.990267787637032e-07,2.2383286330779268e-07,3.359041926559714e-07
-1.1728069643123216e-07,-4.9514033400392993e-08,-3.564165983057578e-07,1.0842079269422095e-06,-2.474835734347779e-06,-1.3504286302502928e-06,-1.0683727353359376e-06,1.1940217219346268e-07,-5.774165799104181e-07,8.261129116720014e-08,9.343827461670435e-07,8.305231196413575e-07,1.0085666386518364e-06,1.5603289286851963e-06,5.895526466261553e-07,5.881955830231159e-07,2.2951888877916506e-07,3.139164461193826e-07
-1.2525931503827274e-07,-4.0057087729194436e-08,-2.971277909483997e-07,1.0840973115536724e-06,-2.374969381335706e-06,-1.3261440784420984e-06,-1.1131631561682673e-06,1.52251860790041e-07,-5.757724855518495e-07,8.875526118012065e-08,9.28026277881543e-07,8.189735989703436e-07,9.670130733456872e-07,1.4774798200563877e-06,5.836574172240195e-07,5.019601065584316e-07,2.34287923483265e-07,2.906394151916296e-07
-1.2824853198457854e-07,-4.5318925312619376e-08,-2.6991455664005136e-07,1.0544601499569816e-06,-2.2666475315117495e-06,-1.2875200547483425e-06,-1.1195559419800588e-06,1.7916571606266088e-07,-5.686886556541971e-07,9.485961106147716e-08,9.203585588624317e-07,8.063805767707051e-07,9.229894223311688e-07,1.4061098999277353e-06,5.75208863501647e-07,4.924884403060681e-07,2.38615453431085e-07,2.6860956099088065e-07
-1.0376403282530752e-07,-1.4743944834976384e-08,-2.8921116799968203e-07,9.979740253352573e-07,-2.1707697984664737e-06,-1.1300196997205497e-06,-1.0863800940826148e-06,1.9882026878116406e-07,-5.580586769255445e-07,1.0067583718115987e-07,9.133457239202207e-07,7.951396224646075e-07,8.85085417577284e-07,1.3601765823240126e-06,5.68511508599619e-07,5.445632923972407e-07,2.4286754667488636e-07,2.4489941429727545e-07
-6.890068608767153e-08,3.837041538337888e-08,-3.1342881179203033e-07,9.431122408356982e-07,-2.110165176663562e-06,-9.498507515709518e-07,-1.0229647155554687e-06,2.0776190565081877e-07,-5.491187972365774e-07,1.0247314683871604e-07,9.06977998614483e-07,7.85358719299557e-07,8.6014125983412e-07,1.3486754043165356e-06,5.648943161466092e-07,5.822999205314594e-07,2.4452520347656143e-07,2.2336411006244302e-07
-3.0381161941127284e-08,9.74700044803305e-08,-3.31380237907985e-07,8.943412735860892e-07,-2.1026757981305683e-06,-8.275281558108553e-07,-9.456404032263954e-07,2.012500507295793e-07,-5.48731357357324e-07,9.511585302839757e-08,8.996529260870303e-07,7.756962868626494e-07,8.508336334202993e-07,1.4033642637182202e-06,5.625719438564288e-07,6.252087796357613e-07,2.402675942631841e-07,2.0790116114812558e-07
1.0420970757345428e-08,1.8992972357866595e-07,-3.419066152449518e-07,8.489562053187257e-07,-2.152456717547942e-06,-7.668158372441263e-07,-8.716379769199307e-07,1.776334818354429e-07,-5.61590590569028e-07,7.624357197199157e-08,8.903199075143143e-07,7.641052293527463e-07,8.557250288396484e-07,1.4787800049388045e-06,5.593088196118315e-07,6.707241759504312e-07,2.286269176254212e-07,1.9359361665627394e-07
4.292273425395647e-08,2.665546602689319e-07,-3.813028401088981e-07,8.193539117717164e-07,-2.2448524587768978e-06,-7.539717312191776e-07,-8.128877878966721e-07,1.417630871219416e-07,-5.871185538984296e-07,4.9278262852528944e-08,8.801086825710567e-07,7.516846542713643e-07,8.707849315570786e-07,1.5437465991371938e-06,5.549776926224915e-07,7.43762461232951e-07,2.1159708635658386e-07,1.8178372773650669e-07
6.738313402109644e-08,3.2131272603741006e-07,-4.426824419071406e-07,7.962529151786291e-07,-2.3500000337131704e-06,-7.752603023732891e-07,-7.735972121696755e-07,1.0348553317208872e-07,-6.197867490713018e-07,2.19209458812288e-08,8.716402025983777e-07,7.411969531748336e-07,8.907115286229451e-07,1.6024323267187628e-06,5.515752796937426e-07,8.736516740339007e-07,1.9232279540921675e-07,1.7349961710427145e-07
8.711894063791282e-08,3.619358324785906e-07,-4.8999656176148e-07,7.791675820430871e-07,-2.434966039902803e-06,-8.088286711514303e-07,-7.525583497229426e-07,7.185873552601781e-08,-6.528019632811056e-07,1.102941728177315e-09,8.665128992147728e-07,7.358805423617761e-07,9.09490205762622e-07,1.6507809920885624e-06,5.509326244082312e-07,9.964784423367367e-07,1.7407362828054772e-07,1.6657025135184557e-07
1.0309630629882863e-07,3.7586739952026487e-07,-5.091123450562836e-07,7.705148254797017e-07,-2.4776598932799364e-06,-8.380276469594795e-07,-7.473425464350351e-07,4.9730449986608357e-08,-6.822021994625023e-07,-1.166971902073363e-08,8.632266019574847e-07,7.360446451020736e-07,9.208144730213393e-07,1.6592361394468256e-06,5.525283693937946e-07,1.0214674436006254e-06,1.57334074986481e-07,1.5804399891148702e-07
1.1093284309331097e-07,3.711915544296551e-07,-5.338973415276058e-07,7.643069329858859e-07,-2.4740496674841943e-06,-8.558767313167836e-07,-7.567533807827375e-07,3.3223458772558806e-08,-7.081458847380224e-07,-2.17403030660496e-08,8.576804367627035e-07,7.401662653347945e-07,9.196756078284708e-07,1.6410681284532747e-06,5.537727976018956e-07,1.0783900747386135e-06,1.3932494475793392e-07,1.4236140967915622e-07
1.0706333487169982e-07,3.469516902342994e-07,-5.327990306985033e-07,7.670724408608537e-07,-2.435320102794664e-06,-8.628533652651865e-07,-7.79623210719209e-07,1.64460676855482e-08,-7.328812143473795e-07,-3.5098707735419255e-08,8.461530626825648e-07,7.474410481102533e-07,9.045786569521536e-07,1.5971699027599173e-06,5.526222975619801e-07,1.115288517855877e-06,1.172730986432909e-07,1.1586994781771209e-07
9.084164001207277e-08,3.044356237946328e-07,-4.6870556347091524e-07,7.665468974944644e-07,-2.3790532204925233e-06,-8.618403492170511e-07,-8.121048951159016e-07,-3.0038457270063787e-09,-7.578306010369013e-07,-5.402562990743607e-08,8.282269636848312e-07,7.581449531695555e-07,8.790512659635746e-07,1.5316178782745049e-06,5.498112823040605e-07,1.1280473626866889e-06,9.070357746523338e-08,7.769259085091138e-08
6.707281698744711e-08,2.5440510046175554e-07,-4.070976745005752e-07,7.64869287213142e-07,-2.3215844094946876e-06,-8.551294916770214e-07,-8.46684197127387e-07,-2.250869178732943e-08,-7.824948688229143e-07,-7.82173410216684e-08,8.071803546047016e-07,7.735745436422326e-07,8.502675311932533e-07,1.4631738136819284e-06,5.483245291450012e-07,1.1111892678453412e-06,6.185107269177846e-08,3.4303510202073696e-08
4.922748461580108e-08,2.0965048580792905e-07,-3.7005697996449775e-07,7.675628469210432e-07,-2.275432552846882e-06,-8.451198876533733e-07,-8.748030889280982e-07,-3.770356167481418e-08,-8.058133592099774e-07,-1.0468365413881639e-07,7.876684528007117e-07,7.927160780232722e-07,8.248519265681639e-07,1.399836457031965e-06,5.5041154362642e-07,1.038440973978459e-06,3.336120740043497e-08,-6.005533443164178e-09
4.363360586161285e-08,1.7961006332798688e-07,-3.522711946569809e-07,7.739356011587835e-07,-2.250216104776549e-06,-8.364832546741086e-07,-8.912708272790876e-07,-4.727922356835916e-08,-8.283401000207115e-07,-1.309321560942779e-07,7.725649169889627e-07,8.113190598551479e-07,8.049555824716965e-07,1.3473259299873026e-06,5.547969765708109e-07,9.506472104445316e-07,6.240386776617145e-09,-4.112143093705099e-08
4.8298507194502706e-08,1.6579145639374466e-07,-3.4598015583084415e-07,7.843004926779189e-07,-2.2528420456913307e-06,-8.362937503321101e-07,-8.969303670388491e-07,-5.4842755195432916e-08,-8.5266649129763e-07,-1.565681271248241e-07,7.613801432438994e-07,8.205897447795307e-07,7.876857638533048e-07,1.3048443400324544e-06,5.568459070849063e-07,8.876131611539431e-07,-2.0636175527536725e-08,-7.199834785993235e-08
5.583208405463011e-08,1.621263553688739e-07,-3.4394257144449267e-07,7.936865230588269e-07,-2.2847585737230062e-06,-8.506679034558455e-07,-8.974317553321991e-07,-6.610732740077946e-08,-8.810289193932182e-07,-1.8140547939921814e-07,7.522074334860327e-07,8.157430797604261e-07,7.671273873655217e-07,1.2672096414747696e-06,5.522348877074822e-07,8.322423129404557e-07,-4.8238735464887605e-08,-1.0106431206827811e-07
5.861382193099457e-08,1.5996210083099526e-07,-3.475790168181342e-07,8.044486669556618e-07,-2.3383149479280544e-06,-8.801393636152869e-07,-8.991850397330103e-07,-8.408833581172261e-08,-9.120216589848775e-07,-2.0368147200672452e-07,7.409928771379083e-07,7.944430890196733e-07,7.423669946187865e-07,1.2324554131320948e-06,5.388632500020353e-07,8.175883447395494e-07,-7.536831271106911e-08,-1.2917162628706408e-07
4.8188090698773346e-08,1.5322418645148538e-07,-3.526827550828951e-07,8.062319786110835e-07,-2.3982614746155204e-06,-9.176549702049606e-07,-9.060012949103882e-07,-1.069554018511725e-07,-9.395364858928731e-07,-2.2033378571157785e-07,7.274838470906628e-07,7.568869036112266e-07,7.12022212655422e-07,1.2026495191562844e-06,5.172339813311276e-07,8.227021976459504e-07,-9.92227895566255e-08,-1.5373748267434603e-07
2.7582171241109596e-08,1.3968785111708474e-07,-3.535816533848254e-07,8.051381148391438e-07,-2.4405514167566057e-06,-9.509942510147886e-07,-9.188828974612656e-07,-1.304091498657719e-07,-9.552646712228097e-07,-2.2897202938683721e-07,7.124047311194806e-07,7.04552655452612e-07,6.770019908481495e-07,1.1807368512021462e-06,4.894567039372201e-07,8.39506014534846e-07,-1.1754446574972186e-07,-1.7038197279592872e-07
1.041316993653289e-09,1.1865956961613624e-07,-3.4922512628763964e-07,8.00746629881326e-07,-2.4474621202129006e-06,-9.679006617910124e-07,-9.383616873293493e-07,-1.5258329604206403e-07,-9.533548353633534e-07,-2.3189246146782808e-07,6.946544370069885e-07,6.490134691867188e-07,6.387290224677262e-07,1.1669127268739976e-06,4.558632673973296e-07,8.657420913425765e-07,-1.3067177844318086e-07,-1.803708971168288e-07
-3.117342575574968e-08,8.883722408578793e-08,-3.395594205733822e-07,7.432093588054161e-07,-2.4147145910974677e-06,-9.602315362716434e-07,-9.667912525497136e-07,-1.7704433881408317e-07,-9.341142082131681e-07,-2.347223494968127e-07,6.70381428981797e-07,5.858131569854225e-07,5.944448864044787e-07,1.1583297734209422e-06,4.157699630564039e-07,8.8603021886782e-07,-1.414327773185254e-07,-1.8560452891706403e-07
-6.765296785917981e-08,4.950627892217768e-08,-3.2891870051012893e-07,6.445952855448616e-07,-2.3447503682676547e-06,-9.24461300696608e-07,-1.0075153579686688e-06,-2.1064608570546265e-07,-9.041039470797041e-07,-2.4556022353188174e-07,6.321442701574017e-07,5.1302267135225e-07,5.483890387947955e-07,1.1527196657125077e-06,3.689863303057385e-07,9.069511330733101e-07,-1.5216939815295372e-07,-1.8669686029987093e-07
-1.0631063950733877e-07,4.13500447077786e-09,-3.2394102316327135e-07,5.414543067020037e-07,-2.2516220364747396e-06,-8.595611471481688e-07,-1.0610347379598802e-06,-2.5770509822520023e-07,-8.727593508875674e-07,-2.6955696087687315e-07,5.785420296434876e-07,4.439454018237974e-07,5.056718509902353e-07,1.1522976051342698e-06,3.181097370990093e-07,9.361699976832629e-07,-1.6267659310576165e-07,-1.85101528348278e-07
-1.4049549921039427e-07,-3.778722591395804e-08,-3.300197234113213e-07,4.5132840418417634e-07,-2.1516969492007145e-06,-7.660052516324848e-07,-1.1218620197995608e-06,-3.1555007209300293e-07,-8.483476676541037e-07,-3.081646573054783e-07,5.086791193714585e-07,3.834271477520002e-07,4.838510521338488e-07,1.1637373273315873e-06,2.662268579781265e-07,9.796771616985792e-07,-1.7006779348700009e-07,-1.7956506053948665e-07
-1.5743321335192693e-07,-6.354761961626676e-08,-3.5009226154408995e-07,3.721325890560653e-07,-2.0588743293526933e-06,-6.479428234240092e-07,-1.1793150786297547e-06,-3.751686680740324e-07,-8.359708088109088e-07,-3.4909829245587183e-07,4.414020019393977e-07,3.7033341566124766e-07,4.909673417853474e-07,1.1934744334325401e-06,2.1758415169277614e-07,1.0408734097905088e-06,-1.712128541436736e-07,-1.6965204135550643e-07
-1.4888135758726226e-07,-6.343979359011365e-08,-3.8471399938576216e-07,3.213946624089072e-07,-1.9859217503826025e-06,-5.132944536833936e-07,-1.2220315294895071e-06,-4.2595936941508434e-07,-8.37981101981874e-07,-3.8822283372445767e-07,3.9787828508926106e-07,3.946772300745514e-07,5.190173465669067e-07,1.2419195318363005e-06,1.8106381875563263e-07,1.1186390488734345e-06,-1.6536772070070482e-07,-1.5627963449384712e-07
-1.15964770125507e-07,-3.6007192976741956e-08,-4.34527624262268e-07,3.007993159771743e-07,-1.942663024688306e-06,-3.8277336782796345e-07,-1.2427782889065237e-06,-4.602749072249195e-07,-8.549942209322682e-07,-4.325012021582523e-07,4.171351977788253e-07,4.1441794026675145e-07,5.358803358360976e-07,1.3016767155444614e-06,1.845702133491255e-07,1.201030044534437e-06,-1.5539719384058005e-07,-1.3957212485559666e-07
-6.352774864058116e-08,1.2782863286039951e-08,-4.939840442976042e-07,3.141255230585638e-07,-1.9314215638272922e-06,-2.729202773900373e-07,-1.240133930413308e-06,-4.7421097307725543e-07,-8.856093502055777e-07,-4.577723162879297e-07,4.2265765815573847e-07,4.118892037191728e-07,5.587794801620394e-07,1.3617754095410968e-06,2.1632775341596e-07,1.2777238937077107e-06,-1.453733533783879e-07,-1.2220969509827757e-07
-5.638043530067671e-09,7.194048122700956e-08,-5.559845644061855e-07,3.5427029369120304e-07,-1.9441314268976915e-06,-1.9058946955147279e-07,-1.2165046104078986e-06,-4.654778896252339e-07,-9.252177821527789e-07,-4.59809698553612e-07,4.25162813035226e-07,3.909882495464038e-07,6.38398609460614e-07,1.4141158961389795e-06,2.6176399665268783e-07,1.3386862339677393e-06,-1.368696193800444e-07,-1.0544970660862089e-07
5.299327447079128e-08,1.3384461179344004e-07,-6.137857894739162e-07,3.5979019097672684e-07,-1.9652028214030113e-06,-1.3304506297078486e-07,-1.17528671211811e-06,-4.323295678215628e-07,-9.6609512453655e-07,-4.366200436612868e-07,4.1743165626411575e-07,3.64646170883749e-07,7.086558247642571e-07,1.4564666045626687e-06,3.0882108856603714e-07,1.375031852123939e-06,-1.2889588506850315e-07,-8.738569021856317e-08
1.0167183558443388e-07,1.949332379683806e-07,-6.43462722086339e-07,3.759408108397653e-07,-1.975493801700379e-06,-8.898848727871923e-08,-1.1198242875249285e-06,-3.7555583133599126e-07,-9.996707396239954e-07,-3.7950393306388466e-07,4.37274955194731e-07,3.9003954044168225e-07,7.58143089332217e-07,1.4903383316667432e-06,3.669247489531254e-07,1.3826611630690607e-06,-1.18991437005155e-07,-6.603282899081812e-08
1.423762760581091e-07,2.527690091724471e-07,-6.339558235760755e-07,4.3910309277138126e-07,-1.9613986656744742e-06,-4.538365008306355e-08,-1.053848110760659e-06,-3.0107093785748734e-07,-1.0191565369243577e-06,-3.2864946897876457e-07,4.714482827349079e-07,4.69857223886758e-07,8.162382471828771e-07,1.5171721332798373e-06,4.229942907017014e-07,1.3643328534618007e-06,-1.0311512925472197e-07,-3.848226315191601e-08
1.7882760178604144e-07,3.091624430066119e-07,-6.63007238891705e-07,4.788762047303029e-07,-1.9199310840477457e-06,-6.7434304916695065e-09,-9.81313777021004e-07,-2.1925250729477561e-07,-1.0202204113170046e-06,-3.247540774234214e-07,5.208383289840602e-07,5.190311124882087e-07,8.472855767288667e-07,1.5372784533125577e-06,4.69280422456625e-07,1.346888236004646e-06,-8.077718062664906e-08,-4.195798142017993e-09
2.1360011294909723e-07,3.603345296515586e-07,-6.441630254359571e-07,5.210490707227109e-07,-1.8568431468608478e-06,-9.138662110193274e-09,-9.048954476282288e-07,-1.4057450166524116e-07,-9.973802524931046e-07,-3.2854073836259e-07,5.765501927143265e-07,5.386088389620308e-07,8.686933538458263e-07,1.5521552454302471e-06,5.10431334562319e-07,1.3397978343935462e-06,-5.346004063515675e-08,3.755418555573943e-08
2.4827900907127613e-07,4.0891862977493153e-07,-5.958697958644655e-07,5.73709432087068e-07,-1.7852835536759582e-06,-3.650369589404592e-08,-8.250261112531724e-07,-7.12514393304628e-08,-9.508605111339484e-07,-2.824311810854457e-07,6.324469535627703e-07,5.423822992737605e-07,8.899847591182899e-07,1.5664525605635404e-06,5.426743344764485e-07,1.4062833208430316e-06,-1.7756911074064335e-08,8.720012786507276e-08
3.2698744844006527e-07,4.5387906796391777e-07,-5.495965008028133e-07,6.30392190637678e-07,-1.7206051814605417e-06,-1.3211709500492422e-07,-7.412528835228445e-07,-1.2443546541398072e-08,-8.796037115216673e-07,-2.1314941505747325e-07,6.755693290790797e-07,5.816405678531788e-07,9.087216557090506e-07,1.5868283285455045e-06,5.679417508639439e-07,1.5495561612521391e-06,2.6851726783051566e-08,1.4860486161910511e-07
3.9657943968300655e-07,4.972944705810832e-07,-5.123931809176228e-07,7.101744079246465e-07,-1.6779677259402908e-06,-2.736167255290808e-07,-6.555146890399446e-07,3.725603995029039e-08,-7.860714782654695e-07,-1.3792421673758258e-07,7.030038311931408e-07,6.111879075556547e-07,9.415960337318051e-07,1.6189851917388423e-06,5.892194959255712e-07,1.6691611928537007e-06,7.92854784507344e-08,2.2691807396701622e-07
4.334910837130257e-07,5.747542885778147e-07,-4.816902042094145e-07,8.149704490265398e-07,-1.6712404517466052e-06,-3.989351586081904e-07,-5.740982701763768e-07,7.926632782836761e-08,-6.796936737431342e-07,-5.935445672038633e-08,7.203697647901791e-07,6.054400669315064e-07,9.901057209965369e-07,1.665868468771938e-06,6.066089750619457e-07,1.7436773316000828e-06,1.5532563385108122e-07,3.123340365273e-07
4.6750075617744807e-07,6.962007319231797e-07,-4.616854693976183e-07,9.076596596896899e-07,-1.7050406825611282e-06,-5.787257261393268e-07,-5.05628173772948e-07,1.1465805885369377e-07,-5.714880372291369e-07,-8.77791537128123e-09,7.316853759580214e-07,5.866557983272759e-07,1.0556611295985036e-06,1.727738934413073e-06,6.229277386433947e-07,1.8156471072391188e-06,2.394012155091407e-07,4.022889985320014e-07
5.364487535186358e-07,8.336250453521716e-07,-4.499277545779919e-07,1.0107014727434528e-06,-1.7714492980410313e-06,-8.503802851906236e-07,-4.562223328825463e-07,1.4473042026623753e-07,-4.726172878040096e-07,3.226855737136335e-09,7.450032384920507e-07,5.594283893726666e-07,1.1405558165685903e-06,1.8049311845116218e-06,6.403966768648899e-07,1.9144693311980743e-06,3.036635823417369e-07,4.770961823230724e-07
6.181974062740045e-07,9.361880506384743e-07,-4.431347251954971e-07,1.0802720077491867e-06,-1.8553535826429584e-06,-1.0332129808569248e-06,-4.262405625196258e-07,1.69720747146025e-07,-3.915530519668405e-07,5.320657810237828e-09,7.631528766263916e-07,5.486295769048453e-07,1.2366290017698943e-06,1.886988064059647e-06,6.586669290011046e-07,2.018411981810962e-06,3.5699205979719027e-07,5.20027149331962e-07
6.420553486618412e-07,9.883074983308661e-07,-4.3871263445943206e-07,1.0860163482531943e-06,-1.9385306211898537e-06,-1.1755021486546347e-06,-4.1219476095889047e-07,1.855332232903919e-07,-3.554968832000176e-07,1.1680723241461086e-08,7.854579287182946e-07,5.486255704736134e-07,1.330367760627933e-06,1.9636583838622938e-06,6.73720514859876e-07,2.0430678186240912e-06,3.688196706744399e-07,5.111858327186587e-07
6.417197777496415e-07,9.79311340866861e-07,-4.3547256030551196e-07,1.1312502837012288e-06,-2.0069479863136157e-06,-1.3064512749779425e-06,-4.118632706372578e-07,1.822687959667777e-07,-3.4381861894838646e-07,1.425503237374544e-09,8.074690846073861e-07,5.607546252861258e-07,1.4059841107474095e-06,2.0148252935181367e-06,6.778760628668912e-07,2.053945273848725e-06,3.533596183354264e-07,4.876413938891819e-07
6.499097300532422e-07,9.636540018787216e-07,-4.3884607922053605e-07,1.1569529629647698e-06,-2.065681622563893e-06,-1.3838933756413575e-06,-4.2684019107243305e-07,1.4826915964716545e-07,-3.620084939632581e-07,-5.915961242875338e-09,8.209857673607281e-07,5.657254926288276e-07,1.4078170103036814e-06,1.9774910478751925e-06,6.63336811885061e-07,2.0740667532152156e-06,3.4771997659370187e-07,4.786476471176788e-07
6.612517072529262e-07,9.595255110519305e-07,-4.543231850510207e-07,1.1737088313620353e-06,-2.128211816002905e-06,-1.2760223892686923e-06,-4.5950700599172947e-07,7.836289931222978e-08,-4.185566757282821e-07,-1.884655802471874e-08,8.18765560545681e-07,5.633295293930104e-07,1.3702962026613185e-06,1.946654034629565e-06,6.27485372158018e-07,2.045359467552015e-06,3.560254976012291e-07,4.778838504201999e-07
6.960895014430025e-07,9.54593209931073e-07,-4.797660835730925e-07,1.1758945385700938e-06,-2.1937275104692003e-06,-1.1135041251505576e-06,-5.074976471402678e-07,-1.9580874027269023e-08,-4.6202874255090113e-07,-6.659059618598441e-08,7.992322370615347e-07,5.501498814364352e-07,1.356560287022726e-06,1.8954412003830072e-06,5.763877100799025e-07,2.025386562684214e-06,3.7213473401802e-07,4.933480173464252e-07
7.240073234253733e-07,9.27261741646193e-07,-5.181681770265183e-07,1.131455013698118e-06,-2.25302660326908e-06,-1.0190997393529672e-06,-5.608324118714334e-07,-1.2716982797556342e-07,-5.32582767911979e-07,-1.194167019363577e-07,7.684937154019867e-07,5.406412657167067e-07,1.3276430954795983e-06,1.8232045271318767e-06,5.224720223369365e-07,2.0372386778342844e-06,3.543370909311763e-07,4.865014492323779e-07
7.070043590826238e-07,8.600851360944792e-07,-5.475987548295971e-07,1.0198040121509223e-06,-2.282709964267203e-06,-9.532244574349187e-07,-6.043477333886044e-07,-2.144884140414904e-07,-6.112407530372773e-07,-1.4484327162860313e-07,7.385104666237911e-07,5.482919321287643e-07,1.2621790801473434e-06,1.7222389092853876e-06,4.843582127884884e-07,2.0303754843986553e-06,3.061768355391705e-07,4.530334881885923e-07
7.026342992718867e-07,7.482666784037477e-07,-5.568964560792909e-07,9.268978661455567e-07,-2.2718287975555335e-06,-8.791638799490493e-07,-6.245319989267387e-07,-2.3853478085152924e-07,-6.673248021376199e-07,-1.75474988377307e-07,7.211338305411945e-07,5.616933037730038e-07,1.1964010928733442e-06,1.6650864984387922e-06,4.872487801514513e-07,1.997057052563651e-06,2.822184840681689e-07,4.221214074720091e-07
6.951717548726527e-07,6.794340918213885e-07,-5.404134962924663e-07,8.469715408932432e-07,-2.2130910376268336e-06,-8.066441188636911e-07,-6.171419921649424e-07,-2.606467670739271e-07,-7.309340980418357e-07,-2.0657657757707999e-07,7.22786085994941e-07,5.960573478365963e-07,1.180756669671127e-06,1.6567544902899528e-06,4.908105978120957e-07,2.00541441140498e-06,2.5587915482299695e-07,4.0003428139633744e-07
6.937241147131836e-07,6.53279144297613e-07,-5.176260490962465e-07,8.217703736751337e-07,-2.196020602632657e-06,-7.277923709951776e-07,-5.906820198513158e-07,-2.1425262412917913e-07,-7.674159251287046e-07,-1.9242774422321696e-07,7.407530517919609e-07,6.598719193751482e-07,1.2012330392465113e-06,1.6730229744948155e-06,5.330622099206881e-07,2.003638973408493e-06,2.476560030312502e-07,3.796271324075125e-07
7.577589990032646e-07,6.635079559954018e-07,-5.20201395473697e-07,8.066882827462277e-07,-2.2956105356260834e-06,-6.699330150915e-07,-5.625890691065465e-07,-1.6933272782322776e-07,-7.923278243012727e-07,-1.6537232062886114e-07,7.642809250172823e-07,7.456624664380308e-07,1.2354094205321317e-06,1.6950082082069827e-06,5.685933001871269e-07,2.0181927719907115e-06,2.296055699116908e-07,3.7442602669707655e-07
8.220848931361641e-07,6.911334643710871e-07,-5.689858112193983e-07,7.959497091075671e-07,-2.4850746215379547e-06,-6.645877860884387e-07,-5.498395734898055e-07,-1.4253985612125378e-07,-8.316088514771038e-07,-1.8152581766794914e-07,7.804055730685674e-07,7.937358317165915e-07,1.2671377636880305e-06,1.7019287223271872e-06,5.85657336323956e-07,2.0594091049377113e-06,1.9679554070543406e-07,3.7062893554260807e-07
8.181278197091103e-07,7.047326192695132e-07,-6.39303331831416e-07,7.782825306653825e-07,-2.5889751875285964e-06,-7.210453537914917e-07,-5.601320858460749e-07,-1.4647532805384596e-07,-8.796964585073406e-07,-2.088791713620272e-07,7.805044596794633e-07,8.137510487841974e-07,1.2838723897356598e-06,1.6874587216706765e-06,5.757680966296545e-07,2.037589663984249e-06,1.5642388169458763e-07,3.457269831364321e-07
7.883766036486184e-07,6.981892204900833e-07,-6.944409223728862e-07,7.496105867814591e-07,-2.6440632291321254e-06,-8.340610509365071e-07,-5.890915447555092e-07,-1.7577989048259821e-07,-9.417951035105571e-07,-2.7798362162346634e-07,7.648940007661129e-07,8.239803987070201e-07,1.2849496629614287e-06,1.6629765614773166e-06,5.424677950348824e-07,2.0001268455102975e-06,1.2601558942415829e-07,3.100649877490764e-07
7.561925675644413e-07,6.745828735875593e-07,-7.507376085796212e-07,7.028512853751085e-07,-2.809397715554859e-06,-9.735242801973884e-07,-6.244218059920371e-07,-2.119367051022014e-07,-1.004477094450912e-06,-3.4271326960874106e-07,7.426687392711976e-07,8.280476147033622e-07,1.2804631611811657e-06,1.6492445016472282e-06,4.984913725823359e-07,1.9017660902230854e-06,4.786727041572508e-08,2.750157800434253e-07
6.603964382045998e-07,6.52256480327212e-07,-8.41216845088045e-07,6.52278214444856e-07,-3.049106115879694e-06,-1.1021469638002454e-06,-6.539765483521523e-07,-2.3420201700909748e-07,-1.0509986849467519e-06,-3.5894519472044547e-07,7.265199281589583e-07,8.411973400844826e-07,1.2837301987373944e-06,1.6655326026320694e-06,4.5844977279669584e-07,1.794415500226064e-06,-4.2119144472727474e-08,2.6215156177545395e-07
5.701866900178612e-07,6.463380379978592e-07,-9.44864961449083e-07,6.093856028868778e-07,-3.2346979043513803e-06,-1.1893146551026406e-06,-6.730283637525017e-07,-2.3098404191394777e-07,-1.0743595172294943e-06,-3.6365811548460783e-07,7.246547034522262e-07,8.733793204348266e-07,1.3021322357708855e-06,1.7186727200964198e-06,4.3086882142983275e-07,1.6910587001295676e-06,-1.0741594390283653e-07,2.7215964954795887e-07
5.092663385073047e-07,6.587648500918618e-07,-1.0605522467552858e-06,5.748806712991538e-07,-3.372848835587355e-06,-1.2187040355106497e-06,-6.865110917607654e-07,-2.0562820524110054e-07,-1.076235097673069e-06,-3.782908080028462e-07,7.354359383300491e-07,9.278181612848961e-07,1.3320820371581795e-06,1.8019863983236495e-06,4.143135333931127e-07,1.6452972829200197e-06,-1.516097767929915e-07,2.909259244233718e-07
4.5429536954133904e-07,6.807778769541955e-07,-1.1371002844670104e-06,5.430390218701229e-07,-3.4068450453694465e-06,-1.1933407623324659e-06,-7.047598397406099e-07,-1.731322838084104e-07,-1.0661139386168058e-06,-3.5285557815970266e-07,7.484105376472769e-07,9.861026645288214e-07,1.3610949133925463e-06,1.8879058742258106e-06,4.0007048731272687e-07,1.5840247719913756e-06,-1.867390379676807e-07,3.042368276666999e-07
3.959022603760597e-07,6.982894711935106e-07,-1.1797869004361259e-06,5.060216664632038e-07,-3.4386507592017772e-06,-1.1317715013271398e-06,-7.357116249857757e-07,-1.4995929058791982e-07,-1.0556583077613272e-06,-3.075280610056968e-07,7.508670013492863e-07,1.030767126202615e-06,1.3752241788415427e-06,1.944192907168401e-06,3.791326950221005e-07,1.507169217957278e-06,-2.1989268459057185e-07,2.9823597997528213e-07
3.4599274938552197e-07,7.006088711072668e-07,-1.1857315958179667e-06,4.6008983653450873e-07,-3.38174457696793e-06,-1.0592275249635758e-06,-7.79077619511955e-07,-1.4393007155313802e-07,-1.0522792262732017e-06,-2.769454595867878e-07,7.353058367607842e-07,1.0402118306431057e-06,1.3665813666846192e-06,1.9598968980787826e-06,3.481837439833897e-07,1.4680403574487917e-06,-2.515439675588063e-07,2.7638471020438167e-07
3.0145241487716917e-07,6.865610775622736e-07,-1.1735552114592675e-06,4.085988496042591e-07,-3.298016208405352e-06,-9.926729747149986e-07,-8.259892229886596e-07,-1.5060141616283053e-07,-1.0560588377778282e-06,-2.6232139037726116e-07,7.027830964116237e-07,1.0289357501018234e-06,1.3361666931534703e-06,1.9381734107018102e-06,3.1087207089138287e-07,1.4499101002164788e-06,-2.8043757834307396e-07,2.466692623626783e-07
2.579859185283425e-07,6.641537697389006e-07,-1.1474179205792213e-06,3.600980971033861e-07,-3.1810137874497354e-06,-9.36243375306625e-07,-8.635576451949087e-07,-1.5760747830503933e-07,-1.0615622330123388e-06,-2.5036089592687845e-07,6.607456227378099e-07,9.56426130858342e-07,1.2912134325095365e-06,1.8933989096706999e-06,2.7459389821174117e-07,1.437210464590161e-06,-3.034985749354299e-07,2.1962808548043635e-07
2.2955418053154643e-07,6.440807404092483e-07,-1.1179989818495077e-06,3.2379790192536283e-07,-3.1025970916760084e-06,-8.90489757549405e-07,-8.813690437122674e-07,-1.5351195300648456e-07,-1.062673078011061e-06,-2.3706109857138274e-07,6.178951969600348e-07,8.790843010622992e-07,1.2399112374713304e-06,1.8428370844584284e-06,2.456446954144101e-07,1.4399915518774426e-06,-3.170496632099578e-07,2.0103332789911607e-07
2.1105525742806013e-07,6.321984551122036e-07,-1.0968159884750373e-06,3.0501218057461945e-07,-3.063350220198181e-06,-8.495196082180579e-07,-8.762828170483007e-07,-1.3504115124923025e-07,-1.0568405415652873e-06,-2.208967680506082e-07,5.794542946400473e-07,7.953504523709518e-07,1.1872348988400746e-06,1.7937749521042205e-06,2.2610547386558926e-07,1.4469186973581675e-06,-3.2230693108782865e-07,1.922029634645191e-07
2.121742018238083e-07,6.261452200834884e-07,-1.0820938061431348e-06,3.031258346643116e-07,-2.9651560419689236e-06,-8.113112714369259e-07,-8.537545434507355e-07,-1.0767738271736126e-07,-1.0457342673493046e-06,-2.0462533113671319e-07,5.463349161841085e-07,7.189058421253474e-07,1.1319839246002163e-06,1.7339620612611525e-06,2.1432205402745103e-07,1.4465956887233414e-06,-3.219112675322582e-07,1.8847496944131445e-07
2.3141117125229352e-07,6.182816505770344e-07,-1.0707310395949303e-06,3.133930313931339e-07,-2.8367726155638444e-06,-7.758186982070048e-07,-8.207646516179929e-07,-8.001999309901992e-08,-1.0321497117621889e-06,-1.9114502815683845e-07,5.173839784491312e-07,6.532314357269579e-07,1.0742560318483692e-06,1.6651800450617662e-06,2.0784837237139305e-07,1.4855644416811675e-06,-3.181269902417571e-07,1.8324817905538964e-07
2.5941800951268925e-07,6.020511588578794e-07,-1.0607019058090027e-06,3.3044143128491837e-07,-2.773394477324055e-06,-7.392205605178477e-07,-7.824553997555804e-07,-5.7514045775288673e-08,-1.0161424978875203e-06,-1.7945924134807992e-07,4.915899038246923e-07,5.832461855439554e-07,1.0130690892028607e-06,1.6017092874376388e-06,2.0578769519760505e-07,1.5709546963424623e-06,-3.1805898606727957e-07,1.729888954508013e-07
2.853034237849544e-07,5.760728575826049e-07,-1.051542580004014e-06,3.5082348425490223e-07,-2.700521395969516e-06,-6.961880294401105e-07,-7.36968832632832e-07,-4.0624736938836367e-08,-9.938480166545142e-07,-1.6456336492041714e-07,4.6886721489262375e-07,5.062632005968451e-07,9.511712330864454e-07,1.5458459870082678e-06,2.0859826559658802e-07,1.6290104752533052e-06,-3.1193419544292537e-07,1.5738800175912753e-07
3.1032511842631123e-07,5.425649799076348e-07,-1.004804150452054e-06,3.730902211643017e-07,-2.625424155562186e-06,-6.419277912286442e-07,-6.812984026486307e-07,-2.7513845493881655e-08,-9.598629070491166e-07,-1.410845628195922e-07,4.477143372472347e-07,4.452599002465028e-07,8.905549035114619e-07,1.4948418254233664e-06,2.16222737923483e-07,1.7045046257747142e-06,-2.978642350875739e-07,1.3707518061872087e-07
3.3650074959120734e-07,5.059842569523991e-07,-9.456828104327496e-07,3.9677431763515556e-07,-2.533575870147476e-06,-5.753414344326002e-07,-6.135549686628157e-07,-1.719915360820827e-08,-9.109095743902591e-07,-1.0714723510880946e-07,4.248741545390197e-07,3.9775329867179805e-07,8.313903895023045e-07,1.45053242843501e-06,2.2704119603610946e-07,1.8302574174410772e-06,-2.7704899807943944e-07,1.1315168938719765e-07
3.614336738725047e-07,4.7151197718195987e-07,-8.820163274923616e-07,4.206993874068185e-07,-2.371442301394673e-06,-4.979015096449759e-07,-5.334324163548119e-07,-9.490778312050754e-09,-8.476216310483476e-07,-6.51118437045357e-08,3.9572063690583226e-07,3.3376277167465183e-07,7.747969019857073e-07,1.4027701626305325e-06,2.39130943020805e-07,1.8398890994145486e-06,-2.470807969026888e-07,8.701377628847705e-08
3.8981736791168243e-07,4.4270202935632555e-07,-7.87002459201784e-07,4.428047712841148e-07,-2.173284528513705e-06,-4.1444468513702113e-07,-4.4311381046271965e-07,-2.2668843118709195e-09,-7.735578088735452e-07,-1.9309682200422544e-08,3.6187924690058393e-07,2.5495817873917856e-07,7.230431241214e-07,1.3551853822881236e-06,2.5253805676033976e-07,1.7664599518967752e-06,-2.0996370036379984e-07,6.260411859746623e-08
4.152886625751877e-07,4.2535239636587587e-07,-6.895112173943047e-07,4.6525592182245147e-07,-2.010078548092505e-06,-3.231797114519207e-07,-3.421534936483181e-07,9.775760715289781e-09,-6.934369434462132e-07,2.613491547613924e-08,3.2751462002530334e-07,1.683493745880215e-07,7.002043020251465e-07,1.3271414871268462e-06,2.698527217777951e-07,1.7073530171577617e-06,-1.661031351711372e-07,4.2640609295102946e-08
4.388642209902163e-07,4.2607212349741414e-07,-6.054350373512509e-07,4.91565405792601e-07,-1.8927320616753665e-06,-2.2638571746377876e-07,-2.3383519601672167e-07,3.238302706999561e-08,-6.127263994607347e-07,6.735079722322096e-08,2.9894304293532043e-07,9.034752136968903e-08,7.012104447569316e-07,1.326407493453903e-06,2.941595083916545e-07,1.6801336620683604e-06,-1.1679101349407299e-07,3.091687936489303e-08
4.574933309967257e-07,4.51984459449093e-07,-5.263698871798688e-07,5.234614122371176e-07,-1.8596032475529564e-06,-1.306412409485991e-07,-1.2386187148076358e-07,6.727780058458468e-08,-5.382744505751036e-07,9.988041805825257e-08,2.819094105053708e-07,9.271335332993175e-08,7.336834530299092e-07,1.364512599732171e-06,3.26322317371267e-07,1.7121635188464628e-06,-6.328421652325896e-08,3.049011995004085e-08
4.956049450531559e-07,4.999223227734532e-07,-5.073197757872377e-07,5.595827233937621e-07,-1.8862335967126822e-06,-4.426300107868511e-08,-2.027042580027701e-08,1.1053505900068003e-07,-4.777531184037902e-07,1.1958683059038134e-07,2.788686260121131e-07,1.6514106007915098e-07,7.833715078034402e-07,1.4345385927028478e-06,3.6430008319528046e-07,1.7653634453633574e-06,-1.3565916478427863e-08,3.7513993493356936e-08
5.590448970660222e-07,5.649037823191951e-07,-5.546705414395718e-07,5.967096993065377e-07,-1.8658682850076363e-06,2.0021630733924164e-08,6.876809641009998e-08,1.5588016449545567e-07,-4.366599261552623e-07,1.2578047709622441e-07,2.908513642904019e-07,2.0436270187962414e-07,8.1287023566708e-07,1.5413221829591818e-06,4.049862052875571e-07,1.8130227311424187e-06,2.820435057595877e-08,4.998267903108855e-08
6.220271683325398e-07,6.409498241810066e-07,-5.460925257702334e-07,6.265498623576753e-07,-1.7180616544916325e-06,5.801037608675551e-08,1.385647768104359e-07,2.000343088742724e-07,-4.147373615135734e-07,1.237788560881224e-07,3.1379909897047326e-07,1.7691409107199217e-07,8.479200199384701e-07,1.675257281209519e-06,4.4635060911124333e-07,1.8494716734884626e-06,6.333732671697138e-08,7.01311142852264e-08
6.929082766584724e-07,7.229893355053918e-07,-5.286548401645138e-07,6.484017491695183e-07,-1.7235954199520558e-06,7.431212123407613e-08,1.9257896971697222e-07,2.4470336480597074e-07,-4.0530411359401685e-07,1.2325642854555263e-07,3.550852819449511e-07,1.8343056837022772e-07,8.768060435606303e-07,1.7916186592700391e-06,4.874572459534408e-07,1.8802477052961955e-06,9.403571392077496e-08,1.0108506206356103e-07
7.692472271874657e-07,8.109826175074525e-07,-5.253746681797067e-07,6.676610507176293e-07,-1.7089932553676539e-06,7.570964876246748e-08,2.3691384236920507e-07,2.9259963280993735e-07,-3.9900125892927643e-07,1.3429329538047016e-07,3.925497966343624e-07,2.0490549778216788e-07,9.254171932246137e-07,1.908874182043595e-06,5.262525153629394e-07,1.9005093801667723e-06,1.261414590187555e-07,1.4663545918677104e-07
8.415657171262456e-07,9.01912951091435e-07,-5.322544605508994e-07,6.825511722759956e-07,-1.7175378009725062e-06,6.338918483429865e-08,2.7401088216695297e-07,3.404926164502797e-07,-3.897744944794204e-07,1.5991551097592143e-07,4.1121332184394204e-07,2.8462482445819966e-07,1.0087059707224624e-06,2.0184782444191412e-06,5.574162113993093e-07,1.914576614882463e-06,1.5878742975330383e-07,2.0710544666020943e-07
8.854133011385102e-07,9.891888974641997e-07,-5.383139258402501e-07,6.905500082363304e-07,-1.7762076709830714e-06,3.458533943365051e-08,2.9863116208530675e-07,3.7577964605573395e-07,-3.78700150122086e-07,1.9416557768973363e-07,3.95277274333987e-07,3.524672392984945e-07,1.0872815406902106e-06,2.0928755876170063e-06,5.72972048034053e-07,1.9199946517221706e-06,1.889102184941139e-07,2.749739783199589e-07
8.992860673431481e-07,1.0624132487553143e-06,-5.57076114332689e-07,6.836661160608406e-07,-1.813528379208599e-06,-1.8379771090216738e-08,3.0380391802057144e-07,3.8113219986617675e-07,-3.724289543826885e-07,2.259480695042644e-07,3.531281739747109e-07,3.6117523017806794e-07,1.158680590277982e-06,2.161300649806045e-06,5.661555871413401e-07,1.91900341603461e-06,2.144051062266785e-07,3.381443893347945e-07
9.347337537244685e-07,1.11224712264858e-06,-5.940997773622546e-07,6.536525906590729e-07,-1.932070246664159e-06,-1.0090735874618088e-07,2.8417948157129383e-07,3.450895604023173e-07,-3.772654483335926e-07,2.451411508733136e-07,3.1128924158056795e-07,4.060648870851309e-07,1.1948162430375728e-06,2.1983003248456465e-06,5.35969559146241e-07,1.9351973478617594e-06,2.3166957972060467e-07,3.861536729425375e-07
9.854646357732228e-07,1.1395835811069287e-06,-6.418248131407483e-07,6.014508564423349e-07,-2.0497357085767515e-06,-2.0643605286602357e-07,2.417256882047709e-07,2.7097911774108827e-07,-3.936009600385016e-07,2.4802029677576035e-07,2.7826978826123776e-07,4.464848889807762e-07,1.1963737784204035e-06,2.196571387172273e-06,4.890473936120986e-07,1.9615688012553828e-06,2.4349190954642144e-07,4.21607197904991e-07
1.003097475813123e-06,1.1515017770338763e-06,-7.094580872127525e-07,5.293957882325522e-07,-2.1585247024790486e-06,-3.1471458343655103e-07,1.8705901724151659e-07,1.7766038672829723e-07,-4.1499190244403643e-07,2.374685276931488e-07,2.153084533528494e-07,4.055999868947519e-07,1.1872666675322674e-06,2.1892744487868902e-06,4.3744428742134814e-07,1.9925012495889883e-06,2.4782924196859686e-07,4.408806267778928e-07
9.73424501799472e-07,1.1459730258179535e-06,-7.886291124513717e-07,4.500127092583518e-07,-2.2711463794275187e-06,-4.0459845937784343e-07,1.3708918586879479e-07,9.139731689077483e-08,-4.325145127177892e-07,2.2259255625912195e-07,1.8687608605111678e-07,3.3555785680900723e-07,1.176791018261973e-06,2.1890287774897157e-06,3.9346514609031596e-07,1.960051456902591e-06,2.477822267609278e-07,4.6120842849042996e-07
9.174996141687086e-07,1.1408657009645177e-06,-8.412784407690045e-07,3.930550776300228e-07,-2.341190736843412e-06,-4.498464126027405e-07,1.0116249778848115e-07,3.34576747614048e-08,-4.4128748639118506e-07,2.015510293918936e-07,1.6892287461350284e-07,3.285901674828988e-07,1.1785467820613003e-06,2.175800078707475e-06,3.6412468161984833e-07,1.859755733725392e-06,2.3592881986550623e-07,4.733938880575738e-07
8.794011615978637e-07,1.1527923533591709e-06,-8.951602707717158e-07,3.6360412443341694e-07,-2.3729800547216465e-06,-4.799945351325835e-07,6.099801730772372e-08,1.0459029720339239e-08,-4.442629452268964e-07,1.7146363772242173e-07,1.545126075135791e-07,3.434074660645333e-07,1.1893622452139204e-06,2.1635916364884323e-06,3.483112582794245e-07,1.782422183100117e-06,1.9493962811745472e-07,4.4504018727198123e-07
8.640393862450303e-07,1.1740217298497208e-06,-9.330681300259482e-07,3.5537923121637897e-07,-2.3758799039726933e-06,-5.03328101566775e-07,1.2560787395320597e-08,1.3158397956269441e-08,-4.499959449523419e-07,1.2712846708787165e-07,1.343379917175623e-07,3.3999333695248754e-07,1.1973293611159387e-06,2.1006762137460993e-06,3.386272529173928e-07,1.7425080619567872e-06,1.6399774942927757e-07,4.33489546488082e-07
8.453999200024614e-07,1.1970930122121106e-06,-9.848203539883199e-07,3.5890941654842273e-07,-2.3922616516111485e-06,-5.24889351820621e-07,-5.096368594132296e-08,2.4130784895837494e-08,-4.65864984912013e-07,5.691891498814317e-08,1.1596334587456093e-07,3.7729823890447325e-07,1.1913249055064236e-06,1.997352599620536e-06,3.2680456970607104e-07,1.720463929951908e-06,1.3525414980099915e-07,4.351347067038297e-07
8.129786953570509e-07,1.1974818951942073e-06,-1.0102597952726561e-06,3.5514521876653715e-07,-2.3766426563082632e-06,-5.342222455230467e-07,-1.2626484281819212e-07,2.8900050429527757e-08,-4.920471566916445e-07,-2.5437193062426768e-08,1.4026767320375272e-07,4.317197306229969e-07,1.1640873268407899e-06,1.949292495360807e-06,3.08884347458919e-07,1.7334301833880428e-06,8.698528496427933e-08,4.2911972373919683e-07
7.612982231520879e-07,1.1214742154081466e-06,-1.0241760497346358e-06,3.1931099487450574e-07,-2.3454906168767037e-06,-5.057700090655484e-07,-1.941858428417792e-07,2.3414874828214437e-08,-5.206585298622458e-07,-1.071940174192517e-07,1.887386354731243e-07,4.5321230977199496e-07,1.1159214200501765e-06,1.8878217891454092e-06,2.868787651802607e-07,1.7227770311888173e-06,1.811588314598936e-08,3.941044319600896e-07
7.034650394347458e-07,1.010577148971178e-06,-1.0275128762827354e-06,3.077317553315139e-07,-2.303072148572792e-06,-5.02009243331144e-07,-2.2832906171710033e-07,1.3943136693246755e-08,-5.404252504313438e-07,-1.750310489964283e-07,2.454167518857363e-07,4.399365345495863e-07,1.0540409492763123e-06,1.7731023310438925e-06,2.663733248883394e-07,1.7068160557910108e-06,-5.880594925122209e-08,3.500961339290226e-07
6.556633481884478e-07,9.303622801079113e-07,-1.0117709724472827e-06,3.3128982957639503e-07,-2.234400178837685e-06,-5.137906739386453e-07,-2.72741016041507e-07,1.035753425012782e-08,-5.439126501604223e-07,-2.1164992533137243e-07,2.793020454504915e-07,4.141488030573606e-07,9.886610635507805e-07,1.726171311113484e-06,2.517648459407657e-07,1.6780979505366318e-06,-1.1879897281984214e-07,3.0851703469897196e-07
6.124629813288738e-07,8.567598065891003e-07,-9.575156621555754e-07,3.6407471138931677e-07,-2.1693249939233494e-06,-6.233998311470785e-07,-3.4864244041857545e-07,1.780117983001823e-08,-5.331099919841308e-07,-2.2347753219099506e-07,3.01856493769841e-07,3.822428272163651e-07,9.277799551127794e-07,1.6706305205440132e-06,2.4214880084506235e-07,1.6452853873758476e-06,-1.5775768364366247e-07,2.6245183910920724e-07
5.758375085483662e-07,7.982978609165899e-07,-8.829842592676766e-07,4.7634221846556344e-07,-2.1122347636808598e-06,-8.613986414019291e-07,-4.993864348294274e-07,3.285544247191394e-08,-5.198714328238107e-07,-2.1980596690301683e-07,2.9719525563049547e-07,3.5087593594229874e-07,8.742087063411226e-07,1.5840830917749335e-06,2.3096886317402026e-07,1.6179655697269037e-06,-1.7936294960606276e-07,2.296337582259261e-07
5.432653886602439e-07,7.530231828868713e-07,-8.191214232751214e-07,5.392039137059653e-07,-2.082418379344435e-06,-1.005606523495097e-06,-7.233796638067603e-07,4.69299895144581e-08,-5.203828083654316e-07,-2.1214122451168915e-07,2.835154859404287e-07,3.2503120269359665e-07,8.269258269307365e-07,1.5110201046516916e-06,2.1005606028426825e-07,1.5776178746421312e-06,-1.9702329622603592e-07,1.98004319863459e-07
4.984222449132329e-07,6.862509613749618e-07,-7.953984881970642e-07,5.718691506263819e-07,-2.099184306367269e-06,-1.118124768662839e-06,-8.680901472478441e-07,5.358628322952193e-08,-5.45705333909103e-07,-2.120542353897565e-07,2.721218366750183e-07,3.0532343536468755e-07,7.845998782035923e-07,1.3808905027948179e-06,1.7505511058802544e-07,1.5384006864957965e-06,-2.2062306063962688e-07,1.6259018456018287e-07
4.2842007113888695e-07,5.684319302961215e-07,-8.018363779684482e-07,6.224912724375358e-07,-2.1610446186785966e-06,-1.2077409322912986e-06,-9.683158425690585e-07,5.3432879263715804e-08,-5.997295741747284e-07,-2.1819599053203166e-07,2.5872427717223455e-07,2.9279760039933263e-07,7.474031141213186e-07,1.2244374704332915e-06,1.282205896779154e-07,1.4606475970912238e-06,-2.5409577394683624e-07,1.1192330276244397e-07
3.3221715984305217e-07,4.3359487742306883e-07,-8.16161434733281e-07,6.664407901976578e-07,-2.2453590865341057e-06,-1.2930465828385037e-06,-1.0528815420108684e-06,5.288799666059659e-08,-6.69557671250511e-07,-2.2238377325536597e-07,2.5851832119850165e-07,2.8904120736619705e-07,7.157825639613066e-07,1.0719362848248017e-06,7.691811229724298e-08,1.3642661228815516e-06,-2.9428589203555436e-07,4.8425582435255906e-08
2.2922649783281705e-07,2.930488056267629e-07,-7.817152569747596e-07,7.228456465745719e-07,-2.318360328878201e-06,-1.390506842852639e-06,-1.1255779787367622e-06,5.821127521563828e-08,-7.380099628712765e-07,-2.1401791519364146e-07,2.703079848373804e-07,2.908493125194025e-07,6.881411441946796e-07,9.375883560032936e-07,2.9327268513288838e-08,1.2626107560832126e-06,-3.3273666792426513e-07,-1.2882333195808804e-08
1.5389433831520846e-07,1.2811512458818985e-07,-6.99131718810572e-07,7.699098514574016e-07,-2.3522617044298577e-06,-1.4119625795207917e-06,-1.2518464566722324e-06,6.949509355506499e-08,-7.93426272605145e-07,-1.8698427047582343e-07,2.972760053583684e-07,2.922554943964028e-07,6.602128462434803e-07,8.33466930609848e-07,-9.411920477469302e-09,1.2014479868205249e-06,-3.650536822179763e-07,-5.347643618846151e-08
9.275661088697087e-08,-1.3244075114814512e-08,-6.173817793230286e-07,8.016447150899966e-07,-2.333338277712835e-06,-1.359552529377635e-06,-1.2983069565586845e-06,7.945159295532114e-08,-7.868829368338386e-07,-1.4507633463029322e-07,3.3191943013379496e-07,2.868421202031027e-07,6.271495940755257e-07,7.677902483942215e-07,-3.797571111076764e-08,1.199002896791082e-06,-3.933917735248317e-07,-7.411642954978695e-08
4.4409684680703473e-08,-1.3929459701999625e-07,-5.571465596956676e-07,8.124093490950859e-07,-2.2710733823073048e-06,-1.3394985894002524e-06,-1.3040633780740238e-06,7.861827746748714e-08,-7.579691455299262e-07,-9.942228772805421e-08,3.61828172423483e-07,2.7037947478812187e-07,5.868653806654086e-07,7.266843144400426e-07,-5.660035065551871e-08,1.1852991577293897e-06,-4.156441443283172e-07,-8.39996818231252e-08
-1.9252035011990903e-09,-2.221621690725774e-07,-4.3755040319197137e-07,8.308263171063349e-07,-2.1807076254163994e-06,-1.3135804424470814e-06,-1.3346517238743565e-06,6.32554760101785e-08,-7.136155738819698e-07,-6.100585687188739e-08,3.823396009917603e-07,2.442775320357859e-07,5.421449324768059e-07,6.311275796657058e-07,-6.439917843405145e-08,1.1248003122002772e-06,-4.2985384836543943e-07,-8.981874715129348e-08
-4.717145658264033e-08,-2.4492899976204937e-07,-2.9129899412024435e-07,8.625825280831019e-07,-2.0738841187351445e-06,-1.2613428360311802e-06,-1.3437730265310053e-06,3.940578724799433e-08,-6.567967342589693e-07,-3.449311077043203e-08,3.936052079391028e-07,2.1499754113084328e-07,5.000105818025637e-07,5.842754732702244e-07,-5.891163026393332e-08,1.067987539859683e-06,-4.317587222767081e-07,-9.391855446648463e-08
-8.634691386343958e-08,-2.6190178069636043e-07,-2.0324787127432883e-07,8.946665807747139e-07,-1.964137600484431e-06,-1.2259626685195112e-06,-1.3807114143229701e-06,1.965376383223585e-08,-5.629352195501471e-07,-1.7705910826575954e-08,4.044394459598852e-07,1.9109302677730754e-07,4.686198526293836e-07,5.492450616627193e-07,-3.828743889039053e-08,9.820618197318894e-07,-4.158917178191784e-07,-8.845082345768546e-08
-1.1526682042451145e-07,-2.8059015987655993e-07,-1.3737932924947627e-07,8.344402196492812e-07,-1.8590690822770787e-06,-1.160138022731795e-06,-1.3258719643597743e-06,1.5045610080854697e-08,-4.725417932174053e-07,-5.838871894015276e-09,4.2127111454015686e-07,1.7908892765728007e-07,4.533704110008534e-07,5.001931525844126e-07,-4.104332143903627e-09,8.999140617290679e-07,-3.8603875510399983e-07,-7.238501077920555e-08
-1.2155050242194996e-07,-2.90773488755796e-07,-7.924141158058258e-08,7.859096735476193e-07,-1.7651173019383097e-06,-1.0783788365525071e-06,-1.2394832729774117e-06,2.8416948477535767e-08,-3.993577209310126e-07,4.0313001860824194e-09,4.4262743882701863e-07,1.8097148763825982e-07,4.5455852877217236e-07,5.421013544944268e-07,3.789782715304111e-08,8.53150054922255e-07,-3.4891492395638605e-07,-4.897843990813156e-08
-1.2314780155131504e-07,-2.746871643856586e-07,-5.841141078225397e-08,7.447298748394575e-07,-1.6865260153830987e-06,-1.0132703543748328e-06,-1.1203662030583409e-06,5.430790892994528e-08,-3.399312426469272e-07,1.2100720948059153e-08,4.684236574592857e-07,1.938048718013838e-07,4.6810093153943897e-07,5.846462176484288e-07,8.01615449561185e-08,8.20194697572878e-07,-3.1154551202094515e-07,-2.6496575540982046e-08
-1.1712524135178592e-07,-2.358602019175021e-07,-5.656204441392057e-08,6.868515492460652e-07,-1.6180291862652081e-06,-9.55446827976914e-07,-1.0164013325237585e-06,8.476127234522943e-08,-2.9457096742199593e-07,1.8410392388267717e-08,4.95231856125985e-07,2.1222087395571963e-07,4.883705479897406e-07,6.417746658831253e-07,1.1684266711199032e-07,8.078851950558746e-07,-2.7841436774517605e-07,-6.82437897309157e-09
-1.0601088791500146e-07,-1.9162790347816836e-07,-5.150741134504236e-08,6.336361771813907e-07,-1.5456937201528792e-06,-7.893043727325732e-07,-8.747710043028578e-07,1.1488959842063232e-07,-2.5563850574282043e-07,2.4909311312416967e-08,5.202278560500817e-07,2.3105702772652803e-07,5.104938712146249e-07,7.094176754439869e-07,1.4555150852745358e-07,7.717571077352709e-07,-2.550077224444877e-07,9.006896490144419e-09
-9.222587864004274e-08,-1.4834740243183696e-07,-2.751646509106262e-08,6.286378298113878e-07,-1.4513135642717183e-06,-6.343802510442941e-07,-7.773258514887846e-07,1.4344196937583692e-07,-2.1311969298607826e-07,3.427271307035801e-08,5.428258959032393e-07,2.458334210376211e-07,5.305767893713456e-07,7.176747503253344e-07,1.662495204265328e-07,7.513462457065795e-07,-2.3805092533459777e-07,2.3476533396929452e-08
-7.099535928552513e-08,-1.1920079014436524e-07,1.2488270704543635e-08,6.701113752699951e-07,-1.3208742670195958e-06,-5.135777179236063e-07,-7.689055644135706e-07,1.6973873502662643e-07,-1.599170431631973e-07,4.701970645272042e-08,5.600409978349117e-07,2.526680942546199e-07,5.448423232397971e-07,6.965622487268069e-07,1.790692318007843e-07,7.23242959757852e-07,-2.2516843253283367e-07,3.81482284026299e-08
-5.080844378565282e-08,-1.097262493898941e-07,5.82012341257223e-08,7.142417933434024e-07,-1.151862752324216e-06,-4.113768240654072e-07,-7.413185958232269e-07,1.9176660715364905e-07,-9.485977833962605e-08,6.050883121895938e-08,5.68031834300472e-07,2.4889196432655807e-07,5.496892369345737e-07,6.808697512664299e-07,1.836361587819634e-07,6.685331110489725e-07,-2.1875454602363095e-07,5.0465849828010366e-08
-3.4190241457801473e-08,-1.2068820232559734e-07,1.0707431804241566e-07,7.350799168972594e-07,-9.540361035486686e-07,-3.1510751935481736e-07,-6.424102429021554e-07,2.077605566976087e-07,-2.171640431594042e-08,7.113333141631304e-08,5.63949704275666e-07,2.3416435386015596e-07,5.432300263916937e-07,6.468809073529387e-07,1.8038484280242453e-07,6.084244904412729e-07,-2.156856012972673e-07,5.903709860367698e-08
-1.7683228149808438e-08,-1.363462716491617e-07,1.5243635229262385e-07,7.325139387953089e-07,-7.443993369392574e-07,-2.2847598368899786e-07,-5.129033637798519e-07,2.1889497590761514e-07,5.403833339570649e-08,7.731306975075943e-08,5.488880683910019e-07,2.1075247405091756e-07,5.268280000261174e-07,5.985424989471791e-07,1.718001209224299e-07,5.56860264559184e-07,-2.128482825279646e-07,6.336594399170471e-08
-1.4663437513664206e-09,-1.4479524071702622e-07,1.8966384173973338e-07,7.313217968366286e-07,-5.410006578989723e-07,-1.3750483266319367e-07,-3.4973274076583757e-07,2.2925558069037845e-07,1.2750206692857858e-07,8.001179512489294e-08,5.258531186748737e-07,1.8235055023730583e-07,5.049528155697138e-07,5.607726386028751e-07,1.6167766008774328e-07,5.446416177594255e-07,-2.069116104304361e-07,6.446122983067414e-08
1.340058077666194e-08,-1.3399430004575416e-07,2.1762545851259894e-07,7.371781538205305e-07,-3.595347659333688e-07,-2.6731960128081908e-08,-1.7470242427257414e-07,2.4241952112027167e-07,1.9431836590598385e-07,8.038156503224148e-08,4.99837104013041e-07,1.5229032696571472e-07,4.832091030447862e-07,5.344932014653683e-07,1.5297204137380598e-07,5.78120836255348e-07,-1.9510592845244747e-07,6.293075953055962e-08
2.7559342824978418e-08,-1.0354883033960498e-07,2.3586459969142072e-07,7.320225504775438e-07,-2.1251957355843404e-07,6.022980257340576e-08,-2.4510626642128206e-08,2.580907579102677e-07,2.499307135689205e-07,7.743458238012079e-08,4.7408626018726106e-07,1.223900982423346e-07,4.6600632805307656e-07,5.318779355925885e-07,1.4645329692666125e-07,6.453678050932052e-07,-1.7594832592421866e-07,5.955292580464408e-08
4.397992634931633e-08,-6.76468821684403e-08,2.420145760341466e-07,7.265329125513681e-07,-1.0818827009053479e-07,1.1968612877515322e-07,9.832613807482025e-08,2.726597178907445e-07,2.904082722610421e-07,6.868302587724253e-08,4.4874286253600847e-07,9.319367038138413e-08,4.556379181859459e-07,5.583410345822606e-07,1.4148961184979766e-07,7.084686285700616e-07,-1.543647750835586e-07,5.522777782033106e-08
5.98587168027371e-08,-2.490357364580064e-08,2.359584631861249e-07,7.173769700107812e-07,-4.807284343423893e-08,1.527560686106795e-07,1.9866574454473254e-07,2.83279444701672e-07,3.1470750754876533e-07,5.3143282819554377e-08,4.23750982444788e-07,6.536004188135953e-08,4.5298000563669247e-07,6.044086039842521e-07,1.3788913533840873e-07,7.785863355437398e-07,-1.3523572422999982e-07,5.275822609411714e-08
8.109543650660958e-08,1.4469136211889619e-08,2.2115385168524885e-07,7.032211026484909e-07,-2.5575895155171493e-08,1.783426167641925e-07,2.670533743098362e-07,2.909470380308539e-07,3.2590744172813913e-07,3.317085488633051e-08,3.9992221877264074e-07,4.082733136336669e-08,4.5832720412992964e-07,6.569572363741951e-07,1.3658615021706928e-07,8.712344023499549e-07,-1.1874829195124253e-07,5.6258722969182376e-08
1.1101463582979058e-07,5.3851805124605275e-08,2.0221492532468184e-07,6.927424301997235e-07,-2.7992867891863488e-08,2.1179426627169845e-07,3.153549907560906e-07,2.993690043808473e-07,3.298199768790997e-07,1.2998922444349134e-08,3.791048022906689e-07,2.2452056161760886e-08,4.7118514316028874e-07,7.124630438678177e-07,1.3844454559918124e-07,9.569259610136653e-07,-1.0482774547436295e-07,6.75739607151661e-08
1.5053691189445503e-07,9.467712377726643e-08,1.84627844164547e-07,6.875065920385349e-07,-4.149726987671837e-08,2.302714310439298e-07,3.516106272786861e-07,3.1128380002050464e-07,3.319818014275191e-07,-4.373077666703521e-09,3.6365045990043274e-07,1.2406042621878758e-08,4.894928917373562e-07,7.668437581275352e-07,1.4279575296746005e-07,1.0387725487038332e-06,-9.205615287515646e-08,8.477890798325093e-08
1.9831189490953947e-07,1.3234396119593434e-07,1.7253051755512066e-07,6.815746322935622e-07,-5.5878762523162704e-08,2.6898115209478305e-07,3.766367648758184e-07,3.2648857970338155e-07,3.35410075848392e-07,-1.8663629065371758e-08,3.527461466389788e-07,1.0843594079813186e-08,5.097020204422603e-07,8.133982932562236e-07,1.4769223534368195e-07,1.10272613181626e-06,-7.905602947727412e-08,1.032419519991319e-07
2.434279709115235e-07,1.6443306204826027e-07,1.6623663379926257e-07,6.755041259564677e-07,-6.596330734972028e-08,3.0064572050948473e-07,3.9603091643153853e-07,3.434575620812284e-07,3.405804038302711e-07,-3.096387063901872e-08,3.4558315023193884e-07,1.5999956136949965e-08,5.282317529909547e-07,8.435926087527592e-07,1.5171394568111342e-07,1.1392596105024011e-06,-6.515380815834785e-08,1.1843952815111362e-07
2.814784743353315e-07,1.905956519551856e-07,1.6373028718688557e-07,6.728877895646231e-07,-6.996564259217837e-08,3.3133211048670626e-07,4.355381396684412e-07,3.621198331737083e-07,3.467865822247625e-07,-4.160822106514514e-08,3.4174782833929933e-07,2.5574362753405397e-08,5.430259256843292e-07,8.587166771781659e-07,1.5519484069750933e-07,1.1597124251248782e-06,-4.946134814558028e-08,1.2993285990958238e-07
3.1201983093525125e-07,2.165490301148713e-07,1.6377266623768986e-07,6.741027850481634e-07,-6.791656761144416e-08,3.7567147963338826e-07,4.89127838260119e-07,3.842506557309768e-07,3.529293782848801e-07,-4.986882137672106e-08,3.40781814173717e-07,3.821466659316029e-08,5.538342559094443e-07,8.648050509642861e-07,1.5951758105109086e-07,1.1774206723699734e-06,-3.137298454019364e-08,1.3940327753760108e-07
3.3990551197897744e-07,2.451289482546274e-07,1.649809558869353e-07,6.818972493122687e-07,-6.198180390713391e-08,4.211248940384908e-07,5.59835770513225e-07,4.111619270088324e-07,3.5721976348644605e-07,-5.549281307717221e-08,3.4264181273428377e-07,5.4046094828598814e-08,5.61568308406225e-07,8.671280448633665e-07,1.6552526682632607e-07,1.1926722150764288e-06,-1.1745157471585902e-08,1.489583430399346e-07
3.684178889524425e-07,2.8080243077629326e-07,1.6611000833148753e-07,6.961416045966587e-07,-5.69544122188558e-08,4.6481615439658376e-07,6.207602579852761e-07,4.417641188539012e-07,3.572255927804072e-07,-5.974447292663855e-08,3.46579907027933e-07,7.427007051585347e-08,5.678917766984919e-07,8.712117864661812e-07,1.730305122837866e-07,1.2026598035388418e-06,8.6979343720293e-09,1.603287002226153e-07
3.9739148429217594e-07,3.25331327375264e-07,1.667794471155916e-07,7.136967033821715e-07,-5.8434327741392534e-08,5.033084146214481e-07,6.667538531982232e-07,4.7359169570169766e-07,3.514500017660944e-07,-6.431385472704409e-08,3.521914615902852e-07,1.0049999803335036e-07,5.752673926821965e-07,8.815057302611395e-07,1.8187760216378387e-07,1.2145588352247168e-06,2.9469939687681276e-08,1.747927940055227e-07
4.2723232196663606e-07,3.734751145561912e-07,1.676883699283387e-07,7.322084191861143e-07,-6.932813120144751e-08,5.413929492274656e-07,7.051244302132034e-07,5.056275470571675e-07,3.413405173125398e-07,-6.932195212508038e-08,3.6056581352975723e-07,1.3403185189552652e-07,5.867430996836782e-07,9.008886719299797e-07,1.930363069407587e-07,1.227532721253712e-06,5.129942863543372e-08,1.9442351127544423e-07
4.5749995126396934e-07,4.282719692218193e-07,1.7057840102611303e-07,7.508990621556171e-07,-8.816027484708012e-08,5.720164722146985e-07,7.340816506157131e-07,5.392820239613053e-07,3.3122286991668055e-07,-7.305759972017495e-08,3.744284387401804e-07,1.7488269827649022e-07,6.048047605917688e-07,9.316013886880693e-07,2.0816033302800592e-07,1.2441137955844363e-06,7.770311667638796e-08,2.2140411694954316e-07
4.90864754901387e-07,4.910216685119845e-07,1.7713167610601956e-07,7.698465189458463e-07,-1.111384712150877e-07,6.046743614953768e-07,7.619545398672965e-07,5.760095092463267e-07,3.253841578552071e-07,-7.405106009866745e-08,3.9493193394800195e-07,2.2098584736825424e-07,6.294842095070669e-07,9.756145025991876e-07,2.2787516654986172e-07,1.2701226798828746e-06,1.1035606144180056e-07,2.5648823578614027e-07
5.267489362550754e-07,5.574490314182091e-07,1.8624508470103731e-07,7.879743896165682e-07,-1.356569951811651e-07,6.38651506958811e-07,7.834524056250953e-07,6.14406789512464e-07,3.2484022277484944e-07,-7.303359392193558e-08,4.1961153324624157e-07,2.6842135951726536e-07,6.571825249448123e-07,1.0277019480055311e-06,2.506815893883807e-07,1.3043184028796213e-06,1.4781108187900003e-07,2.9782153976124384e-07
5.60000657587382e-07,6.257233568858002e-07,1.9544232661112075e-07,8.033316940578532e-07,-1.6137033118853207e-07,6.665558001379726e-07,7.96216255313649e-07,6.506483477065122e-07,3.2715877466491634e-07,-7.212412575222436e-08,4.4329418764868784e-07,3.1306410296746036e-07,6.819350634868438e-07,1.0797464550149907e-06,2.738964708645413e-07,1.344682686260917e-06,1.886258917219305e-07,3.4227014242385327e-07
5.865281112314005e-07,6.811396687973467e-07,2.0180342410136359e-07,8.146133703558044e-07,-1.8810423289224084e-07,6.893473320936512e-07,7.983113482401903e-07,6.820120035216188e-07,3.294476383229452e-07,-7.195219467989763e-08,4.6114630220714524e-07,3.5277047828817616e-07,6.988086265591747e-07,1.1260125813002102e-06,2.956953544106928e-07,1.389684652880602e-06,2.296571199437839e-07,3.8832313391755004e-07
5.936170058942681e-07,7.212483263462003e-07,2.035166933564775e-07,8.224018912410005e-07,-2.1378550844789844e-07,6.997735484005835e-07,7.97566751044585e-07,7.091059850103617e-07,3.309864292835402e-07,-7.032540656081994e-08,4.7160435655161886e-07,3.88277326787474e-07,7.066166032669938e-07,1.1639510359201538e-06,3.1578321933470805e-07,1.4224128581521606e-06,2.575401282746457e-07,4.3157627638682104e-07
