0,1,2,3,4,5,6,7,8,9,10,11,12,13,14,15,16,17
2.5532691949431206e-07,-1.3304194745312475e-07,-5.0943906374919215e-08,-2.444718833253817e-07,-6.137672611069001e-07,2.441117439342365e-07,-3.5852908525485616e-08,2.497379860270673e-07,-4.7446501769051493e-07,6.72146791962954e-08,-8.848920742679365e-09,1.247712896599548e-07,-1.8283236696252256e-07,-5.785132722970886e-07,-5.684709789090738e-07,-2.9644455932262097e-07,-5.612101938112607e-09,-2.2354794404343198e-07
2.6682396005118167e-07,-1.1015348442932429e-07,7.251485620502723e-09,-1.4259988412917096e-07,-5.957884925371764e-07,2.5094901454345293e-07,-3.6793952110482176e-08,2.73899117541781e-07,-4.408940788526105e-07,8.916464103321416e-08,-1.193914088286386e-08,1.1053103645373509e-07,-1.8408107333795145e-07,-4.543323828573158e-07,-5.39377338253536e-07,-2.1024679297826834e-07,4.217245973846586e-08,-1.5127912260757534e-07
2.710152098897212e-07,-9.004065884815819e-08,5.856920140175092e-08,-6.665384039637932e-08,-5.383761053689414e-07,2.480102944401091e-07,-4.466029003892737e-08,2.820016348240783e-07,-3.420549227229284e-07,9.934139691212878e-08,-8.748913959541683e-09,1.0478036311370037e-07,-1.5242090133814373e-07,-3.067421456829565e-07,-4.940621879901684e-07,-1.0372776073838066e-07,1.071476636911117e-07,-7.096589443169449e-08
2.6294160509252733e-07,-7.254338214292426e-08,9.661416922589762e-08,-1.5352797111412967e-08,-4.4826662122530404e-07,2.305301309879311e-07,-5.9338982717997815e-08,2.732941798367461e-07,-2.4519496733140943e-07,9.725776934068355e-08,6.382108103188894e-11,1.0397712050046655e-07,-1.0354996126334235e-07,-1.594190199063835e-07,-4.3931831188305467e-07,9.448770383524296e-09,1.7789366106473985e-07,9.368400555387622e-09
2.3981572722457543e-07,-5.712773839611631e-08,1.1845684066162756e-07,1.4800953559906264e-08,-3.340692943683325e-07,1.9749778844159733e-07,-8.064804823692304e-08,2.487617377571432e-07,-1.59092738327037e-07,8.377268523647409e-08,1.36639531214934e-08,1.0467701097469877e-07,-5.1608905387063744e-08,-3.1993848305932835e-08,-3.8137287523840344e-07,1.1666244009172445e-07,2.5177954602484437e-07,8.270546120960905e-08
2.0245202560741686e-07,-4.3812539278638183e-08,1.237761146210054e-07,2.8304570625344695e-08,-2.0510419656321405e-07,1.5094631919635457e-07,-1.0736232964861297e-07,2.101056521712072e-07,-7.440904431354206e-08,6.017871360194125e-08,3.034200037186763e-08,1.0336470993260427e-07,-6.599121859056746e-09,6.307929259273992e-08,-3.2348687961896176e-07,2.0680236844216728e-07,3.2447920067131174e-07,1.4324611112950373e-07
1.5335094965236194e-07,-3.30337411150907e-08,1.1423847692570452e-07,2.9730922972629456e-08,-7.096528819706668e-08,9.535859053533768e-08,-1.3546735330431706e-07,1.594501784651659e-07,2.951655570464082e-09,2.812122898809159e-08,4.7212373753683606e-08,9.672616061898287e-08,2.6884239301258396e-08,1.2238375457091336e-07,-2.643289799260253e-07,2.706185252540059e-07,3.4827123833671616e-07,1.8635686106923897e-07
9.515517707602003e-08,-2.5020612637647698e-08,9.281777557618136e-08,2.313640812222418e-08,5.8798336417387154e-08,3.659688003498443e-08,-1.574047241773131e-07,9.925069345258227e-08,7.168197504494886e-08,-9.877022543090398e-09,6.036938032095897e-08,8.198413797974276e-08,4.9124452705788253e-08,1.50622803581212e-07,-1.9781714315139493e-07,3.007930124747824e-07,3.3662652893641305e-07,2.081236154028332e-07
3.093415821504877e-08,-1.9117677773094977e-08,6.28960847602104e-08,1.286525773527392e-08,1.7500930824660375e-07,-1.9612098051754866e-08,-1.6303466174382846e-07,3.2022924820575434e-08,1.306278362641604e-07,-4.965821758870121e-08,6.567966099606625e-08,5.7348715712107975e-08,6.342056136597476e-08,1.577224169570116e-07,-1.1448162090385669e-07,2.923984341242951e-07,2.542602144149825e-07,2.0520409857251886e-07
-3.743557204357098e-08,-1.309125280964254e-08,2.7486878973287887e-08,3.2453515841434637e-09,2.699634043577194e-07,-6.9392556810814e-08,-1.423358692297919e-07,-4.0136972702010095e-08,1.7875004199687993e-07,-8.516634905727187e-08,6.002047211809873e-08,2.2422168307828966e-08,7.342087049276386e-08,1.5451720935728064e-07,-4.747460515378961e-09,2.435328091725115e-07,1.0623745422768214e-07,1.7518380961412306e-07
-1.0870860349755392e-07,-3.0457459682626992e-09,-1.1398116929028256e-08,-1.3259832102165435e-09,3.389079078050089e-07,-1.1237905282988059e-07,-8.937810778709908e-08,-1.1587136884662863e-07,2.1429202010883232e-07,-1.0929642971386478e-07,4.237249015230484e-08,-2.1615201189320718e-08,8.079567881834969e-08,1.4867841887878653e-07,1.364356779270718e-07,1.562903461232827e-07,1.8554246980203058e-08,1.1777158871346813e-07
-1.8223922387628937e-07,1.5903171641603723e-08,-5.2557996560981343e-08,3.319884639576111e-09,3.807478453957813e-07,-1.5186941898493494e-07,-5.39096716798651e-09,-1.9390486777700125e-07,2.3522237641442215e-07,-1.1562643401255596e-07,1.4417261127983459e-08,-7.197250094942816e-08,8.486345667014623e-08,1.44087254537234e-07,3.0574743619640196e-07,3.870135984493644e-08,-1.0648232250450266e-07,3.6984342356109173e-08
-2.56719965481253e-07,4.877366405831964e-08,-9.429548052560122e-08,2.1175027595595394e-08,3.9837896034745454e-07,-1.9287838293097807e-07,1.0105286374613412e-07,-2.7155785951790887e-07,2.410473853453436e-07,-1.006094541914102e-07,-1.973830796805028e-08,-1.2495853079059757e-07,8.415842010741449e-08,1.425575635999504e-07,4.900245798163442e-07,-9.411485406674923e-08,-3.178206868948848e-07,-5.744878579265517e-08
-3.299127471449508e-07,9.976978830725355e-08,-1.3360120568775426e-07,5.529109022807929e-08,3.9971935099519193e-07,-2.4014191331886977e-07,2.1632334733480736e-07,-3.4416404424442616e-07,2.3408295877474977e-07,-6.573638178924244e-08,-5.7833637939598554e-08,-1.7777192081943483e-07,7.853524543406566e-08,1.4434087976512792e-07,6.680000768309241e-07,-2.2193794136347283e-07,-4.656530033769121e-07,-1.513660614411145e-07
-3.994322950569067e-07,1.7140183526229267e-07,-1.669943109953078e-07,1.0641428836170382e-07,3.937989113547383e-07,-2.9776790989760154e-07,3.2529818317766575e-07,-4.066279120906034e-07,2.1994173083006193e-07,-1.84155720114151e-08,-9.589990329718794e-08,-2.300662559258545e-07,7.104406107540811e-08,1.4845989727046285e-07,8.154584398666033e-07,-3.2403168060949386e-07,-5.343443141007093e-07,-2.296830132867529e-07
-4.633673252026399e-07,2.6418032158255514e-07,-1.9231601069257633e-07,1.7212063274808245e-07,3.9101323444704963e-07,-3.6995942928916906e-07,4.1499380043015775e-07,-4.5626107971776824e-07,2.075127888881792e-07,2.9334746598722614e-08,-1.3113258825356741e-07,-2.8419830357918546e-07,6.884534417691128e-08,1.5455117793895794e-07,9.117975657525078e-07,-3.847444768322447e-07,-5.375097852713498e-07,-2.806534670195676e-07
-5.21391487888307e-07,3.7648351320005487e-07,-2.101340020826988e-07,2.450908831797161e-07,4.0110743075104947e-07,-4.616379839920911e-07,4.764827727842066e-07,-4.948223362308853e-07,2.0632826245582434e-07,6.379927781146439e-08,-1.6987055407614876e-07,-3.445348431628524e-07,8.187254805890088e-08,1.6395326776314622e-07,9.448110771480806e-07,-3.986116331696677e-07,-4.7565476966541404e-07,-2.992332852533376e-07
-5.740972182083868e-07,5.041661480946817e-07,-2.2360181217063585e-07,3.1568867868449157e-07,4.289939007041838e-07,-5.773653219078275e-07,5.049156799097181e-07,-5.280216190728847e-07,2.2566361260797267e-07,7.308957883041562e-08,-2.2153299924216743e-07,-4.159813738892836e-07,1.1940017833283141e-07,1.7919423898855042e-07,9.125995350523772e-07,-3.7196989123381534e-07,-5.159952554985935e-07,-2.875106990880885e-07
-6.2250033663417e-07,6.408232714125995e-07,-2.3644391146759818e-07,3.7509180375035794e-07,4.728747199828296e-07,-7.182975061090032e-07,4.995916206714776e-07,-5.625072986951451e-07,2.69058592598991e-07,5.044978296668422e-08,-2.9638468101878073e-07,-5.017820486344345e-07,1.8632460480327916e-07,2.0355091917896207e-07,8.232908198071406e-07,-3.1960018550538847e-07,-4.888534933144758e-07,-2.521183346649936e-07
-6.664795471574755e-07,7.791989926263921e-07,-2.506797065447399e-07,4.1910256115956964e-07,5.25668510286971e-07,-8.797799296677575e-07,4.6465047852709707e-07,-6.025588389292442e-07,3.342402915219771e-07,-3.749569637123666e-09,-4.021415807944003e-07,-6.016871781657706e-07,2.8078479125652294e-07,2.4034711409010664e-07,6.926872115304237e-07,-2.5894941076565527e-07,-4.246018086732719e-07,-2.0112056188177418e-07
-7.051168764826262e-07,9.127902353892387e-07,-2.6594409777335447e-07,4.490266898573502e-07,5.787192124618025e-07,-1.052170282536231e-06,4.0894438933767635e-07,-6.487105171995821e-07,4.153170213959798e-07,-8.206341846816093e-08,-5.386618095732401e-07,-7.114208902469289e-07,3.941521137301639e-07,2.9132705111739813e-07,5.40306095232449e-07,-2.0480697171580241e-07,-3.4844460989732283e-07,-1.4201545530589526e-07
-7.384894034611344e-07,1.036956277196763e-06,-2.802793167728275e-07,4.698167292475481e-07,6.254167477081982e-07,-1.2239650786096136e-06,3.443183936781193e-07,-6.983195274117771e-07,5.043339944067646e-07,-1.7204565343880723e-07,-6.977381854306731e-07,-8.235087066147253e-07,5.134529281694468e-07,3.551435807501868e-07,3.851013390688449e-07,-1.6591894780903768e-07,-2.543877181714314e-07,-8.084342597303506e-08
-7.669924399922483e-07,1.1492049286914866e-06,-2.9132748221149304e-07,4.875825576071768e-07,6.634678938695547e-07,-1.384776091939249e-06,2.8248716532250416e-07,-7.469387132102205e-07,5.93549554675634e-07,-2.5992154145377137e-07,-8.668546547980471e-07,-9.292599816733777e-07,6.26295319761053e-07,4.2621901143077896e-07,2.4165224462661897e-07,-1.449175919781195e-07,-1.5386289200723793e-07,-2.2388664994136393e-08
-7.91912056297653e-07,1.2482519924420429e-06,-2.9750061255943255e-07,5.066254747031799e-07,6.919700122130683e-07,-1.5271540713738828e-06,2.3138482511207713e-07,-7.898317648339755e-07,6.756795577894301e-07,-3.3452959163926753e-07,-1.0321964923965097e-06,-1.0209388089344916e-06,7.200737292910526e-07,4.948833624619403e-07,1.1771613335591424e-07,-1.4084882881305907e-07,-5.659294106992774e-08,2.9311069367168244e-08
-8.143839134354074e-07,1.3327851627692238e-06,-2.984828769885438e-07,5.285316299227824e-07,7.091863496896384e-07,-1.6469384628688367e-06,1.9317704392466726e-07,-8.232648286736667e-07,7.442024231351956e-07,-3.8956428260061663e-07,-1.180323611737812e-06,-1.092850411664313e-06,7.849457016870616e-07,5.507898305988198e-07,1.4411568684595889e-08,-1.5138838398776487e-07,1.4230175898970614e-08,7.13647074858739e-08
-8.344471051509304e-07,1.4014388814822484e-06,-2.9468154963771406e-07,5.524970295750978e-07,7.119816884686095e-07,-1.74262843931677e-06,1.651377878226229e-07,-8.453734267183475e-07,7.94498827030072e-07,-4.2360393708324893e-07,-1.3022710387333607e-06,-1.1416717683430234e-06,8.197992353237799e-07,5.876086052815746e-07,-7.128648156314334e-08,-1.7364433315393236e-07,5.515387783148698e-08,1.0286417500621191e-07
-8.503251462388443e-07,1.4537144513555846e-06,-2.866178016565591e-07,5.769081311613554e-07,6.977109450774812e-07,-1.814954663963035e-06,1.419195653191805e-07,-8.56592540263283e-07,8.262705887416981e-07,-4.391446306691937e-07,-1.3995116594392052e-06,-1.1671391569025538e-06,8.292887649289001e-07,6.049732906313423e-07,-1.4345445284358e-07,-2.0423067674098727e-07,8.133489092395598e-08,1.2503312619152197e-07
-8.595155619607755e-07,1.490754242559885e-06,-2.7480199671352757e-07,6.005744329323725e-07,6.665886762389634e-07,-1.866621945862828e-06,1.1775154301785968e-07,-8.593769334706025e-07,8.435311411505496e-07,-4.4154186745302167e-07,-1.4747542036056718e-06,-1.1726727562128023e-06,8.230633182504447e-07,6.078339563034976e-07,-2.0476285118596916e-07,-2.388215212970686e-07,9.996015227316868e-08,1.4066622272578212e-07
-8.599841213599758e-07,1.5155836426653479e-06,-2.597197825761117e-07,6.234823015766777e-07,6.223467254594516e-07,-1.901600144239193e-06,8.815329417025716e-08,-8.57162691111654e-07,8.532059732534763e-07,-4.3789553067491533e-07,-1.5321999051236343e-06,-1.1648810117495093e-06,8.140473967520811e-07,6.04387264553253e-07,-2.5576717372118353e-07,-2.7219947763060155e-07,1.2201471900895042e-07,1.5293433157614423e-07
-8.508210762339512e-07,1.5323608814718247e-06,-2.4215705769454686e-07,6.4637565120262e-07,5.706806498420396e-07,-1.924513046960418e-06,5.0360833125115144e-08,-8.532573022506793e-07,8.620514419645677e-07,-4.357903618824906e-07,-1.5618520156018012e-06,-1.151907751967005e-06,8.140006896378646e-07,6.02047894721941e-07,-2.9633146708671434e-07,-2.998810640025951e-07,1.464289798421477e-07,1.6385470570719154e-07
-8.336180986946911e-07,1.5445973352376122e-06,-2.2393379075261903e-07,6.693235204165359e-07,5.173709221578417e-07,-1.9401779592498153e-06,2.6305052908780722e-09,-8.500126986572196e-07,8.742917306673042e-07,-4.4167202174273067e-07,-1.581037167570328e-06,-1.1409250927820498e-06,8.305676197869255e-07,6.040775253980134e-07,-3.274576287342683e-07,-3.194751030236795e-07,1.7043148236878226e-07,1.7398819686868425e-07
-8.115209780670315e-07,1.5537744359828074e-06,-2.075653727917276e-07,6.914467798145164e-07,4.657256983146517e-07,-1.9520170980012304e-06,-5.57831955623905e-08,-8.479299189428639e-07,8.903564819263176e-07,-4.5912812955230016e-07,-1.6299440348065987e-06,-1.1356255716099403e-06,8.666203661144268e-07,6.100539085864762e-07,-3.5344446928618795e-07,-3.3012686476827843e-07,1.921540105178028e-07,1.837045851591473e-07
-7.875808027274714e-07,1.5592349940015068e-06,-1.9427721349482145e-07,7.124818253808243e-07,4.1584035082869796e-07,-1.9597303267910675e-06,-1.2373978228493828e-07,-8.449928636110584e-07,9.06880339909785e-07,-4.883492553557809e-07,-1.7004111969066567e-06,-1.135631552609191e-06,9.194760206024707e-07,6.172044020656769e-07,-3.7300308145745504e-07,-3.322631258675631e-07,2.0686842937271108e-07,1.938746528309779e-07
-7.631645688557652e-07,1.558535001175141e-06,-1.8211886914132903e-07,7.331502945707037e-07,3.6516425723502666e-07,-1.9584997044536066e-06,-1.9785946310398402e-07,-8.371380901713067e-07,9.163140525360072e-07,-5.269770747676417e-07,-1.7776922678784345e-06,-1.1379883302327741e-06,9.822230177607724e-07,6.195312326736948e-07,-3.9160930437900395e-07,-3.2891920418672903e-07,2.0794409029308426e-07,2.0528206919080784e-07
-7.375638363540671e-07,1.548071739534096e-06,-1.6553024393541912e-07,7.549035416446622e-07,3.0958987311229404e-07,-1.9400849789140517e-06,-2.7241045967943124e-07,-8.197709659648858e-07,9.087123845220321e-07,-5.703975193449125e-07,-1.8067779649736147e-06,-1.1380745458008672e-06,1.0343266205503385e-06,6.081058410614544e-07,-4.159612331084496e-07,-3.2578453027498603e-07,1.8895346108636953e-07,2.1860294579934105e-07
-7.091753484240104e-07,1.5246022264138743e-06,-1.3637457629940815e-07,7.796193197124068e-07,2.4626598287108855e-07,-1.8947856572670475e-06,-3.386065364784383e-07,-7.894674836151033e-07,8.753115177392996e-07,-6.106281127231593e-07,-1.7334684095368102e-06,-1.1289374232903193e-06,1.0611414771646781e-06,5.746408593179774e-07,-4.515269261290366e-07,-3.2867317253858173e-07,1.466634305662722e-07,2.350794814239237e-07
-6.767413750038333e-07,1.4866989245598136e-06,-8.698125823561702e-08,8.087994626346804e-07,1.759187829258199e-07,-1.8146883874866612e-06,-3.849296641390943e-07,-7.455560264225273e-07,8.111739557872391e-07,-6.359483692573792e-07,-1.5617557763485038e-06,-1.1015505875621116e-06,1.0535902696337515e-06,5.14566067277794e-07,-4.986706563406755e-07,-3.408872663108974e-07,8.22624025989806e-08,2.560509895610879e-07
-6.418450466978047e-07,1.4348852621622105e-06,-1.4703229707818033e-08,8.415331764440042e-07,1.0102791076130748e-07,-1.6980602443574143e-06,-3.997054851070864e-07,-6.912213041026454e-07,7.165216327841875e-07,-6.332018012647295e-07,-1.4468783667456274e-06,-1.047447414857126e-06,9.99807553398924e-07,4.285359091808471e-07,-5.501349209954398e-07,-3.61560638330781e-07,7.88361618195753e-10,2.817239784394546e-07
-6.089429693578998e-07,1.3713992600658574e-06,7.513773585341231e-08,8.737459551468972e-07,2.679671341206733e-08,-1.5520242770388631e-06,-3.7418158586704173e-07,-6.329134377006134e-07,5.966018655225398e-07,-5.921144786655732e-07,-1.4298634843536817e-06,-9.62160417084939e-07,8.850879153702003e-07,3.2486169244740016e-07,-5.923803392006793e-07,-3.846984683715993e-07,-8.961437208921041e-08,3.109530584072541e-07
-5.829724391963148e-07,1.3004633426518574e-06,1.704698318869954e-07,9.006459673888455e-07,-4.231236581035993e-08,-1.3910931588299246e-06,-3.048009271444061e-07,-5.774417589699889e-07,4.6260060416930277e-07,-5.100266265304215e-07,-1.4029409130546036e-06,-8.478915994069197e-07,7.202834437199416e-07,2.200789186457797e-07,-6.072913301231961e-07,-4.0096676887062107e-07,-1.7939477315849884e-07,3.4162176757243166e-07
-5.666661022506736e-07,1.22766264023811e-06,2.5701882907993243e-07,9.199137531892161e-07,-1.0570846976708375e-07,-1.2323935386300321e-06,-1.9514519214662336e-07,-5.281513710205944e-07,3.2832743146745803e-07,-3.953361580398942e-07,-1.188757300596509e-06,-7.14553677385965e-07,5.445166178478089e-07,1.3328776735980292e-07,-5.8307477474315e-07,-4.030346644723487e-07,-2.614618019330287e-07,3.70601472244943e-07
-5.58599224021545e-07,1.1578318343787843e-06,3.238144114724245e-07,9.334240745359618e-07,-1.678703067105405e-07,-1.0901074105511158e-06,-5.6464656032761904e-08,-4.827249352700105e-07,2.03913136625469e-07,-2.672684776948896e-07,-9.742750647881628e-07,-5.778694321674096e-07,3.63893740031634e-07,7.837361087281287e-08,-5.168919897381434e-07,-3.903609887152497e-07,-3.3457233076598105e-07,3.939360446370206e-07
-5.53540405653548e-07,1.093429703643113e-06,3.6741511846802865e-07,9.4644985451485e-07,-2.3839999218718278e-07,-9.718846110499357e-07,9.495794532715545e-08,-4.343018538581801e-07,9.340155231550459e-08,-1.5089929638125492e-07,-8.653681685700514e-07,-4.5489913565159716e-07,2.6033125041743397e-07,6.114722517524734e-08,-4.132701992465622e-07,-3.6989629880926985e-07,-4.0267747326254707e-07,4.0747278844789227e-07
-5.439604055445762e-07,1.034686816364485e-06,3.925709875590726e-07,9.647930568629746e-07,-3.2762901003724964e-07,-8.793039919641132e-07,2.4218396802536134e-07,-3.753068683447007e-07,-4.8511675656269286e-09,-6.982091442090465e-08,-8.258462496139807e-07,-3.601152707680973e-07,3.139592229658184e-07,8.868701311241567e-08,-2.861589791597074e-07,-3.5359389049406035e-07,-4.709030433335311e-07,4.0719957385839053e-07
-5.227159103698291e-07,9.807667027186299e-07,4.0907782987805613e-07,9.914848457738033e-07,-4.419423969342547e-07,-8.113408042241566e-07,3.7123988912826334e-07,-3.0136169058326576e-07,-9.606886210773166e-08,-4.53418904918799e-08,-8.337025381599718e-07,-3.0397129212734173e-07,4.2018672249382934e-07,1.6002627395503364e-07,-1.4904077042810448e-07,-3.5407027053688174e-07,-5.41680288496681e-07,3.899231729279151e-07
-4.853012078268625e-07,9.313883610813697e-07,4.276585754480797e-07,1.0260039000633288e-06,-5.800298215745696e-07,-7.67029193733101e-07,4.740186059313629e-07,-2.1299557496971138e-07,-1.8475949648041834e-07,-7.649136158379155e-08,-7.623373928020142e-07,-2.929313583986327e-07,5.034447768325819e-07,2.778822849463703e-07,-7.474810088109292e-09,-3.7949564796151037e-07,-6.135045540921508e-07,3.5481019936653595e-07
-4.3094041353858514e-07,8.884412627286809e-07,4.570026093458449e-07,1.0661304821090306e-06,-7.303439871742963e-07,-7.456723915159176e-07,5.504011874080531e-07,-1.1526334313829208e-07,-2.706657538482025e-07,-1.590822969089566e-07,-6.385679520954674e-07,-3.2985823036194353e-07,6.266460346152041e-07,4.530494716880783e-07,1.4165407477758028e-07,-4.312486854674762e-07,-6.828405966447682e-07,3.038327525467103e-07
-3.6318411467203376e-07,8.560225652066391e-07,5.015025598494695e-07,1.1091379557867825e-06,-8.721147828074889e-07,-7.464937626820292e-07,6.07491019237546e-07,-1.6616691877460475e-08,-3.479623157958978e-07,-2.8391026546286636e-07,-5.804284789678093e-07,-4.1434313087702656e-07,8.296036545720358e-07,6.914230849866861e-07,3.216252961299648e-07,-5.060977070570548e-07,-7.472551160607441e-07,2.4021245382485594e-07
-2.8962791911453093e-07,8.385488091990819e-07,5.598730082211039e-07,1.151422878467903e-06,-9.807834380290937e-07,-7.685449888557447e-07,6.557240885603243e-07,7.289328105219301e-08,-4.072256705434056e-07,-4.348942208516308e-07,-6.128647170176796e-07,-5.418818940391159e-07,1.1199262400369893e-06,1.0088373737032986e-06,5.046759658430083e-07,-5.988166527187612e-07,-8.06282704042678e-07,1.6752718366012903e-07
-2.202542093448064e-07,8.389585024338094e-07,6.26140752421505e-07,1.1890503014117806e-06,-1.0353009699873885e-06,-8.096924151436661e-07,7.044610281001807e-07,1.4463583642437175e-07,-4.3964840528193543e-07,-5.982991620321949e-07,-7.388227670467879e-07,-7.01810731875744e-07,1.3365570574220227e-06,1.4040521719068018e-06,7.018495288050983e-07,-7.017669516232123e-07,-8.593034012506723e-07,9.092262006314591e-08
-1.6465992207915933e-07,8.579432901373929e-07,6.921520372607636e-07,1.2195852102156508e-06,-1.024513020465906e-06,-8.651341560678653e-07,7.584604240924304e-07,1.9439219563482838e-07,-4.40229309449866e-07,-7.582176996416326e-07,-8.692593878394455e-07,-8.765043014096936e-07,1.6087680750422016e-06,1.852525066534907e-06,8.824302997150605e-07,-8.037719168939905e-07,-9.036078035156231e-07,1.7998766077383315e-08
-1.2923698501331386e-07,8.931465183509371e-07,7.48851215417777e-07,1.2427850411989054e-06,-9.520722443221616e-07,-9.273970290637982e-07,8.154526170809243e-07,2.2315165344680342e-07,-4.115956989209394e-07,-8.982695259232329e-07,-9.834540225940173e-07,-1.0439284614423889e-06,1.8809764975682675e-06,2.2634215819883126e-06,1.042285671793369e-06,-8.907793084031586e-07,-9.348177543031498e-07,-4.2180980418106507e-08
-1.1709634553666873e-07,9.386509657098553e-07,7.865882555236114e-07,1.25995326143093e-06,-8.365076367308993e-07,-9.879012685286238e-07,8.665182787403387e-07,2.3550404985267602e-07,-3.6446295506665926e-07,-9.602198370491978e-07,-1.0346808382031e-06,-1.182523757585903e-06,2.02566780780741e-06,2.550799120955953e-06,1.1317795084222407e-06,-9.474322144873836e-07,-9.483105290567805e-07,-8.05415092463284e-08
-1.2809955647975848e-07,9.862827939927719e-07,7.96515260387842e-07,1.2737272130035975e-06,-7.045439064739121e-07,-1.0387383500221398e-06,9.001781191723282e-07,2.3728957852227165e-07,-3.1250201701454624e-07,-9.839222064127146e-07,-1.0363563091587883e-06,-1.2760826656483917e-06,2.023709700329262e-06,2.5359390050817858e-06,1.027890794171718e-06,-9.592136967229547e-07,-9.400561685611563e-07,-8.908979410571239e-08
-1.5876172331086017e-07,1.0283314358371794e-06,7.733238097542327e-07,1.2883995836925306e-06,-5.831482260547033e-07,-1.0740030766174933e-06,9.079107675528664e-07,2.339692071325757e-07,-2.6793060976737726e-07,-9.235178889393606e-07,-1.0093979133005597e-06,-1.3168186456625003e-06,1.9730230834552366e-06,2.488075054597306e-06,9.75482935653518e-07,-9.155613015898803e-07,-9.068359035714055e-07,-6.20627924738684e-08
-2.0349874434390272e-07,1.0600706788132196e-06,7.179743839879317e-07,1.309929986246029e-06,-4.916816612957342e-07,-1.0903145028085934e-06,8.8842693144891e-07,2.3026459762459923e-07,-2.384638833134197e-07,-8.689569751182215e-07,-9.490741064358614e-07,-1.3054892715099195e-06,2.008537312502235e-06,2.4613184069298238e-06,8.926319456501218e-07,-8.127245162159756e-07,-8.46233835242034e-07,2.9774073260565796e-09
-2.54482840670148e-07,1.081117871457436e-06,6.391437281144677e-07,1.3451058883284843e-06,-4.3893789843842466e-07,-1.0865302023968358e-06,8.492743196907738e-07,2.3073419317990166e-07,-2.234750722898868e-07,-7.951547305430063e-07,-8.814265297400823e-07,-1.2493725189820717e-06,1.9959825391647288e-06,2.4433616628587125e-06,8.557230459672083e-07,-6.560307202953896e-07,-7.572928609240355e-07,1.0380329426088565e-07
-3.0245881134688715e-07,1.094713424988966e-06,5.522249109676317e-07,1.3989021488564365e-06,-4.253658245788837e-07,-1.0636004201473307e-06,8.044685949340273e-07,2.402686029325134e-07,-2.182644853779586e-07,-6.688049802322071e-07,-8.081869537502134e-07,-1.1603619369760997e-06,1.8295564974032407e-06,2.4026927605494397e-06,8.55735166280067e-07,-4.6186629286367406e-07,-6.423551014399909e-07,2.319026500513065e-07
-3.375689028428551e-07,1.1049160400100769e-06,4.756431541669195e-07,1.47080956630095e-06,-4.4823721380725935e-07,-1.0246467892894408e-06,7.687323156813062e-07,2.6387817488501766e-07,-2.1939163381594716e-07,-5.011823744652661e-07,-7.317925327625248e-07,-1.0535512779193837e-06,1.6553495675332515e-06,2.2145547733328294e-06,7.42135633471348e-07,-2.5636761700660876e-07,-5.084342408943089e-07,3.728526501233613e-07
-3.515912733351836e-07,1.1139622834889075e-06,4.261754019584515e-07,1.5536447159405072e-06,-5.055947475924954e-07,-9.740503326018e-07,7.518718605456215e-07,3.058691427771021e-07,-2.2661113283519743e-07,-3.5902161383610106e-07,-6.643140094009312e-07,-9.450194493972144e-07,1.4775867395254045e-06,1.8723692788195237e-06,5.239134446924026e-07,-6.875144904712853e-08,-3.6656343902437745e-07,5.098890354111662e-07
-3.400692238089424e-07,1.1214911636810342e-06,4.1465777747410845e-07,1.6360624525187798e-06,-5.959084023721328e-07,-9.160271934491109e-07,7.558448904159513e-07,3.683086814584987e-07,-2.431810962821851e-07,-2.1640907830406308e-07,-6.12256522570106e-07,-8.491327840224209e-07,1.2897182656564437e-06,1.56153409976622e-06,3.0157347582978394e-07,7.630442331732985e-08,-2.301721700053636e-07,6.277423462132466e-07
-3.040652381754111e-07,1.1247601950851426e-06,4.425214170860218e-07,1.7058399133126205e-06,-7.16209473954514e-07,-8.545252192998386e-07,7.744895224521227e-07,4.488892967849684e-07,-2.7391046201541783e-07,-1.3841337904012115e-07,-5.813331601127533e-07,-7.764797269360423e-07,1.2142964856931277e-06,1.3337182752502266e-06,1.1053221135779124e-07,1.6262164802195182e-07,-1.1344235743302809e-07,7.142910826022713e-07
-2.510763443739917e-07,1.1192499223931603e-06,5.007176369382367e-07,1.7521362254732912e-06,-8.609090763682838e-07,-7.939743714674587e-07,7.960733586432398e-07,5.395825029813163e-07,-3.225874446778187e-07,-1.340098199100008e-07,-5.763897444016331e-07,-7.320712704887623e-07,1.1851894656586756e-06,1.1575103289780517e-06,-3.994502792767308e-08,1.838806534598657e-07,-2.857354075057805e-08,7.612638890375755e-07
-1.9234687965184284e-07,1.1003707732683454e-06,5.724912650918789e-07,1.7674353626826056e-06,-1.021125953415297e-06,-7.391927467750104e-07,8.083233198139878e-07,6.274641114760333e-07,-3.888308979967203e-07,-2.1221536881688377e-07,-5.991571370952903e-07,-7.138019412769201e-07,1.2011251528862715e-06,1.112566190583001e-06,-6.655907293984378e-08,1.4387464823743652e-07,1.8116536999702576e-08,7.650797383210473e-07
-1.3949440110498372e-07,1.0656649531539466e-06,6.384186352552116e-07,1.7487251558600753e-06,-1.1850784744683645e-06,-6.947946823866516e-07,8.029588273418302e-07,6.973973593469147e-07,-4.672908514638971e-07,-3.395767063860352e-07,-6.474410047460369e-07,-7.126799447182342e-07,1.2541510770521921e-06,1.1294645991441916e-06,-7.54145735753051e-08,5.4819263329517135e-08,2.9220936894368907e-08,7.272972428378719e-07
-1.0155846160830602e-07,1.0160440636880844e-06,6.81168631776519e-07,1.6972991264874474e-06,-1.3399023685767015e-06,-6.647011517565686e-07,7.774799401105642e-07,7.355529045619843e-07,-5.480608802764423e-07,-4.775598468245067e-07,-7.149619568324841e-07,-7.151333224213363e-07,1.3000318957484938e-06,1.148157870611135e-06,-8.782246502466205e-08,-6.524316123312734e-08,1.6900931305238846e-08,6.550309871111918e-07
-8.33181488697493e-08,9.56162350246215e-07,6.895411463193255e-07,1.6186597367522465e-06,-1.4731134308976135e-06,-6.507571081409169e-07,7.352524542301517e-07,7.33087949310299e-07,-6.183981146196558e-07,-6.018720193935e-07,-7.920568898498666e-07,-7.062173387945232e-07,1.347824618865481e-06,1.15676884202683e-06,-9.096951133341795e-08,-1.9464625945393964e-07,3.724531765263253e-10,5.610650266765555e-07
-8.488778695273046e-08,8.939774300424089e-07,6.612742244416145e-07,1.522515284549771e-06,-1.5737493146237792e-06,-6.50868385004344e-07,6.843545660362694e-07,6.885976783952976e-07,-6.649885842768163e-07,-6.981180066099806e-07,-8.674463114621556e-07,-6.734579212897824e-07,1.394673136640022e-06,1.1329228584164504e-06,-8.098765562422824e-08,-3.1233863998248335e-07,-6.292974818408502e-10,4.6114434589750197e-07
-1.0216098986657315e-07,8.381882245876323e-07,6.025215668098479e-07,1.420243911395982e-06,-1.6351198080808346e-06,-6.590989228887801e-07,6.340004641643857e-07,6.076066977897778e-07,-6.781808792679411e-07,-7.505671666801686e-07,-9.310457666314688e-07,-6.107229537948317e-07,1.430139859548195e-06,1.0857134808994937e-06,-5.075865717210565e-08,-4.047791624717854e-07,2.588028715400356e-08,3.6845446842435107e-07
-1.2957526431242487e-07,7.942394225703922e-07,5.244529938039995e-07,1.320401348800701e-06,-1.6581325466754446e-06,-6.678241963129796e-07,5.9023609679074e-07,4.995909671624826e-07,-6.560495465971622e-07,-7.535123651332777e-07,-9.763672542243569e-07,-5.19568433271275e-07,1.443350521267654e-06,1.0156914125538317e-06,-1.5302403901275216e-08,-4.700286167165076e-07,7.993791720850566e-08,2.8976969459592223e-07
-1.6135299204838813e-07,7.622451931272708e-07,4.400809483033543e-07,1.2265601319176147e-06,-1.652111045741584e-06,-6.695493829383078e-07,5.545535095895202e-07,3.749820378819711e-07,-6.037716554628114e-07,-7.091044049243678e-07,-1.0010189218046747e-06,-4.071224546283728e-07,1.4221684462275122e-06,9.112917027082888e-07,1.4335429147968017e-08,-5.154636318307611e-07,1.5212553546035714e-07,2.2582207548195987e-07
-1.9210329758636504e-07,7.380746057271208e-07,3.618957391132417e-07,1.1386460590025293e-06,-1.6301790537337012e-06,-6.580911332646178e-07,5.253805360523579e-07,2.4338712968673733e-07,-5.302009597237286e-07,-6.25096455306052e-07,-1.005727500484066e-06,-2.8313445872864214e-07,1.3586515005443204e-06,7.673757979919142e-07,1.7881067637849212e-08,-5.524130794902957e-07,2.293409552854081e-07,1.7376686046741424e-07
-2.1811642077528844e-07,7.156924939303829e-07,2.9856544688126685e-07,1.0551853609699268e-06,-1.603877218322942e-06,-6.30513397661816e-07,4.998474177118664e-07,1.1251763337743618e-07,-4.4560040713172115e-07,-5.125028431006027e-07,-9.931373155378005e-07,-1.5817316788859282e-07,1.251433565899392e-06,5.902453813192582e-07,1.473552095940953e-08,-5.913603401267133e-07,2.998653348739546e-07,1.2971858373944202e-07
-2.3957206588984484e-07,6.894514680505615e-07,2.51174522406006e-07,9.751252273122838e-07,-1.5789145008870768e-06,-5.892156996029867e-07,4.7515158185474426e-07,-1.2474261389998642e-08,-3.5829956241720166e-07,-3.8353509132640355e-07,-9.67025151293737e-07,-4.2434420445985964e-08,1.1062321887448812e-06,3.972700398866734e-07,7.0264451091152e-09,-6.387037370108414e-07,3.5629393703721064e-07,9.078888957899361e-08
-2.6240947015790014e-07,6.55929670651052e-07,2.1147664292548028e-07,8.988664658134293e-07,-1.5526844215050662e-06,-5.424949512688551e-07,4.495687981758182e-07,-1.29075617483494e-07,-2.728708063946854e-07,-2.505241196584214e-07,-9.323243015816225e-07,5.504313183990831e-08,9.336496043179239e-07,2.0904028641753568e-07,-5.9344083947700115e-09,-6.964759148062403e-07,3.9579948523299364e-07,5.54383823879619e-08
-2.9731608393167726e-07,6.142928792023886e-07,1.6384507519410676e-07,8.275611971062809e-07,-1.5169073775846692e-06,-5.029615357008632e-07,4.224315903159866e-07,-2.3688845300697688e-07,-1.9078879899918977e-07,-1.2597992856209972e-07,-8.95665310682743e-07,1.2670542712745917e-07,7.455875215431856e-07,3.851159889188463e-08,-2.4131137441677595e-08,-7.647336589235631e-07,4.184473334386264e-07,2.2228841039539828e-08
-3.5591754330372246e-07,5.653189945962261e-07,9.10758960010125e-08,7.615882221874597e-07,-1.4639075638384257e-06,-4.836479383387015e-07,3.9379723662102124e-07,-3.3649300403192034e-07,-1.1190766067535161e-07,-2.1940909052596734e-08,-8.649239104894609e-07,1.6756446225071152e-07,5.525504468784501e-07,-1.1416134870698323e-07,-4.4604016066977045e-08,-8.432471078704548e-07,4.2567973459539833e-07,-1.091098125667721e-08
-4.4485093982041434e-07,5.105983889066878e-07,-1.7612411912317662e-08,7.001014343318364e-07,-1.3925937267632192e-06,-4.929377594303724e-07,3.648223518708035e-07,-4.2815177847533644e-07,-3.61677723521439e-08,5.238476307666423e-08,-8.471576669428767e-07,1.77007584318466e-07,3.6274280438359426e-07,-2.584563360117268e-07,-6.153355781727592e-08,-9.316265844916128e-07,4.1950622681060423e-07,-4.653189736570084e-08
-5.618015169933662e-07,4.519582487318501e-07,-1.6162700746758664e-07,6.409526301220929e-07,-1.309913817840887e-06,-5.315270867801387e-07,3.376174496145251e-07,-5.114319738021818e-07,3.511491922950084e-08,9.283456278416393e-08,-8.465049823331146e-07,1.591992775520368e-07,1.8202514067882443e-07,-4.0752778817584237e-07,-7.460568819475604e-08,-1.0299652935398985e-06,4.0149666468338164e-07,-8.774981402543872e-08
-6.963219229556034e-07,3.881675878293131e-07,-3.3014852946908143e-07,5.800265270301031e-07,-1.2301360692020129e-06,-5.931795243693751e-07,3.138454919861506e-07,-5.858733826161667e-07,9.70109000029456e-08,1.0072860590607532e-07,-8.634774640441534e-07,1.2149634736687136e-07,1.4505269635414662e-08,-5.722849536351721e-07,-8.470725864651248e-08,-1.1392491993034765e-06,3.7342571436808806e-07,-1.3772977190521754e-07
-8.339301754613736e-07,3.2016108750677595e-07,-5.070297458304948e-07,5.117222662246339e-07,-1.1698575725197374e-06,-6.675377772748884e-07,2.9381593949066973e-07,-6.5151541065487e-07,1.4601586141953214e-07,8.195178654608768e-08,-8.954756685258363e-07,7.244989102738062e-08,-1.360631183075622e-07,-7.55303940689388e-07,-9.660481474288548e-08,-1.2596506843358041e-06,3.328358200279295e-07,-1.9775149472987717e-07
-9.604016757200078e-07,2.479009314863671e-07,-6.759539670149118e-07,4.314264871265262e-07,-1.1411311345331416e-06,-7.432553319272036e-07,2.768826062113983e-07,-7.087460642634659e-07,1.8054351032853986e-07,4.53334242484781e-08,-9.379922247691446e-07,2.0167136306212722e-08,-2.6541570474451987e-07,-9.483497282202124e-07,-1.1414621738601641e-07,-1.3883056318147382e-06,2.8563502203897517e-07,-2.655873672494291e-07
-1.0655600348718238e-06,1.7190696988660016e-07,-8.241167539554789e-07,3.3805538597852887e-07,-1.1474886569148311e-06,-8.107485704884447e-07,2.620859711728419e-07,-7.579628873195976e-07,2.0280145970545037e-07,7.560897508622183e-10,-9.859776880462896e-07,-2.8959019308671992e-08,-3.694835703996034e-07,-1.135472616917494e-06,-1.3875801069473297e-07,-1.5183890938697735e-06,2.3810121670761112e-07,-3.35369026964533e-07
-1.1442664431662007e-06,9.721025577848057e-08,-9.436485127437626e-07,2.354959509483414e-07,-1.1831868866875161e-06,-8.636185983455602e-07,2.489037964587081e-07,-7.991824509050736e-07,2.1681836581498096e-07,-4.2180530310735295e-08,-1.0345282096445774e-06,-7.077697527738284e-08,-4.4577462821885564e-07,-1.2977055485087158e-06,-1.7039667411428015e-07,-1.6391928365350798e-06,1.9772522763667476e-07,-3.984216638036746e-07
-1.195788550820773e-06,2.7908849788984605e-08,-1.031049461761567e-06,1.3270215248793925e-07,-1.2347538755957391e-06,-8.985996625331945e-07,2.379901057538136e-07,-8.317070326072119e-07,2.2934386381425086e-07,-7.494178423247589e-08,-1.078728213730301e-06,-1.0361689313339777e-07,-4.948528758742318e-07,-1.4175808301451763e-06,-2.0800371273848062e-07,-1.738145674616135e-06,1.758830092678941e-07,-4.4548152340900077e-07
-1.2231533924861108e-06,-3.1031052052615164e-08,-1.086736416423202e-06,4.1245693430388e-08,-1.2846627351173625e-06,-9.156380250548762e-07,2.3038911651238795e-07,-8.544629172225566e-07,2.4883179857420654e-07,-9.117997014900744e-08,-1.1133844327409879e-06,-1.2907510240345387e-07,-5.221385488624692e-07,-1.4851313597569196e-06,-2.512439355010708e-07,-1.8052757346054267e-06,1.7926062332547142e-07,-4.702302168662233e-07
-1.2380873286705685e-06,-7.61666724437217e-08,-1.115362018717557e-06,-2.9064653075073868e-08,-1.3161227015965215e-06,-9.184688160218648e-07,2.2549990554060438e-07,-8.668523492862896e-07,2.8203469499727904e-07,-8.804304452959784e-08,-1.1328135857912474e-06,-1.5250291020047718e-07,-5.42544211729043e-07,-1.5022179032278134e-06,-3.014466212602518e-07,-1.8365620241632298e-06,2.1178732167044017e-07,-4.7157982071181306e-07
-1.248519681649227e-06,-1.0814298369292672e-07,-1.1253479111408354e-06,-7.326157867812353e-08,-1.3162553189385088e-06,-9.166311344543164e-07,2.2040005161270678e-07,-8.692461588119405e-07,3.3475785334519786e-07,-6.688399874222196e-08,-1.1279787929251975e-06,-1.821210917677122e-07,-5.666134004396706e-07,-1.4809292964598509e-06,-3.635212423585293e-07,-1.8335917693769773e-06,2.749643207588326e-07,-4.5339587352589346e-07
-1.2662258873994165e-06,-1.315925885038337e-07,-1.1273125362452069e-06,-9.188615392126647e-08,-1.2743945356427561e-06,-9.186951349894115e-07,2.1124691687280083e-07,-8.631423374761025e-07,4.055511748903963e-07,-3.3619825961110186e-08,-1.0921468721047234e-06,-2.274322797006887e-07,-6.102231336868195e-07,-1.4381533856322515e-06,-4.277420197161283e-07,-1.801774567471583e-06,3.604689693039223e-07,-4.2333507823222596e-07
-1.3045444570069823e-06,-1.5308851046151694e-07,-1.1324561669453487e-06,-9.063441841533281e-08,-1.1891493149809193e-06,-9.330233938692716e-07,1.9561384615467856e-07,-8.513319285843635e-07,4.869015278044834e-07,1.1308996892109524e-09,-1.0194826326342877e-06,-2.975057229327432e-07,-6.864355914195413e-07,-1.3892189087054986e-06,-4.874154771190792e-07,-1.748850264180263e-06,4.291777282275684e-07,-3.9143657054637e-07
-1.3704033040283156e-06,-1.8014061713741933e-07,-1.1505595699992162e-06,-7.880364633748067e-08,-1.0651348328129034e-06,-9.66217303944342e-07,1.7568566478313575e-07,-8.374892923813387e-07,5.673598689031012e-07,2.3200857927277124e-08,-9.077056607240701e-07,-3.9867213311998435e-07,-7.964049065624916e-07,-1.340858285694899e-06,-5.278752212003652e-07,-1.6829851428972899e-06,4.576611104492221e-07,-3.676287850943981e-07
-1.4724471164308076e-06,-2.1712202848707073e-07,-1.1871499359874683e-06,-6.601078762476434e-08,-9.100378792615664e-07,-1.0168220861827694e-06,1.627056454710485e-07,-8.249248352193638e-07,6.281682838182182e-07,1.7818193826205036e-08,-7.571483857568695e-07,-5.322755894971781e-07,-9.346749531838659e-07,-1.2874445080468954e-06,-4.833107016177003e-07,-1.611459951161573e-06,3.8664818802734855e-07,-3.590243953307782e-07
-1.6150083236528693e-06,-2.6511993701112426e-07,-1.2413902530098997e-06,-5.893907924112928e-08,-7.368202101164047e-07,-1.082159960522984e-06,1.7149608824708106e-07,-8.153347015493067e-07,6.555329824187267e-07,-2.648189403522455e-08,-5.711569816837248e-07,-6.936593611787369e-07,-1.0750351589179077e-06,-1.2155077168892991e-06,-3.6981956253960214e-07,-1.5410770203114943e-06,2.5606404429937515e-07,-3.6825983044058197e-07
-1.7858673178655733e-06,-3.191391586876954e-07,-1.3061515937103796e-06,-5.949629753517377e-08,-5.590217714030513e-07,-1.1475587429629766e-06,2.0738311868741076e-07,-8.079495050068372e-07,6.433516440170638e-07,-1.1243145442305224e-07,-3.632009240519485e-07,-8.717369311997828e-07,-1.1905128067141646e-06,-1.1132102964460944e-06,-3.1232154853227766e-07,-1.4782140796842722e-06,1.4723452741283082e-07,-3.9244739280271164e-07
-1.926789852494877e-06,-3.7057147579382553e-07,-1.369735001618963e-06,-6.425441588819122e-08,-3.847775095286726e-07,-1.2014201222143724e-06,3.22211863499986e-07,-7.987283516030562e-07,5.919136901475705e-07,-2.3562787192163824e-07,-1.4980170009441448e-07,-1.048810219243876e-06,-1.2244156779708906e-06,-9.721621427789606e-07,-4.196075530522634e-08,-1.4271614318760544e-06,8.576985261920792e-08,-4.230326946577765e-07
-2.0350945704285375e-06,-3.9299916049486074e-07,-1.4188436940021184e-06,-6.587100111324695e-08,-2.2399503392749925e-07,-1.2363080304118984e-06,4.6833910059909665e-07,-7.797475423152285e-07,5.245092201196954e-07,-3.8564226161865815e-07,2.443605152643473e-08,-1.2029677229992043e-06,-1.1694570904933414e-06,-8.009910469637143e-07,2.6218126900118344e-07,-1.3884619789681123e-06,-4.518432307704532e-08,-4.4805577709657434e-07
-2.035759950265947e-06,-3.9152607758583384e-07,-1.442263292688905e-06,-5.6632296278639815e-08,-8.806087338993474e-08,-1.23915961441011e-06,6.572367496855343e-07,-7.39550236458445e-07,4.539359643031229e-07,-5.471133805207279e-07,1.0832002493837252e-07,-1.3145272377724827e-06,-1.0595540757121492e-06,-6.184166051330252e-07,5.128022458412036e-07,-1.3583617527133323e-06,-2.331818778686675e-07,-4.563969200673133e-07
-1.9460459846596257e-06,-3.775518743179762e-07,-1.4333451154365868e-06,-3.170915618432286e-08,4.258457698182551e-09,-1.202513788406958e-06,8.591078251913461e-07,-6.654704806440153e-07,3.824261089052363e-07,-7.07745013896842e-07,1.3422938495452767e-07,-1.3738010797349329e-06,-9.439188180882823e-07,-4.3028699478987355e-07,7.090014768712844e-07,-1.3294493150799476e-06,-4.49452188354147e-07,-4.4194147124551095e-07
-1.909126913300157e-06,-3.615934081772377e-07,-1.3904051467851562e-06,9.631719384826817e-09,3.208867431265529e-08,-1.1213306009939625e-06,1.0482684561859387e-06,-5.48721507674679e-07,2.994120310718826e-07,-8.597358719167996e-07,1.420763731388786e-07,-1.3854300712211508e-06,-8.198036270129673e-07,-2.3331409795748695e-07,8.539094145172259e-07,-1.2931324282120044e-06,-5.568180522020832e-07,-4.0614533626693565e-07
-1.8795515340217407e-06,-3.7135072852156794e-07,-1.3162055309558872e-06,6.423453773250094e-08,-1.266826811721611e-09,-1.0083640842015023e-06,1.205665071975605e-06,-3.90775826503825e-07,2.4883279001052994e-07,-9.98481988010949e-07,1.91128281400484e-07,-1.3661161576592445e-06,-5.837880325755369e-07,-1.5005882316336436e-08,9.435165940423654e-07,-1.2429181562638065e-06,-6.353330200107961e-07,-3.5761474252989013e-07
-1.8376008742687851e-06,-3.750716961509543e-07,-1.217359976249601e-06,1.2616708666294536e-07,-7.60057430922489e-08,-8.700422453109659e-07,1.3226971080774185e-06,-2.1102997535811848e-07,2.321857486951483e-07,-1.1216912193568548e-06,2.411916126345168e-07,-1.3368186802075257e-06,-3.205659766141683e-07,2.4048047341054185e-07,1.0079776210085639e-06,-1.1763783029839157e-06,-7.347636934146409e-07,-3.0833906197663317e-07
-1.772370315859047e-06,-3.5830867874487766e-07,-1.1020534566192213e-06,1.881800617174523e-07,-1.1510290558589509e-07,-7.812691479484303e-07,1.4008031775307625e-06,-3.457750761519592e-08,3.0425760354585507e-07,-1.227814281368602e-06,2.3152025226201854e-07,-1.3147559574187188e-06,-7.396076254190375e-08,5.397129366234903e-07,1.0763499048001693e-06,-1.096422707418999e-06,-7.774103315232377e-07,-2.6908812103466455e-07
-1.6327095703852215e-06,-2.9385779862578674e-07,-9.844162441251835e-07,2.421843953458783e-07,-3.229915026047193e-08,-7.915929285789629e-07,1.4479926767665695e-06,1.1332412751945561e-07,4.851740194414645e-07,-1.3152504854651081e-06,1.9183011831938594e-07,-1.3094942920384095e-06,2.1359427208447346e-07,8.742109925410684e-07,1.1670916554223297e-06,-1.012474486257293e-06,-7.740437866245694e-07,-2.463481746610201e-07
-1.559540613423072e-06,-1.634424706777382e-07,-8.773835816797344e-07,2.795616368464721e-07,2.3306256879354308e-07,-8.761231096530281e-07,1.4742250214537206e-06,2.0536101299371073e-07,6.047444833017656e-07,-1.383150246815427e-06,1.4140932165542993e-07,-1.3222145921857639e-06,4.604894942767757e-07,1.2239083327855026e-06,1.2831608771932384e-06,-9.38515753466016e-07,-6.449999971244711e-07,-2.4022551320063246e-07
-1.5420891261354695e-06,-1.1025237702076897e-07,-7.910604163452549e-07,2.9356739069534227e-07,4.805382240996742e-07,-9.780141828132948e-07,1.4878104792713351e-06,2.2750504282233486e-07,6.492422486481262e-07,-1.4298824013844234e-06,7.882266142081299e-08,-1.346134405124639e-06,6.603835029930863e-07,1.5638565346089824e-06,1.4141999738584367e-06,-8.87094010276651e-07,-6.141151328968936e-07,-2.432290225928901e-07
-1.5125911730869371e-06,-6.636325671364622e-08,-7.312818906617121e-07,2.8266535449156415e-07,6.864260201680226e-07,-1.023579881570015e-06,1.4933133434444233e-06,1.7660836311974228e-07,6.879415057340444e-07,-1.4626162709453863e-06,5.461506454849638e-08,-1.3689847025866266e-06,8.28688292520469e-07,1.8777811338886275e-06,1.542860737483048e-06,-8.640227128974445e-07,-5.72027898337759e-07,-2.419323709411514e-07
-1.5431136924423132e-06,-1.4614846410587025e-08,-6.962908950544476e-07,2.5164505151556873e-07,8.661474668713965e-07,-1.0474608610682509e-06,1.490762858271823e-06,7.374528933325955e-08,7.101146754348624e-07,-1.484045412142433e-06,1.1597284592483588e-07,-1.3779665364507737e-06,9.476137119910087e-07,2.1535999549821424e-06,1.6524426581945304e-06,-8.670160356445374e-07,-4.7567430255735807e-07,-2.214464584595069e-07
-1.5718295741960765e-06,8.55459265048338e-08,-6.780360039727846e-07,2.10688216698196e-07,1.0726792499247649e-06,-1.2062320070053661e-06,1.4770701362259017e-06,-5.3221279392233565e-08,8.080903378052247e-07,-1.4995537358977548e-06,2.018000738892015e-07,-1.3643470661958887e-06,1.0365766178695053e-06,2.3947105053962505e-06,1.733631007178315e-06,-8.865781150289109e-07,-4.2798316159017744e-07,-1.699578471975188e-07
-1.6162395531446843e-06,3.1437627609960263e-07,-6.623902166146304e-07,1.7411417720642609e-07,1.3017230034070557e-06,-1.2926562125966321e-06,1.4491079453551202e-06,-1.264231870823769e-07,8.961556229348856e-07,-1.5179801003732717e-06,2.852802972257286e-07,-1.325050283916096e-06,1.09904448079918e-06,2.6218083647520516e-06,1.7872855721528767e-06,-9.078269301818925e-07,-2.847439536444088e-07,-8.199347819888116e-08
-1.6430143284521655e-06,5.140657217593924e-07,-6.456879148015408e-07,1.5799789679575887e-07,1.4494769806351908e-06,-1.2235146132067755e-06,1.4057749550695614e-06,-5.036115759420348e-08,8.963189368626643e-07,-1.5644982372598463e-06,3.6498275952391384e-07,-1.2617039775283699e-06,1.1355037344478756e-06,2.8557759297102444e-06,1.8216282649095091e-06,-9.135381920887415e-07,-1.379934045934784e-07,3.9399760538346664e-08
-1.585179017734136e-06,6.285300811952495e-07,-5.54742725545563e-07,1.7591183538921696e-07,1.5024707529756011e-06,-1.0986364190602992e-06,1.3484233783137876e-06,9.835206466216298e-08,8.70066585607371e-07,-1.6476621016987437e-06,4.171961510949291e-07,-1.1789421382311278e-06,1.153691720756759e-06,3.0707384002026446e-06,1.8466712307653066e-06,-8.872602172891576e-07,-8.342333727977146e-09,1.825054203907534e-07
-1.4900099278050957e-06,7.003259482661059e-07,-4.064005084127928e-07,2.3494311725269374e-07,1.5210526212245992e-06,-9.640323596014526e-07,1.2810170559080795e-06,2.974371345320029e-07,8.80127188065131e-07,-1.7519885443597585e-06,4.2348010791046946e-07,-1.0830541520338572e-06,1.1612745890345467e-06,3.301038129658998e-06,1.8701815627146512e-06,-8.155172711879381e-07,9.621191438792541e-08,3.2972141709078803e-07
-1.417105733465913e-06,7.440731936141342e-07,-2.5019667327737e-07,3.339571438643389e-07,1.532658926137392e-06,-8.360523782671304e-07,1.2094026080667356e-06,4.4237452705906373e-07,8.776075848834432e-07,-1.8924835975934332e-06,3.879450778442771e-07,-9.813278888129271e-07,1.165219710905546e-06,3.588655931886824e-06,1.8962382321867624e-06,-6.900831023448063e-07,1.8593669397273343e-07,4.6212917304566825e-07
-1.2693012717399287e-06,7.777100402951098e-07,-6.275726200685518e-08,4.640261183114168e-07,1.5096580092908438e-06,-7.058601410817188e-07,1.1388237406117538e-06,6.02334279126206e-07,8.850811992685863e-07,-1.993894096490069e-06,3.1190796085260166e-07,-8.81597337085416e-07,1.1693742703879358e-06,3.82292720822978e-06,1.925190462005801e-06,-5.102796498732491e-07,2.7655204691498996e-07,5.641552526605101e-07
-1.1082979456842227e-06,8.21167395746552e-07,1.8621370505654495e-07,6.108997865364401e-07,1.5089380315314516e-06,-5.981827906593079e-07,1.071767309783076e-06,8.824868982526676e-07,8.55051366001737e-07,-2.0083345411772143e-06,2.0336523063538293e-07,-7.910061639907113e-07,1.1730027319378625e-06,3.992188210622205e-06,1.9540466040842776e-06,-2.839865291495136e-07,2.8639028302190235e-07,6.271822106348181e-07
-9.178659052622611e-07,7.936504951571543e-07,3.91324015079028e-07,7.589464518314227e-07,1.369432319843761e-06,-3.788033665134906e-07,1.0079794135321272e-06,1.0337135513615506e-06,7.595036191810888e-07,-1.9075569320807737e-06,1.391376283480329e-07,-7.140687736487509e-07,1.1709235063903225e-06,3.912230100730567e-06,1.9763476681211716e-06,-2.156710500679091e-08,4.006848769974378e-07,6.508013394934617e-07
-7.558932331038436e-07,7.108014808952181e-07,4.693961393535726e-07,8.945648807636474e-07,1.1694788873409038e-06,-2.1248538442019028e-07,9.457885810603766e-07,1.0632852947665613e-06,6.696818708789396e-07,-1.7621747648434466e-06,1.571298968852286e-07,-6.510443707185479e-07,1.1549540019979861e-06,3.5769148160653287e-06,1.9814608218934267e-06,2.438252039170607e-07,4.195267417591329e-07,6.414913524238645e-07
-6.223682218355305e-07,5.977894408362358e-07,4.779630321810905e-07,1.0081525240964424e-06,1.0098311757327235e-06,-1.0766636813601069e-07,8.840866810510732e-07,1.0263555182426566e-06,5.955727717889085e-07,-1.6132847717586527e-06,1.9408848663994634e-07,-5.971445979922291e-07,1.1173444001051039e-06,3.330329519786392e-06,1.9550942685187277e-06,4.866250834590825e-07,3.274129742711681e-07,6.103133362749547e-07
-5.241491398709184e-07,5.246190211223611e-07,5.020507407742094e-07,1.0952420937170786e-06,8.930115869814417e-07,-2.2674967636052388e-08,8.245949911297354e-07,9.99235876184227e-07,5.791661207980952e-07,-1.4598793876481963e-06,2.3130136236971345e-07,-5.434210755542126e-07,1.0559646281792802e-06,3.33654297359066e-06,1.8821922135353856e-06,6.777258517467699e-07,2.540546117471419e-07,5.70206214310477e-07
-4.4764189191496116e-07,4.4460359133533897e-07,5.154215212192677e-07,1.1558370531243513e-06,8.592460659581735e-07,6.867132645747464e-08,7.719424541587044e-07,9.610919694909238e-07,5.325436248364712e-07,-1.264168627785368e-06,4.1775465055154166e-07,-4.806093627674918e-07,9.780549405285147e-07,3.3586173742856894e-06,1.7513222474950992e-06,6.883510604954595e-07,1.7237325781736378e-07,5.321673638054281e-07
-4.241413802490535e-07,3.617660651108803e-07,5.248712903019844e-07,1.1911462544927286e-06,8.247179093977175e-07,1.2511965506675167e-07,7.30264105115142e-07,8.893588956614606e-07,4.841458937502283e-07,-1.0521741098136398e-06,5.861338323768744e-07,-4.045386148148372e-07,8.99376525303396e-07,3.1363000754925872e-06,1.5597739012558662e-06,6.765102816645804e-07,7.337869817036096e-08,5.017796300147801e-07
-4.330805215240216e-07,3.8618904293648874e-07,5.163409797526836e-07,1.2007584943849782e-06,8.314103278799752e-07,1.7194133465304828e-07,6.994723621915903e-07,7.225293694537825e-07,4.718037502650265e-07,-8.958136692639561e-07,6.218084199698637e-07,-3.191618801496068e-07,8.38876960591904e-07,2.701412035737766e-06,1.3182707416073434e-06,7.190847619456867e-07,3.0199152521229864e-08,4.786953948294216e-07
-5.469542634253497e-07,4.414047180153688e-07,4.197327242151504e-07,1.1832595458971975e-06,8.908676417525725e-07,1.0652528021560167e-07,6.744572535366349e-07,4.6347833317993315e-07,4.634117169819242e-07,-7.969357052218899e-07,5.838799418347524e-07,-2.3536825022504472e-07,8.115633414928637e-07,2.203050236970447e-06,1.0518741999082643e-06,6.244747372298887e-07,6.332240125536322e-10,4.5873222513648173e-07
-6.735163989600958e-07,4.421702684728325e-07,2.8689919018885106e-07,1.1388553324568315e-06,8.762459495459497e-07,-8.014890064629188e-08,6.469724494372398e-07,2.12854100347368e-07,5.02290783637543e-07,-7.183963451888675e-07,5.524514313851976e-07,-1.6686433125681514e-07,8.231565023820292e-07,1.8723878055629425e-06,7.945173398495754e-07,4.359649172312937e-07,-2.297367610627076e-08,4.3665341533134805e-07
-7.50845389471471e-07,4.231519710228218e-07,1.798831137241194e-07,1.0715118352725054e-06,8.466879938023829e-07,-2.559766538055299e-07,6.08973235443471e-07,4.0032848829442855e-08,5.376094763778317e-07,-6.270695248675487e-07,5.093702561776162e-07,-1.2479877795739305e-07,8.69200467229787e-07,1.6082833119162873e-06,5.792563534919036e-07,2.810678741699781e-07,-2.6557977886490774e-08,4.0904506595004223e-07
-8.498201544643591e-07,3.741167972063717e-07,8.987860314302099e-08,9.900021650765514e-07,8.133481973832999e-07,-4.0219364452545854e-07,5.562118746641278e-07,-1.201659204380852e-07,5.540732141843704e-07,-6.428375393711396e-07,3.360917280689144e-07,-1.132105548257848e-07,9.380944128024493e-07,1.4015235484436982e-06,4.287744918469323e-07,1.8857620242358323e-07,-4.0980508679395787e-08,3.763828459608525e-07
-9.555594622943314e-07,2.568110562194051e-07,5.6254813957206185e-08,9.070719353454089e-07,7.250899493359355e-07,-5.198920503780618e-07,4.899340535704319e-07,-1.7845563593867317e-07,5.612595773071464e-07,-7.377454677978492e-07,2.098788665872096e-07,-1.2792793706405357e-07,1.0152743990067776e-06,1.365238966614712e-06,3.500125452095262e-07,1.4640303612229778e-07,-5.8854616297939965e-08,3.426705398322176e-07
-8.767686252599011e-07,1.3451986835649196e-07,6.318823299650291e-08,8.362405582492625e-07,6.43075364038928e-07,-5.544088498645813e-07,4.159102500518411e-07,-1.8341221544020198e-07,5.400324219854754e-07,-8.608396067332916e-07,1.6554131010029354e-07,-1.5912882349891854e-07,1.0872052081410358e-06,1.412360730296283e-06,3.352861842556611e-07,1.647226979684718e-07,-7.282546938336682e-08,3.1313753895330766e-07
-7.523299032868021e-07,2.3577615920028395e-08,9.157310667340343e-08,7.880250835132507e-07,5.79005112213576e-07,-5.438521086582512e-07,3.4262934547329676e-07,-1.7464641894639809e-07,5.089840204446661e-07,-9.30735334673836e-07,1.7940962583021723e-07,-1.9504561277922172e-07,1.1453354852592301e-06,1.475047758806625e-06,3.687899780496844e-07,2.3451628514970421e-07,-8.570202152745616e-08,2.9192841443411673e-07
-6.75856695473179e-07,-5.94594767069285e-08,1.3878505782158223e-07,7.674640869419938e-07,5.467701221535578e-07,-5.162161958999581e-07,2.7978018658444127e-07,-1.6208154242756044e-07,4.868801699599735e-07,-1.004895786533663e-06,2.3862660471743985e-07,-2.2486940319865843e-07,1.1891325323777647e-06,1.533511896326514e-06,4.3389167125663987e-07,3.374337104794713e-07,-9.451061935607861e-08,2.8063860878115156e-07
-6.125428115361539e-07,-1.0632591679502728e-07,1.9240262222339547e-07,7.732467400112635e-07,5.652181500720991e-07,-4.750087172774157e-07,2.3641322616129526e-07,-1.6481844476432215e-07,4.758928200793564e-07,-1.0477622696249521e-06,3.127106588630193e-07,-2.4047357139987167e-07,1.2266597097128776e-06,1.6213505609610644e-06,5.174847343917062e-07,4.508492530379345e-07,-1.0098178426745013e-07,2.779963124384213e-07
-5.641840639364884e-07,-1.1580494831693733e-07,2.561469153197488e-07,7.986227250134276e-07,6.131131955223676e-07,-4.2578736404166346e-07,2.1872759103183073e-07,-1.7595451208186194e-07,4.76915969001677e-07,-1.0758084977276576e-06,3.8776913619298235e-07,-2.3713931790128538e-07,1.272045972694428e-06,1.7253322499542688e-06,6.107769903256241e-07,5.535574135836415e-07,-1.093130596625579e-07,2.806912110781767e-07
-5.327042108337534e-07,-9.230255486912306e-08,3.3389894311928825e-07,8.3370824951561e-07,6.550131429182497e-07,-3.649317462558578e-07,2.2788566035875045e-07,-1.8732137177902953e-07,4.763658454642518e-07,-1.1140638269322168e-06,4.45672782348267e-07,-2.1386750945937721e-07,1.3400837873465422e-06,1.8353597936846986e-06,7.073081648002826e-07,6.299665757783468e-07,-1.2249851032131182e-07,2.8437566293347763e-07
-5.069935295866615e-07,-4.44231660693491e-08,4.238246504994005e-07,8.676823249520536e-07,6.795207749231105e-07,-2.9210513287274877e-07,2.5809161568690866e-07,-1.9701288284380794e-07,4.684759058880641e-07,-1.1526552410166943e-06,4.7290191159177375e-07,-1.7350769717109328e-07,1.4396202481956715e-06,1.964293825116478e-06,7.998713218422588e-07,6.716899272780372e-07,-1.415033530820195e-07,2.844123593106805e-07
-4.833950837289443e-07,1.9920011472318054e-08,5.202704804820599e-07,8.904125596144755e-07,6.787554582551769e-07,-2.1451490298631823e-07,2.962082491042622e-07,-2.0543846496088959e-07,4.5000365288344784e-07,-1.2133176679167701e-06,4.7106365834673867e-07,-1.2206314916820132e-07,1.568815824076368e-06,2.1285913573437286e-06,8.786825798574907e-07,6.777079097510109e-07,-1.6476878744006962e-07,2.76869611675253e-07
-4.6053642532974264e-07,8.685018843656979e-08,6.126042656301131e-07,8.940660548068695e-07,6.474358696240239e-07,-1.4715009354950252e-07,3.240955001010043e-07,-2.1726885970706547e-07,4.180539127355288e-07,-1.306773625439789e-06,4.3971001616882385e-07,-6.710467293097637e-08,1.7142155809632704e-06,2.295970582171558e-06,9.317520952323878e-07,6.530348150667871e-07,-1.8941010942187834e-07,2.592604771393658e-07
-4.422806023560553e-07,1.433905690370442e-07,6.898048097765401e-07,8.744011773332781e-07,5.923831687546911e-07,-1.0636056754539689e-07,3.2293529517489233e-07,-2.409551960157012e-07,3.7651177335451325e-07,-1.4087289747127537e-06,3.853328022277386e-07,-1.5995652651166466e-08,1.853504667915594e-06,2.411095335022159e-06,9.469390484921625e-07,6.050268396414598e-07,-2.1394261269540343e-07,2.3029981394345492e-07
-4.370993364581658e-07,1.80991900251489e-07,7.343325932486123e-07,8.314744848221664e-07,5.246700332117725e-07,-1.0889281793304588e-07,2.784217240171247e-07,-2.8750832629705136e-07,3.3183515040449266e-07,-1.5264012461460177e-06,3.204572398285661e-07,2.5937084455605248e-08,1.96135216609517e-06,2.427805293787014e-06,9.153224859455824e-07,5.391663116405949e-07,-2.4065309972341907e-07,1.8941694917204863e-07
-4.571364670653975e-07,1.9554062673102015e-07,7.115149785513548e-07,7.699374731119685e-07,4.6102047134072006e-07,-1.6697309745026803e-07,1.8580093505272326e-07,-3.681486885912644e-07,2.937426528534598e-07,-1.665944445753672e-06,2.574938780301206e-07,5.6884629409943486e-08,2.016903195786353e-06,2.244913728086541e-06,8.347380159218077e-07,4.5664960719244203e-07,-2.7573963811608514e-07,1.365785038536096e-07
-5.141475492990211e-07,1.900182500517136e-07,6.942444734059981e-07,6.980108926127925e-07,4.1969509179185173e-07,-2.825546104403967e-07,5.228600902566436e-08,-4.908423758833883e-07,2.7254149085577256e-07,-1.664333847380737e-06,2.0512993452564653e-07,7.851093122391043e-08,2.0100373879249977e-06,2.0669413806948235e-06,7.112635012982796e-07,3.5418439761359276e-07,-3.269049610675457e-07,7.215799149186025e-08
-6.148207733697795e-07,1.7180911641527987e-07,5.963932292102444e-07,6.248252799493391e-07,4.1254623700070487e-07,-4.45772065540225e-07,-1.0498044115039604e-07,-6.567575223667784e-07,2.741108874699619e-07,-1.6286826967271444e-06,1.6515231095604993e-07,9.464854175137034e-08,1.9444289565403905e-06,1.665395476832064e-06,5.582177633566682e-07,2.265852843685781e-07,-3.9924141839227073e-07,-2.5405247073480986e-09
-7.566198302882318e-07,1.4980695491119567e-07,4.795876804836322e-07,5.582460853414345e-07,4.406566550272173e-07,-6.363466968206857e-07,-2.6387300356551936e-07,-8.581570350024321e-07,2.983547008783423e-07,-1.5596322830212954e-06,1.3192536791358239e-07,1.1036279926142082e-07,1.8371635840016816e-06,1.2237967087139992e-06,3.9413205729427676e-07,7.175368523060304e-08,-4.916688098086946e-07,-8.39420819831317e-08
-9.266411254399857e-07,1.32859496430523e-07,3.5148748920657405e-07,5.04411159303044e-07,4.959752310589023e-07,-8.278819078107351e-07,-4.0278864024067516e-07,-1.0792612040512343e-06,3.4053695572595506e-07,-1.3805143172889207e-06,9.494404341066373e-08,1.316469467949513e-07,1.7145090707054016e-06,7.752928032915687e-07,2.4000553306194017e-07,-1.0566845620325543e-07,-5.965918063921886e-07,-1.6586238049489415e-07
-1.1049734864975702e-06,1.2847117213107578e-07,2.3229176934898987e-07,4.675932352781188e-07,5.650399139929714e-07,-9.948867447375694e-07,-5.057935525264426e-07,-1.3004537221992807e-06,3.938219917414442e-07,-1.1776784459124523e-06,4.3087014883270994e-08,1.6489101607017067e-07,1.6042447403140058e-06,3.831100287667856e-07,1.153074202146575e-07,-2.9454428661711837e-07,-7.0261387946368e-07,-2.410476726952797e-07
-1.2698573021857662e-06,1.417453727306622e-07,1.3927813860435725e-07,4.4974416954694636e-07,6.337565600700502e-07,-1.1196596156820764e-06,-5.65977934532887e-07,-1.503755657254141e-06,4.5173971745909924e-07,-1.0135649911890591e-06,-3.1113559544526735e-08,2.1590737254113004e-07,1.5277582928155145e-06,9.18847196042513e-08,3.361697508596877e-08,-4.798484540634527e-07,-7.978029401740982e-07,-3.03148547731593e-07
-1.4031868194968472e-06,1.7478455326413431e-07,8.330520458464799e-08,4.505247296809784e-07,6.915539608545509e-07,-1.1953629379430733e-06,-5.853484299095859e-07,-1.6766723149808317e-06,5.102791639252935e-07,-8.913136896924067e-07,-1.2861400910773854e-07,2.884745993926699e-07,1.495310358688621e-06,-8.0697768501415e-08,-5.944830745032813e-10,-6.463114454317594e-07,-8.725007086676398e-07,-3.483211198748014e-07
-1.4933411825902954e-06,2.2633349421814331e-07,6.769032491671382e-08,4.675121320096665e-07,7.327468391536924e-07,-1.2248778987929628e-06,-5.719519697377339e-07,-1.8134191879188945e-06,5.675423748068544e-07,-7.957531110974087e-07,-2.4361494499477274e-07,3.825320245511522e-07,1.505099696071081e-06,-1.445637558923132e-07,6.973914090235021e-09,-7.830299200619092e-07,-9.219571722233703e-07,-3.766387826450846e-07
-1.5370622992939353e-06,2.915675654709791e-07,8.873553306090284e-08,4.962471859087729e-07,7.552778754506057e-07,-1.217294674844996e-06,-5.362270757502318e-07,-1.914105490044467e-06,6.214553636182309e-07,-7.025543093591287e-07,-3.659419702603548e-07,4.932994439179333e-07,1.5454120395462084e-06,-1.3136265105951213e-07,4.253944816872375e-08,-8.867169653148737e-07,-9.477027155166461e-07,-3.923486461084908e-07
-1.5388556069434082e-06,3.6293864094013403e-07,1.3773550355160605e-07,5.310309470333513e-07,7.585822951255517e-07,-1.1836266189585867e-06,-4.878592735559758e-07,-1.98269310177165e-06,6.682323757495476e-07,-6.204738282674128e-07,-4.845348913185215e-07,6.123670496811728e-07,1.5990708774697467e-06,-8.271315324185012e-08,8.905847231461212e-08,-9.611265805626364e-07,-9.563742656216334e-07,-4.0218106071761293e-07
-1.507734470484025e-06,4.3220561192197344e-07,2.0378896615479936e-07,5.664043532356974e-07,7.427057542752288e-07,-1.1334622714343886e-06,-4.3417638748509705e-07,-2.0246696609674073e-06,7.027421257187926e-07,-5.485338257753359e-07,-5.901967072315388e-07,7.301050764474834e-07,1.648721783071163e-06,-3.6696334568819146e-08,1.3119093239598652e-07,-1.0136158009103788e-06,-9.565800793896014e-07,-4.1272137851931815e-07
-1.4545537581799382e-06,4.924549196352061e-07,2.763513769161136e-07,5.9825901752192e-07,7.063832380557086e-07,-1.073730886194339e-06,-3.802859547255164e-07,-2.0452856166960816e-06,7.212601956786159e-07,-4.836594895374078e-07,-6.765132332133727e-07,8.384348897031653e-07,1.6814316984030626e-06,-1.7361662777066635e-08,1.5846855324537944e-07,-1.0508884851010278e-06,-9.552142795271762e-07,-4.2794334427410363e-07
-1.3882940363072714e-06,5.395651634743445e-07,3.4744333736436025e-07,6.247547885904759e-07,6.487919510382064e-07,-1.0087396837417752e-06,-3.294588850914059e-07,-2.048594809646011e-06,7.218083273727065e-07,-4.315960956195779e-07,-7.391701326530399e-07,9.332649473189942e-07,1.6915451012051925e-06,-2.979104690963968e-08,1.6653561052753958e-07,-1.0756192742944295e-06,-9.54721147524528e-07,-4.4767190888923935e-07
-1.3144859881692114e-06,5.730226145412473e-07,4.13210665772568e-07,6.47084913017194e-07,5.719286498122449e-07,-9.406246582164661e-07,-2.8298408779386846e-07,-2.0373260321380036e-06,7.064445468420043e-07,-3.8399662748774067e-07,-7.751897874825556e-07,1.014994526899049e-06,1.6806353564002222e-06,-6.328492392349359e-08,1.5639346251890546e-07,-1.0864221625645462e-06,-9.530688496300534e-07,-4.6830441927004074e-07
-1.2355895931122242e-06,5.953385771334238e-07,4.736426872241255e-07,6.687609404430438e-07,4.811188822245182e-07,-8.705832938004129e-07,-2.405863343483705e-07,-2.013682702492266e-06,6.805420422518008e-07,-3.342339249381092e-07,-7.833550182524542e-07,1.0861879292992165e-06,1.6545435952869524e-06,-1.0178351874404105e-07,1.3202142287441692e-07,-1.0814529886179417e-06,-9.465141617496002e-07,-4.856934339767771e-07
-1.1533633471062884e-06,6.102427271940629e-07,5.306143622696205e-07,6.935722238306394e-07,3.841650524661217e-07,-8.003193372145093e-07,-2.0158093024425576e-07,-1.9803308763289305e-06,6.497442624329769e-07,-2.814637261498866e-07,-7.653479505709893e-07,1.1484718453580518e-06,1.6197703800581438e-06,-1.337966581641428e-07,9.805582978537284e-08,-1.0619227141564478e-06,-9.327009437585598e-07,-4.977224762136765e-07
-1.0704409331936238e-06,6.211959523064248e-07,5.860697606727612e-07,7.240760927712496e-07,2.894572556011384e-07,-7.323910251657572e-07,-1.6555725111285043e-07,-1.9407495521669e-06,6.189039241924559e-07,-2.274055259337387e-07,-7.263106132254526e-07,1.2012662899288481e-06,1.5813890731712712e-06,-1.5553464729896064e-07,5.862780669950268e-08,-1.032631418349329e-06,-9.12014238080439e-07,-5.04905426991571e-07
-9.907567682182514e-07,6.308067486639618e-07,6.410603164049491e-07,7.610179720095145e-07,2.044859681576919e-07,-6.697775367503041e-07,-1.3242856033129478e-07,-1.8989210761002251e-06,5.909109560506669e-07,-1.7555041234504074e-07,-6.741476307891647e-07,1.2425552530846668e-06,1.542753395969191e-06,-1.6824979530497653e-07,1.714098525889216e-08,-1.000073667069845e-06,-8.871049086719853e-07,-5.093956188080378e-07
-9.191813140148338e-07,6.407083866715426e-07,6.955422120375882e-07,8.032816218786511e-07,1.3480516106211996e-07,-6.153593314120353e-07,-1.0225386737200255e-07,-1.8586600248766922e-06,5.692158871778979e-07,-1.291149086537282e-07,-6.175105172869396e-07,1.2706378346015899e-06,1.5066391927097437e-06,-1.7268901145529334e-07,-2.3085945455369536e-08,-9.692486688174481e-07,-8.611213606418867e-07,-5.129714274738447e-07
-8.596078339448102e-07,6.520337402242544e-07,7.491851479317547e-07,8.489845721157766e-07,8.42746396459901e-08,-5.709087497331087e-07,-7.454550942383536e-08,-1.8226855051084179e-06,5.574492162693545e-07,-8.937088553983008e-08,-5.631843717768058e-07,1.2857315604138276e-06,1.4768587875536075e-06,-1.6368561874414385e-07,-5.788659490478959e-08,-9.408693125755067e-07,-8.357613034664257e-07,-5.151426055753271e-07
-8.139031890983754e-07,6.661831493772226e-07,8.024223193824222e-07,8.970574128718397e-07,5.585917770526653e-08,-5.36223493619947e-07,-4.767502004163527e-08,-1.7920284261697665e-06,5.592301171283922e-07,-5.5560805298889086e-08,-5.145704543889521e-07,1.2899682686827323e-06,1.4582043771479044e-06,-1.3031533876179644e-07,-8.275645935363562e-08,-9.11940282400971e-07,-8.109406912861081e-07,-5.134463076655503e-07
-7.816667370554958e-07,6.846282032917852e-07,8.561253067022263e-07,9.472354662963292e-07,5.098183931414101e-08,-5.098662540353146e-07,-1.9630914534828572e-08,-1.7664661329802229e-06,5.759527144127979e-07,-2.651325566484907e-08,-4.7225228455360785e-07,1.2856524342827962e-06,1.4541551688052679e-06,-6.280032885470805e-08,-9.486355964485384e-08,-8.795733563436085e-07,-7.861751112918831e-07,-5.057657715297093e-07
-7.612566940475512e-07,7.079212851425614e-07,9.103949633852779e-07,9.988892860928655e-07,6.81565049901702e-08,-4.906135954143528e-07,1.0706987272640845e-08,-1.7454269079048257e-06,6.043078079675197e-07,-2.1550118151458844e-09,-4.3555323248843454e-07,1.2709366306590015e-06,1.4648842236317887e-06,4.0987937774138065e-08,-9.413280965373035e-08,-8.438329494229867e-07,-7.617404909168172e-07,-4.919600435978198e-07
-7.507193006968689e-07,7.353944487758109e-07,9.643393432262081e-07,1.0508486323409144e-06,1.0305498742703806e-07,-4.777539270414338e-07,4.344503228617295e-08,-1.7283796145913283e-06,6.3851705944084e-07,1.6520316309747217e-08,-4.036057122301244e-07,1.2470146634189396e-06,1.4874353727801564e-06,1.7456098855584465e-07,-8.237120628863298e-08,-8.076845723861948e-07,-7.388270164345454e-07,-4.7383494316500206e-07
-7.478537833965786e-07,7.655046564007925e-07,1.0166962350578258e-06,1.1019592373309496e-06,1.4975380550493065e-07,-4.706556919709846e-07,7.818895696330851e-08,-1.7147429244302162e-06,6.727852595373483e-07,2.8357903127529797e-08,-3.758325322917419e-07,1.2158390258597387e-06,1.5170357303348237e-06,3.2498312365133164e-07,-6.1959715242983e-08,-7.759471085483171e-07,-7.194894887115088e-07,-4.5470679809793687e-07
-7.507290685025677e-07,7.95874863122517e-07,1.0661253126001453e-06,1.1510573029875635e-06,2.0160755223480519e-07,-4.6857831661619933e-07,1.1409194621792955e-07,-1.7037693174275099e-06,7.031789585464467e-07,3.439776718870781e-08,-3.5213996213514405e-07,1.179692217074245e-06,1.5483594880573935e-06,4.759709646647072e-07,-3.507986812923082e-08,-7.539833397119932e-07,-7.063561683417924e-07,-4.387344926141491e-07
-7.574243486906589e-07,8.218802479576173e-07,1.111446410343083e-06,1.1968543259507703e-06,2.5218023303872563e-07,-4.703520804807489e-07,1.497962581609477e-07,-1.6944594054468226e-06,7.280288926040727e-07,3.4663259067168744e-08,-3.326926495324207e-07,1.1527820921462898e-06,1.576666989094342e-06,6.120250733432029e-07,-3.3563788221435675e-09,-7.456674715872814e-07,-7.016348874648301e-07,-4.295967089338089e-07
-7.659897900533485e-07,8.410397596753979e-07,1.1520499705988378e-06,1.2381714533450841e-06,2.9577584913099015e-07,-4.74113154803413e-07,1.8346204962983874e-07,-1.6857333719302724e-06,7.484066454459225e-07,3.011893909706333e-08,-3.175164279073618e-07,1.129168165546057e-06,1.5985178458093708e-06,7.21693577143432e-07,3.1848429522472834e-08,-7.51781148622483e-07,-7.060071370632762e-07,-4.2925637755152306e-07
-7.744238642952718e-07,8.522355505781665e-07,1.1879042815221709e-06,1.2740421802004632e-06,3.2861891847890955e-07,-4.778057050353801e-07,2.1264198281918102e-07,-1.676986187214117e-06,7.654752584141494e-07,2.150315484416355e-08,-3.0635684474937215e-07,1.1117751668172585e-06,1.612164881573006e-06,7.991428662849536e-07,6.892216057352861e-08,-7.694403233914909e-07,-7.178840012705936e-07,-4.371468411897447e-07
-7.805720969147791e-07,8.582300945794439e-07,1.2195517082046413e-06,1.304186869156813e-06,3.500418618840361e-07,-4.797260988979454e-07,2.3484289683755677e-07,-1.668378235343872e-06,7.800634090260508e-07,1.1398524171767114e-08,-2.9860647330700674e-07,1.1056577262418173e-06,1.6184965805991006e-06,8.462166954111276e-07,1.0642846639766805e-07,-7.918650368214076e-07,-7.331313544161645e-07,-4.495883922693672e-07
-7.826028504436993e-07,8.636564672181005e-07,1.248463468747001e-06,1.329933729271764e-06,3.6350097955957156e-07,-4.787031538982218e-07,2.490251727289411e-07,-1.6605231332425237e-06,7.942521062512043e-07,2.7377885261968314e-09,-2.9326306792198824e-07,1.1083843330273563e-06,1.6219686970148628e-06,8.737304658592136e-07,1.4400915955661581e-07,-8.097425789431784e-07,-7.463378022350878e-07,-4.606680772708132e-07
-7.798067511182267e-07,8.705512558858709e-07,1.2765200406751202e-06,1.3536518317618478e-06,3.7593424175294626e-07,-4.752208525179663e-07,2.5630653267885505e-07,-1.654311797437245e-06,8.10350295025763e-07,-3.2745853834834313e-09,-2.893809999771785e-07,1.1183548062004223e-06,1.6298976028613366e-06,8.985522379342368e-07,1.825583530851398e-07,-8.1532473782891e-07,-7.5401954088554e-07,-4.6524497367481875e-07
-7.744364822348463e-07,8.845548327920733e-07,1.3043109189221793e-06,1.3764457413214258e-06,3.947024009139951e-07,-4.733047332232512e-07,2.592318714032588e-07,-1.6511013736872905e-06,8.29794619124812e-07,-7.291563965307135e-09,-2.8669324510327534e-07,1.1249949540758742e-06,1.6504434629883638e-06,9.389554696711176e-07,2.2446245658829686e-07,-8.061399455986847e-07,-7.606368759477757e-07,-4.6172426542421326e-07
-7.72659043298698e-07,9.090107722104866e-07,1.330215085676386e-06,1.3970039798448483e-06,4.2537646692150885e-07,-4.808370696623786e-07,2.612017782850785e-07,-1.6525450314960757e-06,8.53038658544059e-07,-1.3026526089614183e-08,-2.854674206379211e-07,1.1096911678694886e-06,1.6907467514993791e-06,1.0125225873369573e-06,2.748576442594702e-07,-7.851960588530349e-07,-7.723690223659266e-07,-4.52595489165584e-07
-7.835187229117242e-07,9.444075417084085e-07,1.3511564609047946e-06,1.4128033956256026e-06,4.716379862149873e-07,-5.077289908225684e-07,2.6645846197568115e-07,-1.6599160771420599e-06,8.792962059146814e-07,-2.4840900661296077e-08,-2.857270881912312e-07,1.0089402187468181e-06,1.7550347420668825e-06,1.1345935096284067e-06,3.3985160155636496e-07,-7.593630678481725e-07,-7.989715443967989e-07,-4.425003015487983e-07
-8.164247779141666e-07,9.914357158840203e-07,1.3637753058260154e-06,1.4218375252567723e-06,5.353274282723259e-07,-5.631998456069964e-07,2.794897411544267e-07,-1.6733713625332191e-06,9.066216028015634e-07,-4.7367151843780256e-08,-2.866418064419297e-07,8.664235860037934e-07,1.8423263096417293e-06,1.3148841072950651e-06,4.3070943389879336e-07,-7.380207096151322e-07,-8.501991511111488e-07,-4.4163052665567435e-07
-8.778377713937842e-07,1.0409325851836795e-06,1.365589194528836e-06,1.424045066208065e-06,6.1607394941458e-07,-6.521155913916327e-07,3.041241375429119e-07,-1.6910000263867005e-06,9.322562139713057e-07,-8.221039092919062e-08,-2.860795338526314e-07,5.819476841318794e-07,1.945124538251518e-06,1.5551578689758146e-06,5.59879124456346e-07,-7.310729708480228e-07,-9.367548434122508e-07,-4.591739910577056e-07
-9.705715317782113e-07,1.0823433935310583e-06,1.3562973873885476e-06,1.4225521547538206e-06,7.10741440040949e-07,-7.755935386348072e-07,3.4299355857112665e-07,-1.707663860390029e-06,9.494580744182924e-07,-1.395063172878678e-07,-2.801534127390889e-07,3.1066198878195023e-07,2.050132121862093e-06,1.8449229201151148e-06,7.302950396005802e-07,-7.463976664892132e-07,-1.0671737939659822e-06,-5.01971983915394e-07
-1.0813969402700841e-06,1.0828553005908096e-06,1.3379627630464272e-06,1.423214935762676e-06,8.118951025720818e-07,-9.129672711732055e-07,3.963258302294514e-07,-1.7146706930871527e-06,9.55216762693598e-07,-2.2127057838190683e-07,-2.632663106579287e-07,1.392334323201592e-07,2.1406806345425186e-06,2.1723376913528692e-06,9.360460495378673e-07,-7.879610573804315e-07,-1.2364632545561017e-06,-5.724645963617153e-07
-1.198326643705253e-06,1.0115341105934995e-06,1.3137342285837705e-06,1.4322314993974645e-06,9.060179511610192e-07,-1.0440203507977096e-06,4.6010063874896446e-07,-1.7007640606290773e-06,9.443347104156882e-07,-3.2308098487992374e-07,-2.287682105606729e-07,-1.017879893291503e-07,2.201207809616944e-06,2.5115139938814283e-06,1.158219409343339e-06,-8.530581183655317e-07,-1.4325227221382623e-06,-6.712333009450815e-07
-1.3010931684863912e-06,9.125213650631901e-07,1.2871628811545766e-06,1.45480068616551e-06,9.753681500895018e-07,-1.143203569325623e-06,5.261889876558459e-07,-1.6538246582603284e-06,9.061130353827436e-07,-4.5103747881681336e-07,-1.6990926105276707e-07,-3.920195017232856e-07,2.2235119884337044e-06,2.8342849276816703e-06,1.3755118294628178e-06,-9.280957361760535e-07,-1.6019447133068103e-06,-7.81226488420903e-07
-1.3248310756378602e-06,7.946385589068814e-07,1.262811616518367e-06,1.4955828445974798e-06,1.0044345040241922e-06,-1.1161267829291445e-06,5.851418025066775e-07,-1.5635446157842666e-06,8.345359504176115e-07,-6.136418251344387e-07,-8.177081436443657e-08,-5.197654214511161e-07,2.2110887296746948e-06,3.1241997287240242e-06,1.5648623241783895e-06,-9.88413489796836e-07,-1.6571393056174984e-06,-8.867578750810488e-07
-1.3342625630728126e-06,7.355138567501499e-07,1.2454476306100955e-06,1.557545669799389e-06,9.860258170163826e-07,-1.0559838739157893e-06,6.287318505175957e-07,-1.4259712338604996e-06,7.265864720684232e-07,-8.044533018940536e-07,3.518202956544365e-08,-5.627812088205462e-07,2.177728184044138e-06,3.3726489286286252e-06,1.7296721032744847e-06,-1.0066295720317709e-06,-1.6512905334622554e-06,-9.979910731353473e-07
-1.344211769057414e-06,5.858822587253414e-07,1.2371608837336841e-06,1.6383781440597867e-06,9.242503576116368e-07,-1.0313814054806588e-06,6.508248545735664e-07,-1.2483963571547644e-06,5.912440964704401e-07,-1.003685475013607e-06,1.7177655798926023e-07,-5.768675489174604e-07,2.1416368940343863e-06,3.5761308524777283e-06,1.8731617616899492e-06,-9.645473510683665e-07,-1.599579461427413e-06,-1.002744342315981e-06
-1.241608435301671e-06,4.295989089712882e-07,1.235613564914564e-06,1.7285700680432608e-06,8.333775970024569e-07,-9.116595255341749e-07,6.480520832668857e-07,-1.0508278099514293e-06,4.4481884245436167e-07,-1.1986027715673666e-06,3.100860381343867e-07,-5.842109943582359e-07,2.1192943196908185e-06,3.7290016659441743e-06,1.9393821352392425e-06,-8.601685741986408e-07,-1.5646994167015055e-06,-9.80483216711142e-07
-1.0981633577163278e-06,3.410110396354018e-07,1.2352011792250372e-06,1.8136195166842402e-06,7.343313379581846e-07,-7.218233191250561e-07,6.20562195100258e-07,-8.635202455508877e-07,3.422527999803459e-07,-1.351465332646346e-06,4.272905695460485e-07,-5.656817244641039e-07,2.120986353421005e-06,3.8529345848082855e-06,1.9033637690104912e-06,-7.072661806869909e-07,-1.5406804847466717e-06,-9.6368856128051e-07
-9.94722448364616e-07,3.185114010744351e-07,1.2296334860837004e-06,1.8786920006795816e-06,6.496041838780175e-07,-5.708458601972475e-07,5.719680960034396e-07,-7.143088636151048e-07,3.2438767126141187e-07,-1.3425700617887774e-06,5.014252546725389e-07,-5.776045439693569e-07,2.1481239795860702e-06,3.886466350507215e-06,1.7824776361707517e-06,-5.295275663096788e-07,-1.5036422610280846e-06,-8.591714413553867e-07
-9.211340501110533e-07,3.3003411703106075e-07,1.2145130733584676e-06,1.9137761218527202e-06,5.965803483104899e-07,-4.812934607839298e-07,5.093653435436872e-07,-6.126021757924672e-07,3.4343112162659023e-07,-1.2892322163556436e-06,5.168312851837465e-07,-6.066908126077694e-07,2.1931007135555636e-06,3.810891971863924e-06,1.6142774349303063e-06,-3.522387195179682e-07,-1.396547433144042e-06,-7.230447082544144e-07
-8.676890303694698e-07,3.5699889702378834e-07,1.1891714139040708e-06,1.9174536687188565e-06,5.837837172957553e-07,-4.372580091312926e-07,4.4387252914591104e-07,-6.077372389547643e-07,3.930628723247566e-07,-1.2129981024800864e-06,4.6786333892765195e-07,-5.461651170848721e-07,2.241817850820275e-06,3.6302407664471155e-06,1.427409280418853e-06,-1.9600909846456854e-07,-1.2133061520231091e-06,-6.153460401978132e-07
-8.865459159441881e-07,3.9461112170168003e-07,1.1562458710379112e-06,1.8964731123790763e-06,6.096985761670054e-07,-4.3692107464841246e-07,3.894667340125689e-07,-6.468266360995067e-07,3.75600717716904e-07,-1.2125465934430653e-06,3.600244509883136e-07,-3.693779590645347e-07,2.2776115194487585e-06,3.283894744768872e-06,1.222497569525609e-06,-7.521526456793398e-08,-1.0488829742201984e-06,-5.238326296251918e-07
-9.274265140104728e-07,4.0250492901996827e-07,1.1193057728187459e-06,1.8613515746526405e-06,6.632804225702266e-07,-4.660792567620555e-07,3.5921586834618104e-07,-7.401395565422499e-07,3.719634673757291e-07,-1.0496881114702151e-06,2.0884361635413203e-07,-1.4651277218453465e-07,2.2859951200808432e-06,2.8911101038408217e-06,1.0538076379568887e-06,1.9669799562651617e-09,-9.098650911697352e-07,-4.6555276842517826e-07
-1.0036204028358959e-06,4.0474819731239675e-07,1.0815558827515725e-06,1.8224000031095468e-06,7.28092942027679e-07,-5.096002794895977e-07,3.6154000845325286e-07,-8.606062029726428e-07,4.421870306844152e-07,-7.916950978819092e-07,3.728515915600833e-08,5.7299517659256025e-08,2.2596751531706557e-06,2.4978156045596354e-06,9.349063631820102e-07,3.5060336501627945e-08,-8.193887054705422e-07,-4.2959286110159866e-07
-1.0958669719183916e-06,4.4285005709757096e-07,1.0465723866130406e-06,1.788386991543574e-06,7.886692749419346e-07,-5.55045627267563e-07,3.98288088821022e-07,-9.856513796480739e-07,5.415960248750449e-07,-6.460207211093157e-07,-1.2851696318501215e-07,2.1269670550611574e-07,2.201039345597382e-06,2.1311622143286805e-06,8.39086219657863e-07,3.1468185346704333e-08,-7.713912306366161e-07,-4.12135054663045e-07
-1.188818963925974e-06,5.753198758366781e-07,1.0185514681224886e-06,1.765665413646787e-06,8.344327739739892e-07,-5.942783587886353e-07,4.639282392231512e-07,-1.095889020167698e-06,6.537238727919851e-07,-4.97321808480193e-07,-2.6529458860878575e-07,2.6043375958736466e-07,2.119875195703563e-06,1.8890385482494725e-06,7.844374431110914e-07,2.696874098754599e-09,-7.403430505472997e-07,-4.1272349587999426e-07
-1.2690882651463156e-06,7.2137122271211e-07,1.00106524121771e-06,1.756858834257139e-06,8.5965957551724e-07,-6.236691786826413e-07,5.462885965758584e-07,-1.1782483692458403e-06,7.594731582294974e-07,-3.3030593382671127e-07,-3.583376829958718e-07,2.896627289833586e-07,2.0285238273786062e-06,1.7217558587342983e-06,7.640256435701348e-07,-4.001265912772522e-08,-7.152293115045463e-07,-4.172624219127094e-07
-1.327754938200815e-06,8.582203956904515e-07,9.960918308271917e-07,1.760841489319311e-06,8.629303058161774e-07,-6.427146217093426e-07,6.300910514924721e-07,-1.2271131872832679e-06,8.320346238812921e-07,-2.606452259452043e-07,-4.040216118317886e-07,3.2786500963233316e-07,1.9381691591463346e-06,1.6231800624735438e-06,7.611143426402173e-07,-8.742273653732625e-08,-6.80287123848831e-07,-4.2443330207741406e-07
-1.3612180618023723e-06,9.807690585446642e-07,1.0037745093996856e-06,1.7738811850161886e-06,8.465834242260262e-07,-6.526290041574346e-07,7.016842036150845e-07,-1.2437192602045797e-06,8.86168713191297e-07,-2.0774334843522708e-07,-4.08672881140535e-07,3.6333709795455973e-07,1.8570436600613397e-06,1.5904910728494022e-06,7.677023240788338e-07,-1.330174347853875e-07,-6.394878383513138e-07,-4.2850418986968934e-07
-1.3715878512777478e-06,1.0430066221092098e-06,1.0218949805709594e-06,1.7903878640340097e-06,8.160925360502101e-07,-6.563045685380347e-07,7.522724367025276e-07,-1.2345470488838871e-06,9.189286462318554e-07,-2.0704910365088248e-07,-3.8517754972289684e-07,4.1857242960860783e-07,1.789896132633751e-06,1.5820990801302623e-06,7.659322713616473e-07,-1.7387830199857429e-07,-6.014807848556045e-07,-4.2523461894545624e-07
-1.365213673676457e-06,1.0882135273146336e-06,1.0457870472730637e-06,1.8039299738630946e-06,7.782579719398747e-07,-6.583065795702418e-07,7.794164630675256e-07,-1.2087462466855552e-06,9.364416161663794e-07,-2.6221224827345524e-07,-3.485594265484036e-07,4.0300071887091446e-07,1.7386971467719602e-06,1.5969003881660257e-06,7.500345753746395e-07,-2.1041774795089187e-07,-5.741985289986206e-07,-4.158121360492813e-07
-1.3508791109936475e-06,1.1260874740924602e-06,1.069640075329713e-06,1.8094013058956666e-06,7.404351746426353e-07,-6.636878331528586e-07,7.872553623213424e-07,-1.1750286915651287e-06,9.48198360144633e-07,-3.344009646845538e-07,-3.1159591013736105e-07,3.4711912831208406e-07,1.7036863375856263e-06,1.646755631073914e-06,7.3050221933883e-07,-2.4542799037910644e-07,-5.670483553173982e-07,-4.040846583176737e-07
-1.3375726251572028e-06,1.1508308658047363e-06,1.0880962959647362e-06,1.8047986720424996e-06,7.095961203295992e-07,-6.766347075965837e-07,7.828620764342407e-07,-1.1393625616879052e-06,9.49110029619693e-07,-4.163222657643879e-07,-2.817853719579939e-07,2.592137438732448e-07,1.683458978753965e-06,1.7305640270066196e-06,7.261573997467319e-07,-2.834269581342947e-07,-5.877022946239937e-07,-3.963183399991472e-07
-1.3335566857587435e-06,1.142106483603945e-06,1.0973280478719008e-06,1.7916917651617844e-06,6.909190716275422e-07,-6.995039614225232e-07,7.795173129954276e-07,-1.1041065031289533e-06,9.374378389228357e-07,-5.077655172513117e-07,-2.6038790358958303e-07,1.246176001725468e-07,1.6748543765713717e-06,1.8647546372908292e-06,7.575655488354768e-07,-3.286399252512881e-07,-6.394135864555971e-07,-3.99156525531395e-07
-1.344940692513488e-06,1.1136638317699595e-06,1.096110831262258e-06,1.7752945425350043e-06,6.877788262549007e-07,-7.318707779978958e-07,7.876256796918167e-07,-1.0683137207545338e-06,9.167570768050422e-07,-6.075310191982181e-07,-2.435700995721175e-07,-5.1745205519471536e-08,1.6739124211919184e-06,2.0661404296824947e-06,8.400577757136703e-07,-3.8160140404228546e-07,-7.187967346188635e-07,-4.1648852010327473e-07
-1.3742061100094576e-06,1.074058148595969e-06,1.0862488342338124e-06,1.763431022842696e-06,7.024674895630511e-07,-7.707009401217289e-07,8.14550034745701e-07,-1.0293112334598305e-06,8.924106420162007e-07,-7.102350798411505e-07,-2.2550039856690524e-07,-2.745657935412533e-07,1.677087732869291e-06,2.3388831348217606e-06,9.81707149921795e-07,-4.3811175945066454e-07,-8.162108952823507e-07,-4.480143629701509e-07
-1.42012059741465e-06,1.0257886803974819e-06,1.0712463555703174e-06,1.7631031692161409e-06,7.353721182417818e-07,-8.125363124987638e-07,8.638853901925076e-07,-9.85384046287268e-07,8.697417193938009e-07,-8.145650227827818e-07,-2.0229655402731787e-07,-5.254725378712229e-07,1.6817714856158657e-06,2.6673236005971522e-06,1.1721916028981173e-06,-4.91612578805847e-07,-9.185101605921501e-07,-4.90019272885241e-07
-1.4778240782833896e-06,9.84728972757279e-07,1.0546387261509886e-06,1.7768615778558086e-06,7.835345870297692e-07,-8.556446364841558e-07,9.290731599495177e-07,-9.379687930158281e-07,8.511139383305218e-07,-9.063719236750828e-07,-1.7457539682236184e-07,-7.822051797469244e-07,1.6866944064417899e-06,3.013752579440773e-06,1.3808233906215205e-06,-5.358219133348043e-07,-1.0117968780726582e-06,-5.362925089271986e-07
-1.5394713368426663e-06,9.470256103502778e-07,1.0395603165190802e-06,1.802065410327554e-06,8.414349733618563e-07,-9.001197806391499e-07,1.000402607992987e-06,-8.919154106110922e-07,8.371969747211746e-07,-9.79632665569814e-07,-1.47234438368323e-07,-9.614917883303847e-07,1.6920730642731893e-06,3.36491308826443e-06,1.5830947427445908e-06,-5.662303409550999e-07,-1.0835236598789856e-06,-5.788639158039568e-07
-1.5954605600422194e-06,9.196835469420947e-07,1.0287562828470675e-06,1.832592180311215e-06,9.023580415714484e-07,-9.467771578493077e-07,1.0647772509964724e-06,-8.54089095094692e-07,8.293227231915816e-07,-1.0311764717348418e-06,-1.2713156301779728e-07,-9.794151040134838e-07,1.6983257866390707e-06,3.5108563226386365e-06,1.7136504683970076e-06,-5.810834583260375e-07,-1.124526368922482e-06,-6.094484689239579e-07
-1.6368007891616763e-06,9.112281003471093e-07,1.0238452019922773e-06,1.8612706894799007e-06,9.596565703069212e-07,-9.959865772024163e-07,1.1253356076971523e-06,-8.311670792310879e-07,8.29926075264064e-07,-1.0613961767252718e-06,-1.2004753053172118e-07,-9.345781710993897e-07,1.7037750681389165e-06,3.446610835708058e-06,1.7175001290532703e-06,-5.810079488887675e-07,-1.1303389551711597e-06,-6.209771457420795e-07
-1.657793209325761e-06,9.311291409478818e-07,1.0241765039220365e-06,1.8824884425015102e-06,1.007315270631845e-06,-1.046415997629334e-06,1.1764456827431052e-06,-8.272318459197626e-07,8.425288984771465e-07,-1.065888462490886e-06,-1.281436917395104e-07,-8.344049954081518e-07,1.7030157798598822e-06,3.384432894472989e-06,1.7646650526817481e-06,-5.673170227547611e-07,-1.1012222543223026e-06,-6.087505010695881e-07
-1.658009659772864e-06,9.715230099498124e-07,1.0258598520316012e-06,1.8937734552261188e-06,1.0395519112835374e-06,-1.094747234066207e-06,1.1753370936812804e-06,-8.421095450485375e-07,8.710821807198804e-07,-1.0403157752897246e-06,-1.490388065931792e-07,-7.943718401661849e-07,1.6892884014824696e-06,3.2457218582358144e-06,1.7968792645336188e-06,-5.41124527221562e-07,-1.0415352115047885e-06,-5.717268507250597e-07
-1.6422565513222719e-06,1.0211357148076415e-06,1.0219767064334595e-06,1.8952498038311657e-06,1.0500012524580996e-06,-1.1363305389852506e-06,1.0773033978539578e-06,-8.712395792641506e-07,9.169154734163195e-07,-9.858466302719381e-07,-1.7681868595763593e-07,-7.904277741179279e-07,1.6487789453791302e-06,3.0805958834159417e-06,1.6219805634694413e-06,-5.034759515828471e-07,-9.586754834935387e-07,-5.131581870535377e-07
-1.6180629489676342e-06,1.0684510225067711e-06,1.005725694287206e-06,1.888271742102342e-06,1.032586816239226e-06,-1.1659650812517397e-06,8.898582392215888e-07,-9.068208609974902e-07,9.775035756544205e-07,-9.068516574136655e-07,-2.0424670215527897e-07,-6.579466226211538e-07,1.5733581749893797e-06,2.7436862792605664e-06,1.3941312688722763e-06,-4.55454329725865e-07,-8.61655792109899e-07,-4.396055427249306e-07
-1.5919101076496386e-06,1.0992538594230104e-06,9.750592929283802e-07,1.8745402693755025e-06,9.840747484104706e-07,-1.1784979475181136e-06,7.037919226633003e-07,-9.396781485190679e-07,1.04711324274614e-06,-8.139357914815854e-07,-2.2537065460879138e-07,-4.631918092597216e-07,1.4622951847199122e-06,2.3041181643114065e-06,1.2223272568644953e-06,-3.992499179435756e-07,-7.602002486846741e-07,-3.593311008342196e-07
-1.5670691528076003e-06,1.1070346247207486e-06,9.343807845041137e-07,1.855304851362044e-06,9.05898640351492e-07,-1.170206383554876e-06,5.342240362670447e-07,-9.614338061198114e-07,1.1166395817737887e-06,-7.204545397082338e-07,-2.3755426747673182e-07,-2.2889202244695537e-07,1.3209715441918054e-06,1.9957482235248457e-06,1.0705068069002256e-06,-3.399582595343396e-07,-6.642831999662e-07,-2.807128079563252e-07
-1.544070920623757e-06,1.089323265376893e-06,8.920471522587933e-07,1.831283336169267e-06,8.046125058326688e-07,-1.1405038114958352e-06,3.5592545563266507e-07,-9.660432104151177e-07,1.1744525476763686e-06,-6.392324600033584e-07,-2.416044529213357e-07,-3.22326200180986e-08,1.1627733104899368e-06,1.6471770811264881e-06,9.34926625343935e-07,-2.849522283742599e-07,-5.828587312894995e-07,-2.1004578453877975e-07
-1.5226439687854472e-06,1.0482151193322767e-06,8.567030458740933e-07,1.8042415112099925e-06,6.913201719741411e-07,-1.0922129711701065e-06,1.7490922060430594e-07,-9.500743727866257e-07,1.2098084383559367e-06,-5.800987720717335e-07,-2.401858165897389e-07,5.780977444910469e-08,1.0039939262769603e-06,1.3722646850688846e-06,8.3484993041615e-07,-2.4058944110846463e-07,-5.222008244106728e-07,-1.498437961035842e-07
-1.5026502897245105e-06,9.909036487142364e-07,8.345681251933675e-07,1.7782687649819695e-06,5.804650484844709e-07,-1.0310120876992217e-06,5.979029430827363e-08,-9.125658936491957e-07,1.2158216594092615e-06,-5.483781060455522e-07,-2.3660491411164913e-07,-1.2226276094861326e-08,8.611225205701235e-07,1.205157125666796e-06,7.693502135883133e-07,-2.0988934896067062e-07,-4.855363215413597e-07,-9.961876037653366e-08
-1.484698295968147e-06,9.268854038382126e-07,8.279368039659282e-07,1.7586708629428599e-06,4.886742560575852e-07,-9.650956879932596e-07,4.065864105579524e-08,-8.553030337369967e-07,1.1919894207845064e-06,-5.495108922071244e-07,-2.3497283293375286e-07,-1.1305765067672118e-07,7.244430304478986e-07,1.1089302576196237e-06,7.395356686803268e-07,-1.9038683431137016e-07,-4.768835391957203e-07,-5.8303414551227716e-08
-1.4700381546693824e-06,8.653500163716027e-07,8.353611201201061e-07,1.749629186779897e-06,4.28564218823928e-07,-9.047147684140625e-07,-2.9704842773984796e-08,-7.832155340489679e-07,1.1457982013986157e-06,-5.841833603565916e-07,-2.3909453223336227e-07,-1.4349967710985612e-07,6.390355272255362e-07,1.1218230868180332e-06,7.459720935146257e-07,-1.8118178752425178e-07,-4.956016366079132e-07,-2.6276559085562245e-08
-1.4602207161345662e-06,8.134168435837798e-07,8.530270588318446e-07,1.7521522010822872e-06,4.092056564237551e-07,-8.614192419398514e-07,2.997983699452846e-08,-7.044174601540726e-07,1.0909311178999805e-06,-6.538603717571263e-07,-2.5582264191139636e-07,-1.996239852017718e-07,6.107532446134424e-07,1.2068464562243485e-06,7.862949664842857e-07,-1.8591655439081884e-07,-5.42207799425559e-07,-6.432384803945153e-09
-1.457364623459479e-06,7.750692820390169e-07,8.758272941853085e-07,1.7627276888362656e-06,4.355468886351056e-07,-8.472578295602047e-07,1.7266075179392627e-07,-6.295590480067649e-07,1.0423737556636841e-06,-7.624858155603487e-07,-2.935470245222905e-07,-3.115300931818714e-07,6.324942050652706e-07,1.3509169687020118e-06,8.531749068770852e-07,-2.0862901550467256e-07,-6.129910243917784e-07,-3.741075253521978e-09
-1.4643134900000857e-06,7.508352839833942e-07,8.980386067181682e-07,1.7739457440675574e-06,5.068275743839969e-07,-8.728482814692802e-07,2.8202144644384535e-07,-5.698727010049143e-07,1.0140996901048336e-06,-9.09925966452625e-07,-3.564383207306347e-07,-4.366171830522089e-07,7.45992469113233e-07,1.5423115060130215e-06,9.349738672266333e-07,-2.574374438877399e-07,-7.083954265662392e-07,-2.292584761365539e-08
-1.484066260521868e-06,7.384423337310387e-07,9.141011031474619e-07,1.777417908861843e-06,6.182575159322637e-07,-9.440083963753084e-07,3.748691195043123e-07,-5.34120842934495e-07,1.0132080515848362e-06,-1.0999895794092565e-06,-4.458173767207802e-07,-6.321288595781479e-07,8.86556384511706e-07,1.7710933809691747e-06,1.018177119550331e-06,-3.3772913647079747e-07,-8.318276203581584e-07,-6.456646395209291e-08
-1.518408965867822e-06,7.337465191622598e-07,9.191177367703753e-07,1.7668700175702937e-06,7.589656640765477e-07,-1.0588541538895383e-06,4.326740744408439e-07,-5.257047716670826e-07,1.038235744943692e-06,-1.3254715889839924e-06,-5.572520552459636e-07,-8.363312074144148e-07,1.0516630422779272e-06,2.0089094393507813e-06,1.0889990079122758e-06,-4.571892445659836e-07,-9.73694408662437e-07,-1.2592543599402657e-07
-1.5668477251177928e-06,7.317383106071637e-07,9.092881753447846e-07,1.7403959685958535e-06,9.149918189010577e-07,-1.2047750863115433e-06,4.421906739573948e-07,-5.406936407863068e-07,1.0797135828964992e-06,-1.5683098612898153e-06,-6.836714552151193e-07,-1.0310547891007156e-06,1.2402634713439936e-06,2.2109987775324807e-06,1.1333810959637805e-06,-6.014154901491501e-07,-1.1211073749279975e-06,-1.9894425045369514e-07
-1.6256408223029384e-06,7.280379817794043e-07,8.829684999650241e-07,1.7021899081085286e-06,1.067550282811132e-06,-1.363853233138391e-06,4.351115975713809e-07,-5.67610550086958e-07,1.1213270129828434e-06,-1.7765820921027105e-06,-8.161865091735541e-07,-1.1208680066061075e-06,1.4149781425628309e-06,2.2614652724130544e-06,1.136665891069921e-06,-7.716182451466688e-07,-1.2287460853763884e-06,-2.663671336635688e-07
-1.6875003560756752e-06,7.200785406029649e-07,8.416367316464887e-07,1.6620803799925746e-06,1.19496542218178e-06,-1.5128810811465067e-06,4.051992454218699e-07,-5.907281907974117e-07,1.1450492213553714e-06,-1.8950489364121888e-06,-9.57512676665602e-07,-1.0861800481959466e-06,1.5535121029066297e-06,2.1495897160833376e-06,1.0851668988482097e-06,-9.617698287157571e-07,-1.2449583158815993e-06,-3.222313009095748e-07
-1.7427085944100551e-06,7.072164346387201e-07,7.898389042913636e-07,1.6315958945098712e-06,1.2762981526572466e-06,-1.6231554086190271e-06,3.594494214152236e-07,-5.966167601752176e-07,1.1370814983625874e-06,-1.8870948344473298e-06,-1.1177591397726374e-06,-1.0000711649925316e-06,1.6010201329215138e-06,1.7846510311949302e-06,9.708684756608659e-07,-1.0717050068099714e-06,-1.1502975807836862e-06,-3.594389358214084e-07
-1.780084891797089e-06,6.910648848131099e-07,7.343822154671307e-07,1.6189697789481913e-06,1.2953875967231262e-06,-1.6699388752795204e-06,3.041352412683699e-07,-5.801133135563212e-07,1.0927309145467117e-06,-1.8494021587412341e-06,-1.2503941867536978e-06,-9.384843775924835e-07,1.4350079985264187e-06,1.570014469941821e-06,7.96811176840971e-07,-1.0361154196096963e-06,-1.0878817036621977e-06,-3.1399559166258514e-07
-1.7904337977611827e-06,6.743715910036333e-07,6.827136260222482e-07,1.625955557262637e-06,1.2474514427955477e-06,-1.6946881139708925e-06,2.3806733650166785e-07,-5.460927783027985e-07,1.0171817242995265e-06,-1.8357000523144085e-06,-1.3238121580772161e-06,-9.050091358933184e-07,1.277496379851621e-06,1.5898095700398849e-06,5.786264905777122e-07,-1.05091460191837e-06,-1.0519945415353668e-06,-2.3629182474049656e-07
-1.769872523033068e-06,6.589766036857797e-07,6.404467602277224e-07,1.6473189274091853e-06,1.1412847187692307e-06,-1.5980722760719614e-06,1.7147392671191906e-07,-5.066703001815515e-07,9.233240862944027e-07,-1.84495865476183e-06,-1.310481826975404e-06,-9.119433879467487e-07,1.208671701439091e-06,1.2025230740419247e-06,3.4057121520163566e-07,-8.615442401528956e-07,-1.020039909395007e-06,-1.6225344796817388e-07
-1.7214604118237048e-06,6.475400665475632e-07,6.093985304362615e-07,1.6731237832386402e-06,9.974991370376088e-07,-1.4760132219630514e-06,1.1324108926650671e-07,-4.7587352921712025e-07,8.274329774599247e-07,-1.8054651126264196e-06,-1.29394453142094e-06,-8.503540311783851e-07,1.146352221860628e-06,6.590951594652867e-07,1.0837329768242049e-07,-6.599683411745122e-07,-9.217200398091317e-07,-1.0237072698365221e-07
-1.6545068105753297e-06,6.409438767971245e-07,5.871361287067026e-07,1.6924893453025215e-06,8.425605709382538e-07,-1.3552056095747318e-06,6.749706300479654e-08,-4.6464343930705637e-07,7.453317220718775e-07,-1.7338720306187821e-06,-1.2842086051070227e-06,-6.378262591045387e-07,9.716958933873988e-07,2.3251917311272308e-07,-9.751846328556315e-08,-4.991758449488783e-07,-7.792305434048168e-07,-4.9807014352284326e-08
-1.5818518854850686e-06,6.38172452789691e-07,5.67878142103339e-07,1.696494361009585e-06,6.990228776479384e-07,-1.2299940991725459e-06,3.394084327657935e-08,-4.781573459346531e-07,6.862264105207469e-07,-1.5663342546896272e-06,-1.2521370930408668e-06,-3.58369669049459e-07,7.720209446739261e-07,-2.4465393454344685e-07,-2.65415426931939e-07,-3.966684076263003e-07,-6.15476079862878e-07,-1.87031028079756e-08
-1.516162901376961e-06,6.377494809211112e-07,5.488544303006013e-07,1.6800866344771373e-06,5.858506704447914e-07,-1.1173150705525195e-06,6.92926947006307e-09,-5.126593511777283e-07,6.543394156908877e-07,-1.3899761004257047e-06,-1.22512165978143e-06,-1.2293120625929673e-07,5.310926606894077e-07,-6.071607655051271e-07,-3.9191409151893297e-07,-3.452422716443821e-07,-4.7237481669176565e-07,-1.5641384316295937e-08
-1.4657681694449081e-06,6.379383505848566e-07,5.248874132176618e-07,1.643614395756231e-06,5.091260050300198e-07,-1.0346058282802732e-06,-2.127772987520649e-08,-5.629279564575379e-07,6.469783273251311e-07,-1.230142390500506e-06,-1.2118380397741826e-06,6.336985303736137e-08,2.8283640401871793e-07,-8.431315555161475e-07,-4.794087018787549e-07,-3.185419335797524e-07,-3.3604553250247417e-07,-3.627811202912942e-08
-1.432283984561379e-06,6.3785714684517e-07,4.980239664694682e-07,1.5925276065801407e-06,4.629787604870698e-07,-9.787494017106289e-07,-5.589112095252679e-08,-6.202423801742132e-07,6.545492917381402e-07,-1.0760829049846504e-06,-1.193701387890139e-06,1.5579035353538825e-07,4.82664652786923e-08,-1.0162835374867257e-06,-5.336424684921439e-07,-3.181641955727529e-07,-2.6967149266159644e-07,-7.439051126256716e-08
-1.4102334147122915e-06,6.376158552423028e-07,4.771540127137587e-07,1.5345277197091635e-06,4.351501910380347e-07,-9.368815377872821e-07,-9.67786810626778e-08,-6.74544808448501e-07,6.627160177040287e-07,-9.790875377525592e-07,-1.187195777445248e-06,2.543856674491124e-07,-1.3571723748699575e-07,-1.101425584676129e-06,-5.614790163129902e-07,-3.3394770100542204e-07,-2.6226579259434016e-07,-1.2318813740712808e-07
-1.3885863239166391e-06,6.376766210080332e-07,4.711610541952663e-07,1.4758696010295636e-06,4.0934401429670377e-07,-8.918537479286244e-07,-1.3846438966863965e-07,-7.189664127216515e-07,6.560898696974893e-07,-9.158960535382028e-07,-1.2001058734817567e-06,3.6373315312477483e-07,-2.624390228776875e-07,-1.1722871120460926e-06,-5.689573401633389e-07,-3.5433172188046774e-07,-2.8117761629354505e-07,-1.7733365951602578e-07
-1.353803135490591e-06,6.369921600729242e-07,4.942574890981255e-07,1.4182948382080204e-06,3.7173013092025e-07,-8.274034289335235e-07,-1.7261882609666355e-07,-7.520959606437161e-07,6.234579530894174e-07,-8.651813263098703e-07,-1.243481209657953e-06,4.837479588181296e-07,-3.510515816965272e-07,-1.2471404832960993e-06,-5.608247667453251e-07,-3.830787780996278e-07,-3.218151430384357e-07,-2.344985527039193e-07
-1.2941516023610493e-06,6.325145248308339e-07,5.582998961914611e-07,1.357781519182827e-06,3.1325863880284766e-07,-7.335948823101043e-07,-1.9178097532125218e-07,-7.736782488067688e-07,5.630273456401945e-07,-8.262071825771326e-07,-1.3300937545119518e-06,6.03911655874747e-07,-4.0437847979152123e-07,-1.3196579099975646e-06,-5.401483828597205e-07,-4.1363910387955887e-07,-3.618835051105601e-07,-2.9546419336534076e-07
-1.2019300151152914e-06,6.191568458008492e-07,6.606976411295723e-07,1.2864254637526112e-06,2.3301927483200258e-07,-6.128397461257481e-07,-1.9253568372704786e-07,-7.889999219759567e-07,4.806340735411325e-07,-7.877980265514888e-07,-1.4547773710875627e-06,7.041831302569632e-07,-4.3082543451388865e-07,-1.3876657316729564e-06,-5.095342729011956e-07,-4.437951651039477e-07,-4.0335291200511226e-07,-3.6240387417602773e-07
-1.082682581063193e-06,5.93822714964487e-07,7.554462504676864e-07,1.1979609674922585e-06,1.4188072998229817e-07,-4.758027376193809e-07,-1.7757016514883725e-07,-8.068700730599119e-07,3.8859775004793965e-07,-7.540192192249199e-07,-1.6029350976984736e-06,7.848740973767579e-07,-4.2821871774381797e-07,-1.4457195603540295e-06,-4.737475767489627e-07,-4.775214524239951e-07,-4.5141192172697796e-07,-4.368891309185248e-07
-9.571147910671942e-07,5.542574007764731e-07,8.340861966184878e-07,1.0916150824058183e-06,4.896317531906213e-08,-3.4097445209465103e-07,-1.5611013794123718e-07,-8.336966183590829e-07,3.0145332861698154e-07,-7.301004174248155e-07,-1.7522812186040632e-06,8.308142053327813e-07,-4.057846869830492e-07,-1.4916517014270377e-06,-4.399321033810665e-07,-5.200960250260352e-07,-5.045209793454937e-07,-5.184623731136632e-07
-8.4395325487205e-07,5.019833392560923e-07,8.202563122663142e-07,9.749300817648213e-07,-3.1713722158704976e-08,-2.303469769706874e-07,-1.4093355261750324e-07,-8.745623094070479e-07,2.331263293768997e-07,-7.132098429619422e-07,-1.8772950353109616e-06,8.387539519585715e-07,-3.932418044883126e-07,-1.5318425022960068e-06,-4.1570613616346187e-07,-5.761521576292709e-07,-5.5982272904399e-07,-6.036785107392316e-07
-7.781713059594044e-07,4.4343383727878167e-07,7.261209761713489e-07,8.59695800010182e-07,-8.493801903318564e-08,-1.6064718428601883e-07,-1.4254324006612842e-07,-9.301885439110948e-07,1.8892655312991566e-07,-7.009713829919425e-07,-1.959359293723624e-06,7.901102927434707e-07,-4.1059087634788837e-07,-1.572977514473126e-06,-4.0575464949735887e-07,-6.47299946758461e-07,-6.124171274087047e-07,-6.869321976630123e-07
-8.256499141093999e-07,3.8669660512243454e-07,6.741165343171575e-07,7.601358135411138e-07,-1.068918960085555e-07,-1.373399156174085e-07,-1.6506274532432386e-07,-9.963530959551443e-07,1.7024822206620175e-07,-6.901498377985663e-07,-1.992159742663404e-06,7.012056764781191e-07,-4.761724001371387e-07,-1.620903769303536e-06,-4.099868144287313e-07,-7.328649160935886e-07,-6.579559287176621e-07,-7.6367676573946e-07
-8.175511126876817e-07,3.37449906655164e-07,6.180457659798958e-07,6.855989403437705e-07,-1.0113910961787619e-07,-1.5654470246232012e-07,-2.0651039957417643e-07,-1.0659854819918618e-06,1.6104829821088113e-07,-6.771199086010066e-07,-1.9812453591309975e-06,5.94793134465135e-07,-5.921074559998064e-07,-1.6827866415377079e-06,-4.245192845525788e-07,-8.319742690179403e-07,-6.950720857273468e-07,-8.331905291163121e-07
-8.545365467687026e-07,2.9630928357878775e-07,5.487968060450178e-07,6.356951399848515e-07,-8.020009914588526e-08,-2.0801556948673705e-07,-2.6118267234478187e-07,-1.132719529984521e-06,1.5228870230307538e-07,-6.606391682109124e-07,-1.9459464552222957e-06,5.016506572600638e-07,-7.548599806356674e-07,-1.7648388934631148e-06,-4.438049997096913e-07,-9.440417938291686e-07,-7.256730064287281e-07,-8.983461146096157e-07
-9.56316811533666e-07,2.597357349270635e-07,4.7479973777909867e-07,6.027210526336485e-07,-7.603776604276466e-08,-2.758326366135542e-07,-3.217519457560721e-07,-1.1934824111278896e-06,1.3756317003193577e-07,-6.403995484214097e-07,-1.9017815906683383e-06,4.390517203096503e-07,-9.55109943151122e-07,-1.8699095017150535e-06,-4.630918380649016e-07,-1.0687772644422405e-06,-7.539061894149604e-07,-9.636087699282396e-07
-1.091030167152323e-06,2.2215645337416296e-07,2.900636989951466e-07,5.742156854309501e-07,-1.0166408694215787e-07,-3.469596326728655e-07,-3.8099118891137086e-07,-1.2483714746765191e-06,1.0894381957342237e-07,-6.186672401433107e-07,-1.8680996381445916e-06,4.0820868823193735e-07,-1.1781371549440702e-06,-1.997777471269076e-06,-4.808404031087489e-07,-1.2068869002818732e-06,-7.849006814289855e-07,-1.033054101453365e-06
-1.1962069231888349e-06,1.793181030036693e-07,5.2472750372817994e-08,5.374342857455339e-07,-1.6171312985888713e-07,-4.1189021745509625e-07,-4.3275901745105754e-07,-1.3002886053728873e-06,7.008620954780483e-08,-5.992080536513622e-07,-1.8542121402838975e-06,4.0244056935796305e-07,-1.4027869553953085e-06,-2.1447838013218613e-06,-4.997568537688163e-07,-1.3594212608629048e-06,-8.229237963877245e-07,-1.1083624780101092e-06
-1.2743034104487872e-06,1.3047165263291275e-07,-1.5462350330168264e-07,4.835598643083913e-07,-2.5201261846187945e-07,-4.648387823656505e-07,-4.7184282350192556e-07,-1.353773532615827e-06,3.116832050019301e-08,-5.845694024044304e-07,-1.8412618737634496e-06,4.0636206599385644e-07,-1.5457178013520508e-06,-2.299719421273961e-06,-5.252692962230967e-07,-1.525155672588632e-06,-8.692318330002997e-07,-1.187219016166606e-06
-1.3317626027074641e-06,7.934827561876328e-08,-3.4514157094359376e-07,4.1096701914131815e-07,-3.5547946633023207e-07,-5.065912192336498e-07,-4.939792688019265e-07,-1.4118525709134828e-06,-5.453064297244663e-09,-5.747355705636425e-07,-1.8386536836806542e-06,4.2552560975741446e-07,-1.6190435613848437e-06,-2.4445358742830784e-06,-5.630365336282244e-07,-1.7041515775715297e-06,-9.208517565738572e-07,-1.2631016111133326e-06
-1.3683560828719917e-06,3.109276212842517e-08,-4.797340597575959e-07,3.241901701052951e-07,-4.4851161055347325e-07,-5.384945649117911e-07,-4.967902912445542e-07,-1.4764618975568008e-06,-3.4063291794549716e-08,-5.658506782984977e-07,-1.8623911664049416e-06,4.3610238378351787e-07,-1.534472616082494e-06,-2.554730365303185e-06,-6.162367848831856e-07,-1.8756568123862916e-06,-9.704358383195987e-07,-1.3258756954901182e-06
-1.3890452710789851e-06,-1.2100091764129242e-08,-5.745393367290029e-07,2.327925367848035e-07,-5.01952285542742e-07,-5.620132535628508e-07,-4.803641761435962e-07,-1.5386721085486654e-06,-4.838378864630983e-08,-5.529405042313928e-07,-1.8858135993606434e-06,4.4000064370233836e-07,-1.387133056811364e-06,-2.6011442552639178e-06,-6.826619386901375e-07,-2.023152997954789e-06,-1.0071148709495563e-06,-1.36288845502583e-06
-1.3992866736709608e-06,-4.53878522621566e-08,-6.40749086990542e-07,1.500623653518018e-07,-5.050006308519128e-07,-5.758888553521649e-07,-4.473166845820153e-07,-1.5871823397053589e-06,-5.864788542431786e-08,-5.311295261521508e-07,-1.8481860595025377e-06,4.245823260240083e-07,-1.3478863412089579e-06,-2.5574974941820863e-06,-7.539494254640442e-07,-2.120770523546957e-06,-1.0196663608651513e-06,-1.3622807683933396e-06
-1.40537452226765e-06,-6.609238996840881e-08,-6.746607102036504e-07,8.904120238059422e-08,-4.4347527962586425e-07,-5.83564587608316e-07,-4.0373267935172917e-07,-1.6127862464003966e-06,-5.583719797454031e-08,-4.994811304349163e-07,-1.7013562282606354e-06,2.8269560525278026e-07,-1.3813189460739366e-06,-2.413306013081136e-06,-8.172834531859251e-07,-2.042083597234793e-06,-1.0020733692721775e-06,-1.3184301996902593e-06
-1.4140277603778252e-06,-7.732246702564229e-08,-6.912598140545965e-07,5.6037353222082137e-08,-3.5941170154139735e-07,-5.908467231193782e-07,-3.600344689616217e-07,-1.6072531389147057e-06,-4.093086347257849e-08,-4.650594516311976e-07,-1.4167472292635006e-06,2.260221778374021e-08,-1.285342846846545e-06,-2.182118449994475e-06,-8.575347945388087e-07,-1.9306997732764084e-06,-9.581595046985689e-07,-1.235554950370315e-06
-1.4336719717939405e-06,-8.57639516986034e-08,-6.92523416855863e-07,5.1033094171702685e-08,-2.4588526290889066e-07,-6.058263872500891e-07,-3.288469110524444e-07,-1.5691071836674571e-06,-5.541278942366838e-08,-4.410559026831283e-07,-1.144140912306636e-06,-2.85359787062349e-07,-1.1008836856683784e-06,-1.9012756355185067e-06,-8.591706526302089e-07,-1.8670560217327804e-06,-9.019564616681899e-07,-1.1265286814272543e-06
-1.47417179987882e-06,-1.063505218826436e-07,-6.928934106246708e-07,6.736975146713343e-08,-1.1830798063098881e-07,-6.374826032712269e-07,-3.1997966378357274e-07,-1.5017099896800193e-06,-1.09264300609985e-07,-4.4449002980618275e-07,-1.0093748312266085e-06,-5.789952070781325e-07,-8.554468829750536e-07,-1.6195499576844477e-06,-8.092026004446589e-07,-1.6543216444755812e-06,-8.535485652879494e-07,-1.008135714186125e-06
-1.5403427338026321e-06,-1.5045944317136618e-07,-7.064834894612304e-07,9.518282004018514e-08,-1.1279034191263979e-08,-6.863273345509088e-07,-3.36079829166202e-07,-1.4107185258957315e-06,-2.4330697785844096e-07,-4.8834354212362e-07,-9.475978886028378e-07,-8.769678619212354e-07,-7.366771447427498e-07,-1.3838307022227675e-06,-7.027034027931846e-07,-1.3376867083270237e-06,-8.319795179359273e-07,-8.952652603865359e-07
-1.652954224524535e-06,-2.1424319779527206e-07,-7.467396740550422e-07,1.2434420268709275e-07,1.8762111340006726e-08,-7.590436330977745e-07,-3.715831085489381e-07,-1.3016341802227818e-06,-4.236094463618036e-07,-5.770564527439636e-07,-7.224080314507738e-07,-1.1512537882321791e-06,-6.05839798506665e-07,-1.2273902662833528e-06,-5.487593172393551e-07,-1.0468413615564052e-06,-8.47860478579459e-07,-7.962254248494082e-07
-1.7670259711822924e-06,-3.044515706356955e-07,-8.281150077418465e-07,1.4731520382452012e-07,-1.19437205762643e-07,-8.362884843355513e-07,-4.151420952075475e-07,-1.1833756966532114e-06,-5.53246161390791e-07,-7.054272668536514e-07,-4.6835970549642625e-07,-1.2474688919661978e-06,-4.6037545968057646e-07,-1.1643266112088162e-06,-3.724606935020037e-07,-8.198251037079686e-07,-8.994144872128998e-07,-7.116393355553421e-07
-1.911317962984494e-06,-4.270580569665893e-07,-9.204265491919462e-07,1.5803426822462405e-07,-4.4296677929964756e-07,-8.877305803701362e-07,-4.542076406522571e-07,-1.0533877954117438e-06,-6.30717818730923e-07,-8.606641017728901e-07,-2.1683338287764551e-07,-1.2488316213684886e-06,-4.7301463286793676e-07,-1.1912040345817784e-06,-2.0920267626823756e-07,-6.559119433517069e-07,-9.738410313227267e-07,-6.374547536243176e-07
-2.0882163873812644e-06,-5.78451119706385e-07,-1.0174343663163293e-06,1.5372591467914105e-07,-7.272667254708062e-07,-9.197342909662966e-07,-4.792367145036989e-07,-9.086441618622898e-07,-6.675760511982128e-07,-1.0255791284133172e-06,-1.1142461517568272e-07,-1.2117944687640839e-06,-5.807441076095489e-07,-1.29023741817142e-06,-9.187818291269168e-08,-5.731128819304079e-07,-1.0522411874826488e-06,-5.693857861258324e-07
-2.1409675353804093e-06,-7.513980707440964e-07,-1.1098971857038374e-06,1.361458694910068e-07,-9.083510226785177e-07,-8.884312780239361e-07,-4.856205646001735e-07,-7.658078429317033e-07,-6.795857311101565e-07,-1.1808350421618143e-06,-3.6583362454830534e-08,-1.2783764552390714e-06,-6.65938181436757e-07,-1.433269355519284e-06,-3.856732358650355e-08,-5.649443170340772e-07,-1.115588897929106e-06,-5.059873452995642e-07
-2.121276421969741e-06,-9.293023295357082e-07,-1.195668418798759e-06,1.0985214120664357e-07,-9.811420922920763e-07,-8.107429153316096e-07,-4.736786511163646e-07,-6.18363475396834e-07,-7.750369692620354e-07,-1.3067337688152745e-06,3.721226609365597e-08,-1.3512855000856291e-06,-6.904947843937606e-07,-1.5905173829847525e-06,-4.895626048232637e-08,-6.118234450766862e-07,-1.1502000825505914e-06,-4.4930574813821606e-07
-2.076716768125015e-06,-1.0935509739530668e-06,-1.2295336681337185e-06,8.281407019530661e-08,-1.0234031227926186e-06,-7.066668079375896e-07,-4.4722681035208035e-07,-4.649330205082634e-07,-9.175789256943306e-07,-1.3875455776669731e-06,1.4359200161969543e-07,-1.314145504339086e-06,-6.873388285842969e-07,-1.740862855999978e-06,-1.0935203997695483e-07,-6.898859930577556e-07,-1.1508145841268532e-06,-4.028974091000775e-07
-1.9976419938422226e-06,-1.2305983276161962e-06,-1.2173162166693148e-06,6.356614026999091e-08,-1.0505582335103951e-06,-6.085335411765924e-07,-4.103957334548461e-07,-3.0629626074074383e-07,-1.0707170239819966e-06,-1.416115471863101e-06,2.0232759392544077e-07,-1.1793246075079291e-06,-6.687591987131139e-07,-1.8735995702272048e-06,-1.9988269280087472e-07,-7.773398775548306e-07,-1.1202598760154063e-06,-3.687184803067231e-07
-1.799349802810266e-06,-1.3453750839666514e-06,-1.1464947934102649e-06,6.413618340801716e-08,-1.136593709933163e-06,-4.7481724862708447e-07,-3.6443519015410464e-07,-1.3023893843355677e-07,-1.2289967326953626e-06,-1.3962165590996391e-06,1.691683044655525e-07,-1.0160313914396789e-06,-6.457936065937438e-07,-1.9838855387607123e-06,-3.0016998877424685e-07,-8.58285271488055e-07,-1.0675819095225773e-06,-3.4626729273863545e-07
-1.6072669145087901e-06,-1.4162256196686988e-06,-1.0226172811546725e-06,9.482711606128932e-08,-1.2696574009188638e-06,-3.175294852671945e-07,-3.0793911555584034e-07,6.561310332978195e-08,-1.3343855174114394e-06,-1.3451196800728968e-06,1.4218221292995138e-07,-8.506119242608802e-07,-6.252314552591659e-07,-2.068734430551585e-06,-3.931346024699068e-07,-9.26465588991908e-07,-1.0065748268081014e-06,-3.348565575143354e-07
-1.4350266411566916e-06,-1.4543556929650102e-06,-9.732300997148842e-07,1.5951543531142754e-07,-1.4096258334457446e-06,-2.1091212579122743e-07,-2.402809923567862e-07,2.7278408613022267e-07,-1.4294901317114934e-06,-1.2831678247992368e-06,1.2255654521712665e-07,-6.825745831390086e-07,-6.064495429119993e-07,-2.125912815193858e-06,-4.6684103015408466e-07,-9.866239141097938e-07,-9.534730918781991e-07,-3.354333761471811e-07
-1.2596756292033756e-06,-1.4771040366980803e-06,-9.430991046880592e-07,2.5538351931441657e-07,-1.571891267969428e-06,-1.1527561141049734e-07,-1.6392887424626504e-07,4.993644763486738e-07,-1.5190432167650781e-06,-1.2265386847223416e-06,7.576178975415543e-08,-6.023839005365049e-07,-5.833522231776137e-07,-2.1519763095607123e-06,-5.141609974402589e-07,-1.0503533790211355e-06,-9.225739317413328e-07,-3.4953560888015384e-07
-1.1205484839903546e-06,-1.5093901392249643e-06,-9.270640881709302e-07,3.8657063352550805e-07,-1.8003793687566872e-06,-1.936553905506557e-08,-8.387400193580248e-08,7.451776542892525e-07,-1.6010892330198771e-06,-1.1973925923047345e-06,1.900707106762073e-08,-5.772149230019842e-07,-5.477188658624009e-07,-2.140256133881432e-06,-5.371316157532799e-07,-1.1292041335257247e-06,-9.220703790177124e-07,-3.777266974839375e-07
-9.865309143744207e-07,-1.5614086048796482e-06,-8.667362897405381e-07,5.414634573847257e-07,-1.9749677782867557e-06,6.653242752385501e-08,-6.914073842932016e-09,9.659174819822314e-07,-1.6879638178671192e-06,-1.2060593977460655e-06,-5.2979275210872934e-08,-5.907124408490871e-07,-4.930774502925871e-07,-2.0864647878718524e-06,-5.387819224521603e-07,-1.2292095258541495e-06,-9.525366033871911e-07,-4.1949544758494234e-07
-8.622413990744418e-07,-1.600733030230723e-06,-7.154816666984641e-07,7.060188106642408e-07,-2.1108919914085607e-06,1.57238128127392e-07,5.812469033235311e-08,1.1443628917097774e-06,-1.7833433603253372e-06,-1.2574642050920182e-06,-1.5022301370647498e-07,-6.469711985176637e-07,-4.1752682175009703e-07,-2.002009366045676e-06,-5.259179437551103e-07,-1.346667091078641e-06,-1.007224244928322e-06,-4.728348278835738e-07
-7.544911305712276e-07,-1.6170542881427377e-06,-5.601186723161409e-07,8.836012946042104e-07,-2.1748508530715138e-06,2.0147092138743152e-07,1.0167752276981206e-07,1.2237411356720034e-06,-1.8103139241868264e-06,-1.3461221902068776e-06,-2.5854047744035683e-07,-7.357448297710873e-07,-3.244395474125996e-07,-1.897830505417209e-06,-5.11839104691543e-07,-1.4655998295887194e-06,-1.0732117920318037e-06,-5.32855212924398e-07
-6.743094828155099e-07,-1.5774577959820928e-06,-4.019622024640843e-07,1.0717455852276565e-06,-2.0446147740477166e-06,1.3730454193922057e-07,1.1662613646618453e-07,1.076453007205869e-06,-1.7737731110552607e-06,-1.4497771780884765e-06,-3.5591284861117183e-07,-8.321545710613237e-07,-2.2210347545300758e-07,-1.7936747427117698e-06,-5.067922635034177e-07,-1.561253979343586e-06,-1.1346960742290378e-06,-5.923234096834177e-07
-6.013683937468617e-07,-1.4954244423922456e-06,-3.3193111317938056e-07,1.2551190292328948e-06,-2.01216935475012e-06,-6.730763715550709e-08,1.0047828780082335e-07,1.0138858179103976e-06,-1.7254967545217044e-06,-1.5143801441738368e-06,-4.3639031084151206e-07,-9.265015265955207e-07,-1.2318676802017496e-07,-1.7191512936739433e-06,-5.165568003232086e-07,-1.6100646611840519e-06,-1.1782018379807384e-06,-6.44923581802396e-07
-6.109643924928118e-07,-1.45886266796038e-06,-3.711460465438161e-07,1.377628606750391e-06,-1.993595214124513e-06,-2.3259095296439122e-07,5.531129837830022e-08,9.57251532968993e-07,-1.6234469616359229e-06,-1.5026018342423322e-06,-4.9561380453197e-07,-1.010494678691911e-06,-4.316850446495529e-08,-1.6960659340279576e-06,-5.403691000154298e-07,-1.5991310706505513e-06,-1.1964406178445973e-06,-6.878932384284343e-07
-7.643393801597223e-07,-1.4395607064457487e-06,-3.6430163183814316e-07,1.423333185066472e-06,-2.0331113059727855e-06,-3.720997677737923e-07,-1.3427824612164055e-08,8.664426495002003e-07,-1.6120217069104458e-06,-1.4193527098311686e-06,-5.727706837448117e-07,-1.069068337424494e-06,2.494516222643869e-09,-1.7524482017226608e-06,-5.67500990646568e-07,-1.5300595343724996e-06,-1.189074199985507e-06,-7.222991087434015e-07
-8.310681954003615e-07,-1.4207211854836597e-06,-3.9922747272790025e-07,1.3635835383445287e-06,-2.113016272187445e-06,-4.838309629843154e-07,-9.907596878976873e-08,8.439877421183906e-07,-1.7172936825790531e-06,-1.3173109347391897e-06,-6.302625646820833e-07,-1.1059561621328146e-06,1.357902645355534e-09,-1.9046649714191105e-06,-5.896996715719666e-07,-1.4184434017761427e-06,-1.161836709486259e-06,-7.526224685620527e-07
-8.200133878186874e-07,-1.4059452145332268e-06,-4.168087799976215e-07,1.2236195356966959e-06,-2.1258141176373066e-06,-5.394832093701041e-07,-1.9657635586766775e-07,8.346315179339265e-07,-1.828522732236049e-06,-1.2529668488516966e-06,-6.764605431983504e-07,-1.1245329469556936e-06,-5.276355722396662e-08,-2.154044662714567e-06,-6.06898334977361e-07,-1.2902776394123257e-06,-1.124928391035939e-06,-7.861488085224265e-07
-8.211266363677512e-07,-1.3994853511848222e-06,-4.1261330671038733e-07,1.0663881007302981e-06,-2.158410185440953e-06,-5.447487621444042e-07,-3.0383916767016627e-07,8.060806967107207e-07,-1.9077614459168627e-06,-1.1745825057063659e-06,-7.336710633912468e-07,-1.1332843320951798e-06,-1.5558313672074686e-07,-2.489532960744811e-06,-6.287334434206802e-07,-1.1751142022576425e-06,-1.0902711904146663e-06,-8.311391462818046e-07
-8.447468806369371e-07,-1.362347898025025e-06,-4.2555192057068683e-07,8.982349223893448e-07,-2.0940685589961625e-06,-5.929921348109421e-07,-4.2080966425600964e-07,6.62118788965749e-07,-1.9265878817873907e-06,-8.642925662743056e-07,-7.980143471797369e-07,-1.1423172843488953e-06,-2.8945367144719953e-07,-2.883994560466661e-06,-6.72018599482107e-07,-1.098841748907856e-06,-1.0684259227467034e-06,-8.945194209547605e-07
-1.00521955236812e-06,-1.324811429673677e-06,-5.087257423809525e-07,7.380062983883022e-07,-1.963331093125246e-06,-6.837744106102291e-07,-5.480979531929557e-07,4.78428953214348e-07,-1.9240857663209524e-06,-6.367506548397537e-07,-8.860351922073126e-07,-1.1749709610266356e-06,-4.2405943697137243e-07,-3.2964326625994825e-06,-7.500233844433194e-07,-1.0792845606171644e-06,-1.0662695728420996e-06,-9.79167795715154e-07
-1.2019140818320644e-06,-1.2568599374809881e-06,-6.365856144726882e-07,6.025550148165815e-07,-1.8701648969510988e-06,-8.308068785374662e-07,-6.858566229623242e-07,2.9481914312697183e-07,-1.9034455723137033e-06,-5.859669322112471e-07,-9.95673682972826e-07,-1.2456752011173915e-06,-5.311436121912938e-07,-3.6758650809923294e-06,-8.714786354703626e-07,-1.123402395553568e-06,-1.0850210240245657e-06,-1.0863586144721024e-06
-1.3779003561229134e-06,-1.2123367236695545e-06,-7.603934491048515e-07,4.832794686941286e-07,-1.8314290028675325e-06,-1.0280235749257347e-06,-8.319940711501489e-07,1.3968795126775668e-07,-1.8406079270781524e-06,-4.923147362044374e-07,-1.116192713169305e-06,-1.3529907719314852e-06,-6.046654216883986e-07,-3.985347101485179e-06,-1.0338756338431419e-06,-1.2249286375294199e-06,-1.1188755887256586e-06,-1.206937701738934e-06
-1.5486456071807478e-06,-1.197187113712121e-06,-8.759241899113956e-07,3.693804050801201e-07,-1.7171822519728946e-06,-1.1475091559897113e-06,-9.808760391941078e-07,3.5027984403778127e-09,-1.798163252214553e-06,-5.0033222174981e-07,-1.2282464147140938e-06,-1.4879348778516721e-06,-5.869915922632151e-07,-4.200184849894336e-06,-1.2235614068008258e-06,-1.3649203683783862e-06,-1.1561292535769287e-06,-1.3249823153695335e-06
