0,1,2,3,4,5,6,7,8,9,10,11,12,13,14,15,16,17
-2.3780960595166024e-07,3.5685282351584465e-07,1.2659030514239032e-05,-6.827065152519092e-06,5.958241614601862e-07,3.242363536287488e-07,1.6628176934274218e-07,4.0222864621151777e-07,5.330153706317265e-06,-5.6016949539150015e-08,2.341493269345659e-07,-2.319548839483579e-07,-3.9986573023539333e-07,4.104233210320433e-07,2.42091646607926e-07,6.394374241860188e-08,-6.776049484670148e-09,-2.0408545347013576e-07
-2.389541208801214e-07,3.263502107279153e-07,1.0926609194124626e-05,-6.17379183060164e-06,4.4961468032102824e-07,2.8653773745950946e-07,1.30786347073433e-07,3.474719458842565e-07,3.3485825859755256e-06,-1.1880724677435107e-07,1.526036556580673e-07,-2.4354962669826156e-07,-3.409284175460513e-07,2.580735017827346e-07,1.700946868859195e-07,6.143228727334333e-08,-4.421212973058698e-08,-2.1668323704876633e-07
-2.183680517971322e-07,2.414672450733158e-07,7.867565529813443e-06,-5.354774997433844e-06,2.541027817308908e-07,2.2799057130605598e-07,7.85629563529462e-08,3.8144637661077847e-07,2.431180702261973e-06,-1.4760002603613243e-07,8.045837999569049e-08,-2.7069247181827725e-07,-2.6806563025700406e-07,1.6924139027749256e-07,9.406073997631681e-08,4.640813664918433e-08,-7.716379801824526e-08,-2.1657975685248272e-07
-1.7069414022732198e-07,1.4010778258457664e-07,4.161163926739162e-06,-3.999834409959984e-06,2.773669958015404e-08,1.4428197185725496e-07,3.003939695879323e-08,1.247393234656503e-07,2.1200271341866856e-06,-1.8765412141472605e-07,2.3404778849322327e-08,-2.831152180005247e-07,-1.7882210100566496e-07,9.39188804982567e-08,3.8998308117397465e-08,-1.20426311100586e-08,-9.03669985083293e-08,-2.0117831229182977e-07
-1.2724684729118857e-07,3.9575610380879453e-08,7.045065182228551e-07,-1.9150161266464332e-06,-1.8542597688635365e-07,5.325416275785265e-08,-1.8383918284527692e-08,-2.092440684581447e-07,2.0068506161451677e-06,-1.9641962791575911e-07,-2.2045651474166925e-08,-2.782492079263851e-07,-8.82315625781094e-08,-8.477406490708431e-08,-4.544095660626885e-08,-7.26726152431039e-08,-9.377701413724788e-08,-1.7069132208448307e-07
-5.843561870663647e-08,-2.1929673753646708e-08,-1.7852234302901477e-06,4.7471203765126354e-07,-2.6487650525938944e-07,-2.036194516271027e-08,-5.7651227685329905e-08,-2.395256953891758e-07,1.7004426386762657e-06,-1.6774694278054195e-07,-6.113678209625181e-08,-2.072725770018549e-07,6.111895194940277e-09,-2.1013780848390732e-07,-1.069352184221289e-07,-1.548368718295996e-07,-8.529948814722528e-08,-1.2770718250621867e-07
3.702512035290642e-08,-6.406375669091503e-08,-3.0625554631016995e-06,2.9018152893357746e-06,-2.0795702028863527e-07,-7.238779019406012e-08,-8.49625804537145e-08,-3.3461874052444293e-07,1.0267100191123063e-06,-1.1445724358352146e-07,-1.0477008683783278e-07,-1.0202891008719843e-07,6.93730925912986e-08,-2.377230230430559e-07,-1.1251357966313016e-07,-2.2593323583651814e-07,-6.570275930488393e-08,-7.568260451158103e-08
1.1682306591073735e-07,-9.55402595385939e-08,-3.1954708860915314e-06,5.0716804010593444e-06,-1.561690457148248e-07,-1.06045115686465e-07,-8.097419927010647e-08,-3.2034286878787087e-07,4.4272462378189196e-08,-6.461711109787376e-08,-1.2933547047408958e-07,-5.003354731657611e-08,9.851056746659741e-08,-2.509446521592782e-07,-1.0747154889464597e-07,-2.068466253214227e-07,-4.162115612016589e-08,-1.822703570457372e-08
1.603112873680112e-07,-1.1560459922598064e-07,-2.655735019500954e-06,6.1101777195887935e-06,-1.633699501668164e-07,-1.3254846270230483e-07,-5.1785632859534253e-08,-3.1588115564989e-07,-1.2929465314592294e-06,-1.9798666577328535e-08,-1.3860819318170014e-07,-6.916393875396407e-08,1.7666536826767415e-07,-2.6789435056987673e-07,-1.0678154349979324e-07,-1.9587785616025306e-07,-1.4681695254174713e-08,4.0301277821037966e-08
1.8113104196512384e-07,-1.3637036657345957e-07,-2.098452282640383e-06,5.893461813278974e-06,-2.325389780144445e-07,-1.5490649733833498e-07,-1.226715404007063e-08,-3.794535332146638e-07,-2.4090612733223053e-06,2.69903214176602e-08,-1.1980480126873105e-07,-4.8699352522557744e-08,2.2097701646147725e-07,-2.4632271405049724e-07,-8.863208829216088e-08,-1.6523536858064293e-07,1.4272606666700597e-08,9.443170383101435e-08
1.9827045481357276e-07,-1.3844797565079128e-07,-2.121517902469107e-06,4.652356462448801e-06,-2.7743355116185437e-07,-1.5559949601983313e-07,2.421219895823917e-09,-3.935057751159804e-07,-3.094936528480975e-06,6.199038193679773e-08,-9.376990632979994e-08,6.473855779916573e-08,1.896131192705759e-07,-2.197546095310653e-07,-7.661056019709947e-08,-5.169665963622849e-08,4.071704751853932e-08,1.3887204767062376e-07
1.663322902305715e-07,-1.3057908655670125e-07,-2.9072123391864547e-06,2.7576740131883348e-06,-2.2955727153588132e-07,-1.4000204014649308e-07,-4.073428468010959e-09,-2.2818521829478583e-07,-3.440021325954288e-06,1.0263600272261691e-07,-5.755379324969686e-08,2.1284423109077836e-07,1.4561499515405476e-07,-1.1434485902837952e-07,-5.994681997521188e-08,5.8948930152904923e-08,6.085049986254145e-08,1.7063618114954707e-07
1.1128729195159774e-07,-1.2160689463654576e-07,-4.180992615125517e-06,7.746838550636054e-07,-1.1005660550540025e-07,-1.1381922074652862e-07,-1.7492917118812544e-08,-1.1976731906052964e-08,-3.266131875467423e-06,1.478708477379815e-07,-8.965855957208127e-09,2.8020637367218864e-07,1.1948255556085631e-07,3.875037981306221e-08,-2.35065820347942e-08,1.6416426229639981e-07,7.775401591262331e-08,1.898848466844041e-07
5.3455721647176575e-08,-1.1041928802973985e-07,-5.232328600646467e-06,-3.762627698095086e-07,3.456932578478181e-08,-7.945356687045069e-08,-2.7886565820509964e-08,1.602789574041124e-07,-2.864002936694166e-06,1.9553097881449524e-07,3.656602731543068e-08,3.228985447469354e-07,9.921083335779164e-08,1.3629530803195548e-07,1.5522628774468746e-08,2.1956305237884872e-07,9.306147549865043e-08,1.9884784907191245e-07
2.0884947867244117e-08,-9.545451404362952e-08,-5.250816862272184e-06,-1.1718299853245155e-06,1.789312287240968e-07,-4.534858645816414e-08,-2.943147196851082e-08,3.736823488022548e-07,-1.9244147379360207e-06,2.46877799173294e-07,8.32796405486312e-08,4.082495929462448e-07,7.5176586995753e-08,2.2054283316644027e-07,5.804665684250221e-08,2.3264344995666068e-07,1.0821507524301508e-07,2.003687341848722e-07
5.987162747121644e-09,-7.433725758252853e-08,-3.828570281814672e-06,-2.8179863193198667e-06,2.8660602693245345e-07,-1.5828075684076893e-08,-2.3182593654610682e-08,6.428861889624379e-07,2.832953442610288e-07,2.9122160391653907e-07,1.2552873156776927e-07,4.958224338186447e-07,7.517741130120136e-08,3.0465046717115965e-07,1.0902423038070269e-07,2.38038002591883e-07,1.247303680034592e-07,1.974922640566599e-07
1.4821931083920517e-09,-4.5032370515460624e-08,-1.150055589895692e-06,-5.049984855081104e-06,3.248219355764761e-07,6.215872622527718e-09,-1.2264571713089288e-08,6.830656015427032e-07,3.4346869722743735e-06,3.254933953405726e-07,1.5844522873886667e-07,5.68936418834121e-07,8.228884675291004e-08,3.692152562361595e-07,1.8793323685002173e-07,2.354053035437316e-07,1.4199130134800698e-07,1.936398226288935e-07
-1.1865137724972007e-09,-6.616051749981908e-09,2.050019570672043e-06,-7.677503361538748e-06,3.5333301442872676e-07,1.528085621829034e-08,-9.616140926836768e-10,6.874385297870603e-07,7.017065749723073e-06,3.4995287242897377e-07,1.793278050233307e-07,5.863231470247079e-07,8.882460162210153e-08,3.772587041240646e-07,2.0894586021182957e-07,2.3258071274050788e-07,1.5954479522722846e-07,1.9212822135723008e-07
-3.2406339603976543e-09,3.3895930224989036e-08,4.7522321117505696e-06,-1.0244204045692439e-05,3.946155951529309e-07,5.872703864224907e-09,9.030920813335248e-09,7.334277068539981e-07,1.01079533951228e-05,3.6660795727237337e-07,2.0614477252834936e-07,5.851962805862555e-07,9.803202182788689e-08,3.5934275784514055e-07,2.1094605528949805e-07,2.3614131590040587e-07,1.7717965271576741e-07,1.9503021519147943e-07
-3.736786992445946e-09,7.469058771256385e-08,6.246242431834924e-06,-1.2290732624846012e-05,4.3800183081995156e-07,-1.6199803806202094e-08,1.5130435905238345e-08,8.117076187708738e-07,1.165159266868214e-05,3.779261856815097e-07,2.262923791039893e-07,5.95228304039244e-07,1.0223420999407443e-07,3.9485453931239154e-07,2.1376015837283452e-07,2.4176229361301635e-07,1.9471775898177895e-07,2.02656640862632e-07
-4.050126113304865e-09,1.1220436659653174e-07,6.304129834971233e-06,-1.3603279978139463e-05,5.222648094382199e-07,-4.335798962284035e-08,1.7105423018851875e-08,9.10069327577088e-07,1.1810640872863676e-05,3.8534343935296166e-07,2.3945551950615454e-07,5.678989139353144e-07,1.0453582089789636e-07,3.944362112737579e-07,2.0974105426247831e-07,2.5018675622430584e-07,2.1231088406278174e-07,2.143290800057739e-07
-2.6722471730199344e-09,1.4120640982738422e-07,5.194036115578949e-06,-1.4676601921913337e-05,5.704796660307067e-07,-6.854431740451834e-08,1.8472805617551224e-08,1.0221711501208592e-06,1.0725567210377987e-05,3.9044477012549136e-07,2.5170380169773723e-07,5.618180234969131e-07,1.0643479297148173e-07,3.7723329518583324e-07,2.0335290776925316e-07,2.604696892919488e-07,2.3024105439385006e-07,2.2905740778612967e-07
4.376982016745048e-12,1.6041100881726617e-07,3.4654275920122185e-06,-1.5376768355619763e-05,5.906144849660105e-07,-8.520238741543649e-08,2.4434902216148205e-08,1.10328224598919e-06,8.812910862128312e-06,3.9503188399538157e-07,2.584983428646679e-07,5.682546718322941e-07,1.0871757834591125e-07,3.9396465126131046e-07,2.090171144249779e-07,2.6990245118680014e-07,2.4832917909460594e-07,2.457616940480548e-07
4.3790113654410386e-09,1.6994921689050188e-07,1.634168006125779e-06,-1.5118484631884147e-05,6.070696717857127e-07,-9.254306272860821e-08,3.899362286146609e-08,1.1786055986304811e-06,6.73327712508404e-06,3.997550241800553e-07,2.645285053843714e-07,5.71049631550236e-07,1.1367670131041994e-07,4.1408798473069585e-07,2.244955108502195e-07,2.764079286951527e-07,2.655390333768556e-07,2.625969910152018e-07
1.04650591948948e-08,1.7237464583778577e-07,8.114840591443654e-08,-1.4485488324580799e-05,6.100510335970045e-07,-9.380215131137306e-08,6.241209642541051e-08,1.231103681460665e-06,4.579145352719993e-06,4.0328036726812384e-07,2.7092500341314793e-07,5.816559882341766e-07,1.2281796123194806e-07,4.452975744508712e-07,2.3644802986502967e-07,2.7727589455896656e-07,2.805473648263164e-07,2.769145630974648e-07
1.704157587416939e-08,1.7160736189727415e-07,-9.855970923258023e-07,-1.4145457992215668e-05,6.096716686434515e-07,-9.373900115035818e-08,9.133685396001469e-08,1.2612358342839988e-06,2.7101184584848556e-06,4.037419204278383e-07,2.779551958355138e-07,5.905858932318726e-07,1.368262040622009e-07,4.7546954380246185e-07,2.4172995970473876e-07,2.713237836838486e-07,2.9303857900633376e-07,2.865099358707877e-07
2.2286851223583487e-08,1.7128059326288085e-07,-1.52282274947913e-06,-1.4596182604045952e-05,6.077763637223468e-07,-9.572554824956518e-08,1.2124897636855938e-07,1.2866634521112066e-06,1.4065485635631152e-06,4.012284183615856e-07,2.8125539105045757e-07,5.9637381471057e-07,1.5226127500547695e-07,4.905106681877013e-07,2.3830626951377404e-07,2.5790528139306923e-07,3.0424008284226204e-07,2.9083368742334347e-07
2.533484092315406e-08,1.741335043872737e-07,-1.697405087852636e-06,-1.6158940679465674e-05,6.034667044279072e-07,-9.939217431206853e-08,1.487543946746715e-07,1.2873692741147538e-06,7.77263327673441e-07,3.9833128619612344e-07,2.8527019070335706e-07,6.021371301499549e-07,1.669579151874166e-07,4.992133660451961e-07,2.206515554831495e-07,2.3778492517567403e-07,3.1579303357621136e-07,2.909896974973302e-07
2.6252074450177543e-08,1.808874151315225e-07,-1.8322447338890703e-06,-1.8523209102585092e-05,5.930271735095889e-07,-1.0108027053386057e-07,1.7195443673387924e-07,1.281416857383607e-06,9.208168175924666e-07,3.977919252835574e-07,2.9161211954108964e-07,6.099646616325875e-07,1.7905308809625935e-07,5.210068407175622e-07,1.949707400475995e-07,2.128851218516059e-07,3.2796188608910945e-07,2.8741352208664276e-07
2.440936616680262e-08,1.8906456781776213e-07,-2.2958041235955827e-06,-2.072980759485339e-05,6.030804992514077e-07,-9.636180119867612e-08,1.894229944781572e-07,1.2714480827961283e-06,1.8214624807600135e-06,3.997248078901793e-07,2.9863735794364036e-07,6.182480891626947e-07,1.8539844052150274e-07,5.498877026082588e-07,1.6873366847788127e-07,1.8441074886144596e-07,3.390229808091962e-07,2.8056069079782465e-07
1.8230569071692152e-08,1.9373024967869532e-07,-3.33661266398417e-06,-2.1969639326422558e-05,6.042239237612198e-07,-8.276803087634227e-08,1.994936199215107e-07,1.2612842084129173e-06,3.355521956665014e-06,4.0155010177345754e-07,3.0577386302851473e-07,6.256577800225935e-07,1.8384135200205333e-07,5.808617186744476e-07,1.4234040946082538e-07,1.5315236526445763e-07,3.464886903573987e-07,2.702042778790044e-07
6.180463303293281e-09,1.911028710221348e-07,-4.949437202021246e-06,-2.188168090574123e-05,5.905748053438864e-07,-6.113262813904452e-08,2.0094035845386167e-07,1.2495737622926194e-06,5.1831720077699415e-06,4.005971256986672e-07,3.0980980118390664e-07,6.309258417786636e-07,1.7487085658356034e-07,6.106857716296396e-07,1.1584695030970547e-07,1.2002119566274339e-07,3.490282691241417e-07,2.5757859055017667e-07
-1.1338651716781433e-08,1.82615016558748e-07,-6.885158255351809e-06,-2.0380326910597725e-05,5.663398774442524e-07,-3.500892151070525e-08,1.9453472408528295e-07,1.2316760301919037e-06,6.9820532505877655e-06,3.961565241141741e-07,3.098545466731887e-07,6.340643184531872e-07,1.6065700423660923e-07,6.330948651106622e-07,8.99825060188166e-08,8.67146172272972e-08,3.472797973698921e-07,2.4423032569576395e-07
-3.167693956836307e-08,1.7536770959891814e-07,-8.764146593707892e-06,-1.7923612393005552e-05,5.2359105924091e-07,-8.819843744196141e-09,1.8377076235141912e-07,1.2022554423187818e-06,8.42215683399898e-06,3.886307227806563e-07,3.0692723054665597e-07,6.362775186136632e-07,1.448087708421476e-07,6.507582664598996e-07,7.737875149080458e-08,5.5005655186493126e-08,3.429645921971771e-07,2.3171668577808463e-07
-5.1411534985827304e-08,1.7768158089756341e-07,-1.0237218449188845e-05,-1.533524649402774e-05,4.854522737603226e-07,1.3701789818076558e-08,1.7357158388187804e-07,1.1633329146280806e-06,9.296147538290406e-06,3.7718394352508436e-07,3.017299280366224e-07,6.370767216847398e-07,1.3074703680226537e-07,6.665587080818043e-07,7.11178826759967e-08,2.6077139020777643e-08,3.375980710777219e-07,2.205020734343189e-07
-6.859426082782224e-08,1.930281860070411e-07,-1.1099626697931695e-05,-1.3225525732637623e-05,4.4703338410934146e-07,2.9798276490531307e-08,1.6776823634756724e-07,1.1222778830583756e-06,9.519817518906208e-06,3.592125351030924e-07,2.9399150660665957e-07,6.333935431402075e-07,1.1794664100606291e-07,6.810160704360654e-07,6.813032274357078e-08,-7.394237580806342e-10,3.322722512257705e-07,2.0881196562613285e-07
-8.36546472249195e-08,2.1721082732797008e-07,-1.1335256994672334e-05,-1.215828106742656e-05,4.069030070843241e-07,3.762721844888656e-08,1.6754814891352677e-07,1.070580166274092e-06,9.125756400265014e-06,3.326891578229191e-07,2.828018649472279e-07,6.216582500966896e-07,1.0754343741237285e-07,6.925452952850693e-07,6.54479243487329e-08,-2.8177162354769645e-08,3.283258540163205e-07,1.9471298828014224e-07
-9.796784623807099e-08,2.4081622712087793e-07,-1.1115609990319231e-05,-1.2305207953512452e-05,3.66714508327527e-07,3.711234671711041e-08,1.7202168109224187e-07,1.0266751956494326e-06,8.158026606448233e-06,2.9876595239451957e-07,2.676390242176158e-07,6.004449184523034e-07,9.92917547693866e-08,6.972422412931265e-07,5.259859532128446e-08,-5.975536238261464e-08,3.276084953695729e-07,1.7687574038192852e-07
-1.1212774270493735e-07,2.5475228881012975e-07,-1.0731113712740446e-05,-1.3444016473504857e-05,3.3706158610929426e-07,3.085790403232196e-08,1.7961755052117024e-07,9.922719221183358e-07,6.593647574920276e-06,2.6151842213447296e-07,2.487157240152897e-07,5.705473611989603e-07,9.257078504415983e-08,6.896976190891951e-07,2.707030045667627e-08,-9.869729747694767e-08,3.3167426467581706e-07,1.5496705661954613e-07
-1.25957974523637e-07,2.548554123477731e-07,-1.0349789385397996e-05,-1.5261278225273578e-05,3.2438545935990377e-07,2.3421955455821654e-08,1.885102032158668e-07,9.634613581315637e-07,4.4528710781289604e-06,2.248549204409872e-07,2.2632806669910287e-07,5.32575908907199e-07,8.48063938234792e-08,6.636283595978791e-07,-1.4164416297921201e-08,-1.4749169639043572e-07,3.4060004600274537e-07,1.2871593407571148e-07
-1.396208340069248e-07,2.4299573747100097e-07,-1.0183163571988716e-05,-1.7370038029955736e-05,3.3220051792238695e-07,1.9288485368563113e-08,1.9631869256215625e-07,9.469772999985065e-07,1.8818795692782347e-06,1.8964429586410602e-07,2.002241838657666e-07,4.852276347100834e-07,7.277607053570787e-08,6.131975278378626e-07,-7.234196934442588e-08,-2.0805122892426443e-07,3.5275684348434326e-07,9.785464511007046e-08
-1.545021205021724e-07,2.2497758224117255e-07,-1.0026955711035208e-05,-1.93549469130196e-05,3.3559188720149613e-07,2.138896660036842e-08,2.0069132604240747e-07,9.097644168917781e-07,-7.270049987765248e-07,1.519163930862297e-07,1.700737337685157e-07,4.2657379566532034e-07,4.6986459896068365e-08,5.353177546644917e-07,-1.5187158866250604e-07,-2.823836112692412e-07,3.659781749280922e-07,6.254731277974976e-08
-1.7220696951596524e-07,2.072927274837154e-07,-9.34832527235529e-06,-2.090957986189722e-05,3.295848136160463e-07,3.0860537294311724e-08,2.0098049236716324e-07,8.566544562077286e-07,-2.7844469474855118e-06,1.0922850096733221e-07,1.3659316102986936e-07,3.571753260729825e-07,2.0196720909844248e-08,4.3225648155470713e-07,-2.63107367440669e-07,-3.7153927747960554e-07,3.789660550849769e-07,2.2801988453046243e-08
-1.9489118949604403e-07,1.945225235625187e-07,-7.550481681681218e-06,-2.1762439921372333e-05,3.1539108921649585e-07,4.726003858617832e-08,1.991443388841382e-07,8.273288974978866e-07,-3.7561861676029655e-06,6.067572067760462e-08,1.0178898857771269e-07,2.815330865041375e-07,-9.655779431268185e-09,3.12760331089579e-07,-3.7405183688227665e-07,-4.748559135312789e-07,3.913027501146696e-07,-1.8548558065459898e-08
-2.2104678641543702e-07,1.879734215179049e-07,-4.043138990053628e-06,-2.166971917127231e-05,2.938333131172127e-07,6.865509785341201e-08,1.9853427093667328e-07,8.344591542433721e-07,-3.483368129719853e-06,7.960229301036949e-09,6.781229559249715e-08,2.0613521239217764e-07,-4.756954688245591e-08,1.9052467371331095e-07,-4.839432703894938e-07,-5.894009817369287e-07,4.021919412369265e-07,-5.105964324000399e-08
-2.4831697268977526e-07,1.8548093714058712e-07,9.021048834316178e-07,-2.054512568336592e-05,2.658232211206551e-07,9.177664376978478e-08,2.018177789627631e-07,8.773008238514021e-07,-2.260857176410375e-06,-5.1545948728074396e-08,3.566815920040604e-08,1.3615288626015283e-07,-9.082063294909399e-08,8.041955804302071e-08,-5.850308721842249e-07,-7.094225487806906e-07,4.097079549691587e-07,-7.438216795441484e-08
-2.7704102542628416e-07,1.8256606011371402e-07,6.51242426742738e-06,-1.8454150843350993e-05,2.2205954353941287e-07,1.125557505781568e-07,2.1033932571896512e-07,9.045869017047327e-07,-6.793714323825086e-07,-1.1960781745790857e-07,5.16319256947595e-09,7.418924457955542e-08,-1.4039755635909156e-07,-5.847081045880508e-09,-6.222660427461814e-07,-8.265264179845291e-07,4.1161598203672233e-07,-9.135435630641481e-08
-3.0706606282381855e-07,1.750535582193073e-07,1.0810543204647516e-05,-1.563065662453637e-05,1.4270808050425736e-07,1.271072395140328e-07,2.253128565536987e-07,8.87072512326794e-07,7.073143699176737e-07,-1.9798952888306025e-07,-2.4017796650206612e-08,2.137257441066429e-08,-1.7292886248821238e-07,-6.273711754456427e-08,-6.354598637138664e-07,-9.304122572949484e-07,4.068542528441953e-07,-1.1203751001363073e-07
-3.3766914163161747e-07,1.619991931558527e-07,1.2280673421226963e-05,-1.2445641542736155e-05,-2.588215196814615e-08,1.3280550835639927e-07,2.4899197646276764e-07,6.776135403375482e-07,1.6241104835412679e-06,-2.8071728301206946e-07,-5.144086676553969e-08,-2.1468318855462228e-08,-1.921854020567742e-07,-9.028630287074519e-08,-6.532045635204286e-07,-1.01095151595983e-06,3.961091593588707e-07,-1.364451657952515e-07
-3.671255459312216e-07,1.465685806079149e-07,1.0417440846907318e-05,-9.279800912314697e-06,-2.874378132656052e-07,1.288156427041286e-07,2.841702876913164e-07,4.737263996290511e-07,2.117958443168879e-06,-3.4288696679349594e-07,-7.623620419461006e-08,-5.410171298930598e-08,-1.3061868484347105e-07,-9.857570337580083e-08,-6.521005763132371e-07,-1.0645705327797103e-06,3.8119118594168935e-07,-1.5934414867288838e-07
-3.909573384572189e-07,1.336478862500784e-07,9.543606061958587e-06,-6.512257861853579e-06,-4.5804902042826033e-07,1.159497091375053e-07,3.3239346305474807e-07,3.3248155297073934e-07,2.434831642185863e-06,-3.8100270421473063e-07,-9.816134233415218e-08,-7.744835369545662e-08,-3.9760249712156116e-08,-9.985620802863062e-08,-6.521463615033428e-07,-1.0867838906276185e-06,3.6427943202105e-07,-1.6293128142623233e-07
-3.9261591854166825e-07,1.2623601664100227e-07,5.825655339614005e-06,-4.512878358402686e-06,-5.655198308210744e-07,9.652254821170294e-08,3.9256942313192813e-07,2.3412514531177595e-07,2.828303493356818e-06,-3.567197870328351e-07,-1.1804818159530932e-07,-9.235207176697129e-08,4.267688853971589e-08,-1.0604188512230004e-07,-7.338227789244405e-07,-1.086274538385718e-06,3.4796127009669464e-07,-1.4472300272987701e-07
-3.766603159427533e-07,1.240938532328685e-07,-8.433352497166495e-07,-3.481456609911981e-06,-6.233674195684403e-07,7.45635829692607e-08,4.612005780619392e-07,2.199290448336529e-07,3.366798541720526e-06,-2.9856899195225625e-07,-1.369196104355876e-07,-9.373284673382443e-08,9.941145673419514e-08,-1.2560436442335836e-07,-8.187184961755477e-07,-1.0741542431307086e-06,3.356330233041965e-07,-1.1196203597343978e-07
-3.5154655774669993e-07,1.2554668263190322e-07,-6.799110847206362e-06,-3.4584111008935764e-06,-6.407395284031965e-07,5.5594651376908877e-08,5.34046406624616e-07,2.713344747432504e-07,3.868000424079167e-06,-2.542810552056091e-07,-1.5418242013937955e-07,-7.672906094297923e-08,1.4815853782457785e-07,-1.565405589018748e-07,-8.834899789274971e-07,-1.0569737232927764e-06,3.3108866410024567e-07,-7.305022986358341e-08
-3.0810886465635236e-07,1.3006748457469375e-07,-9.956363849121887e-06,-4.305872863519873e-06,-7.863346194735019e-07,4.505765866925104e-08,6.078795620092421e-07,2.3743049213017553e-07,3.947550495962678e-06,-2.3556931469441882e-07,-1.6936401623593313e-07,-3.5370386344639444e-08,2.0388060743361366e-07,-1.9282735362227238e-07,-9.483788159028286e-07,-1.1045050292896485e-06,3.3689451463896683e-07,-8.060757355618371e-08
-2.7140658060146793e-07,1.3895227237791393e-07,-1.1803420151224554e-05,-5.744146879271583e-06,-9.770414761102454e-07,4.5879391869554374e-08,6.810470680634165e-07,2.1947046178678315e-07,3.1975823329393303e-06,-2.0636122136137807e-07,-1.81295387764053e-07,3.2698774446968614e-08,2.5329623583031927e-07,-2.2413979222737565e-07,-9.738396438972413e-07,-1.2018767651226379e-06,3.525779809543106e-07,-9.763268063221336e-08
-2.26258428259925e-07,1.5372959031935414e-07,-1.0818684366624477e-05,-7.5093488281440675e-06,-1.0656062188542936e-06,5.701812218723868e-08,7.52684394979753e-07,1.9567191551472452e-07,1.4086798018546432e-06,-9.048513167009214e-08,-1.8891075411897933e-07,1.2762578347461388e-07,3.1783419676036063e-07,-2.5579383113340845e-07,-1.0024159926359844e-06,-1.2930251059174337e-06,3.743068088122854e-07,-8.068771080082854e-08
-1.5225532336485546e-07,1.741796719950729e-07,-8.112450769269541e-06,-9.485475180714414e-06,-1.0432530364628816e-06,7.43053782810432e-08,8.214136234725301e-07,1.8155779219572674e-07,-1.3505762276064473e-06,3.144224087017097e-08,-1.9747961971603918e-07,2.489462487011507e-07,3.5606430170720926e-07,-2.9091535728088926e-07,-1.0217082445826548e-06,-1.4033839804356095e-06,3.9675252456343943e-07,-3.1125702016601754e-08
-8.398258280338109e-08,1.977219582245249e-07,-5.537267978511597e-06,-1.1741523515095435e-05,-1.0517182596135063e-06,9.269256093042838e-08,8.845009759565091e-07,3.679098342216522e-07,-4.787418350721264e-06,7.243572459473458e-08,-2.0352504030530639e-07,3.859771963211132e-07,3.532938719701299e-07,-3.0104679656030206e-07,-9.891931721469691e-07,-1.48555829133536e-06,4.1573231542187006e-07,2.8518806721084657e-08
-7.458357847185477e-09,2.201483393564688e-07,-3.7686890047105585e-06,-1.4471413512193729e-05,-9.949262676429654e-07,1.07819299296601e-07,9.381906648130885e-07,5.013569392087366e-07,-8.272608058800107e-06,1.0427204359302269e-07,-1.8356869187862787e-07,5.298147997343333e-07,3.386785465996933e-07,-2.632200822971154e-07,-9.61876478498404e-07,-1.4990933316280307e-06,4.293569960712664e-07,6.910807530923534e-08
4.559997206335567e-08,2.3676293441324026e-07,-3.7882025700088767e-06,-1.7775671433586754e-05,-8.715321933944482e-07,1.1629514767077976e-07,9.79136794910363e-07,5.412808229841895e-07,-1.1075314974826055e-05,1.1578288915967984e-07,-1.6413525569802744e-07,6.312619294326416e-07,3.349747170141726e-07,-1.3654630640950627e-07,-9.40647112153273e-07,-1.472707616574515e-06,4.372246483834144e-07,9.789467429391937e-08
3.500504357856105e-08,2.435811356870195e-07,-5.319266840789781e-06,-2.1441842162922224e-05,-7.611258661115841e-07,1.1605197959310818e-07,1.005706529431256e-06,6.0913167921738e-07,-1.2365394127372236e-05,1.053227993751761e-07,-1.424135768096716e-07,6.269770236273421e-07,3.341826499309906e-07,-4.027857800933612e-08,-9.317940686866649e-07,-1.4580658199044938e-06,4.39449209794607e-07,1.2225521505510414e-07
3.951303694930049e-08,2.388633924698651e-07,-7.38144718277635e-06,-2.4936926509184064e-05,-7.225621112290415e-07,1.0783250947014567e-07,1.0181490919934842e-06,6.635437439597608e-07,-1.0756240575545155e-05,9.379497744456063e-08,-1.120907432005288e-07,5.811714646302722e-07,3.622870145925112e-07,7.043336710616564e-09,-9.795903499015037e-07,-1.443370082206732e-06,4.3688818288502175e-07,1.4195223329475113e-07
4.047665923998816e-08,2.245595326887784e-07,-9.084758931403155e-06,-2.754677318275094e-05,-7.193553485181877e-07,9.686106778009724e-08,1.0179750238747338e-06,6.553047878646885e-07,-7.409192705701101e-06,6.013293030815602e-08,-7.500169467393918e-08,5.231491896170613e-07,3.4865351488740897e-07,1.8176004981351493e-08,-9.95554784244272e-07,-1.39499883084392e-06,4.3176661572454633e-07,1.5433221428805046e-07
2.8321331111505206e-08,2.0598298866032487e-07,-9.940781147068102e-06,-2.858511469437578e-05,-7.237372464239372e-07,9.242498901688083e-08,1.0072800155568565e-06,5.930253553962042e-07,-3.425682870675473e-06,-2.741265900519201e-08,-3.509162060022297e-08,5.350740182838276e-07,2.8414362446896447e-07,-1.2992996873131225e-08,-9.597923179362233e-07,-1.3206436679252914e-06,4.2724522747222274e-07,1.6558334521157521e-07
2.4627150132625415e-08,1.8882702797419696e-07,-1.0028006356376096e-05,-2.762679077195479e-05,-7.366361150292986e-07,1.0427214623321665e-07,9.884447696855027e-07,5.8716709158999e-07,1.4543158108694244e-06,-1.402005099255737e-07,6.666491465581122e-09,5.397842725337475e-07,2.1623976158868077e-07,-5.7051424669397355e-08,-9.316343043294538e-07,-1.234597277464901e-06,4.257815904273398e-07,1.5876108324030027e-07
-3.47331701854404e-08,1.754471382615126e-07,-9.762668617194307e-06,-2.4641530629464942e-05,-6.935559703996634e-07,1.378529330054784e-07,9.643434688763627e-07,5.654591700524896e-07,6.009208172792841e-06,-2.397693295271666e-07,4.739448862612169e-08,5.205172708031472e-07,1.3449944913607114e-07,-1.0329119183013718e-07,-9.095510515079447e-07,-1.1748598853313725e-06,4.2760095139309285e-07,1.123043396783829e-07
-1.2143038188162366e-07,1.6358365478984894e-07,-9.537685260963788e-06,-2.0012367689039058e-05,-5.974866562112789e-07,1.9199556315505028e-07,9.38478931582167e-07,4.6601053052926064e-07,9.08244514225803e-06,-3.327814314867502e-07,8.261569528650452e-08,4.4883670466985726e-07,7.038461672237192e-08,-1.390616970285874e-07,-8.419951394033589e-07,-1.1336499342183724e-06,4.308007313749299e-07,5.9545091043092756e-08
-2.0042696312179486e-07,1.4857696479583515e-07,-9.48887249086244e-06,-1.442597021320066e-05,-5.393480412281006e-07,2.6029124290809054e-07,9.144585641487916e-07,5.833263401192578e-07,1.0858842563250486e-05,-3.928824914937132e-07,1.0740432359249844e-07,3.4723169181566595e-07,5.841831572121551e-09,-1.4034482905961184e-07,-8.161083898338819e-07,-1.1163923266298528e-06,4.330450037694098e-07,8.207841964261138e-09
-2.669647878734569e-07,1.2694530733630957e-07,-9.491175532529712e-06,-8.714388124232604e-06,-3.700681350322099e-07,3.340951072167506e-07,8.953161503903813e-07,7.306186074751877e-07,1.2110525030181278e-05,-4.2538582034535064e-07,1.1821578314001591e-07,2.4097774729978546e-07,-4.300620804281817e-08,-1.031434037597242e-07,-8.258527781485197e-07,-1.1085820228020416e-06,4.330268102337201e-07,-4.906514844373576e-08
-3.151144917012457e-07,9.828513253218038e-08,-9.311277357102195e-06,-3.723072024268934e-06,-1.0363580402561048e-07,4.046718360019231e-07,8.832413762226325e-07,9.778908159138476e-07,1.338491803384615e-05,-4.357348181832859e-07,1.1425120570674216e-07,1.3593003361772947e-07,-1.1205260217773924e-07,-2.3634933741654698e-08,-8.067467263027493e-07,-1.0888875904786437e-06,4.303434429976535e-07,-8.085430383776458e-08
-3.2936944167208917e-07,6.448654391304677e-08,-8.779232827603507e-06,-1.7204159667871555e-07,2.554806785010591e-07,4.6414546134942765e-07,8.792407351688122e-07,1.076301942317145e-06,1.5014007578160063e-05,-4.2137700695814363e-07,9.777868973703812e-08,7.166721217399788e-08,-1.950755034103249e-07,9.425463229512095e-08,-7.306834318971111e-07,-1.049696128741717e-06,4.245388309267563e-07,-8.707156056673296e-08
-3.2063478168265346e-07,2.788804427627461e-08,-7.886192420055467e-06,1.4793004675035277e-06,5.78609465477969e-07,5.062833538925112e-07,8.824756101411744e-07,1.197163766313966e-06,1.6942733928488426e-05,-3.9369832037228224e-07,7.361643428564036e-08,4.2956759730353263e-08,-2.652986266780248e-07,2.3467921556164726e-07,-6.264394565922968e-07,-9.8657086191769e-07,4.151019427819494e-07,-7.704667192822043e-08
-2.9946931818799164e-07,-9.485313297333399e-09,-6.756020560991282e-06,1.1319992690594186e-06,7.649538842423352e-07,5.278112187790744e-07,8.902686382246714e-07,1.3847526839117876e-06,1.8755849649440962e-05,-3.5886225680162997e-07,4.826163226903756e-08,3.023263438270055e-08,-3.34805784239552e-07,3.7666916873037173e-07,-5.083799246064291e-07,-9.117701050412361e-07,4.02865062356953e-07,-5.430556274246028e-08
-2.7152611830121873e-07,-4.529229548390827e-08,-5.5034931987144105e-06,-8.854627971993084e-07,9.34842845202639e-07,5.298104766811985e-07,8.994849360835543e-07,1.5651089995850528e-06,1.9803515254629236e-05,-3.236693434334258e-07,2.8724898044308192e-08,2.7951844419435046e-08,-3.8945013096754126e-07,5.002606389955809e-07,-4.249045773674206e-07,-8.399199422367968e-07,3.9094041167662356e-07,-3.038897273429315e-08
-2.453022026513003e-07,-7.622476275323812e-08,-4.097440713906276e-06,-3.81993437496022e-06,1.0921210918101644e-06,5.176693734993428e-07,9.08064714449288e-07,1.7473868851443075e-06,1.9508911835598293e-05,-2.947734476762153e-07,2.0733719650404395e-08,2.5391027528662866e-08,-4.3989068760326815e-07,5.923760987115535e-07,-3.641798941986693e-07,-7.81817916644894e-07,3.833521784119848e-07,-1.0935750091771208e-08
-2.217123965937333e-07,-9.851140786529624e-08,-2.3866807779358575e-06,-6.6087624917039205e-06,1.3321124792081626e-06,4.987215006857742e-07,9.148485439883617e-07,1.9631099230309646e-06,1.7524514154825666e-05,-2.7566218613369066e-07,2.6617159664536036e-08,2.580678530423981e-08,-4.784944528325857e-07,6.490388939627581e-07,-2.765124714120982e-07,-7.438135129927317e-07,3.822468814181174e-07,6.318122532112169e-10
-2.026553965744791e-07,-1.095044777960903e-07,-3.0207440415889316e-07,-8.258522775705466e-06,1.3924158001110241e-06,4.791548410651836e-07,9.179552979074656e-07,1.999284740773413e-06,1.3844425372577536e-05,-2.6828016932786744e-07,4.419837167805463e-08,3.0465706060545884e-08,-5.129544754066704e-07,6.738840803858419e-07,-1.7872788044403418e-07,-7.261777268669371e-07,3.8637557093987794e-07,6.395459463454708e-10
-1.9294692580011617e-07,-1.0917110967383614e-07,1.9525069960196502e-06,-8.357581855519376e-06,1.4880144440550826e-06,4.6270732297188774e-07,9.140853142382676e-07,2.0473645575490922e-06,8.940311602327771e-06,-2.7244350648904234e-07,6.77882302770596e-08,3.6090828199207366e-08,-5.572216951682852e-07,6.750428520686539e-07,-1.464233345972448e-07,-7.246748911921181e-07,3.922190102632271e-07,-1.1251497364910346e-08
-1.9645417394109017e-07,-1.0031209863564679e-07,3.908869225789736e-06,-7.339976212616579e-06,1.6588938393044983e-06,4.5149184981501977e-07,9.001681568569993e-07,2.2455339260628617e-06,3.7652344803978104e-06,-2.8416887404637206e-07,9.086301652107908e-08,4.050517659880169e-08,-6.117283926863876e-07,6.619033968018686e-07,-1.0342136699906304e-07,-7.321910745732292e-07,3.9650065170240934e-07,-3.1287389234629995e-08
-2.1385168009712263e-07,-8.761738264278124e-08,5.010269666026204e-06,-6.252575194846438e-06,1.802180526266683e-06,4.4691903305226873e-07,8.759532704615409e-07,2.464266223506422e-06,-4.4610764369379764e-07,-2.9602652945419266e-07,1.0864687245770245e-07,4.175104386225676e-08,-6.86424086977903e-07,6.420260145312449e-07,-6.047033643690329e-08,-7.41454889444279e-07,3.976943369274869e-07,-5.317888861276549e-08
-2.4209608161071356e-07,-7.657597393600337e-08,4.7852077590857615e-06,-6.141292483375973e-06,2.0034193904816212e-06,4.491307245344645e-07,8.449320529314603e-07,2.699891561334646e-06,-2.596695018118769e-06,-3.008539010103996e-07,1.1891218057468385e-07,3.698270636211307e-08,-7.56280791124233e-07,6.187644337836326e-07,6.232945966611539e-09,-7.462278580564471e-07,3.9548416299875455e-07,-7.128371815484199e-08
-2.7637509141197954e-07,-7.262049565549664e-08,2.976834679168375e-06,-7.44678411167771e-06,2.259734640991258e-06,4.5582914791909396e-07,8.12653444588193e-07,2.930952158350366e-06,-2.1952938467280704e-06,-2.9613722923132524e-07,1.210337903183349e-07,2.1924182031856013e-08,-8.102375325181743e-07,5.910543835409439e-07,9.749908747121112e-08,-7.451967349395307e-07,3.8952014357778727e-07,-8.328531421567804e-08
-3.1037809116950025e-07,-7.982823294189792e-08,-3.294552132229781e-07,-9.840331235648269e-06,2.3413515348616907e-06,4.625680777662686e-07,7.840813002559521e-07,3.1086965838275258e-06,3.776883333044454e-07,-2.8493675805746325e-07,1.1502037516149089e-07,-6.924069820800392e-09,-8.573931573553114e-07,5.559563975235058e-07,1.441479285474645e-07,-7.380621041865788e-07,3.794639642226811e-07,-9.041146216023109e-08
-3.412104852961299e-07,-9.876392665132841e-08,-4.642065406772146e-06,-1.2488888296968876e-05,2.464996876833575e-06,4.6498364015794226e-07,7.622144405352924e-07,3.27280810633065e-06,4.0192907510773415e-06,-2.724726519398379e-07,1.017500032875882e-07,-4.84870093826801e-08,-8.922367053032186e-07,5.125180531389287e-07,1.8196177907052716e-07,-7.261804602786662e-07,3.662843611085836e-07,-9.598176326984583e-08
-3.6828160109344144e-07,-1.2477722697742502e-07,-9.169482586772426e-06,-1.4479700722090603e-05,2.626613546920303e-06,4.611828716422812e-07,7.482894950398095e-07,3.5635395904636913e-06,7.426048614519023e-06,-2.6188237246154914e-07,8.354012545355038e-08,-9.529762356806621e-08,-9.053739566362761e-07,4.6443798771600743e-07,2.076622317007511e-07,-7.130248004238257e-07,3.5298494251222873e-07,-1.0120353388980868e-07
-3.88035410082578e-07,-1.491133838747664e-07,-1.3078976367501733e-05,-1.5200138312808564e-05,2.57654048862935e-06,4.5213597392740687e-07,7.421588585063198e-07,3.6685045436966327e-06,9.69091831736554e-06,-2.530951021198118e-07,6.34538127519356e-08,-1.3649815300811625e-07,-9.062016765175895e-07,4.1943278008999076e-07,2.224455222498369e-07,-7.020159430230587e-07,3.430398232016894e-07,-1.0684693672548931e-07
-3.9956226733162783e-07,-1.634574682445881e-07,-1.575242468858374e-05,-1.4558259445582394e-05,2.468547122098186e-06,4.3968214279626107e-07,7.417865860830817e-07,3.5947113717501357e-06,1.0595509631789036e-05,-2.4518019418969366e-07,4.3397011402246366e-08,-1.6373696621133828e-07,-9.039562963619537e-07,3.8539710251848403e-07,2.130958949718505e-07,-6.96800001560669e-07,3.3746208824702325e-07,-1.1361489484822863e-07
-4.03703825554102e-07,-1.651266288619709e-07,-1.6889890821803026e-05,-1.297590000973631e-05,2.3680878099916964e-06,4.2416081606032267e-07,7.423871796063098e-07,3.5127426421947627e-06,1.0427602706912389e-05,-2.3907584797918837e-07,2.2846046262184798e-08,-1.7528897642998851e-07,-9.000050360703761e-07,3.663652014451325e-07,2.264333386870571e-07,-6.95132248406622e-07,3.334947447868928e-07,-1.2221144489599005e-07
-4.088289649467129e-07,-1.5876185501701467e-07,-1.6449319550063915e-05,-1.1143152637003075e-05,2.333503888585206e-06,4.043414915107498e-07,7.369333311763084e-07,3.4305429848023305e-06,9.567996379524101e-06,-2.3760145911187548e-07,-2.861505282290737e-10,-1.753777080570592e-07,-9.063408746764516e-07,3.6142564210469e-07,2.3394735304664545e-07,-7.040236414271312e-07,3.266093950523215e-07,-1.3365038442197998e-07
-4.2157054578838846e-07,-1.531513762218817e-07,-1.4542334343245493e-05,-9.688339033969935e-06,2.3343341357423952e-06,3.7981463909103635e-07,7.189645497596067e-07,3.413092180111965e-06,8.237994206230524e-06,-2.429930601952785e-07,-2.7293008231270214e-08,-1.701242076722893e-07,-9.244164817965503e-07,3.662917344363451e-07,2.0936451528703377e-07,-7.208390879871624e-07,3.140745818549528e-07,-1.4769300369356816e-07
-4.4469348788982255e-07,-1.560963224811713e-07,-1.1406938941531414e-05,-8.902595305737716e-06,2.3856891847060795e-06,3.5297317529077523e-07,6.858997894856176e-07,3.448013000329654e-06,6.514801058604325e-06,-2.5504736889775945e-07,-5.708999411823607e-08,-1.6449263892607068e-07,-9.476959435621586e-07,3.748391927984394e-07,2.1014032302200436e-07,-7.430830743081249e-07,2.965100627035084e-07,-1.631331814122775e-07
-4.770219140161437e-07,-1.7137840114945294e-07,-7.457370435486253e-06,-8.640017591799469e-06,2.4416185731472253e-06,3.2815103978713104e-07,6.398704583042484e-07,3.4801853660700846e-06,4.577875374342222e-06,-2.7191897043203375e-07,-8.688364409143182e-08,-1.6243392180526609e-07,-9.779651057764812e-07,3.785295152068284e-07,2.014703029295653e-07,-7.709096020780624e-07,2.7596565579346713e-07,-1.7918295465277146e-07
-5.134535186386171e-07,-1.9918413702651858e-07,-3.301768588800183e-06,-8.456290166631142e-06,2.4837373982522396e-06,3.086549146136396e-07,5.854997392362984e-07,3.53347406865088e-06,2.7889684607052602e-06,-2.922480019659652e-07,-1.1432762765599584e-07,-1.6804508287207301e-07,-1.0171768247328404e-06,3.671025719201938e-07,1.89296010105405e-07,-8.007847006624878e-07,2.5272966817128454e-07,-1.971423127139324e-07
-5.519669369945561e-07,-2.3806731814606162e-07,3.821944676384611e-07,-7.977964945022176e-06,2.562008636956261e-06,2.9450748598236524e-07,5.270789382413413e-07,3.592842298600608e-06,1.5002035117184891e-06,-3.1566732380659114e-07,-1.391019031735229e-07,-1.849273077450032e-07,-1.0639607885905465e-06,3.319712861638886e-07,1.8207747738536863e-07,-8.315195636160216e-07,2.2444153016865848e-07,-2.1916774140475142e-07
-5.930946456185321e-07,-2.857563301259362e-07,3.093100974299253e-06,-7.27565355760446e-06,2.636635032183612e-06,2.8286958828362134e-07,4.6777902649722744e-07,3.6863621588691864e-06,8.003050752291966e-07,-3.4070059787544007e-07,-1.6253004111171163e-07,-2.1308453198160157e-07,-1.1131498015085955e-06,2.715907201450852e-07,1.6918399923218432e-07,-8.606177677096754e-07,1.8849176337779933e-07,-2.460774727049713e-07
-6.382130840551888e-07,-3.3842741471960217e-07,4.6669128493542864e-06,-6.911982322017756e-06,2.6901142128909573e-06,2.7037306672247284e-07,4.111390507744667e-07,3.790118014269861e-06,4.88541847446064e-07,-3.625369280708397e-07,-1.8570766609649393e-07,-2.4655623059534287e-07,-1.157042378063408e-06,1.9418099569694354e-07,1.4701787740037575e-07,-8.856734706117564e-07,1.4520935702941283e-07,-2.756391206823964e-07
-6.855069860398145e-07,-3.905109957579095e-07,5.217298595775723e-06,-7.58704008863461e-06,2.7209975529289862e-06,2.5501591620236287e-07,3.62778516046891e-07,3.875226601879852e-06,3.0435780746993975e-07,-3.739220000400464e-07,-2.0799579563199458e-07,-2.7511927112644544e-07,-1.1910452517306553e-06,1.1536721806006795e-07,1.2880659558433993e-07,-9.021176900984568e-07,9.87690473784636e-08,-3.029514940514506e-07
-7.311352840086417e-07,-4.362378317278017e-07,4.874531982212593e-06,-9.631559478846521e-06,2.736689529588547e-06,2.365063893968182e-07,3.29989752073966e-07,3.938288866878696e-06,2.1641727100546741e-07,-3.691963825767753e-07,-2.2730868847191175e-07,-2.89487066749844e-07,-1.2093569172552272e-06,5.109632484038928e-08,1.2451170926582562e-07,-9.086751747589005e-07,5.510909258229366e-08,-3.2348692873177386e-07
-7.717330298970636e-07,-4.715804206157401e-07,3.664380580135301e-06,-1.2706352310243777e-05,2.716935054610474e-06,2.1574808919693112e-07,3.1860932242171515e-07,3.97521667151383e-06,2.2308406226985837e-07,-3.4796987421726705e-07,-2.4178492292728794e-07,-2.860682985762295e-07,-1.2085771863059434e-06,1.0798045858986666e-08,1.2116696713080275e-07,-9.072961736223776e-07,1.8826689795387837e-08,-3.3575719215844314e-07
-8.052137246356884e-07,-4.947699026618946e-07,1.59420864505828e-06,-1.5918350513590767e-05,2.691619017038681e-06,1.9442022328407908e-07,3.292304728527902e-07,4.003996701855482e-06,3.4257278670271894e-07,-3.149987698215075e-07,-2.5110579694761496e-07,-2.673554830625788e-07,-1.1944623572999603e-06,-3.959325078029658e-09,1.2585288043220713e-07,-9.011017331135293e-07,-8.397095384214905e-09,-3.4144353390015575e-07
-8.318667370458226e-07,-5.052106638992243e-07,-1.1797098627544352e-06,-1.8232110853803646e-05,2.67434179049204e-06,1.74997173121411e-07,3.559345915512867e-07,4.033736799434855e-06,6.110190095000599e-07,-2.7655124154959386e-07,-2.562787051434111e-07,-2.3829996392031586e-07,-1.1764030636983237e-06,3.7535020055790505e-09,1.3366458388655942e-07,-8.934830207235579e-07,-2.7249801304295238e-08,-3.427620378211399e-07
-8.533891957620735e-07,-5.021942521265822e-07,-4.3305468042054125e-06,-1.8889026054866152e-05,2.6502560073748875e-06,1.608375378664328e-07,3.885466604263269e-07,4.068499881536281e-06,1.045093663490056e-06,-2.3695608168324102e-07,-2.583405142930838e-07,-2.0267114997833757e-07,-1.1585401393015298e-06,3.019871899123803e-08,1.4154113388219322e-07,-8.870792361764588e-07,-3.949232531487061e-08,-3.4134505097481757e-07
-8.703940045183851e-07,-4.8491374214957e-07,-7.477755626363225e-06,-1.765117519065831e-05,2.6330909216691766e-06,1.5550075442986005e-07,4.1641237460786064e-07,4.098188487175911e-06,1.790273246735346e-06,-1.9827722265519193e-07,-2.5740277598452193e-07,-1.6265200284306725e-07,-1.1433557446539578e-06,7.191461674099689e-08,1.54269202001958e-07,-8.829395834348937e-07,-4.718520864344402e-08,-3.377716986558612e-07
-8.834967647009119e-07,-4.5383953299240385e-07,-1.0246092566327982e-05,-1.4830519542282895e-05,2.6216156660370017e-06,1.6106620690304472e-07,4.3130683429578276e-07,4.120622153311107e-06,2.949417250427792e-06,-1.621839052556216e-07,-2.5303140543173973e-07,-1.206905153669478e-07,-1.132319360195218e-06,1.241249698433212e-07,1.7045967291548478e-07,-8.824087786503302e-07,-5.218568750054956e-08,-3.326364959591578e-07
-8.927416783219544e-07,-4.1199512932502734e-07,-1.2264940180502715e-05,-1.1137106522213898e-05,2.6111214771687092e-06,1.766640937782741e-07,4.289198947952086e-07,4.143105557103659e-06,4.581269038197967e-06,-1.3084876325675273e-07,-2.455275651933059e-07,-8.017701550172127e-08,-1.1221529563714937e-06,1.8040706244025458e-07,1.8733722566067757e-07,-8.832254600124782e-07,-5.5156078876285666e-08,-3.2726282442976885e-07
-8.993789758332763e-07,-3.646855263348625e-07,-1.3169235991291174e-05,-7.4188753078393535e-06,2.608153376942525e-06,1.9864353332452952e-07,4.0972983476479064e-07,4.165432215972685e-06,6.6125264798718195e-06,-1.0559722646867941e-07,-2.3662821763544948e-07,-4.370353801255321e-08,-1.1120725030534484e-06,2.3357112629891756e-07,2.1104948096463608e-07,-8.8435646574107e-07,-5.4900061043805346e-08,-3.225222016361058e-07
-9.042722762959395e-07,-3.1841503548435626e-07,-1.2645042347535606e-05,-4.410574223278691e-06,2.6096414234335356e-06,2.2219507228832367e-07,3.7935645308596074e-07,4.177991047410126e-06,8.581892815877007e-06,-8.537541718989477e-08,-2.288894146062775e-07,-1.1249542164571015e-08,-1.1018999618745788e-06,2.7820573312085464e-07,2.3750642894235605e-07,-8.847872099487735e-07,-4.920393649199496e-08,-3.180851000010815e-07
-9.068020072909068e-07,-2.78541930939744e-07,-1.0359055991146981e-05,-2.5831019241785567e-06,2.6099930164270826e-06,2.4316510421932256e-07,3.4705674181852237e-07,4.192065153025509e-06,9.952125978753736e-06,-6.753157919971997e-08,-2.246067153033186e-07,1.9070293325036905e-08,-1.0882323565439456e-06,3.1170727824170345e-07,2.5836708250901276e-07,-8.808826127932007e-07,-3.707744337165241e-08,-3.129377561890149e-07
-9.062839246612521e-07,-2.4924945955955884e-07,-6.466606676048891e-06,-2.126020064100749e-06,2.608691602399774e-06,2.592410600737253e-07,3.218574040133968e-07,4.2118779329222514e-06,1.0365840382359093e-05,-5.04371336836756e-08,-2.2531888534614082e-07,4.8615569967136914e-08,-1.0713111463163429e-06,3.339747867159451e-07,2.762614189181387e-07,-8.712304053146536e-07,-2.0482609240375136e-08,-3.067619331694685e-07
-9.025104170568786e-07,-2.3461602899428254e-07,-1.3403456070451944e-06,-3.011997853463803e-06,2.6050757427129452e-06,2.7013162129978497e-07,3.085634988886634e-07,4.2318779817725505e-06,9.753458970042832e-06,-3.4939571912131876e-08,-2.3174118784766552e-07,7.682935723586562e-08,-1.052365930230743e-06,3.4746613689156744e-07,2.9049774413196115e-07,-8.55776896293705e-07,-3.530850014269824e-09,-3.001387957421744e-07
-8.964907558667679e-07,-2.3568866633250352e-07,4.298159460907841e-06,-5.0256245977591e-06,2.595311840517217e-06,2.768639320049815e-07,3.066993774747097e-07,4.250965392025962e-06,8.341256215374297e-06,-2.281143814558914e-08,-2.433255713473009e-07,1.0251426517941984e-07,-1.033560215805902e-06,3.570800559119629e-07,3.048947421814111e-07,-8.358091808625698e-07,1.0862899907698334e-08,-2.9368527076019023e-07
-8.890264592710089e-07,-2.482966082320159e-07,7.923613169987419e-06,-7.744448709673209e-06,2.5794278852084523e-06,2.8108420900542275e-07,3.1279407600759153e-07,4.2691433703842505e-06,6.507335970140098e-06,-1.39754084141793e-08,-2.574669657599625e-07,1.2579254761741914e-07,-1.0163254503863363e-06,3.6941224132970816e-07,3.2374559000776344e-07,-8.133776111268977e-07,2.2254294774033335e-08,-2.870246534237594e-07
-8.797263690018747e-07,-2.633686641682219e-07,8.697191851206449e-06,-1.0601040995354352e-05,2.564974833041722e-06,2.8471259613149377e-07,3.235563481999091e-07,4.283818553602588e-06,4.498823521419033e-06,-5.8609453242677845e-09,-2.695412568250974e-07,1.478286324929307e-07,-1.0000286217194686e-06,3.895953800298271e-07,3.4557580331822056e-07,-7.941129855347095e-07,3.248829883111962e-08,-2.790280444782818e-07
-8.668525239293427e-07,-2.7015471666792675e-07,1.0839353776058774e-05,-1.3054919479301885e-05,2.5551430441299647e-06,2.892741170157738e-07,3.3752454072955384e-07,4.297512881741775e-06,2.4170774103013643e-06,4.2688820668888606e-09,-2.7472638221044256e-07,1.6842328642377368e-07,-9.87362756364505e-07,4.175616147071265e-07,3.6519248835372093e-07,-7.664399655034184e-07,4.4620137299148405e-08,-2.692109814826829e-07
-8.529291290665149e-07,-2.611264278293296e-07,8.200347095271263e-06,-1.4734406570363058e-05,2.556318848373231e-06,2.950089402768265e-07,3.5485604727945634e-07,4.3162565671025115e-06,6.084169265703147e-07,1.6712519733434898e-08,-2.7069663567484796e-07,1.844152396442037e-07,-9.78064552310768e-07,4.4645786649055577e-07,3.785939218462368e-07,-7.349184986185745e-07,6.042535310598248e-08,-2.5863514744744814e-07
-8.366642612872545e-07,-2.360976823190177e-07,2.714886755693517e-06,-1.5465711620738704e-05,2.569043090170696e-06,3.009530371109007e-07,3.7664382972514367e-07,4.3346033450081405e-06,-5.246117095264505e-07,2.9428792261017575e-08,-2.588787601267352e-07,1.913654285093112e-07,-9.727102084124201e-07,4.655152242884383e-07,3.896214390711839e-07,-7.043586304087719e-07,8.059914944968064e-08,-2.468393313567714e-07
-8.129663386137903e-07,-1.997591064428123e-07,-2.3491962358898592e-06,-1.5244846610213717e-05,2.5908384125904445e-06,3.0618098167427705e-07,4.049111974990701e-07,4.348128751411112e-06,-5.822425446103019e-07,4.0554394959098034e-08,-2.4312502185316967e-07,1.851350352736219e-07,-9.71492671289502e-07,4.6606061727923325e-07,3.9431983637890636e-07,-6.739862845110038e-07,1.0542246844245603e-07,-2.3533969266718743e-07
-7.83333188483572e-07,-1.6011824192110683e-07,-5.726194963081124e-06,-1.4222632814507755e-05,2.6137331263862082e-06,3.108716045944276e-07,4.425999675141396e-07,4.3458729561529436e-06,7.84743368205636e-07,5.029642339358806e-08,-2.2718597578213476e-07,1.705276523970535e-07,-9.703178009095226e-07,4.4638922524053423e-07,3.814329314556171e-07,-6.460086236111161e-07,1.3391548532215e-07,-2.2266566071980225e-07
-7.482393797659426e-07,-1.2551896956952266e-07,-7.330886731849834e-06,-1.2720734498940232e-05,2.657533429387989e-06,3.1611999040723567e-07,4.921997659589709e-07,4.299799111514735e-06,3.5571786608446834e-06,6.027095428240324e-08,-2.131193570073278e-07,1.5292043992702565e-07,-9.663282874255303e-07,4.125489697771494e-07,3.633152474163539e-07,-6.1763290115257e-07,1.62753648691214e-07,-2.0662747666454282e-07
-7.139202526353315e-07,-1.0085332921884323e-07,-7.068005429756854e-06,-1.1239309125679629e-05,2.7117169626704496e-06,3.230099071947951e-07,5.534434269491763e-07,4.2867428873921485e-06,7.4995097996402455e-06,7.168437978908072e-08,-2.0123683492067566e-07,1.371145003324776e-07,-9.57035424081475e-07,3.749843591013276e-07,3.4161368222408555e-07,-5.989292936312631e-07,1.8690097424286142e-07,-1.8715519457394045e-07
-6.79478823216642e-07,-8.898079350176759e-08,-5.5805667963437326e-06,-1.0368113848620354e-05,2.768584919219325e-06,3.322945445471373e-07,6.223326878944863e-07,4.282638338418776e-06,1.197604054369437e-05,8.49523200114851e-08,-1.9065604322540418e-07,1.2786534349528233e-07,-9.487579080553328e-07,3.4349988755824626e-07,3.4058472947340385e-07,-5.752478618367621e-07,2.0232680794654822e-07,-1.6436483012487767e-07
-6.470099821893919e-07,-8.791575538898891e-08,-3.89254913694746e-06,-1.0571836108370006e-05,2.8361628451895167e-06,3.4489224852803453e-07,6.92969529463484e-07,4.281287804634856e-06,1.5757309972169675e-05,1.0096172952506373e-07,-1.7964355869545262e-07,1.274341855180958e-07,-9.401338159322639e-07,3.2356604395450123e-07,3.5714406484869144e-07,-5.611693896337752e-07,2.0907751800034325e-07,-1.3906314877020006e-07
-6.161235481016708e-07,-8.724306426106591e-08,-2.9546301477597723e-06,-1.1967659943720323e-05,2.9034736948493486e-06,3.619098976069246e-07,7.607532704212527e-07,4.298300238427163e-06,1.8084251547821904e-05,1.21606318093138e-07,-1.660152741352914e-07,1.377660408888825e-07,-9.300941271114257e-07,3.146528419802302e-07,3.8545584104597913e-07,-5.390842155663022e-07,2.1211196972283312e-07,-1.1185135443514325e-07
-5.82607247303508e-07,-7.917337950966016e-08,-3.23762394161959e-06,-1.424134771263028e-05,2.9523130036123086e-06,3.83501569229025e-07,8.239277672493486e-07,4.289753352118861e-06,1.8749716750235203e-05,1.4815708362153298e-07,-1.4814008849120846e-07,1.5879251445186828e-07,-9.137525305491115e-07,3.113135069450235e-07,4.19143044839147e-07,-5.035803650304105e-07,2.1947782479851154e-07,-8.386748417000925e-08
-5.465962305167031e-07,-6.268544610183105e-08,-4.489991392641051e-06,-1.672898039438194e-05,2.9757328350970115e-06,4.0777528527430385e-07,8.824418847766933e-07,4.237102117398408e-06,1.8159866643577655e-05,1.7920781137850962e-07,-1.2608614060531226e-07,1.8715584073677074e-07,-8.888114971820706e-07,3.059482604257675e-07,4.450131574874762e-07,-4.672304375768693e-07,2.3530325612650075e-07,-5.617549287477494e-08
-5.078216659886534e-07,-3.854866656253789e-08,-6.180642838993088e-06,-1.8614070795762077e-05,2.9985130439225817e-06,4.3133962053360105e-07,9.36313038542792e-07,4.231722493869322e-06,1.7266239474468213e-05,2.109713936976078e-07,-1.0162795806505468e-07,2.1531582033545583e-07,-8.794149087244282e-07,2.9266126954928866e-07,4.935200449581993e-07,-4.2791990550510677e-07,2.6083302029614107e-07,-2.987518947349424e-08
-4.687293159291782e-07,-3.356341000346476e-09,-7.820043710862888e-06,-1.9180064226686e-05,3.0141455284670777e-06,4.5136239915013215e-07,9.859159101179054e-07,4.307067567760956e-06,1.7020371696208873e-05,2.399282784740512e-07,-7.680883932978378e-08,2.329365668966426e-07,-8.926111177324215e-07,2.7096581296329785e-07,5.407424252695713e-07,-3.8690025829913894e-07,2.9502575074652937e-07,-6.059111619416659e-09
-4.3148360550224077e-07,1.6056767757137127e-08,-9.007187960525959e-06,-1.804734898880066e-05,3.166443582561522e-06,4.675699250115364e-07,1.0352571954735604e-06,4.449958496558051e-06,1.7776319211244098e-05,2.6472440582165806e-07,-5.268042819449202e-08,2.3428675577787509e-07,-9.59709447354599e-07,2.47223704790736e-07,6.365561812427406e-07,-3.1767611389765016e-07,3.38126630899669e-07,1.5798978555109786e-08
-3.989204667976738e-07,5.495235938460985e-09,-9.71025920446987e-06,-1.5305733021846835e-05,3.4178426471315314e-06,4.828480719537408e-07,1.088423588366993e-06,4.6365007937964755e-06,1.8840007492355097e-05,2.8504651935656477e-07,-2.989721406946062e-08,2.1401905264289595e-07,-1.0580645064160133e-06,2.3253958880847117e-07,7.755565454927539e-07,-1.9716460492200735e-07,3.907717458104294e-07,3.655655907618994e-08
-3.716614902931071e-07,-4.071729830799418e-08,-1.003044839509288e-05,-1.1490910270296151e-05,3.6062790500026852e-06,5.018620136265596e-07,1.1491558493047178e-06,4.775480366480834e-06,2.042534400191414e-05,3.00684841829304e-07,-1.0545713984272291e-08,1.6881540668301869e-07,-1.112426798680012e-06,2.3805554898990443e-07,8.478014790134143e-07,-3.87138655903619e-08,4.491133010698865e-07,5.630860138402961e-08
-3.48984405401985e-07,-1.1680726075793325e-07,-1.0172443585297742e-05,-7.442574226968496e-06,3.7243097410638423e-06,5.281351276895654e-07,1.2140701046779155e-06,4.7764996181982786e-06,2.1276744920307287e-05,3.0692101145953503e-07,1.0849503441572753e-09,9.456248389304693e-08,-1.1356482501916388e-06,2.7013615811166197e-07,9.180723363951371e-07,7.462162343786169e-08,5.07585330260972e-07,7.539171782874564e-08
-3.323910118838793e-07,-1.892807444468697e-07,-1.0172586008413338e-05,-4.103501501352391e-06,3.817118221178421e-06,5.61499824177969e-07,1.2788487838291438e-06,4.758987695754265e-06,1.9142128006286635e-05,3.002994965851508e-07,1.5692130868613667e-10,-6.610299459567841e-09,-1.1561689666801093e-06,3.276461258861936e-07,1.0121389178671608e-06,1.379168520457343e-07,5.495576272982799e-07,9.701249771526834e-08
-3.223357559494623e-07,-2.3822256677832197e-07,-9.947454624194815e-06,-2.2750917690343884e-06,3.820826072678265e-06,5.977873000473814e-07,1.3386342431505652e-06,4.714953221364225e-06,2.0233675650966572e-05,2.8249014688968464e-07,-1.5578036660170985e-08,-1.0374243367292809e-07,-1.1599268544675132e-06,4.0246076847328204e-07,1.0798708177502717e-06,1.9013157834599028e-07,5.647199788561967e-07,1.2066425329664835e-07
-3.1555688060907186e-07,-2.6950914016175157e-07,-9.37934398666676e-06,-2.374535570946876e-06,3.840409902269368e-06,6.306071909788476e-07,1.3837887472288386e-06,4.741572876132938e-06,2.287877263998098e-05,2.600730779386344e-07,-4.359409744141699e-08,-1.978234707601207e-07,-1.2209424754625673e-06,4.818931741629288e-07,1.2143303911316757e-06,2.2463370362533246e-07,5.490972595806963e-07,1.52644736554543e-07
-3.0853614203385666e-07,-3.1296790452479403e-07,-8.40703234424119e-06,-4.28520862732185e-06,3.875565724377677e-06,6.536134147420174e-07,1.408754450077155e-06,4.640340338879675e-06,2.0619340497885184e-05,2.4307965775784197e-07,-7.717553474835604e-08,-2.4249745868493503e-07,-1.2398945565151264e-06,5.514564473328839e-07,1.4046484906573666e-06,2.701988439747469e-07,5.487030185985879e-07,1.9802572660357327e-07
-2.9862663813349266e-07,-3.503877036192023e-07,-7.245516915667843e-06,-7.359371169260963e-06,3.817825332846856e-06,6.620279526848328e-07,1.4090864279858667e-06,4.503309756152657e-06,1.7149513986929096e-05,2.389966293303332e-07,-1.0827710152159912e-07,-2.2544452864090356e-07,-1.2111025775184819e-06,5.978791608132687e-07,1.5204771639770992e-06,3.628826644834113e-07,5.535281984226513e-07,2.554028839795112e-07
-2.8868500382686483e-07,-3.438909392390407e-07,-6.286382735273885e-06,-1.0595912022857463e-05,3.7856809822432885e-06,6.535129292407907e-07,1.387183787845855e-06,4.3951950054863895e-06,1.4000027451886028e-05,2.536461759810758e-07,-1.303930171695762e-07,-1.596270284065599e-07,-1.1666004963245696e-06,6.129303080346704e-07,1.63466303125541e-06,4.6405345569500606e-07,5.571866933648597e-07,3.228275008236457e-07
-2.814196536385663e-07,-3.4283345169833116e-07,-6.0151490083467305e-06,-1.2998031399339656e-05,3.7414409612117766e-06,6.291451930951433e-07,1.3553469488066763e-06,4.274438637454539e-06,1.1742052172376859e-05,2.900894432949501e-07,-1.3974612485502196e-07,-6.793450505770823e-08,-1.1163312947287313e-06,5.97996640884024e-07,1.7275545242330111e-06,5.773203370678969e-07,5.393284745549438e-07,3.9582771158787207e-07
-2.76497374707749e-07,-3.145797440278586e-07,-6.833287522699148e-06,-1.3979675093575947e-05,3.6504799150983373e-06,5.942072413136834e-07,1.3487707648455118e-06,4.124043706717209e-06,9.201219727935166e-06,3.501729299028436e-07,-1.3519742320095964e-07,3.721393261326453e-10,-1.0560398785425697e-06,5.661308439139725e-07,1.8278556860305549e-06,6.951284739452548e-07,5.0944506551942e-07,4.699464791656461e-07
-2.6949068496461637e-07,-2.669817512496064e-07,-8.525171777500943e-06,-1.3571441917225386e-05,3.589099977529249e-06,5.574554145602545e-07,1.3990371997926992e-06,4.0227121436496024e-06,8.712051486852436e-06,4.336043086905445e-07,-1.1815506955495056e-07,5.854901955351051e-08,-1.022807563443754e-06,5.388476849758085e-07,1.9463253192770246e-06,7.89989675770474e-07,4.909508243560672e-07,5.411712372023678e-07
-2.5285850196837356e-07,-2.43228587403577e-07,-1.1303997342261866e-05,-1.2306237893243394e-05,3.501926958924826e-06,5.286717564046665e-07,1.5111384595364443e-06,3.859734655959495e-06,8.150694802643508e-06,5.355494039458607e-07,-9.248881100686599e-08,8.118254659518455e-08,-9.766524490685515e-07,5.379868779727085e-07,2.001444381805051e-06,8.803877213455513e-07,4.963918428800774e-07,6.062573575775677e-07
-2.221070233071608e-07,-1.9793317578952177e-07,-1.4400630919176848e-05,-1.088923583979183e-05,3.3819989690485756e-06,5.160835616143906e-07,1.6195423899697969e-06,3.6796930438486414e-06,7.716555335549043e-06,6.480697166407334e-07,-6.339994361671316e-08,1.541066023901194e-07,-8.8486199159375e-07,5.772105365705073e-07,2.0198336241012722e-06,9.756781799513255e-07,5.085635018392769e-07,6.54444768078042e-07
-1.7728622541742619e-07,-1.2237961713230242e-07,-1.666437269876131e-05,-9.865487573905754e-06,3.263536948322492e-06,5.248959788376427e-07,1.6883919321154647e-06,3.4751956857676377e-06,6.958615963269298e-06,7.629818859637437e-07,-3.5270536207734575e-08,2.899472030954641e-07,-8.019763381029348e-07,6.582994786974938e-07,2.0084009669746326e-06,1.0745863266901993e-06,5.172290531321193e-07,6.831320409480336e-07
-1.2234776729823388e-07,-3.7406815033295465e-08,-1.7653473205516162e-05,-9.477272500652286e-06,3.1782378859954403e-06,5.555603339277637e-07,1.72853411674275e-06,3.3331583126305877e-06,6.7083755692391985e-06,8.74964183037559e-07,-1.0060465536190055e-08,4.427423608920204e-07,-7.353425255497123e-07,7.7265230564619e-07,1.99198976284188e-06,1.171756345682052e-06,5.550552726580477e-07,6.92648474558595e-07
-6.226767922117892e-08,3.669753004527091e-08,-1.68042058942332e-05,-9.73086212838935e-06,3.0072270094432424e-06,6.046520552367849e-07,1.866886831117296e-06,3.1757762504107824e-06,5.817751944145989e-06,9.822281217924007e-07,1.2432608822451469e-08,6.072287363833132e-07,-6.755758975638734e-07,9.050538870508798e-07,1.9720026955574574e-06,1.2110723019893018e-06,6.16280524461704e-07,6.825690769104883e-07
-2.774100864770096e-09,1.1901263572278889e-07,-1.4240004335315644e-05,-1.0522670249372054e-05,2.852578048933242e-06,6.63516501313624e-07,1.9689169109960265e-06,3.0901562903250605e-06,5.4928674275001646e-06,1.0662610049465537e-06,3.2783131780997725e-08,7.276005109921521e-07,-6.149202088299289e-07,1.0369321505936915e-06,1.9802406121233276e-06,1.2096673974922539e-06,6.82387372156356e-07,6.55734546201923e-07
5.30232212317476e-08,2.2045404711811904e-07,-1.0409849243437419e-05,-1.1696570412005688e-05,2.7688834215878186e-06,7.203906410726546e-07,1.993199505256929e-06,2.9787422883294535e-06,7.198033076993121e-06,1.1275997812635003e-06,5.031917211665497e-08,8.012320007847395e-07,-5.682705999985268e-07,1.1494761902363925e-06,2.00971635123655e-06,1.1830497535172656e-06,7.272361795601062e-07,6.167385290239622e-07
9.871883409777188e-08,2.4361378628986306e-07,-6.834475694484235e-06,-1.3036686102203209e-05,2.6662674639626064e-06,7.634327339758448e-07,2.0200504331852576e-06,2.8841958875977607e-06,1.0291931684569201e-05,1.1658210366421981e-06,6.32545773653238e-08,8.444238051307141e-07,-5.054122417943e-07,1.2279012562058777e-06,2.0400012601673795e-06,1.1032497262587474e-06,7.537784924894973e-07,5.627961973313841e-07
1.2650966614321135e-07,2.3660752774281529e-07,-3.1805519175108215e-06,-1.425454391708848e-05,2.546224370531055e-06,7.852170581842936e-07,1.9916531013696104e-06,2.7831649122491176e-06,1.307312366927639e-05,1.1791022038336552e-06,7.035179349070564e-08,8.883227128039626e-07,-4.40918243345098e-07,1.2659736607493912e-06,2.061075345745988e-06,1.0495588500331483e-06,7.646963581440446e-07,5.104927590190673e-07
1.3723705435926774e-07,2.3937310785924097e-07,9.311181251432272e-08,-1.5001935984940498e-05,2.469001161707102e-06,7.838544182377072e-07,1.9754671212044352e-06,2.7410522041461205e-06,1.5455209515700647e-05,1.175989932241719e-06,7.221648657457841e-08,9.165312984920436e-07,-4.0599409261816837e-07,1.2677439212272095e-06,2.0507239507425366e-06,1.0166091424587023e-06,7.61509258179402e-07,4.759905130766725e-07
1.337298230894389e-07,2.2829258876100021e-07,2.5672232757048165e-06,-1.4941309404313261e-05,2.4297816474598686e-06,7.637298604388849e-07,1.9806947040647012e-06,2.7363269627335345e-06,1.6307519985560786e-05,1.1606883988323856e-06,7.077351367179619e-08,9.333205877995934e-07,-3.9583883611713623e-07,1.2446326333307516e-06,2.0196571619191953e-06,9.927467273810298e-07,7.505650885541812e-07,4.5654949583820487e-07
1.22740329565069e-07,2.1960277898845497e-07,4.819987680559523e-06,-1.3882800962634927e-05,2.388450738344009e-06,7.408418803224176e-07,1.99094929646578e-06,2.736323895756897e-06,1.5351680489739647e-05,1.144954430793326e-06,6.73914348667451e-08,9.48463400002548e-07,-4.084377281440366e-07,1.2096879129753566e-06,2.0144796290053224e-06,1.0040963125097961e-06,7.35552197884722e-07,4.5654266015451204e-07
1.031188875214063e-07,2.1872587888072893e-07,6.886194976529885e-06,-1.1904132988433125e-05,2.4352165011538725e-06,7.191327924267302e-07,2.019670422394939e-06,2.8546198953235374e-06,1.2917338738814339e-05,1.1083507779468286e-06,6.134400881447487e-08,9.526604627495877e-07,-4.45209171463396e-07,1.172603613813199e-06,2.014537960560866e-06,1.0264183846175304e-06,7.171629560264052e-07,4.674480208295103e-07
7.497298375690627e-08,2.0643704747323534e-07,9.025923382738672e-06,-9.338727465817898e-06,2.4219343358495014e-06,7.094348688622291e-07,1.9923668285667063e-06,2.8472101428608288e-06,9.703021335105281e-06,1.075527694852084e-06,4.981250693691212e-08,9.519318394415258e-07,-5.077586605994634e-07,1.1375723909607195e-06,2.016590351507014e-06,1.0349396549046592e-06,6.961381320920289e-07,4.782843118092209e-07
3.903871527027456e-08,1.8909911931700592e-07,1.1293837149322559e-05,-6.632302054421126e-06,2.499354504663882e-06,7.121564962460227e-07,1.932093782676748e-06,2.929806156172063e-06,7.114724383115274e-06,1.0453816996641604e-06,2.9213647731062893e-08,9.435239541114899e-07,-5.712551527950712e-07,1.1036504266598074e-06,2.023877655470914e-06,1.0589330677652815e-06,6.721668560240436e-07,4.846122745632854e-07
-2.892238058932966e-09,1.7502355774567974e-07,1.3891933747520171e-05,-4.206511782986451e-06,2.6519737056934964e-06,6.66199370908259e-07,1.8561849427770233e-06,3.0626566824829474e-06,6.107167469944853e-06,1.001823401183602e-06,-3.2432142720367972e-09,9.234283291912652e-07,-5.912712798639253e-07,1.0660330909790807e-06,2.0181516315082934e-06,1.097747899567531e-06,6.443696740433539e-07,4.844644280253584e-07
-4.433498557498386e-08,1.6068230296656718e-07,1.5385138796273925e-05,-2.425931190538336e-06,2.723910825124779e-06,6.090800018079921e-07,1.7677042923308095e-06,3.138100069860089e-06,7.263373083068964e-06,9.742034209458832e-07,-4.86484011083108e-08,8.834885287239482e-07,-5.971267949494136e-07,1.0169562546191308e-06,2.0025302283438584e-06,1.1039493860496149e-06,6.113656536110129e-07,4.753965284661774e-07
-8.190105885369882e-08,1.476695674170454e-07,1.515051396811718e-05,-1.585270279961629e-06,2.646547723719166e-06,5.590982778319422e-07,1.711641979485844e-06,3.1816351601433855e-06,1.0573522587524624e-05,9.492913825796404e-07,-1.0616418118575444e-07,8.3054025908788e-07,-5.924708556441349e-07,9.470767907361504e-07,1.978700900804539e-06,1.0945597521109136e-06,5.710857064666756e-07,4.5161967380702874e-07
-1.1482750731141366e-07,1.3672893948143693e-07,1.3201537665348785e-05,-1.8247829212265594e-06,2.4455941285607483e-06,5.227495417815532e-07,1.678505940775376e-06,3.1734949563340364e-06,1.5195600718641994e-05,8.970673357853921e-07,-1.7287916235328844e-07,7.625176726381403e-07,-5.798456816765202e-07,8.482241569187422e-07,1.9739643112397763e-06,1.0691173230133038e-06,5.309265350183905e-07,4.1961474455596144e-07
-1.467705898199847e-07,1.1095682387775867e-07,1.0093768683076694e-05,-3.0384995205915853e-06,2.4008721152966012e-06,4.905516797652284e-07,1.6241847337621042e-06,3.167599731962449e-06,1.9813158249788915e-05,8.143206046381046e-07,-2.435824502424105e-07,6.77699296374543e-07,-5.742032897918954e-07,7.170699211491206e-07,1.946041425752767e-06,1.0233080540119095e-06,4.906022944990713e-07,3.74930521203095e-07
-1.7910760631311776e-07,6.253179021145926e-08,6.857761253272502e-06,-4.881315999405819e-06,2.4450974909447713e-06,4.431847919872778e-07,1.5488614191744109e-06,3.205503648052257e-06,2.2828227692306604e-05,7.053204890691389e-07,-3.112655805090455e-07,5.830170005125589e-07,-5.619201761972395e-07,5.570428308595701e-07,1.8742952023831058e-06,9.908431815868246e-07,4.451970735733573e-07,3.26455914327627e-07
-2.1390977642743334e-07,1.309916493845532e-08,4.340195406487268e-06,-6.888381539277163e-06,2.418505124357067e-06,4.0744922846583643e-07,1.4491976797635407e-06,3.208909815397769e-06,2.2409348780363127e-05,5.69454008599938e-07,-3.6902448416582053e-07,4.816740753350717e-07,-6.097014699895246e-07,3.772733954575556e-07,1.7789030448222888e-06,9.56809982636781e-07,4.0268362905970363e-07,2.83367306013845e-07
-2.541115655166808e-07,-4.847565840619099e-08,2.8726962888990286e-06,-8.65637120593153e-06,2.4159986676714195e-06,3.8783640993184885e-07,1.3497602773535344e-06,3.1455938450270974e-06,2.081523996164184e-05,4.517721616660822e-07,-4.126354038008245e-07,3.7699116217651497e-07,-7.201101841744766e-07,1.8987383085877782e-07,1.6602459760786317e-06,8.806757637788862e-07,3.651480267929295e-07,2.3858450879063697e-07
-3.050039034341467e-07,-1.5047277061115038e-07,2.197191304476587e-06,-9.986443782502556e-06,2.5048832784004014e-06,3.472772008983153e-07,1.2560388904193001e-06,3.21607027518625e-06,1.5794185287318113e-05,3.5756917390918696e-07,-4.420085563838659e-07,2.689822249796266e-07,-8.530422030447283e-07,7.891156502314848e-09,1.531938316200009e-06,7.997946955163815e-07,3.3028821229163064e-07,1.971065843155887e-07
-3.7274465441188166e-07,-2.7898968709112917e-07,1.8609475659068935e-06,-1.0878303582891434e-05,2.4058027761785154e-06,2.889589927221315e-07,1.1657317597436636e-06,3.120318489638111e-06,9.971816582926254e-06,2.8104582919852457e-07,-4.60247594176825e-07,1.5591091747148698e-07,-9.792852497878582e-07,-1.549411375511063e-07,1.4098070377548845e-06,7.003258846224098e-07,2.9554657415433653e-07,1.480724710730954e-07
-4.5836959677050867e-07,-4.1539335785186116e-07,1.3001951260246971e-06,-1.1417856422983928e-05,2.2844243132218956e-06,2.2304522214490583e-07,1.0861175465924684e-06,2.9794930991449177e-06,4.082807830690902e-06,2.2724959399175168e-07,-4.7091066351011347e-07,4.046449701685467e-08,-1.0606714454429361e-06,-2.8455332993826956e-07,1.3037520252497568e-06,6.32979395623888e-07,2.564530007148078e-07,9.295464803455944e-08
-5.565108941375924e-07,-5.448173561146033e-07,1.276356686573099e-07,-1.1696936053051213e-05,2.1628963157815636e-06,1.5241811683167738e-07,1.0250857010496025e-06,2.857530119262806e-06,-7.755128864562754e-07,1.883364812074807e-07,-4.756477363523406e-07,-6.850526786588669e-08,-1.0995345633719228e-06,-3.6935766137030005e-07,1.1996644996753838e-06,6.417380995875593e-07,2.1119850695108151e-07,3.7901798020021264e-08
-6.422094805831895e-07,-6.293654107982021e-07,-1.761039172430042e-06,-1.1803762236406726e-05,2.0381974227518802e-06,7.66409136355458e-08,1.014757598298619e-06,2.7455092497583865e-06,-3.629896159301072e-06,1.8169148299971684e-07,-4.740413361008731e-07,-1.5898198581830655e-07,-1.0993536789936583e-06,-4.050187246813492e-07,1.1412709342411374e-06,5.837221762751558e-07,1.656430533426021e-07,-7.850661301256502e-09
-6.786835594903712e-07,-6.306800596714252e-07,-4.051155244690811e-06,-1.1819084089815463e-05,1.9204049860070604e-06,1.828159490454708e-08,1.0090613419918795e-06,2.611317652007319e-06,-3.881909855810692e-06,1.9848552084664794e-07,-4.6539413939299056e-07,-2.216922747383086e-07,-1.127655595573837e-06,-3.9765552242715483e-07,1.0846112496540411e-06,4.78155498956012e-07,1.2810215545611845e-07,-4.2857854848823785e-08
-6.795318909967701e-07,-6.132602027640946e-07,-6.302927121382782e-06,-1.1788641275863674e-05,1.7540255741952244e-06,8.265428934200359e-10,1.0530935055474581e-06,2.4676010072074784e-06,-1.5682341215159583e-06,2.2936779601250974e-07,-4.5044784334567295e-07,-2.5438958458521725e-07,-1.1764494563794694e-06,-3.621579244641304e-07,1.0871093534296895e-06,3.104021503162225e-07,1.0107502819098374e-07,-7.057928913548017e-08
-6.731901730649407e-07,-6.272104248234585e-07,-8.170500279812763e-06,-1.171320617220858e-05,1.683221656880753e-06,1.903361913956451e-08,1.0936018816692242e-06,2.5087710573790336e-06,2.3572450430862416e-06,2.6283204538630323e-07,-4.313585377750639e-07,-2.605507646549277e-07,-1.211105327943035e-06,-3.169202567806243e-07,1.098344645267329e-06,2.1929368012764554e-07,8.486520686616373e-08,-9.082317133139685e-08
-6.783341936243895e-07,-6.561577081681335e-07,-9.55927584265296e-06,-1.159356554904218e-05,1.6093949053037234e-06,1.362107472640237e-08,1.1193741415820678e-06,2.5646842030393516e-06,6.479755725935609e-06,2.881813200869212e-07,-4.102901969726431e-07,-2.462359627249725e-07,-1.2446568974680382e-06,-2.777574505393772e-07,1.11155982735009e-06,2.3808314639136803e-07,7.797778780902563e-08,-1.0838408774425378e-07
-6.833979760438038e-07,-6.642874799433422e-07,-1.0527933543890228e-05,-1.1516532228795354e-05,1.5741125133557948e-06,4.680541320655271e-09,1.1211904960853672e-06,2.553623976551319e-06,9.47923764590431e-06,3.079157018597035e-07,-3.8844791339112404e-07,-2.1813169100826336e-07,-1.2226191324023276e-06,-2.5367193625590046e-07,1.1124955274867273e-06,2.733768505575036e-07,7.755210676097826e-08,-1.2202351787068968e-07
-6.72987261024349e-07,-6.696646603778564e-07,-1.1248663561055202e-05,-1.1691415657717366e-05,1.5481931829293043e-06,-1.9197934097061833e-08,1.0975460479521516e-06,2.5681224655618396e-06,1.0543196954957698e-05,3.240986910802754e-07,-3.66527517584937e-07,-1.8279951990930615e-07,-1.1914595092480158e-06,-2.457102028670116e-07,1.1025627999236677e-06,3.145789509651589e-07,8.132140653471505e-08,-1.3271007211234817e-07
-6.320026316172017e-07,-7.248778720180232e-07,-1.1854406520512821e-05,-1.2365129415221677e-05,1.5445575203523139e-06,9.302589408544007e-09,1.055924333115766e-06,2.6371929418468534e-06,9.49987905653835e-06,3.3919451224620216e-07,-3.4561413554829147e-07,-1.4605805747857922e-07,-1.165054614606063e-06,-2.4868309755533453e-07,1.0904194710840132e-06,3.6610206969097186e-07,8.108474748847855e-08,-1.4297024922574007e-07
-5.754081657409771e-07,-7.699847941556117e-07,-1.2553840895072266e-05,-1.364868278827841e-05,1.5337249473454853e-06,3.641326622161133e-08,1.0046451389989872e-06,2.7157441248029725e-06,6.623434550981651e-06,3.500298867887557e-07,-3.272353167702876e-07,-1.1162335241330361e-07,-1.128880459142204e-06,-2.5510691690870255e-07,1.0662163466595133e-06,3.6745595201298106e-07,7.759175031363947e-08,-1.5483462268451075e-07
-5.293429391575964e-07,-7.602749879522368e-07,-1.328266734782789e-05,-1.539377878057645e-05,1.5623855527287325e-06,6.509317143979697e-08,9.508674205780062e-07,2.7950338526042965e-06,2.5075936460214574e-06,3.579821013130431e-07,-3.127546495879783e-07,-8.033796068573866e-08,-1.126941586265321e-06,-2.5955098612155134e-07,1.0469167316476629e-06,3.479469932985845e-07,7.838058215005558e-08,-1.6740639051780865e-07
-4.908797616253369e-07,-7.330428746725953e-07,-1.3938453754193573e-05,-1.7232924854726044e-05,1.6694172857405522e-06,9.399428448149213e-08,8.99412411466776e-07,2.9547539433766455e-06,-2.000119099315932e-06,3.63093524011242e-07,-3.0316707515674896e-07,-5.1276686904077297e-08,-1.1357284578766727e-06,-2.6157050401797505e-07,1.0341313775081666e-06,3.173731272628024e-07,8.170934937314828e-08,-1.7922539301102277e-07
-4.776245259376713e-07,-6.846597691215907e-07,-1.4441353383994843e-05,-1.8759001278375566e-05,1.7728059818132471e-06,9.79521673457372e-08,8.522887706739165e-07,3.056817354970634e-06,-5.92257233420571e-06,3.6180835347968195e-07,-2.994364922207555e-07,-2.4379221266084168e-08,-1.1285042498410812e-06,-2.6551345676122215e-07,1.0230298293279795e-06,2.6647657376792414e-07,8.739765453523937e-08,-1.8578988015264117e-07
-4.763214410512499e-07,-6.128377859460211e-07,-1.4659039387799364e-05,-1.9720110647633394e-05,1.9657824874536746e-06,8.61957550898306e-08,8.101213127072599e-07,3.1383899512881762e-06,-8.350963235357348e-06,3.511732823832109e-07,-3.02373670857789e-07,-1.8741151778552677e-09,-1.1322795516971805e-06,-2.773886042740472e-07,1.0167040542405178e-06,2.1449959024069226e-07,9.48855146769341e-08,-1.897932678974402e-07
-4.7625715193821614e-07,-5.634381853525219e-07,-1.4240451763735727e-05,-2.009083312223329e-05,2.1353378663702644e-06,6.227682465855313e-08,7.737106980516961e-07,3.2821757115018863e-06,-8.70886255660989e-06,3.283947553858982e-07,-3.115578341060653e-07,1.3659109803809255e-08,-1.136425423644952e-06,-3.013036234008676e-07,1.0081579864377485e-06,1.716631473320955e-07,1.0268434538770895e-07,-1.919104006080709e-07
-4.7546532507921525e-07,-5.191961985019026e-07,-1.2955149016941833e-05,-1.9953961143691793e-05,2.1494301773860723e-06,2.947261354275554e-08,7.447260851200392e-07,3.3983527799620256e-06,-6.883396704248628e-06,2.9462720656587223e-07,-3.243207442629603e-07,2.036702013805383e-08,-1.1394651154817274e-06,-3.3797977043897776e-07,9.91482572572927e-07,1.292863588067374e-07,1.1301198025667339e-07,-1.9261973237468835e-07
-4.636812209858186e-07,-4.811613344986963e-07,-1.0734435294748156e-05,-1.928315709790393e-05,2.1200998894083056e-06,-2.7102233645097935e-10,7.250683689090866e-07,3.496650279888966e-06,-3.378411917111487e-06,2.549786298182798e-07,-3.361462869223715e-07,1.783227323555275e-08,-1.1479028840705616e-06,-3.8522298394822736e-07,9.654200620180825e-07,8.804602752178938e-08,1.292208973157031e-07,-1.9376520047890872e-07
-4.446841023502571e-07,-4.5835563489932953e-07,-7.815946175057187e-06,-1.7880750113486487e-05,2.0767344456317547e-06,-2.4825127828420745e-08,7.156914234483464e-07,3.45614783235014e-06,8.184814811272065e-07,2.1584784753751238e-07,-3.4247348065146473e-07,7.411084382241405e-09,-1.1561441399416134e-06,-4.3828905748680896e-07,9.410266724735122e-07,4.858886964043146e-08,1.4974329234766432e-07,-1.9500935290471748e-07
-4.2193673501934453e-07,-4.374412094118794e-07,-4.998418835913467e-06,-1.558225271329448e-05,2.0647996099548546e-06,-4.2350064738576995e-08,7.16053494826999e-07,3.4059819892285154e-06,4.664478710326755e-06,1.8341528096853433e-07,-3.404922035706023e-07,-7.770961461987666e-09,-1.164807546375121e-06,-4.895999666192256e-07,9.111309107827949e-07,1.6655382411214295e-08,1.690775738943234e-07,-1.9665243664752233e-07
-4.0064467321504947e-07,-4.1362751672336933e-07,-3.1795818372839162e-06,-1.2536671366787579e-05,2.043609691526858e-06,-5.005269282428217e-08,7.245559516914351e-07,3.351144839028255e-06,7.411448129638255e-06,1.6330253643390107e-07,-3.2967265429838896e-07,-2.2253767768948352e-08,-1.1791572742520244e-06,-5.295063233810745e-07,8.847744217932152e-07,-1.1776334524824109e-09,1.8330539213859744e-07,-1.97754815791679e-07
-3.86936337031613e-07,-3.8827220476228616e-07,-2.9565713089062375e-06,-9.283541431374241e-06,2.079092298443335e-06,-4.713839024255471e-08,7.392236416523993e-07,3.280694623098635e-06,8.855730769329815e-06,1.5999969377321996e-07,-3.1118984435038543e-07,-2.9579501088040228e-08,-1.2017483032582996e-06,-5.489782173028263e-07,8.737049587698307e-07,1.5827905376803693e-10,1.8902214758860072e-07,-1.9725107665444056e-07
-3.830865289442502e-07,-3.747649541611865e-07,-4.342849563471911e-06,-6.511188977752104e-06,2.177083025365336e-06,-3.496107268303592e-08,7.578416497410115e-07,3.295619687593047e-06,9.337461123449502e-06,1.749240031014332e-07,-2.8732741786093373e-07,-2.556331407709231e-08,-1.2181346554946203e-06,-5.433905093881202e-07,8.806159862534042e-07,2.3332984620592727e-08,1.8494115254580917e-07,-1.9234299364304686e-07
-3.883454986919219e-07,-3.6232909620974864e-07,-6.7933353743309676e-06,-4.662447206168439e-06,2.2937965864342976e-06,-1.7353065566505172e-08,7.779077700668809e-07,3.3462030161063316e-06,9.478040618473062e-06,2.0448268738544557e-07,-2.613211466736098e-07,-1.1484185818790627e-08,-1.2273823968497282e-06,-5.15110886867499e-07,9.070097953434148e-07,6.171167429762046e-08,1.7214282635411553e-07,-1.8225628728573333e-07
-3.9924995332103705e-07,-3.48465634662688e-07,-9.462576827289074e-06,-3.694741594143891e-06,2.411858805253662e-06,1.2582903837125328e-10,7.972427868929476e-07,3.400269469815542e-06,9.84416506507088e-06,2.4062256799179965e-07,-2.3695284602845508e-07,6.349108902861995e-09,-1.229469345252883e-06,-4.730571282032177e-07,9.450635625725278e-07,1.0636905525640718e-07,1.5245376185148196e-07,-1.677045303493669e-07
-4.1206458451745714e-07,-3.3254064257247774e-07,-1.168145477490961e-05,-3.1901876549871964e-06,2.5020077565922714e-06,1.205603726577116e-08,8.149033423809715e-07,3.4429882547268316e-06,1.0694390683882551e-05,2.741836604678424e-07,-2.1726082453296179e-07,2.0443503097340594e-08,-1.222294499932709e-06,-4.290730199703507e-07,9.85813402324789e-07,1.53870402871274e-07,1.3065475425052856e-07,-1.4957553310871053e-07
-4.2325825140184736e-07,-3.106578369145866e-07,-1.3172434542345217e-05,-2.711291682035836e-06,2.561588575893246e-06,1.5368038463614816e-08,8.310315250407762e-07,3.4466666448558367e-06,1.1826122010802908e-05,2.9838411749445756e-07,-2.0312808148306545e-07,2.593182562463277e-08,-1.2094693031490267e-06,-3.932481869964447e-07,1.02215772022389e-06,2.0040183267475597e-07,1.1039983404660353e-07,-1.2921796379876351e-07
-4.3031166419171415e-07,-2.883194098917702e-07,-1.405478489715644e-05,-2.1040043805406238e-06,2.5936349016089675e-06,1.0571340310753345e-08,8.453876488097532e-07,3.424532942743695e-06,1.2671827982202643e-05,3.097294916989622e-07,-1.9329992050144855e-07,2.152452438491395e-08,-1.1905298029229597e-06,-3.7100439707196364e-07,1.047951230423466e-06,2.4078037476515106e-07,9.35719231429012e-08,-1.0775794979876396e-07
-4.3190680490276783e-07,-2.709318400332973e-07,-1.4596176310788174e-05,-1.540396807423002e-06,2.6109899192720437e-06,9.54304822116746e-10,8.561290661476047e-07,3.40059265075779e-06,1.2673273729783612e-05,3.066308640187732e-07,-1.860304567965312e-07,7.793554365639262e-09,-1.1703912356523286e-06,-3.6296112955101466e-07,1.0627793786929722e-06,2.7289083571617034e-07,8.288048268795501e-08,-8.696309798256297e-08
-4.286919287122022e-07,-2.596765939673992e-07,-1.4944866560245528e-05,-1.3252517086113837e-06,2.610902652886186e-06,-9.55327655768668e-09,8.603229971561743e-07,3.37624307615524e-06,1.1662249895900804e-05,2.8831069257204814e-07,-1.80638360069318e-07,-1.4342548060056263e-08,-1.1518446431396035e-06,-3.6626133006840395e-07,1.0672122748778232e-06,2.9003458166330584e-07,7.816960728597703e-08,-7.024375681383115e-08
-4.234595327771941e-07,-2.5054860798697667e-07,-1.5018553009134993e-05,-1.6666372369191758e-06,2.5927539908895626e-06,-1.782686889491097e-08,8.559527181277277e-07,3.3548694271678082e-06,9.965091897907034e-06,2.5547245930960216e-07,-1.7745458496794192e-07,-4.321389231925745e-08,-1.137597394456685e-06,-3.757668203387231e-07,1.0615630931114505e-06,2.947216407309785e-07,7.801535800905917e-08,-5.850349699628098e-08
-4.1875529484482796e-07,-2.4454745129714955e-07,-1.4560706543491712e-05,-2.5682054801669517e-06,2.5628370407492124e-06,-2.1494951539320518e-08,8.438881546996127e-07,3.3396627114957954e-06,8.225782711696614e-06,2.11401133626309e-07,-1.766088825613153e-07,-7.624199367422534e-08,-1.1287157653558462e-06,-3.854855302787961e-07,1.0474585721138927e-06,2.844886534386137e-07,8.166673909505378e-08,-5.098489786530792e-08
-4.147017587057612e-07,-2.4005080761828757e-07,-1.322817842247938e-05,-3.826843413673312e-06,2.5247913865815007e-06,-1.8464881298038514e-08,8.283797578081868e-07,3.327908462715521e-06,7.0344474075834165e-06,1.6146360777578564e-07,-1.7723077459850015e-07,-1.1112720780288651e-07,-1.123673081860629e-06,-3.912979608854786e-07,1.0248849951314703e-06,2.5829699474031583e-07,8.841934040651515e-08,-4.6550145594997394e-08
-4.0938153595084085e-07,-2.332140168796655e-07,-1.0840856762789442e-05,-5.06345121927291e-06,2.4861886988404637e-06,-6.854475457371526e-09,8.156520666195305e-07,3.3205641523000127e-06,6.617541378528269e-06,1.111908315290962e-07,-1.778483212368765e-07,-1.479263966238095e-07,-1.122361675671127e-06,-3.9420936631972017e-07,9.9089415296654e-07,2.1943855283231803e-07,9.746597201004773e-08,-4.412236514633458e-08
-3.999721788553834e-07,-2.2223743291035862e-07,-7.521847749932813e-06,-5.755531404921034e-06,2.451569472424305e-06,1.4932644889194645e-08,8.115310655728507e-07,3.3177551265939262e-06,6.798318440919089e-06,6.508812746098788e-08,-1.7725817556646497e-07,-1.8938171598516337e-07,-1.1253944957853176e-06,-4.012954142005956e-07,9.400098054387623e-07,1.6695826822404876e-07,1.0861106725597685e-07,-4.409088711105349e-08
-3.848777838369811e-07,-2.0571801141857017e-07,-3.6669363542061665e-06,-5.436374825968352e-06,2.4207537249629723e-06,4.797709422939196e-08,8.197795117424958e-07,3.3179116694314903e-06,7.149220095917061e-06,2.731478228989489e-08,-1.7471500043161365e-07,-2.3813829491859799e-07,-1.133907588059938e-06,-4.225143983927535e-07,8.7155181890867e-07,1.0755452308404793e-07,1.2199306775256368e-07,-4.7116548073565644e-08
-3.635710192990611e-07,-1.8447571950744437e-07,1.1403774305195562e-07,-4.033504704098055e-06,2.391164568446211e-06,9.194873530334155e-08,8.418109148792368e-07,3.319162239965285e-06,7.237347097805774e-06,2.7480942109271546e-09,-1.6933787297389108e-07,-2.935958666096192e-07,-1.146462388145774e-06,-4.652924691215715e-07,7.856029120848938e-07,3.9359252261720994e-08,1.3700232478261814e-07,-5.284540226400238e-08
-3.369471542057962e-07,-1.60534511596249e-07,3.2250864577211276e-06,-2.097576586308721e-06,2.360367987610888e-06,1.439309015847339e-07,8.769216922408021e-07,3.321469076737775e-06,6.848227439948095e-06,-3.682857465581749e-09,-1.596327023250515e-07,-3.5179324625347045e-07,-1.1607670213105476e-06,-5.305200262071928e-07,6.863663784091834e-07,-3.6894552412782505e-08,1.5271322908776477e-07,-5.954953816211961e-08
-3.077573101342501e-07,-1.3613263568476708e-07,5.319284308995983e-06,-6.52528427658054e-07,2.32891530426347e-06,1.984250948005641e-07,9.224404557129954e-07,3.322796576822126e-06,6.02865915393246e-06,1.0763450687749453e-08,-1.4378496116258488e-07,-4.0780550283571266e-07,-1.173803965854665e-06,-6.120781401583568e-07,5.817062480076077e-07,-1.1792688236878244e-07,1.675918083727487e-07,-6.562592356071407e-08
-2.801238649364352e-07,-1.1427347737857806e-07,6.356690121475187e-06,-6.616452757551915e-07,2.301346566482315e-06,2.4931519068840414e-07,9.743633432044132e-07,3.325537378765185e-06,5.040573695369019e-06,4.5108581651061074e-08,-1.2046857280357711e-07,-4.575010999804324e-07,-1.182899218348117e-06,-6.990690625040619e-07,4.792830804786093e-07,-2.0015966597056472e-07,1.8016171494212742e-07,-6.9981348083971e-08
-2.5828490724392407e-07,-9.815752211068276e-08,6.438515392025235e-06,-2.393917752288242e-06,2.284907457472614e-06,2.925701923334226e-07,1.028836674511265e-06,3.3386700616888907e-06,4.2523071584794705e-06,9.523800356579965e-08,-8.941546482724214e-08,-4.976366610919305e-07,-1.1878646762785632e-06,-7.79336442543722e-07,3.8492977437519e-07,-2.7723077192714505e-07,1.905034571630525e-07,-7.217745902989978e-08
-2.4404422851962575e-07,-8.94552888659646e-08,5.643270139831929e-06,-5.190127387145101e-06,2.289151265535113e-06,3.274788727365057e-07,1.083596950550417e-06,3.3745496354975304e-06,3.99464092847555e-06,1.55409282343313e-07,-5.1405614332637084e-08,-5.252561234929918e-07,-1.191337215022249e-06,-8.437461031169845e-07,3.031045654516342e-07,-3.499294936888936e-07,2.0011519860011707e-07,-7.274024448628393e-08
-2.3594386067732122e-07,-8.73177835268313e-08,3.983600644617785e-06,-7.850160786683404e-06,2.3249412150005833e-06,3.5560782361804885e-07,1.137955152975319e-06,3.4467839385603315e-06,4.453981373865638e-06,2.1890866281210087e-07,-8.164719450041169e-09,-5.386750162494222e-07,-1.1993458700024889e-06,-8.899415882532027e-07,2.3508295304491337e-07,-4.225256132478764e-07,2.101591932463729e-07,-7.304152668961076e-08
-2.3095059155682285e-07,-8.903314888218461e-08,1.5034190716596745e-06,-9.36035079631307e-06,2.4016492306466775e-06,3.788984567247419e-07,1.1910538237576462e-06,3.5623745255582326e-06,5.6119078657531805e-06,2.7827720303504794e-07,3.7446208456502494e-08,-5.396184857432633e-07,-1.2200999601853112e-06,-9.231969384661005e-07,1.790630935414806e-07,-5.021717249954644e-07,2.1961613004669213e-07,-7.518370622675068e-08
-2.2763895049915402e-07,-9.12199230584934e-08,-1.5381584977837745e-06,-9.46035984337747e-06,2.5237166430186927e-06,3.986624928304946e-07,1.2402584979465436e-06,3.7213994452792948e-06,7.263132021585519e-06,3.2699973067545793e-07,8.159906862878121e-08,-5.335111729495459e-07,-1.2625998219186173e-06,-9.531236167598947e-07,1.3127821202111298e-07,-5.916061442057107e-07,2.2548640564614654e-07,-8.093767709332357e-08
-2.2756809184450416e-07,-9.035935529772783e-08,-4.552754392348881e-06,-8.659521001842715e-06,2.6902105814260663e-06,4.157140348857526e-07,1.2819182463003328e-06,3.913263746202103e-06,9.117289423624582e-06,3.6272241665837307e-07,1.2072103469730304e-07,-5.269326687746293e-07,-1.327878282373172e-06,-9.881660732705023e-07,8.895123687452051e-08,-6.856886469450988e-07,2.2510237911758622e-07,-9.017148152835326e-08
-2.3401373554158076e-07,-8.292651682213616e-08,-6.732516184851169e-06,-7.754154284593016e-06,2.877563711043365e-06,4.30801430542768e-07,1.3139664647378135e-06,4.118676223364727e-06,1.0891496003641555e-05,3.892009299894849e-07,1.5299710157590723e-07,-5.247216749418805e-07,-1.4083760197408464e-06,-1.0312974363954856e-06,5.2670851537938076e-08,-7.778633676607773e-07,2.1819039809132694e-07,-1.0040053410694702e-07
-2.497903772514446e-07,-6.59948838855505e-08,-7.404916189015293e-06,-7.25460094213701e-06,3.06218504338478e-06,4.4471961073298106e-07,1.3374624248106653e-06,4.312890282423992e-06,1.2362541511407791e-05,4.144116491833639e-07,1.7864261492542621e-07,-5.295667181727578e-07,-1.4903194202012356e-06,-1.0790306054962335e-06,2.5518239597772377e-08,-8.511174160003695e-07,2.0666232894697656e-07,-1.0820835044854792e-07
-2.7589211237142136e-07,-3.8250217234590124e-08,-6.389718384240222e-06,-7.152187754727317e-06,3.2164728356435014e-06,4.5813050206579933e-07,1.3554851454322752e-06,4.468849302981643e-06,1.3329605356436928e-05,4.4584654807893125e-07,1.9880972614076857e-07,-5.426536855474081e-07,-1.5391086497937679e-06,-1.1234315057055386e-06,1.0709334247658736e-08,-8.730393840507729e-07,1.9280245727832849e-07,-1.1144747486547572e-07
-3.11446347295423e-07,-7.242883030250174e-10,-4.088704117210899e-06,-7.14715696882307e-06,3.2733681548398405e-06,4.7158263909802806e-07,1.3707523464715367e-06,4.565719660880279e-06,1.360412082969878e-05,4.868251248882169e-07,2.1460884267597527e-07,-5.638744621681355e-07,-1.5264195950563486e-06,-1.1552606710385285e-06,1.0076702223706903e-08,-9.020004438524531e-07,1.7808068431843577e-07,-1.1027810013704299e-07
-3.5379890257949155e-07,4.302134378051444e-08,-1.2945499384840503e-06,-6.9556771870702306e-06,3.2555143688033473e-06,4.860302125358788e-07,1.384344128173178e-06,4.595605331068573e-06,1.3056506756510745e-05,5.364237631410949e-07,2.273180229034281e-07,-5.905313114458988e-07,-1.5223007212618194e-06,-1.1666534337795906e-06,2.221077036037726e-08,-8.659434463230581e-07,1.634514354109368e-07,-1.0638132134220783e-07
-3.983150815579747e-07,8.750834365334787e-08,1.1140973244871541e-06,-6.555128855740603e-06,3.280070321643827e-06,5.032551006471567e-07,1.3961603140286948e-06,4.565500096406662e-06,1.1705592825878476e-05,5.918261221772326e-07,2.389989640344172e-07,-6.165432759708414e-07,-1.5316746441308547e-06,-1.152822857528029e-06,4.323401403678116e-08,-8.168282009769531e-07,1.4990936437924838e-07,-1.0157599990735274e-07
-4.389239687741146e-07,1.2695386763361054e-07,2.460579862275471e-06,-6.26157591037213e-06,3.13993766684746e-06,5.252155153828194e-07,1.4056285791843344e-06,4.493419597479665e-06,9.767383967251852e-06,6.498912893388019e-07,2.520453708883666e-07,-6.345783080935536e-07,-1.495078620587031e-06,-1.112966993332852e-06,6.695123517696295e-08,-7.580856102715527e-07,1.381604389076306e-07,-9.733815645806348e-08
-4.7011396659505436e-07,1.5695533796056193e-07,2.473886281423706e-06,-6.482660895615368e-06,2.9414967304768037e-06,5.522969397864647e-07,1.411500612027118e-06,4.400673604926082e-06,7.5438673843736645e-06,7.065841923086556e-07,2.6763287233937075e-07,-6.400193362773934e-07,-1.4150970339781688e-06,-1.0509511021731732e-06,8.721869192408311e-08,-7.020559817630555e-07,1.279263762653283e-07,-9.527716651050277e-08
-4.893104658504965e-07,1.750362178714352e-07,1.3096653311279063e-06,-7.533321393337117e-06,2.7894039243813293e-06,5.818560928853931e-07,1.4114900822720043e-06,4.306106759118245e-06,5.294425447618687e-06,7.561002336964609e-07,2.845729035884782e-07,-6.339176694302989e-07,-1.3202145051331484e-06,-9.754178895865618e-07,9.919496787429316e-08,-6.592065192716963e-07,1.1818857427126671e-07,-9.737215938300419e-08
-4.976585806323588e-07,1.803292396954854e-07,-6.447250735389507e-07,-9.527641722598373e-06,2.6607644699718472e-06,6.087198115253375e-07,1.4029937792032571e-06,4.2223242774115226e-06,3.2592667061483854e-06,7.920724678118484e-07,2.997219231269862e-07,-6.223446163740078e-07,-1.25138889837138e-06,-8.986328677219326e-07,1.0068457902927421e-07,-6.36106210182014e-07,1.0872688360939123e-07,-1.0525639286474924e-07
-4.986272199926188e-07,1.7329881497633254e-07,-2.9868633369296103e-06,-1.2303338096249518e-05,2.5538497713055725e-06,6.275693071784266e-07,1.3846361763660925e-06,4.159307445360842e-06,1.7613877277626175e-06,8.104772749104739e-07,3.0954727622730715e-07,-6.128624229641422e-07,-1.2081799858004504e-06,-8.333520701002067e-07,9.271044342038211e-08,-6.346853027610962e-07,1.0146829063984428e-07,-1.1934642647762393e-07
-4.960351797990911e-07,1.5536324606420894e-07,-5.309332253761633e-06,-1.5420167320086387e-05,2.4978324893163618e-06,6.351840728986831e-07,1.3570375790875762e-06,4.126734900176e-06,1.1982456398426122e-06,8.114421751129531e-07,3.115548782555773e-07,-6.111912183826762e-07,-1.186612806074634e-06,-7.893209671266026e-07,7.750196059499622e-08,-6.546200117359956e-07,9.976073517153633e-08,-1.389045791220194e-07
-4.933353395215883e-07,1.2801805185093915e-07,-7.079172490525186e-06,-1.823520916758865e-05,2.5022391483675306e-06,6.310517296490676e-07,1.3219822260455466e-06,4.13318244390607e-06,1.8886530480713322e-06,7.98440615481233e-07,3.047292528689923e-07,-6.201747891509012e-07,-1.1887172692466842e-06,-7.713508478886521e-07,5.836849245417088e-08,-6.927288215079661e-07,1.0574656587481987e-07,-1.6270854284678359e-07
-4.940310472826601e-07,9.21293466098012e-08,-7.66799054109898e-06,-2.0044781845019417e-05,2.5743378087090725e-06,6.169583824731219e-07,1.2812185199807194e-06,4.184626113046735e-06,3.860677243710037e-06,7.765509687897133e-07,2.893667740829273e-07,-6.401125954178899e-07,-1.2110125954097617e-06,-7.793167026195001e-07,3.8467243328513315e-08,-7.426861397192211e-07,1.1817211252858741e-07,-1.8911393326187813e-07
-5.015771008119158e-07,4.8421206709849675e-08,-6.6215157790102785e-06,-2.0272955345309458e-05,2.7111284164196586e-06,5.967526682222509e-07,1.236529588145442e-06,4.27883153914249e-06,6.736058832947836e-06,7.521321904837562e-07,2.6739215181472005e-07,-6.686689339107099e-07,-1.2468565446304828e-06,-8.086118771587865e-07,2.14074785757592e-08,-7.975726175323808e-07,1.3260359263441663e-07,-2.1538731133069734e-07
-5.179033650168231e-07,-1.0137348995888001e-09,-3.968700392405978e-06,-1.8690071998616513e-05,2.8937482077959026e-06,5.76230239447906e-07,1.1908707477248933e-06,4.403077023269111e-06,9.841231034168064e-06,7.334481963138413e-07,2.431665477855824e-07,-7.009619315238798e-07,-1.286396449298758e-06,-8.508772287350402e-07,1.0222876119487548e-08,-8.476320633733595e-07,1.4379452557243656e-07,-2.3761470488334e-07
-5.416620540923764e-07,-5.1768654577845116e-08,-3.2764004260253756e-07,-1.5492752244391506e-05,3.089886360463805e-06,5.621636276296401e-07,1.1489057470616355e-06,4.5341714975684565e-06,1.249158136378931e-05,7.294276776012818e-07,2.2315722302805607e-07,-7.310110428145484e-07,-1.3180451848681405e-06,-8.961127311807313e-07,6.0018058389836035e-09,-8.850831399932642e-07,1.4838170592880924e-07,-2.521141679355331e-07
-5.680463036979493e-07,-9.81351522557828e-08,3.3193293114290627e-06,-1.1275159341793386e-05,3.2507164271019485e-06,5.601281340221495e-07,1.1157967129712197e-06,4.6452738413909545e-06,1.4227707411343116e-05,7.455697253506192e-07,2.1349281668688343e-07,-7.541818193887423e-07,-1.332297465613898e-06,-9.356852124008179e-07,7.255787347842461e-09,-9.039268041273426e-07,1.4632665300283732e-07,-2.5750887097523743e-07
-5.90633819669475e-07,-1.3537750400797623e-07,6.061698418917837e-06,-6.898408247935397e-06,3.3099247262513854e-06,5.722720271721766e-07,1.0948037864122618e-06,4.717155103586513e-06,1.4895763602190616e-05,7.800791945415633e-07,2.169909358687055e-07,-7.685824440125638e-07,-1.3259670109068236e-06,-9.647396437307082e-07,1.0435461020309552e-08,-9.024848746768362e-07,1.4068583982682334e-07,-2.5559733516108534e-07
-6.037342899889601e-07,-1.6090414222782085e-07,7.447082252477811e-06,-3.2172176612112736e-06,3.343330510096248e-06,5.967722208687417e-07,1.0856791460991319e-06,4.747655178831577e-06,1.4599637996441607e-05,8.24274380879979e-07,2.322661054431587e-07,-7.74238014066151e-07,-1.3035060269121346e-06,-9.830125967129651e-07,1.1223282191347824e-08,-8.861826164432984e-07,1.3614690621904202e-07,-2.501703581465505e-07
-6.036854024852242e-07,-1.7326765036398376e-07,7.5546377810353935e-06,-1.0408148929873597e-06,3.257950253085057e-06,6.293474123374952e-07,1.085436278518194e-06,4.75255497714746e-06,1.3679792802393893e-05,8.674452471701398e-07,2.5559604567750617e-07,-7.7195523157622e-07,-1.2743479851662075e-06,-9.9442986517184e-07,5.698294245562194e-09,-8.632516798700219e-07,1.3698732797308186e-07,-2.449514238269562e-07
-5.894529058745065e-07,-1.7079983692627408e-07,6.746757395006645e-06,-8.773522717959726e-07,3.1472850320734795e-06,6.652781442105943e-07,1.090772271934294e-06,4.756755811579347e-06,1.2614239175339239e-05,9.022316367253226e-07,2.836890410825564e-07,-7.635074766687069e-07,-1.2485957106902473e-06,-1.0061657840729113e-06,-9.543603409151918e-09,-8.441483590386035e-07,1.4520329716392576e-07,-2.425335808302431e-07
-5.636548744292777e-07,-1.5197918667654668e-07,5.367796402170006e-06,-2.629774592205408e-06,3.0392933817012013e-06,7.00303911531939e-07,1.0998393560498103e-06,4.7824536936728194e-06,1.1790577583956883e-05,9.270215437562216e-07,3.1511867300812266e-07,-7.526764185918637e-07,-1.2336818711942913e-06,-1.0264857805981504e-06,-3.717998624105964e-08,-8.339832301983313e-07,1.5969276789217737e-07,-2.447264405786179e-07
-5.333328946821454e-07,-1.1706285383846681e-07,3.653073048986542e-06,-5.8000587966050125e-06,2.964831150817881e-06,7.306381952809837e-07,1.112091932714897e-06,4.839095516383017e-06,1.1353061288902004e-05,9.45392720799137e-07,3.499183612341706e-07,-7.457426550398023e-07,-1.2324836094925929e-06,-1.0616272078479846e-06,-7.868995840667333e-08,-8.335166129447516e-07,1.769640318090855e-07,-2.529885728161848e-07
-5.083522088300306e-07,-6.908836011244068e-08,1.8357086716185474e-06,-9.690313202840549e-06,2.936333022674251e-06,7.535710094411347e-07,1.1270245652545751e-06,4.921627257002515e-06,1.11259402866694e-05,9.643179733412392e-07,3.8839442619578284e-07,-7.493434811389596e-07,-1.2424923600567976e-06,-1.1122677338136796e-06,-1.3273867832108653e-07,-8.392790972453119e-07,1.931344786612797e-07,-2.6781579225000273e-07
-4.970609035842147e-07,-1.347331945264424e-08,2.3533579125934203e-07,-1.3568141667966464e-05,2.946643817926562e-06,7.68811430817112e-07,1.1432196667614338e-06,5.013592141553741e-06,1.0674547346476936e-05,9.914717287269132e-07,4.3006607733470956e-07,-7.665147289392381e-07,-1.256768888513453e-06,-1.171847013933078e-06,-1.94094048370717e-07,-8.449389110974735e-07,2.0604533339332508e-07,-2.8775012842430343e-07
-5.019926010529314e-07,4.308701271710496e-08,-7.783685395704076e-07,-1.6923111190946106e-05,2.9755081512631564e-06,7.787694173537001e-07,1.158121341157665e-06,5.095694489183608e-06,9.545071183536422e-06,1.0311125210454899e-06,4.72760026986983e-07,-7.940000597157755e-07,-1.2675622598828344e-06,-1.2288942261586927e-06,-2.5729980802882125e-07,-8.467186458819386e-07,2.1592116880432477e-07,-3.096167159589683e-07
-5.189759516359168e-07,9.345490978552684e-08,-8.999859048997675e-07,-1.9523801177060827e-05,3.0001452961296776e-06,7.86552615655345e-07,1.1681756563967124e-06,5.1545012158817946e-06,7.5706960750338e-06,1.0800372312802719e-06,5.119970385575583e-07,-8.234975702320656e-07,-1.2710691227138057e-06,-1.2726041769585927e-06,-3.13117778893047e-07,-8.441462311648304e-07,2.2410428167199935e-07,-3.30321817845291e-07
-5.401711199998395e-07,1.3056845225058502e-07,2.271537159456268e-08,-2.1345133544562127e-05,3.004918111101619e-06,7.929744830511746e-07,1.1691703984042644e-06,5.185397233717348e-06,5.018340085300719e-06,1.1270849864338252e-06,5.414754505632453e-07,-8.461811389449678e-07,-1.2698567935705055e-06,-1.2983624695980017e-06,-3.5601444648832916e-07,-8.415552639054978e-07,2.311341728775758e-07,-3.4859607764767204e-07
-5.583938528506404e-07,1.4868768549857115e-07,1.96785967649767e-06,-2.2531313446513656e-05,2.9858088607896776e-06,7.951583245218587e-07,1.1569494772203763e-06,5.192158389565655e-06,2.4684532897054027e-06,1.1579282891906533e-06,5.551785715769104e-07,-8.568923380208175e-07,-1.2709625184648074e-06,-1.309259120607203e-06,-3.8394762349986294e-07,-8.448159205384104e-07,2.359491492066006e-07,-3.650133280715647e-07
-5.698230080117893e-07,1.458784368351008e-07,4.7166458194192095e-06,-2.3270286752875208e-05,2.948690610579279e-06,7.880891952646554e-07,1.1285767789486461e-06,5.182560134794268e-06,5.39496917636266e-07,1.1625414084700459e-06,5.503053465429463e-07,-8.555599448426683e-07,-1.281029115414689e-06,-1.3131270969127722e-06,-4.0210203609021304e-07,-8.577006518273772e-07,2.3663730268438474e-07,-3.8057799663208687e-07
-5.744373274172317e-07,1.2610428553210134e-07,7.769964927931709e-06,-2.3590718569019976e-05,2.903750219209804e-06,7.679387526079446e-07,1.0835545642780617e-06,5.164581735713083e-06,-4.2006428489279734e-07,1.1402553973899126e-06,5.291075033927297e-07,-8.463884393705122e-07,-1.3017685004073191e-06,-1.31786015533168e-06,-4.184036419926579e-07,-8.785971021627125e-07,2.316154980253112e-07,-3.956169699873526e-07
-5.751929744228971e-07,9.847451255960252e-08,1.0332771261023815e-05,-2.330636818012504e-05,2.8587394443554063e-06,7.344950895829173e-07,1.0242868707677198e-06,5.14191718204645e-06,-3.605148901693852e-07,1.0991937517447142e-06,4.981038664996426e-07,-8.366045225885277e-07,-1.328540643263284e-06,-1.328266994797316e-06,-4.3903013216362356e-07,-8.994151726530012e-07,2.2012016030095553e-07,-4.099764591724882e-07
-5.766537211402688e-07,7.331430368337488e-08,1.153055261584329e-05,-2.213298154923374e-05,2.8143890847548714e-06,6.911128279905371e-07,9.553772586650124e-07,5.110939389089783e-06,4.7236886077044003e-07,1.05130009990759e-06,4.6505621848949425e-07,-8.348929974058189e-07,-1.3526834408792105e-06,-1.3452545018726763e-06,-4.683078251308211e-07,-9.108560493306798e-07,2.0223235142927586e-07,-4.2370907010721403e-07
-5.830722064824424e-07,5.757879081931612e-08,1.0788714254575087e-05,-1.98768123768852e-05,2.764922530132176e-06,6.429574378358439e-07,8.824327041793989e-07,5.063702688418572e-06,1.5481428913380224e-06,1.007101717990171e-06,4.3589066616632175e-07,-8.480949511640132e-07,-1.3657473191437543e-06,-1.366294863140301e-06,-5.046521309165992e-07,-9.070916687752224e-07,1.792679982366905e-07,-4.3687851509210477e-07
-5.961890471267369e-07,5.2710207335960726e-08,8.101737577981861e-06,-1.669624542989819e-05,2.703459705350611e-06,5.952812870818365e-07,8.112542435763759e-07,4.993382981125148e-06,2.4216098204536677e-06,9.732456276806525e-07,4.1350133536606404e-07,-8.775865582060986e-07,-1.3628134673109002e-06,-1.3867108933603994e-06,-5.433287165273274e-07,-8.88079509206907e-07,1.5440896789722137e-07,-4.4862303106578284e-07
-6.138245174411744e-07,5.580767397521579e-08,4.003762196834864e-06,-1.3060722136309326e-05,2.6274083756768005e-06,5.524402740649183e-07,7.472728887814547e-07,4.898672977389299e-06,2.538354871721693e-06,9.523962497617713e-07,3.983333795753076e-07,-9.184014060168571e-07,-1.3435293857819822e-06,-1.4018728153719587e-06,-5.79472694331152e-07,-8.59343951668826e-07,1.324068862823564e-07,-4.5705779212113326e-07
-6.304817591169252e-07,6.2335232301102e-08,-7.032424356882754e-07,-9.670618963504463e-06,2.5409179815810777e-06,5.17235961913503e-07,6.945384809249661e-07,4.784502300161584e-06,1.5719046550839814e-06,9.435062343060933e-07,3.893341635790683e-07,-9.620195145429307e-07,-1.3115854404281133e-06,-1.4096532542428027e-06,-6.044364957348646e-07,-8.28401054359312e-07,1.1768390317459909e-07,-4.607142316853021e-07
-6.400676289892083e-07,6.820262013092778e-08,-5.238504866305871e-06,-7.3172726527025026e-06,2.4517408896984813e-06,4.904619083101386e-07,6.54313799676921e-07,4.660217342265569e-06,-7.545990433036549e-08,9.419824986272515e-07,3.845457262538287e-07,-1.0008390786609266e-06,-1.2736512790104722e-06,-1.4116348959294565e-06,-6.166881217654643e-07,-8.03321635612252e-07,1.1182994048584522e-07,-4.6014436995292674e-07
-6.39145632525305e-07,7.069335701519813e-08,-9.001949508511961e-06,-6.384712455058517e-06,2.3670147206476554e-06,4.7114135869486075e-07,6.243313197279349e-07,4.537065318775994e-06,-1.2867793852287474e-06,9.409989554273773e-07,3.817187416867403e-07,-1.0308913391552545e-06,-1.2376768837620183e-06,-1.4117544373506835e-06,-6.182861216750223e-07,-7.900213469484516e-07,1.1252146883478015e-07,-4.578327487127662e-07
-6.284956463375445e-07,6.897159108931575e-08,-1.1623445327977684e-05,-6.614834368917011e-06,2.2908392465526183e-06,4.5748879923248427e-07,5.997469467530938e-07,4.425292779570268e-06,-4.871447228888401e-07,9.344880211838042e-07,3.7921076059216854e-07,-1.051614596370996e-06,-1.2102932224121856e-06,-1.4132601808006605e-06,-6.115304824865725e-07,-7.909411634477304e-07,1.14860091411683e-07,-4.56314865167227e-07
-6.121635494737166e-07,6.437882582191376e-08,-1.2937254014991087e-05,-7.279068272027644e-06,2.2238168709681877e-06,4.4796956405068996e-07,5.75541901958949e-07,4.331400842014526e-06,1.7336377445931962e-06,9.200506433385003e-07,3.7660136803438584e-07,-1.064251989055266e-06,-1.1943558667015768e-06,-1.4162609102857546e-06,-5.975848617107253e-07,-8.048788811262142e-07,1.1404378034894156e-07,-4.563776260366243e-07
-5.95362024335987e-07,5.974375193073791e-08,-1.2900948478580966e-05,-7.65279605169739e-06,2.162896701852039e-06,4.417844894475812e-07,5.488743467302397e-07,4.256832064868611e-06,4.369681728092104e-06,8.994187295153724e-07,3.743962238350169e-07,-1.0712294751782222e-06,-1.1883224947885334e-06,-1.4179746553229329e-06,-5.758034051364168e-07,-8.273378005743131e-07,1.0737190733019679e-07,-4.5710884920407936e-07
-5.830557277320879e-07,5.7515323747095715e-08,-1.1539071931649668e-05,-7.575663421553817e-06,2.102811869699686e-06,4.384619182929413e-07,5.200134513748071e-07,4.1967349016913655e-06,5.8132639470809235e-06,8.762905786093548e-07,3.7305997911456746e-07,-1.0765512188012312e-06,-1.1878352698505763e-06,-1.415216670291867e-06,-5.482904737389405e-07,-8.523620052662559e-07,9.446993483074654e-08,-4.574776960080681e-07
-5.794105696990381e-07,5.8021148218489126e-08,-8.999922069117094e-06,-7.594552625038052e-06,2.037627112731392e-06,4.371158947716314e-07,4.916533115707553e-07,4.142157373839118e-06,7.541848222509214e-06,8.5369517987953e-07,3.722855914705941e-07,-1.08521362338471e-06,-1.1882344386766964e-06,-1.4065961326693015e-06,-5.187321767808563e-07,-8.74130886494414e-07,7.6194706436871e-08,-4.5760182825917046e-07
-5.869662030596014e-07,5.920841531580322e-08,-5.6746187499448525e-06,-8.479804353848653e-06,1.9623418657468137e-06,4.364271077735314e-07,4.672708590137877e-07,4.084280436950496e-06,9.064029368906126e-06,8.329396280206264e-07,3.7113618329447344e-07,-1.1008324341732594e-06,-1.1865049036199643e-06,-1.3927532229905817e-06,-4.940734877049154e-07,-8.88798540038435e-07,5.349551732744151e-08,-4.5864539682655844e-07
-6.053586177629861e-07,5.778723067911536e-08,-2.228434260560373e-06,-1.0547305517396015e-05,1.8755766338482524e-06,4.353034148306795e-07,4.4930660427681567e-07,4.018458605925902e-06,8.982206984136907e-06,8.142033778531672e-07,3.6879886031897997e-07,-1.1234010141221576e-06,-1.181923520722626e-06,-1.3754534445024268e-06,-4.783253447344835e-07,-8.952391143718785e-07,2.700862638683171e-08,-4.6204421180540255e-07
-6.310652541962791e-07,5.055302677700548e-08,5.353404138065885e-07,-1.3369589619767626e-05,1.7805485085635417e-06,4.3295281990335617e-07,4.379749965030619e-07,3.9457232178745615e-06,8.251660076109225e-06,7.973725254291549e-07,3.651148980693332e-07,-1.149614159165203e-06,-1.175540488520812e-06,-1.3571994517231482e-06,-4.727666413588371e-07,-8.950130180633893e-07,-2.773212213639162e-09,-4.6911054789842526e-07
-6.591552180009669e-07,3.480730156880026e-08,1.9420935592935643e-06,-1.598835992948663e-05,1.6835483991268798e-06,4.279327992983312e-07,4.313863740444786e-07,3.870748111013618e-06,7.742101621322461e-06,7.821502144887655e-07,3.603981844017713e-07,-1.1754664327876578e-06,-1.1691886502206448e-06,-1.3414001028887361e-06,-4.770490313589705e-07,-8.912133629871247e-07,-3.517234510343413e-08,-4.809450216933427e-07
-6.85785559801754e-07,8.260926501439686e-09,1.7148700608751347e-06,-1.7398609938684356e-05,1.590976447666708e-06,4.1769508831530305e-07,4.268128862203364e-07,3.799776354810286e-06,7.534658834064485e-06,7.679457315414506e-07,3.54893496485673e-07,-1.1983221572955156e-06,-1.1645262064173473e-06,-1.3318531937091375e-06,-4.88972164623205e-07,-8.86843208699381e-07,-6.89571193507406e-08,-4.979038347653148e-07
-7.091950406221278e-07,-3.00588828981798e-08,7.71447749425957e-08,-1.709330355662872e-05,1.5073285820915978e-06,4.0010836514379554e-07,4.2219664156381403e-07,3.738213120357991e-06,8.458203528345923e-06,7.54452500964391e-07,3.486118873383968e-07,-1.216956740479389e-06,-1.1621613695931903e-06,-1.3309154702794421e-06,-5.058385904283242e-07,-8.838545142450711e-07,-1.0197756442572958e-07,-5.187095155811854e-07
-7.286005540291128e-07,-7.782043666590939e-08,-2.4005236771597775e-06,-1.526360491941929e-05,1.4345734645364074e-06,3.7584077231928997e-07,4.1709225643859495e-07,3.6898094171698364e-06,1.0779468987976814e-05,7.425136090641163e-07,3.41740277040035e-07,-1.2305077101077743e-06,-1.1611358158807057e-06,-1.3376818983541372e-06,-5.238738052524374e-07,-8.82897946598223e-07,-1.312402949981304e-07,-5.403222724785106e-07
-7.426677357630963e-07,-1.2858283594192098e-07,-5.0841802784685975e-06,-1.2619552549535036e-05,1.3726382537606186e-06,3.4890937160959507e-07,4.125555391561513e-07,3.6556688874881628e-06,1.3935053104038647e-05,7.33917146191321e-07,3.3500535482554157e-07,-1.2381446961237108e-06,-1.159330053185162e-06,-1.3480523882871104e-06,-5.392689699582121e-07,-8.838702692688586e-07,-1.5386822363249938e-07,-5.591465454991051e-07
-7.493793593350601e-07,-1.7377681933399567e-07,-7.48679880535829e-06,-1.0025905795829733e-05,1.3198811878715818e-06,3.2455162273817596e-07,4.0995374513287784e-07,3.633035389278984e-06,1.6965299987359265e-05,7.299906773252104e-07,3.294442497438472e-07,-1.239770066478371e-06,-1.1546694769077986e-06,-1.3566582367633344e-06,-5.512474815003769e-07,-8.86670263638331e-07,-1.6840635873281207e-07,-5.726061029580061e-07
-7.472207737708585e-07,-2.0592888906731282e-07,-9.339509253386127e-06,-8.083808737610359e-06,1.274102609662397e-06,3.06444808606363e-07,4.0964754201195073e-07,3.6159678497498507e-06,1.899061516755308e-05,7.306441737948215e-07,3.259458518068144e-07,-1.2361745810399689e-06,-1.1461267760809817e-06,-1.3588576958895364e-06,-5.598779549557425e-07,-8.914029655730757e-07,-1.7527057579178755e-07,-5.796810590387487e-07
-7.361306234901175e-07,-2.2047673900789972e-07,-1.0591302160012059e-05,-6.97125526869997e-06,1.233900816510491e-06,2.9565079701466416e-07,4.109808838399549e-07,3.5978533878091345e-06,1.9383180363216533e-05,7.350880176952423e-07,3.252069330920506e-07,-1.2277835831793581e-06,-1.1337768043864255e-06,-1.3512849496690578e-06,-5.654815311780905e-07,-8.978154888785796e-07,-1.7609809013340383e-07,-5.802799420827145e-07
-7.173279373900897e-07,-2.1589347481124772e-07,-1.139424164505399e-05,-6.499326868064467e-06,1.1994848836081212e-06,2.9125812054808483e-07,4.136056175117922e-07,3.574534959781663e-06,1.8120901258021117e-05,7.432431151838321e-07,3.278997441415968e-07,-1.2134364476714048e-06,-1.118294912572157e-06,-1.3315519045489463e-06,-5.673811963590366e-07,-9.045700922459407e-07,-1.7306699435464955e-07,-5.746084052781389e-07
-6.927528015547057e-07,-1.937537984211475e-07,-1.2036683822037808e-05,-6.420814517533789e-06,1.1723545630088447e-06,2.9105948635955347e-07,4.183501129368811e-07,3.5458171148178514e-06,1.581048699991298e-05,7.56018872929227e-07,3.3444075397093497e-07,-1.1908169304035192e-06,-1.1007286641461315e-06,-1.2981546608191067e-06,-5.637664260132811e-07,-9.092814588891708e-07,-1.6880893728635264e-07,-5.633298163202204e-07
-6.650334856908196e-07,-1.5912199504299626e-07,-1.2775749268634406e-05,-6.591931173932e-06,1.1543317817824906e-06,2.919910265314117e-07,4.265269283204099e-07,3.514466579096174e-06,1.3262423912990098e-05,7.743774114301545e-07,3.4460732064098036e-07,-1.1578920062171712e-06,-1.082515565542791e-06,-1.250786866320416e-06,-5.523047128923049e-07,-9.095076460421778e-07,-1.6616819198170397e-07,-5.479733492257542e-07
-6.375267349528166e-07,-1.1970904551746014e-07,-1.3653295513413029e-05,-6.998164355979076e-06,1.1463246998572366e-06,2.9142742609491707e-07,4.387770608459341e-07,3.484401136639292e-06,1.1171172139396977e-05,7.987026513760998e-07,3.57754689527965e-07,-1.114099057054149e-06,-1.0650371338623108e-06,-1.1907756697638448e-06,-5.328293565078673e-07,-9.039015236779532e-07,-1.6705021031893416e-07,-5.306597900728972e-07
-6.134450784217779e-07,-8.283005324084547e-08,-1.4467135546625636e-05,-7.704205236816258e-06,1.1478352634614682e-06,2.8908994262688533e-07,4.5482949548987804e-07,3.4589427269857064e-06,9.99322407329972e-06,8.290469986749942e-07,3.73478589363724e-07,-1.060606140014921e-06,-1.0487570074443082e-06,-1.1213608750065135e-06,-5.070038472723587e-07,-8.926558980132688e-07,-1.7104554024022472e-07,-5.132283825774908e-07
-5.944143487920514e-07,-5.198359696883368e-08,-1.4913363270999552e-05,-8.743807211569506e-06,1.157102986329279e-06,2.8773309608600286e-07,4.7391049499468506e-07,3.44038041158295e-06,9.822591747292224e-06,8.651601039040537e-07,3.917698266426525e-07,-1.0003145639023277e-06,-1.0329349916754229e-06,-1.0478245308299053e-06,-4.779929944213623e-07,-8.771515096684944e-07,-1.7533922719047053e-07,-4.966954172049805e-07
-5.799400589739699e-07,-2.629961407965312e-08,-1.4733801820234286e-05,-1.0143195847503909e-05,1.1711235394105002e-06,2.9152417945314603e-07,4.949073025542418e-07,3.428532146283389e-06,1.0298372823094478e-05,9.056940131213981e-07,4.1241358769313973e-07,-9.379269332102883e-07,-1.0163545691815674e-06,-9.77111581924781e-07,-4.495240640219365e-07,-8.592517946869594e-07,-1.7624764140992853e-07,-4.814220698552162e-07
-5.683221283975046e-07,-3.623693627305485e-09,-1.374527944077182e-05,-1.1830888493861982e-05,1.1859802702792233e-06,3.032196356876601e-07,5.165007286992769e-07,3.4214125942244816e-06,1.0841958877207819e-05,9.477371910612921e-07,4.3457018996840557e-07,-8.791249166998045e-07,-9.982189605617685e-07,-9.163562830145363e-07,-4.251863944987053e-07,-8.40552477170488e-07,-1.7103796619477833e-07,-4.673624835836678e-07
-5.578778276842499e-07,1.5745753377127435e-08,-1.1815900033314378e-05,-1.3633249797034753e-05,1.19766732727248e-06,3.224764770802586e-07,5.379870658717263e-07,3.4164001471843243e-06,1.0792996956873834e-05,9.878287283243799e-07,4.573364087294908e-07,-8.285170729139008e-07,-9.782265375226295e-07,-8.702786534564127e-07,-4.074891194060489e-07,-8.217299708171373e-07,-1.5879064368086947e-07,-4.5392459009460766e-07
-5.473424822312286e-07,2.826596378805253e-08,-8.935595950505177e-06,-1.5235218904902081e-05,1.2032753406725417e-06,3.464213163599669e-07,5.602147269492698e-07,3.41156266089568e-06,9.606196639882192e-06,1.0236139403019128e-06,4.806677322070915e-07,-7.877464326934667e-07,-9.560400951392955e-07,-8.38830717311787e-07,-3.9658972690887444e-07,-8.023400628364615e-07,-1.4052877208766878e-07,-4.4003027650771647e-07
-5.357694847704701e-07,2.995192777642698e-08,-5.4671089559202514e-06,-1.6221860480836516e-05,1.201890076476099e-06,3.71374634619759e-07,5.851505622549267e-07,3.406997305186504e-06,7.120332914233222e-06,1.054318940115483e-06,5.053340789131979e-07,-7.553992677608196e-07,-9.31207012077463e-07,-8.170842836912322e-07,-3.912480208835667e-07,-7.814416932225761e-07,-1.1933293594020425e-07,-4.2502144489859203e-07
-5.227966867917248e-07,2.0230158687848014e-08,-1.8602793091418683e-06,-1.6250767202649543e-05,1.1947741512877866e-06,3.941894481858939e-07,6.140776662233282e-07,3.4039229264361623e-06,3.607383241178982e-06,1.0798901980620772e-06,5.31724867258695e-07,-7.295691048387076e-07,-9.037428836428903e-07,-7.978407790870982e-07,-3.893999376465138e-07,-7.587209452289601e-07,-1.0001103996259213e-07,-4.096719572928758e-07
-5.09107495167453e-07,3.831733415917597e-09,1.1116439346578337e-06,-1.527953122810429e-05,1.1849717754514822e-06,4.1288898079717907e-07,6.462460465313101e-07,3.4034382739701887e-06,-3.448671415837446e-07,1.1004670411125998e-06,5.587909076614882e-07,-7.088225768992206e-07,-8.743854109657181e-07,-7.752886371110513e-07,-3.885551913829123e-07,-7.351272139911597e-07,-8.729427538811933e-08,-3.958921692820897e-07
-4.961765715970185e-07,-1.0406998241515022e-08,2.626317919683244e-06,-1.3547722503236268e-05,1.1763918254186695e-06,4.2692913120881204e-07,6.79174342571199e-07,3.406133472783178e-06,-3.832517546697236e-06,1.1169711751840088e-06,5.842759910910622e-07,-6.920511487137391e-07,-8.439975296863358e-07,-7.474752945712493e-07,-3.875280706612788e-07,-7.124868201532151e-07,-8.31131187169466e-08,-3.8518086668012423e-07
-4.852566842131488e-07,-1.303812229083131e-08,2.0997937062899458e-06,-1.143656874058423e-05,1.1729772331060383e-06,4.370155402658856e-07,7.100356466984116e-07,3.4126832985285843e-06,-5.634155111548331e-06,1.1314805459117284e-06,6.058961925054744e-07,-6.783119111452855e-07,-8.129615693808608e-07,-7.165692395389365e-07,-3.8423160754593873e-07,-6.925923485092989e-07,-8.528388371497699e-08,-3.775268982407058e-07
-4.766854934435768e-07,1.9915164197747057e-09,-7.312593609487735e-07,-9.29492360388349e-06,1.177332312721794e-06,4.442696690395625e-07,7.369336175664505e-07,3.4235800867314986e-06,-6.026350966310182e-06,1.1461266964084213e-06,6.221468090333079e-07,-6.671256555075215e-07,-7.814843330453123e-07,-6.873998955268944e-07,-3.772170060408013e-07,-6.765795337419015e-07,-8.90162391359862e-08,-3.718682746910849e-07
-4.701522481133099e-07,3.48745212753385e-08,-5.514633192911472e-06,-7.241278114870142e-06,1.1894966822199057e-06,4.4914868049062144e-07,7.592542407787747e-07,3.4383394717262193e-06,-3.7044917070728816e-06,1.1614735880092017e-06,6.321788242213373e-07,-6.592746312564004e-07,-7.504747429759996e-07,-6.652639614687326e-07,-3.6687467476944533e-07,-6.648264500095141e-07,-8.986702044448529e-08,-3.6726966351999636e-07
-4.652362483986574e-07,8.03869980246651e-08,-1.1291933189964882e-05,-5.2065422011458245e-06,1.2069149926552355e-06,4.5106884130343553e-07,7.771404037641396e-07,3.455316661990858e-06,2.765711544206029e-07,1.1763945682022978e-06,6.356168481036568e-07,-6.562982432709464e-07,-7.21822500677407e-07,-6.535712002480341e-07,-3.5539941283615514e-07,-6.569950231536873e-07,-8.56254511728767e-08,-3.633802353240226e-07
-4.6138528227961274e-07,1.3079131444533032e-07,-1.5818401551463914e-05,-3.227079378135584e-06,1.2259317099173779e-06,4.492416160887221e-07,7.909614325011686e-07,3.472044796170977e-06,5.171779073700717e-06,1.1896467676633362e-06,6.331258105661277e-07,-6.590527465913301e-07,-6.975865244106072e-07,-6.520790677225505e-07,-3.460815729809349e-07,-6.520164416981706e-07,-7.617552225433561e-08,-3.600567197473943e-07
-4.576764448010225e-07,1.7904933748579347e-07,-1.885448137577395e-05,-1.6641565640739422e-06,1.2433836275315894e-06,4.43924905340076e-07,8.013044662673316e-07,3.486783917870331e-06,9.945441329109268e-06,1.2010900815697975e-06,6.270214765096512e-07,-6.668324522577679e-07,-6.789330739842557e-07,-6.56883225676032e-07,-3.415685574034526e-07,-6.484977786520235e-07,-6.236593187364068e-08,-3.5723091366223027e-07
-4.5323114624242715e-07,2.2036529720627187e-07,-1.9344972225997066e-05,-1.0992867230517198e-06,1.2574832279733453e-06,4.367403363560743e-07,8.089341469801525e-07,3.498972755283697e-06,1.3665905603380533e-05,1.2110378950387654e-06,6.207357285868043e-07,-6.784561498951449e-07,-6.658917609681842e-07,-6.628366963941164e-07,-3.4417648232743673e-07,-6.458360595790756e-07,-4.5190537523079994e-08,-3.5551021460732455e-07
-4.481090676124499e-07,2.5196839966938686e-07,-1.6425717304771217e-05,-2.002635200760599e-06,1.2640605611879383e-06,4.298957776725951e-07,8.141954977104796e-07,3.5040800544194676e-06,1.567357297347376e-05,1.2188567384008188e-06,6.173974983786971e-07,-6.935371915573195e-07,-6.567959958172018e-07,-6.667870834038108e-07,-3.551205582773899e-07,-6.451561165095582e-07,-2.548354752244291e-08,-3.5657749683846834e-07
-4.434266488812061e-07,2.7266975341634234e-07,-1.2385766304831552e-05,-4.297837177287697e-06,1.2628651946224269e-06,4.2529931971305345e-07,8.164231045317102e-07,3.500870512904391e-06,1.5676101903186343e-05,1.222997850286061e-06,6.189361980378299e-07,-7.121990313229363e-07,-6.506038695128239e-07,-6.690538191345676e-07,-3.7505016264933585e-07,-6.489016704516636e-07,-3.6554425065079187e-09,-3.624085521498446e-07
