0,1,2,3,4,5,6,7,8,9,10,11,12,13,14,15,16,17
-1.430778357487258e-07,-3.7069273056458375e-06,-9.124020320280236e-08,-1.7531324303553807e-07,-5.238947374376698e-07,-1.383067594274674e-07,-3.182712727161466e-07,-2.6673446517126472e-08,5.221599763983991e-08,-1.0433492902126616e-07,-1.6776485282552528e-07,-9.363671916577461e-08,1.3053011075139194e-07,-2.133163036645049e-07,1.1054154305002576e-07,-2.213983705655211e-07,1.70336822550299e-07,1.6352445465177754e-07
-7.53949380765972e-08,-8.388260681464663e-07,-3.602914688412914e-08,-9.197229241210358e-08,-4.886031080785242e-07,-1.0577539057570735e-07,-2.8151372809295743e-07,-3.6388121135002345e-09,7.588617537266446e-08,-6.544974159514992e-08,-1.318414524176012e-07,3.5404433802126754e-08,1.951780899514632e-07,-1.0445073106424323e-07,1.3644525224745873e-07,-1.7351300503776022e-07,1.970351070208903e-07,1.7191411610016785e-07
-8.242043701902454e-09,1.9847787702182278e-06,1.1576998069221615e-08,-1.2124695973270466e-08,-4.199323307428853e-07,-6.332441764304589e-08,-2.1543743108940488e-07,2.025408163487165e-08,1.0663846925543828e-07,-8.30405346310645e-09,-7.260838321494803e-08,1.3552796347694543e-07,2.6435640195589255e-07,1.1222325613273328e-08,1.4798988413765407e-07,-1.196653036512649e-07,2.0745711330748743e-07,1.4341108884297424e-07
5.085902619976291e-08,4.272095015443395e-06,4.7502722869889386e-08,5.788675886043284e-08,-3.2162358805094833e-07,-1.6706544921288043e-08,-1.130800229004033e-07,4.272598085858259e-08,1.3767477582363154e-07,3.3864720258989677e-08,-1.7650046324352749e-09,2.0151995628109505e-07,3.0570178251236716e-07,1.8162963913543822e-07,1.4416620415128003e-07,-6.815548571449868e-08,1.9957628563078643e-07,1.3378921845683944e-07
9.636836716858938e-08,5.483813489140704e-06,7.03912639774078e-08,1.1496662251003158e-07,-2.0253687114628258e-07,2.8956866198188798e-08,-2.0914102176874135e-08,6.23299918676753e-08,1.6276111707589223e-07,5.9118729749561224e-08,6.738368654832359e-08,2.3329502707652659e-07,3.006737315823772e-07,3.174158467460902e-07,1.2748166816527078e-07,-2.4425816259388227e-08,1.7425613028197517e-07,1.6990681614080833e-07
1.253519351146667e-07,5.376811664531631e-06,8.091577486970843e-08,1.5701682694773986e-07,-7.562173089474749e-08,6.89843182137671e-08,5.247503954562433e-08,7.695788192438098e-08,1.7575993155964848e-07,7.98537066658078e-08,1.2267734928034589e-07,2.331987045077214e-07,2.36761151961777e-07,4.431821827130761e-07,1.0138877489466445e-07,8.773457211797927e-09,1.3364520838936095e-07,1.596896908943893e-07
1.369936536961627e-07,4.014934150213711e-06,8.063622373467119e-08,1.8082972494760727e-07,4.4858402072246053e-08,9.880529487010729e-08,1.096462675042413e-07,8.335167005626633e-08,1.7106201161424247e-07,8.852028470280867e-08,1.5515808536966763e-07,2.0466470391433204e-07,1.8154329596771345e-07,4.066073398538244e-07,6.854495410139625e-08,3.130593288440348e-08,8.085510703746467e-08,1.0665380964148221e-07
1.3211963995092552e-07,1.8537918344176901e-06,7.180201230654979e-08,1.8297387706969894e-07,1.4787533731061428e-07,1.1495761352710542e-07,1.4489790572397383e-07,7.892567460227536e-08,1.4565820386990717e-07,8.289506385736603e-08,1.6071165724911455e-07,1.5285631020871428e-07,1.3145622756520937e-07,3.168163628673794e-07,3.084757950945969e-08,4.551724096324565e-08,2.0722368875367526e-08,5.849957787737314e-08
1.1275345302915787e-07,-4.593821902967391e-07,5.7060504595410095e-08,1.6187804385805757e-07,2.2758156788033712e-07,1.1594098070448686e-07,1.5907376940069727e-07,6.329585338481011e-08,1.0044718403328018e-07,6.757771631927425e-08,1.4059177969090658e-07,8.46415693960883e-08,6.61638775178096e-08,1.9977300648216942e-07,-1.0117990194089654e-08,5.4418522784838844e-08,-4.062072163020757e-08,-1.0899760672592178e-09
8.138751838422369e-08,-2.3182553515457783e-06,3.828381270862772e-08,1.1857689842481986e-07,2.8067628562321166e-07,1.0174989013768271e-07,1.551412105683798e-07,3.783013319827385e-08,3.924817222927625e-08,4.57520031010022e-08,1.0037351674729618e-07,7.486136367193953e-09,-1.4481888239710087e-08,3.643996547516601e-08,-5.244720612876732e-08,5.946767239401671e-08,-9.718820498404162e-08,-7.25170684520739e-08
4.0520971599000124e-08,-3.39951309743303e-06,1.598196305879948e-08,5.6876841312617566e-08,3.040534880254557e-07,7.352688277128852e-08,1.3627865905674592e-07,5.055545487437378e-09,-3.250677500225072e-08,1.9435228403910223e-08,4.829311123753157e-08,-7.078829480033321e-08,-1.0911377120924342e-07,-8.143694966909898e-08,-9.256917823816322e-08,6.100370845265722e-08,-1.4361210719969164e-07,-1.2081001523980856e-07
-7.107572037189136e-09,-3.683607718737011e-06,-9.679787092642786e-09,-1.6137335979576986e-08,2.968709697697862e-07,3.4290696920571985e-08,1.0681131910101123e-07,-3.094227313086086e-08,-1.078009639741733e-07,-9.205382822334384e-09,-6.402938580571438e-09,-1.419369553039033e-07,-2.0868509036946648e-07,-1.7677496092294622e-07,-1.2488061866770123e-07,6.064594436976546e-08,-1.7519502029849655e-07,-1.537914438531806e-07
-5.837685583047361e-08,-3.305019849714503e-06,-3.788147789338564e-08,-9.110416978098814e-08,2.636916701206035e-07,-1.1013726164092577e-08,7.254237465532194e-08,-6.511583039329252e-08,-1.7877820410961839e-07,-3.728442292908667e-08,-5.5633520993717547e-08,-1.992278465245876e-07,-2.9906300315395885e-07,-2.6358100609235267e-07,-1.4443842264350298e-07,6.163847146323427e-08,-1.8967167352725203e-07,-1.7301773814594372e-07
-1.1049489980177647e-07,-2.5119527730686973e-06,-6.772803762257029e-08,-1.598318674231984e-07,2.135474195049135e-07,-5.739121608931701e-08,3.8011215165638267e-08,-9.38666479744238e-08,-2.393232720391847e-07,-6.263722011551312e-08,-9.470412664893127e-08,-2.4003886997374627e-07,-3.6686915486100566e-07,-3.284003106544626e-07,-1.507520134835485e-07,6.631259483981236e-08,-1.89365109204128e-07,-1.8175494315523131e-07
-1.618424774571692e-07,-1.648514238741559e-06,-9.916093827131483e-08,-2.1827528873719387e-07,1.5580446980643176e-07,-1.01750114235609e-07,4.228253264458821e-09,-1.1650596145447548e-07,-2.8696093999683934e-07,-8.493182788180878e-08,-1.2279809995643652e-07,-2.654754469694813e-07,-4.041609403735423e-07,-3.688261687742715e-07,-1.4837728829284223e-07,7.434088602989801e-08,-1.801891567637606e-07,-1.93654254368264e-07
-2.118179424886551e-07,-1.1142263306357392e-06,-1.3243168522343956e-07,-2.6624670058913644e-07,9.725275623745853e-08,-1.4294437428667049e-07,-2.988945701030474e-08,-1.3398384143089415e-07,-3.2198188335175444e-07,-1.0486987523045454e-07,-1.4167080685302114e-07,-2.7749067229291774e-07,-4.0999082155907446e-07,-3.763002380445367e-07,-1.438231426085947e-07,8.3733549834763e-08,-1.6804214948605353e-07,-2.1075333332405043e-07
-2.600270132167868e-07,-1.2152062215426386e-06,-1.6700561904968796e-07,-3.052778344362255e-07,4.152248249596232e-08,-1.8085111324436784e-07,-6.518826416667768e-08,-1.472149167811125e-07,-3.458266325510037e-07,-1.231924350844062e-07,-1.5465906663342663e-07,-2.7768932066719193e-07,-3.900651876448963e-07,-3.473249989592014e-07,-1.4255195888243583e-07,9.215586525556614e-08,-1.568628283037001e-07,-2.3294552240348805e-07
-3.060212648395566e-07,-1.988154786953279e-06,-2.0167638561595908e-07,-3.3751320462924874e-07,-1.0784298094080977e-08,-2.1614307626255392e-07,-1.024212838466516e-07,-1.572500405890086e-07,-3.6098712365016227e-07,-1.4085115387661467e-07,-1.6673695384717052e-07,-2.688782236945098e-07,-3.554762037002971e-07,-2.8768570850193134e-07,-1.4819995315162038e-07,9.693875303892492e-08,-1.494223574611682e-07,-2.602543013132627e-07
-3.496644753307597e-07,-3.1502619798688495e-06,-2.3538182998982997e-07,-3.6551824330631113e-07,-6.089576575745886e-08,-2.501550107119427e-07,-1.4287193692155127e-07,-1.658384443503326e-07,-3.710652816653725e-07,-1.5891782454504023e-07,-1.8395861257147895e-07,-2.558664013062427e-07,-3.198856502590266e-07,-2.1196901845764719e-07,-1.624580841058006e-07,9.56688955926124e-08,-1.478914042862911e-07,-2.903551481747148e-07
-3.9122757537118417e-07,-4.221463673252492e-06,-2.6726156058554643e-07,-3.9144785337640754e-07,-1.0915052450348834e-07,-2.8384471902161e-07,-1.8690797698786481e-07,-1.7464256364794464e-07,-3.795363899616778e-07,-1.7746796197079153e-07,-2.116789405790086e-07,-2.4397835606620945e-07,-2.953549702654957e-07,-1.3371966483675352e-07,-1.8479011534565919e-07,8.806809061294068e-08,-1.5341090413495902e-07,-3.1905322328220595e-07
-4.311104227143715e-07,-4.712084367719038e-06,-2.964619220111806e-07,-4.1640376256744657e-07,-1.5397766552817862e-07,-3.170670176086499e-07,-2.329044569739798e-07,-1.8452180098175987e-07,-3.886606179072345e-07,-1.9534721772858558e-07,-2.530560659435028e-07,-2.3787767819123934e-07,-2.891619575586888e-07,-6.564892747188749e-08,-2.1347204750597291e-07,7.645371049184216e-08,-1.668583529384729e-07,-3.42018651008155e-07
-4.69909960016309e-07,-4.467422101849189e-06,-3.2283393618576933e-07,-4.414588467196063e-07,-1.9484663501841756e-07,-3.4946157022606413e-07,-2.7904759017604303e-07,-1.9634381717463913e-07,-4.0008061711948033e-07,-2.1156450717311047e-07,-3.083823342799565e-07,-2.418589926285868e-07,-3.0338303875622637e-07,-1.909730924498457e-08,-2.4770519181154567e-07,6.36813769131356e-08,-1.9014731123960363e-07,-3.57845410591852e-07
-5.087878697976527e-07,-3.5593610791717767e-06,-3.476161284853375e-07,-4.688111533208439e-07,-2.3500090696982433e-07,-3.8155707524125903e-07,-3.2517585506646874e-07,-2.116707631969736e-07,-4.154667109165603e-07,-2.25996788664991e-07,-3.7412261070809234e-07,-2.591147322648195e-07,-3.3614722625546053e-07,-1.5812938530389106e-09,-2.8802845401595394e-07,5.139181842875767e-08,-2.2467472798633875e-07,-3.690539387545502e-07
-5.493303054969418e-07,-2.314382559892551e-06,-3.7269772438020773e-07,-5.007870395193238e-07,-2.789961195832294e-07,-4.1427880110227067e-07,-3.716164667285113e-07,-2.3172422417310456e-07,-4.354201139092689e-07,-2.3833429490384255e-07,-4.4188356496100964e-07,-2.8904336450428533e-07,-3.8281068678935527e-07,-1.469294280725661e-08,-3.3460867895817026e-07,4.019906530056846e-08,-2.6771084764212923e-07,-3.801883933149126e-07
-5.929026649543065e-07,-1.8311756447662166e-06,-3.9941092714899646e-07,-5.379335839382799e-07,-3.276950476344737e-07,-4.4789756354419255e-07,-4.1757296140066754e-07,-2.5633258109882176e-07,-4.5862402024929147e-07,-2.476221793986218e-07,-4.996626103358634e-07,-3.2592673456721786e-07,-4.37150489117777e-07,-5.374963977921163e-08,-3.86361460297366e-07,2.9749408385660912e-08,-3.1181068880331513e-07,-3.9608786465690293e-07
-6.402944751512756e-07,-1.4159201077273945e-06,-4.2857134301002583e-07,-5.78993775854254e-07,-3.774535862772178e-07,-4.823351701674408e-07,-4.622984025398702e-07,-2.847104070309994e-07,-4.832767933282521e-07,-2.5368515540630756e-07,-5.364018831958671e-07,-3.6129369556133385e-07,-4.930850571724045e-07,-1.1156857479169221e-07,-4.4183952846232686e-07,1.763501137355729e-08,-3.4842888818299516e-07,-4.2177835545120765e-07
-6.916833416366568e-07,-7.649798486182034e-07,-4.6114053995045044e-07,-6.22391578289563e-07,-4.243107949389462e-07,-5.180829291996972e-07,-5.067930804242313e-07,-3.165526090781078e-07,-5.090248400484193e-07,-2.58013804327142e-07,-5.47229622947145e-07,-3.878193412320223e-07,-5.462421873475591e-07,-1.83156164179329e-07,-4.993428466380978e-07,-4.98132664957231e-10,-3.712043365416992e-07,-4.6172482490576696e-07
-7.462728246742033e-07,-1.2644487669812872e-06,-4.978632556549812e-07,-6.667763882903185e-07,-4.6764524002468495e-07,-5.558455803937183e-07,-5.526552117394522e-07,-3.515014075414987e-07,-5.368366417877434e-07,-2.6243386346167063e-07,-5.358894424798981e-07,-4.020395793812946e-07,-5.949061903413051e-07,-2.672604023361154e-07,-5.555555016113579e-07,-2.864023816016407e-08,-3.765438873553999e-07,-5.175779994149744e-07
-8.019046325146384e-07,-2.5678259901364158e-06,-5.384243549721729e-07,-7.106655105522733e-07,-5.100688934341456e-07,-5.954145176058773e-07,-5.99995004208855e-07,-3.882019413301658e-07,-5.67686012865275e-07,-2.6774180407139013e-07,-5.136291236097278e-07,-4.057478323344418e-07,-6.408306907914612e-07,-3.6508799458531567e-07,-6.054904827723768e-07,-6.852015370752493e-08,-3.641640698864298e-07,-5.87066726627954e-07
-8.557008494811926e-07,-3.60231564159326e-06,-5.817915731094724e-07,-7.530011796892563e-07,-5.557078479088295e-07,-6.355424315390111e-07,-6.478108951508407e-07,-4.248683289403475e-07,-6.02114247153982e-07,-2.742120693950767e-07,-4.958589243763839e-07,-4.0589376480395326e-07,-6.895125299746924e-07,-4.783765752790731e-07,-6.446649212236263e-07,-1.1977704087728112e-07,-3.3830660914555615e-07,-6.653105853544434e-07
-9.055860530429524e-07,-3.6640480257672806e-06,-6.272066335338153e-07,-7.938444265940229e-07,-6.086389435100193e-07,-6.744685747766475e-07,-6.952439176774966e-07,-4.6025434421349364e-07,-6.399984510723141e-07,-2.82181391898732e-07,-4.973635162814854e-07,-4.115337356515092e-07,-7.483644364580987e-07,-6.070778944087545e-07,-6.70520055299256e-07,-1.8031025854750377e-07,-3.0614431172494086e-07,-7.462230678579094e-07
-9.512032131324624e-07,-3.63196063923927e-06,-6.739755362145528e-07,-8.32993677699945e-07,-6.705250003769583e-07,-7.095728692120044e-07,-7.405004196245007e-07,-4.931201884294757e-07,-6.791157994749353e-07,-2.9093074320058526e-07,-5.267150721521595e-07,-4.2896349937574766e-07,-8.229180336740869e-07,-7.467988217523267e-07,-6.814355582113727e-07,-2.4553513025182896e-07,-2.7322522300760154e-07,-8.226062246503897e-07
-9.93545847642642e-07,-2.466029979746051e-06,-7.205521458934901e-07,-8.679718885659534e-07,-7.384223117306231e-07,-7.368556148454827e-07,-7.793547125386421e-07,-5.213331633331337e-07,-7.140467818400982e-07,-2.9772730167307383e-07,-5.821570398428377e-07,-4.593217996080323e-07,-9.139264187026961e-07,-8.88461507863821e-07,-6.758906590179142e-07,-3.0858723643756003e-07,-2.412751678934927e-07,-8.868776654184705e-07
-1.034152000463347e-06,-1.0280987431881867e-06,-7.651753230344722e-07,-8.951992806250985e-07,-8.059386173812362e-07,-7.522333093550368e-07,-8.072458565283589e-07,-5.42841746186082e-07,-7.379561800422246e-07,-2.9923902158052956e-07,-6.514512275443498e-07,-5.003854180334926e-07,-1.0175894822294548e-06,-1.021809036877845e-06,-6.538324921678616e-07,-3.628341372037332e-07,-2.1061199357121063e-07,-9.336808411901625e-07
-1.074430583426667e-06,4.771840095387417e-07,-8.079136967045654e-07,-9.139540618880841e-07,-8.669659395732053e-07,-7.540584925772797e-07,-8.234070376249543e-07,-5.57585513837703e-07,-7.461913811906017e-07,-2.937993566391175e-07,-7.153214530573638e-07,-5.493790821376138e-07,-1.1275617187589524e-06,-1.1400153057865362e-06,-6.182198243078049e-07,-4.043310569016539e-07,-1.8260578490140846e-07,-9.621828322266707e-07
-1.1146404428950644e-06,1.7669873196639593e-06,-8.513658841250963e-07,-9.283068882240714e-07,-9.175181663561409e-07,-7.441135428436046e-07,-8.318596605218545e-07,-5.675984687607158e-07,-7.381748557615938e-07,-2.818051558973486e-07,-7.523529352549963e-07,-6.039118333232134e-07,-1.2362434499572303e-06,-1.241534046278144e-06,-5.744430924900275e-07,-4.318781996209642e-07,-1.5862329128811688e-07,-9.75873413671456e-07
-1.1526776508424556e-06,2.631703100185771e-06,-8.989982054954117e-07,-9.449082253719747e-07,-9.554033911326736e-07,-7.2646451625654e-07,-8.382433772541006e-07,-5.754482196312872e-07,-7.16832180662157e-07,-2.648159922608286e-07,-7.449041942146021e-07,-6.622627882272606e-07,-1.3355318619151459e-06,-1.3289602529960865e-06,-5.289278056391759e-07,-4.4599289561501385e-07,-1.3835214279362446e-07,-9.808806774539016e-07
-1.18411385680211e-06,2.888342840477321e-06,-9.53032685687305e-07,-9.695937680196167e-07,-9.81935390382929e-07,-7.062099620488533e-07,-8.503976210954882e-07,-5.835894340147023e-07,-6.875414391361025e-07,-2.4554080922393776e-07,-6.811368089474121e-07,-7.24516387907938e-07,-1.418466564720487e-06,-1.4065269491085433e-06,-4.88705375224794e-07,-4.488747245919885e-07,-1.2096953767038673e-07,-9.843781575815789e-07
-1.2040669898220561e-06,2.387481758376804e-06,-1.0131057932540843e-06,-1.0052243701903148e-06,-1.0053483418876785e-06,-6.889080117950294e-07,-8.756409666848216e-07,-5.948318306004777e-07,-6.571691630044651e-07,-2.2812252899260251e-07,-5.705872599865203e-07,-7.92345493156362e-07,-1.4807849859276547e-06,-1.476379291172235e-06,-4.6059583891608474e-07,-4.4464100501854143e-07,-1.0714670909709579e-07,-9.925083162207075e-07
-1.2093881681195097e-06,1.0778632910767476e-06,-1.0750966845081282e-06,-1.0498908901866688e-06,-1.0399674048137229e-06,-6.793870913973227e-07,-9.193858138477728e-07,-6.1173971943143e-07,-6.319471934217823e-07,-2.16777905567349e-07,-4.380114202116511e-07,-8.652920607202383e-07,-1.5203881595375184e-06,-1.5347740825632038e-06,-4.487181206392117e-07,-4.3847917545547483e-07,-9.864155067298282e-08,-1.0077912491761052e-06
-1.1996842505824393e-06,-9.418646763533591e-07,-1.13083386261871e-06,-1.0956500978267004e-06,-1.0994614334739577e-06,-6.800039711258422e-07,-9.816000871688194e-07,-6.350461009492771e-07,-6.150765277882557e-07,-2.137141872577891e-07,-3.1273882760681876e-07,-9.366274958050076e-07,-1.5357049726593336e-06,-1.5722903830466365e-06,-4.525899488321716e-07,-4.355364044313085e-07,-9.674072127315121e-08,-1.0284512416833326e-06
-1.177457653932804e-06,-3.3920344104937016e-06,-1.170598146836677e-06,-1.1303411397514006e-06,-1.1899742875982467e-06,-6.903157950595373e-07,-1.056655192815899e-06,-6.634379768485556e-07,-6.065322047351004e-07,-2.1848484041621925e-07,-2.994861914776449e-07,-9.937135685079612e-07,-1.525982689017482e-06,-1.5795683122803178e-06,-4.6798075792932996e-07,-4.4031867858757287e-07,-1.0209014092983011e-07,-1.050645907990175e-06
-1.1477890529193703e-06,-5.8588972210387635e-06,-1.187247634472257e-06,-1.1423294477450953e-06,-1.3077829904477005e-06,-7.083957972268481e-07,-1.1367350126804595e-06,-6.94861924730737e-07,-6.048271238980008e-07,-2.2814272182478917e-07,-3.475438784495522e-07,-1.0228645347219036e-06,-1.4939576080325866e-06,-1.5536195712415418e-06,-4.888337111920765e-07,-4.553271197358893e-07,-1.1492554442918007e-07,-1.0707732125879364e-06
-1.1168487421481192e-06,-7.905643599319226e-06,-1.1781019251407065e-06,-1.1242371405316758e-06,-1.4403514940582151e-06,-7.316691207894463e-07,-1.2115046802127626e-06,-7.27166820889402e-07,-6.080263554779073e-07,-2.3665978996618267e-07,-3.6937949153937586e-07,-1.014643948975047e-06,-1.4479515562186306e-06,-1.4992414679876855e-06,-5.082404673938334e-07,-4.787467719537717e-07,-1.3422415569628472e-07,-1.0856984190629514e-06
-1.0892534063601835e-06,-9.136783724362252e-06,-1.1438045409450818e-06,-1.0738555097384267e-06,-1.5694953853247055e-06,-7.566919741913115e-07,-1.2844357861731494e-06,-7.578977630182564e-07,-6.134983300034723e-07,-2.3510181409655773e-07,-3.596686935688855e-07,-9.669755450685774e-07,-1.4008457837157292e-06,-1.4260371941274442e-06,-5.196695379309693e-07,-5.040221279820846e-07,-1.575178522137747e-07,-1.0926360705434344e-06
-1.0662174419590095e-06,-9.311920219796564e-06,-1.0873358931450673e-06,-9.94585871900363e-07,-1.6775523113267217e-06,-7.797253179762914e-07,-1.3441305990009522e-06,-7.851052675792707e-07,-6.185527338084896e-07,-2.1471841733265433e-07,-5.022608163842724e-07,-8.859685884623955e-07,-1.366208287881834e-06,-1.3448955928720119e-06,-5.194300532160508e-07,-5.229082034489568e-07,-1.8262132590033818e-07,-1.0904377158141463e-06
-1.0460454712084037e-06,-8.460069045005465e-06,-1.0147251598723818e-06,-8.963626238131076e-07,-1.7539879129225926e-06,-7.98412121793894e-07,-1.3533284191786135e-06,-8.088167008028198e-07,-6.220469175692523e-07,-1.7118165875730363e-07,-6.804864752672628e-07,-7.844485022304758e-07,-1.3534264518359097e-06,-1.2656325229476978e-06,-5.081053624083105e-07,-5.292451400820688e-07,-2.0874382052754598e-07,-1.0807701809126387e-06
-1.0260837930740694e-06,-6.79856436323749e-06,-9.35296498556204e-07,-7.942551676824847e-07,-1.7967036050788255e-06,-8.123675488457364e-07,-1.3407977617507816e-06,-8.307075736373589e-07,-6.245645188065684e-07,-1.0625471019615226e-07,-8.020999203960951e-07,-6.783003941171371e-07,-1.3639759697775732e-06,-1.1955207370651552e-06,-4.8922524991615e-07,-5.204364573826812e-07,-2.3519721713328646e-07,-1.0675794435846391e-06
-1.0044049806581416e-06,-4.782026319126739e-06,-8.598129697034881e-07,-7.036773124741206e-07,-1.8080321444195153e-06,-8.221039739184728e-07,-1.3112776205831343e-06,-8.521533045276096e-07,-6.269390999744257e-07,-2.6563112324544016e-08,-8.771832175324287e-07,-5.822430442189378e-07,-1.3911342358617865e-06,-1.1390280442185367e-06,-4.671376387297977e-07,-4.974020954315186e-07,-2.6030139433044375e-07,-1.0559254640709826e-06
-9.80701759425418e-07,-2.770704991193617e-06,-7.978890245036832e-07,-6.357016576863436e-07,-1.7920280637394077e-06,-8.284103799521731e-07,-1.2838932484591374e-06,-8.735516516693264e-07,-6.29642344494051e-07,5.8199545286495893e-08,-9.2020709768771e-07,-5.068847415949444e-07,-1.423959445222682e-06,-1.09878585730394e-06,-4.4630908934777797e-07,-4.6464261952684066e-07,-2.826210219744462e-07,-1.051123309624869e-06
-9.56476032164517e-07,-1.0629891408401699e-06,-7.562520415091837e-07,-5.953703602401837e-07,-1.7557775707096717e-06,-8.329131536280915e-07,-1.2537803316929696e-06,-8.953844106928207e-07,-6.334907878484177e-07,1.372448707588162e-07,-9.309080978056114e-07,-4.5729480087117416e-07,-1.4529155265326934e-06,-1.0762214504074405e-06,-4.311479270849086e-07,-4.292931932955824e-07,-3.02101649982557e-07,-1.056997857443212e-06
-9.342977640372689e-07,2.4721119046843874e-07,-7.376398435345334e-07,-5.820024701734187e-07,-1.7099433606618759e-06,-8.379781773319924e-07,-1.2282718394690017e-06,-9.185232334992998e-07,-6.396705477716986e-07,2.0178235970894422e-07,-9.181397722553137e-07,-4.3270943657729544e-07,-1.473361785415249e-06,-1.0710314891668e-06,-4.248122321222368e-07,-3.9816507823296356e-07,-3.189464031170525e-07,-1.0732872980903435e-06
-9.164157583840225e-07,1.0920323454854575e-06,-7.4032320058417e-07,-5.90273284678911e-07,-1.6656423829102955e-06,-8.454297654295497e-07,-1.2264022718620596e-06,-9.431855412142093e-07,-6.486791238511482e-07,2.477249677701479e-07,-8.922382707626463e-07,-4.280250631819348e-07,-1.485879363398343e-06,-1.0811309490546587e-06,-4.2810958777429407e-07,-3.7516357271532363e-07,-3.3260805026260724e-07,-1.095111836398726e-06
-9.038648901399189e-07,1.5096391767483565e-06,-7.593261503800469e-07,-6.12684331046008e-07,-1.631368607844259e-06,-8.559678466569115e-07,-1.2364257475851166e-06,-9.68545947485456e-07,-6.601506941800239e-07,2.755782000821142e-07,-8.638820594195972e-07,-4.371447174963729e-07,-1.4947307393904647e-06,-1.1042175148118897e-06,-4.4010380149370173e-07,-3.6139329742942826e-07,-3.429458247123189e-07,-1.1158831505508808e-06
-8.965857420104526e-07,1.6653070785220254e-06,-7.889230666625857e-07,-6.427170139101504e-07,-1.6125005813672908e-06,-8.698132190971535e-07,-1.2569329165317048e-06,-9.933481809040196e-07,-6.736811573439765e-07,2.88418180983492e-07,-8.435544906703049e-07,-4.5575847661904273e-07,-1.5054137318966885e-06,-1.1390689554692357e-06,-4.59259776379174e-07,-3.5643785892062914e-07,-3.510647833236516e-07,-1.130804488166268e-06
-8.937396224610343e-07,1.6396318094311082e-06,-8.240788007860209e-07,-6.760288198821415e-07,-1.6106243751781036e-06,-8.867773305484221e-07,-1.2876290741250104e-06,-1.015823009572651e-06,-6.886529563024624e-07,2.9067442710558595e-07,-8.394333909053952e-07,-4.815006690222875e-07,-1.5219042350477303e-06,-1.1846836511022665e-06,-4.834451150012072e-07,-3.5865925229512465e-07,-3.5782189064875475e-07,-1.1381098849096122e-06
-8.936922144079526e-07,1.6834658490159479e-06,-8.601841198663872e-07,-7.093601058957409e-07,-1.6217747684473389e-06,-9.053748993076605e-07,-1.3188591789793733e-06,-1.0331531580224182e-06,-7.032264193002891e-07,2.875878497018017e-07,-8.544687001543902e-07,-5.129587353942213e-07,-1.5448872316527649e-06,-1.2388085639201818e-06,-5.099851619063617e-07,-3.654705058884029e-07,-3.626581479887695e-07,-1.1388035649755706e-06
-8.943910453537062e-07,1.6736358127908264e-06,-8.930627387882248e-07,-7.399027620656655e-07,-1.6375135568891617e-06,-9.22938519427377e-07,-1.3468857140718301e-06,-1.042533443660461e-06,-7.148091730422663e-07,2.834701969908967e-07,-8.854903229876468e-07,-5.495430743184875e-07,-1.5719583376436912e-06,-1.2982277802959392e-06,-5.372221843878252e-07,-3.74929975296213e-07,-3.649491947272972e-07,-1.1364008521146628e-06
-8.944877184991385e-07,1.3924915420586249e-06,-9.20071085811906e-07,-7.661373909947298e-07,-1.6496149116612162e-06,-9.371629027416868e-07,-1.367900284702937e-06,-1.0432550474373455e-06,-7.218895646963352e-07,2.7970832719691565e-07,-9.250333759926054e-07,-5.909022967019117e-07,-1.5988394351613795e-06,-1.3598610596312036e-06,-5.657444235774666e-07,-3.870956468649979e-07,-3.651764456043156e-07,-1.1358757208686082e-06
-8.941214033150285e-07,5.44888378595378e-07,-9.405725408254215e-07,-7.878760542936635e-07,-1.653117020471663e-06,-9.469345441487711e-07,-1.3814841660640403e-06,-1.0367843097667598e-06,-7.243937372735155e-07,2.751279977583368e-07,-9.637456527304928e-07,-6.34495548235305e-07,-1.6200115033694246e-06,-1.420369010064283e-06,-5.971072273376498e-07,-4.0336237592349775e-07,-3.634689397256364e-07,-1.141240373601994e-06
-8.945283313556523e-07,-8.308016633379026e-07,-9.55031070043092e-07,-8.046479759380289e-07,-1.6451598345567259e-06,-9.516547224321524e-07,-1.3899097105756697e-06,-1.0246417381163896e-06,-7.222009812032573e-07,2.680706124879872e-07,-9.920766834305596e-07,-6.741657186427122e-07,-1.6293674493951146e-06,-1.4751022808508582e-06,-6.315725911037104e-07,-4.250550646117493e-07,-3.5811832716805107e-07,-1.153829631727156e-06
-8.972084794518563e-07,-2.4991384203982134e-06,-9.644273039034992e-07,-8.149134991957715e-07,-1.6236813715031773e-06,-9.509208330448635e-07,-1.3952439507956337e-06,-1.0073823573447347e-06,-7.146358760247332e-07,2.571925826345562e-07,-1.0023003349373972e-06,-7.028893841709811e-07,-1.622589227944393e-06,-1.5190003641536645e-06,-6.675760204627972e-07,-4.531045645511611e-07,-3.4687306887415494e-07,-1.1729437802654002e-06
-9.034959561431209e-07,-4.087592786134e-06,-9.70791576102449e-07,-8.173115190609519e-07,-1.5886610228012078e-06,-9.45328239754715e-07,-1.400447174343596e-06,-9.858874737333594e-07,-7.01752980156782e-07,2.410182639596843e-07,-9.911992683984113e-07,-7.172236509552718e-07,-1.6001170652726172e-06,-1.5490333163714136e-06,-7.025808100899357e-07,-4.879489583497972e-07,-3.287905727565845e-07,-1.1972555916920093e-06
-9.141161751447363e-07,-5.140601813559105e-06,-9.77135226088077e-07,-8.115925439178308e-07,-1.5426440366445933e-06,-9.366226127628092e-07,-1.408932282489445e-06,-9.62295098217458e-07,-6.848617611729152e-07,2.18856503342351e-07,-9.612887871989417e-07,-7.183482840703526e-07,-1.5674608882398694e-06,-1.5652671199783757e-06,-7.3356695413212e-07,-5.284227574968849e-07,-3.0363062137708827e-07,-1.2250885394781556e-06
-9.283661250053859e-07,-5.637256717161598e-06,-9.858950240435704e-07,-7.97931404205238e-07,-1.4885990691756839e-06,-9.265132137587767e-07,-1.4217301183455791e-06,-9.390357907472044e-07,-6.653252309783752e-07,1.926960550245662e-07,-9.189922529738186e-07,-7.094861055360019e-07,-1.53229225236592e-06,-1.5699135025423538e-06,-7.575116326523621e-07,-5.711599018790822e-07,-2.7058609840697775e-07,-1.2544370112976718e-06
-9.439149236681001e-07,-5.446668251544103e-06,-9.977011901302737e-07,-7.767146102228548e-07,-1.4287969600194595e-06,-9.160117481786408e-07,-1.436621292692481e-06,-9.178731196793218e-07,-6.439572165918289e-07,1.668359525385338e-07,-8.7133776982062e-07,-6.937283540854266e-07,-1.501160602393422e-06,-1.5663834093120046e-06,-7.728533206440943e-07,-6.123132173727839e-07,-2.2952949065252694e-07,-1.2839100831064438e-06
-9.579962815900177e-07,-4.683386672572326e-06,-1.0118165421416433e-06,-7.497754835046454e-07,-1.3667171917705384e-06,-9.061419194153178e-07,-1.4508486243455034e-06,-9.00112155127165e-07,-6.219435899436155e-07,1.4517213338969654e-07,-8.238398960386507e-07,-6.73586507390794e-07,-1.4779841048104625e-06,-1.5588668660770524e-06,-7.805304095710632e-07,-6.498823547714173e-07,-1.832418742349427e-07,-1.3132690588156713e-06
-9.688830689803675e-07,-3.4648647105980486e-06,-1.026992674205342e-06,-7.20621909164147e-07,-1.3080578899649334e-06,-8.982047439553304e-07,-1.4630016235218878e-06,-8.863933097098173e-07,-6.009213917500568e-07,1.2977496455818096e-07,-7.801235810367837e-07,-6.50175724465748e-07,-1.4638501508941482e-06,-1.5511639830019526e-06,-7.827198196585692e-07,-6.836369948436743e-07,-1.3676292359004848e-07,-1.3420953898879903e-06
-9.762133101345474e-07,-2.1698407997667603e-06,-1.041577958097436e-06,-6.923835900889888e-07,-1.2583137111667915e-06,-8.926491238009043e-07,-1.4716683581913003e-06,-8.756138636525818e-07,-5.813741048008597e-07,1.2186032699352483e-07,-7.422677874554523e-07,-6.221572830225551e-07,-1.4574951322308916e-06,-1.5453956276636433e-06,-7.807828801467123e-07,-7.132953687539804e-07,-9.446608304665971e-08,-1.3682568023837397e-06
-9.805007833234755e-07,-1.2582198759519622e-06,-1.0539473641955908e-06,-6.66204264252386e-07,-1.2203787946343071e-06,-8.884562063694722e-07,-1.4747473858514736e-06,-8.652245572682195e-07,-5.620297331790939e-07,1.2219712931048663e-07,-7.114880691224605e-07,-5.872671407831285e-07,-1.4570040059240035e-06,-1.5426926660460832e-06,-7.755144915365053e-07,-7.38332590908049e-07,-5.8959670193871615e-08,-1.3888710629662653e-06
-9.829387547196546e-07,-1.0687946342479859e-06,-1.0640691582109934e-06,-6.423662548199167e-07,-1.195103485266309e-06,-8.843906944711202e-07,-1.4719510894262882e-06,-8.535495616383038e-07,-5.416998883142429e-07,1.2977741680653168e-07,-6.891634475740976e-07,-5.459530465648437e-07,-1.461965695582831e-06,-1.5451452699460194e-06,-7.690231427068764e-07,-7.596956540063178e-07,-3.218080424889758e-08,-1.402896960589071e-06
-9.853476750676076e-07,-1.6895364652417122e-06,-1.0744135622922354e-06,-6.220766782823329e-07,-1.1822390056830972e-06,-8.803266351099978e-07,-1.4664049811217017e-06,-8.411704230648071e-07,-5.207933850573401e-07,1.4150028383038074e-07,-6.773193417569325e-07,-5.029343578640728e-07,-1.4735509584603382e-06,-1.5559670794233142e-06,-7.6447869601192e-07,-7.80007949135655e-07,-1.5123598130167015e-08,-1.4118399993388773e-06
-9.894037635477758e-07,-2.502698973947364e-06,-1.0884044328756313e-06,-6.071024193853304e-07,-1.1790891074139376e-06,-8.767771532033572e-07,-1.461967370812349e-06,-8.295115440215495e-07,-5.004582028072179e-07,1.5414637713889278e-07,-6.77683112451077e-07,-4.6520616895459135e-07,-1.4922821542703263e-06,-1.5776975282338549e-06,-7.633119452362964e-07,-8.012633552082528e-07,-6.066597507422966e-09,-1.4180615984972815e-06
-9.95445858095619e-07,-3.134739245551132e-06,-1.1078720715910185e-06,-5.984315740806689e-07,-1.179441858943084e-06,-8.738736591958913e-07,-1.4600966799186334e-06,-8.190388207493587e-07,-4.814381121183151e-07,1.6586782856909084e-07,-6.899756187376494e-07,-4.396461050040376e-07,-1.5165803549166295e-06,-1.6113270063607986e-06,-7.637547776895908e-07,-8.23395544987234e-07,-1.279427718299194e-09,-1.4236800148093537e-06
-1.0019828867973717e-06,-2.4777672069125197e-06,-1.1320964461846677e-06,-5.964559374506036e-07,-1.1761028283107575e-06,-8.716905398641402e-07,-1.460652734257832e-06,-8.094789292944054e-07,-4.6483061751960725e-07,1.754069262026781e-07,-7.109586184704649e-07,-4.321078694197267e-07,-1.5437274289402634e-06,-1.656758755090305e-06,-7.625564466048645e-07,-8.455420141796853e-07,1.4778179113123251e-09,-1.4309056263494545e-06
-1.0060309117836704e-06,-1.9274281593093107e-06,-1.1582696654696086e-06,-6.016995981508534e-07,-1.164833271546241e-06,-8.709977536046757e-07,-1.46403839229116e-06,-8.005563117483441e-07,-4.530810075219496e-07,1.812634698385737e-07,-7.349922289413992e-07,-4.461688794684332e-07,-1.5712438672855264e-06,-1.7119175028016223e-06,-7.572939307469362e-07,-8.672771837011022e-07,1.3667013553443658e-09,-1.441397039308725e-06
-1.003596358734712e-06,-1.7232706382075312e-06,-1.1817121293519785e-06,-6.13929008070101e-07,-1.1454980954329506e-06,-8.72674432006877e-07,-1.4705475867710693e-06,-7.913257291584285e-07,-4.489710876002518e-07,1.8250922936198064e-07,-7.559521015121576e-07,-4.811130994283378e-07,-1.596855112511299e-06,-1.7704985083147527e-06,-7.473311142416184e-07,-8.879214369089613e-07,-3.604941837992812e-09,-1.454400296550979e-06
-9.904661800797812e-07,4.0436762342310023e-07,-1.1963293889727523e-06,-6.310379703572762e-07,-1.1213412772785877e-06,-8.767374709485899e-07,-1.4790718996361922e-06,-7.797238520430849e-07,-4.54142546913894e-07,1.792400686289526e-07,-7.699948869306731e-07,-5.318287905380602e-07,-1.6180246095973643e-06,-1.8221144260986064e-06,-7.344988942348528e-07,-9.062339578332059e-07,-1.4981621402290195e-08,-1.4667899420367979e-06
-9.639409774897778e-07,2.5024063357811988e-06,-1.1968259865174945e-06,-6.504659709889588e-07,-1.099870864597752e-06,-8.829574747872017e-07,-1.488999750407219e-06,-7.642921745396977e-07,-4.694374094970101e-07,1.711698873696633e-07,-7.778895029690184e-07,-5.911795406935669e-07,-1.6321787219232788e-06,-1.8560204160439558e-06,-7.235228595305983e-07,-9.220571133191931e-07,-3.4232314112036716e-08,-1.4756886825490497e-06
-9.246925339435836e-07,2.5824178426712365e-06,-1.181412391128973e-06,-6.717532212282948e-07,-1.0934636665670906e-06,-8.920771304699594e-07,-1.5025563255373769e-06,-7.459843110565101e-07,-4.955271616976792e-07,1.5687906871161352e-07,-7.84700414421384e-07,-6.514035193968857e-07,-1.6365393780629926e-06,-1.864410353245631e-06,-7.199146213878625e-07,-9.371832204852963e-07,-6.180309369653211e-08,-1.4800040040695307e-06
-8.768050204995358e-07,2.4581556186300538e-06,-1.1519994111285921e-06,-6.961353454301862e-07,-1.1143360918504798e-06,-9.049972713734295e-07,-1.5222612402899515e-06,-7.268725108387178e-07,-5.31133906567937e-07,1.3603794550549452e-07,-7.960134782326582e-07,-7.027724997334983e-07,-1.6269032625766569e-06,-1.8421101347871056e-06,-7.257009460265564e-07,-9.532569365247518e-07,-9.377818093204514e-08,-1.4788889965635482e-06
-8.256015316538059e-07,2.4864862633847576e-06,-1.1118865894231146e-06,-7.23161876890844e-07,-1.1653902369865063e-06,-9.204181967601513e-07,-1.5455550882626213e-06,-7.070825798512457e-07,-5.704909844345959e-07,1.1199807131588295e-07,-8.136576700454422e-07,-7.330535924844646e-07,-1.5976177154995448e-06,-1.7850596284785625e-06,-7.374809129195691e-07,-9.693691181893445e-07,-1.20809607110438e-07,-1.470178131500512e-06
-7.752240292725965e-07,2.6734335222996412e-06,-1.0641697473942781e-06,-7.488892745411968e-07,-1.236089732370092e-06,-9.343353143658069e-07,-1.5640459678963251e-06,-6.842309805146131e-07,-6.042665399524549e-07,9.071531938708672e-08,-8.349968698339819e-07,-7.313021738642818e-07,-1.5446877600137705e-06,-1.6914600016301975e-06,-7.49211326654071e-07,-9.826056747212032e-07,-1.3266610197470604e-07,-1.4517091951297362e-06
-7.278339536838812e-07,2.1000770762989466e-06,-1.012351916472869e-06,-7.678609662216767e-07,-1.3079755996075063e-06,-9.424277867101804e-07,-1.5687831105802964e-06,-6.560173372959841e-07,-6.240028700358638e-07,7.703317097401468e-08,-8.557461683145788e-07,-6.936156744407484e-07,-1.469645733116562e-06,-1.564746646533797e-06,-7.562718108664207e-07,-9.902117651467223e-07,-1.2437316838644348e-07,-1.4235952140207748e-06
-6.841397508048967e-07,9.373065654670388e-07,-9.610237711800427e-07,-7.760220302184538e-07,-1.3637276559643436e-06,-9.424637244904014e-07,-1.555065006312527e-06,-6.222600181176747e-07,-6.256174073606271e-07,7.296985377363854e-08,-8.724379327451066e-07,-6.250998454651572e-07,-1.3797488833037685e-06,-1.414109615223731e-06,-7.565669882147865e-07,-9.90202862913483e-07,-9.788235526692496e-08,-1.3882385689398214e-06
-6.439703581599504e-07,-1.3542893109859613e-06,-9.148175052456135e-07,-7.717843312484869e-07,-1.3922408049284576e-06,-9.345115214570303e-07,-1.52274121101815e-06,-5.844046642992042e-07,-6.094613980637391e-07,7.899936817646459e-08,-8.826526066540612e-07,-5.365690651550648e-07,-1.2837752841983963e-06,-1.2514256169809609e-06,-7.492964991858259e-07,-9.807998696130448e-07,-5.951742140870839e-08,-1.3488238524552588e-06
-6.066425196609286e-07,-3.41160994804043e-06,-8.769709356228876e-07,-7.561193529587792e-07,-1.3897990290610454e-06,-9.20226841458782e-07,-1.4751612798143742e-06,-5.447435007583873e-07,-5.791057813367091e-07,9.482646037069519e-08,-8.849978804757214e-07,-4.400816971936456e-07,-1.187538388177655e-06,-1.0879094398341733e-06,-7.346174267220267e-07,-9.611862691070398e-07,-1.7545586926877632e-08,-1.3088653215339896e-06
-5.715490804815558e-07,-4.636130746707055e-06,-8.492074467480069e-07,-7.329523585616528e-07,-1.3605865221150054e-06,-9.027546557659092e-07,-1.419422808931111e-06,-5.06861331970827e-07,-5.407968298445467e-07,1.1833207013220503e-07,-8.800838603915805e-07,-3.462149629076547e-07,-1.0927539004228228e-06,-9.325329090564431e-07,-7.142816859333688e-07,-9.33014737630065e-07,1.9441914905623727e-08,-1.2722537089088904e-06
-5.386374828697966e-07,-4.702587236133174e-06,-8.320764468328251e-07,-7.083189181392997e-07,-1.315495662060654e-06,-8.862040900701425e-07,-1.3650640597840285e-06,-4.7522746018506765e-07,-5.02010895453171e-07,1.455262146148998e-07,-8.707537942521218e-07,-2.619324596472686e-07,-9.984985810831144e-07,-7.905842828488215e-07,-6.907151497747399e-07,-8.997006410670242e-07,4.556904943284733e-08,-1.241656789242933e-06
-5.081488653990486e-07,-5.004791055112723e-06,-8.244322355007918e-07,-6.870886845035928e-07,-1.267210928856303e-06,-8.736691754662974e-07,-1.3195234191719491e-06,-4.527258366932046e-07,-4.682688120550834e-07,1.7266226799176595e-07,-8.604151634453652e-07,-1.8855737078310693e-07,-9.03057932241691e-07,-6.61667999205958e-07,-6.648306522900835e-07,-8.637502609204286e-07,6.069202191701028e-08,-1.2164943161388493e-06
-4.801371450368684e-07,-5.054156370853823e-06,-8.230801691225541e-07,-6.700698540204483e-07,-1.224891879467249e-06,-8.655937353811856e-07,-1.2849336156421173e-06,-4.389122781733622e-07,-4.4109341525649803e-07,1.9755153457637672e-07,-8.511531686220185e-07,-1.2221793132675024e-07,-8.058211278306694e-07,-5.396889389329987e-07,-6.35758966818956e-07,-8.258569551552728e-07,6.932090334582638e-08,-1.1937423020850066e-06
-4.5477591218867923e-07,-3.894649016479482e-06,-8.240654081249574e-07,-6.54773116811745e-07,-1.1933195616920911e-06,-8.605258725631665e-07,-1.260084306887052e-06,-4.312404624275479e-07,-4.1934750750088035e-07,2.1837299243207547e-07,-8.434026488192401e-07,-5.735651914326123e-08,-7.089688699588845e-07,-4.1631479087746013e-07,-6.029332774707499e-07,-7.868304917429675e-07,7.616069139486943e-08,-1.171131590255727e-06
-4.3306136156738783e-07,-2.2251384122683833e-06,-8.245081804094471e-07,-6.383194510427367e-07,-1.1751918366366958e-06,-8.570124341655174e-07,-1.243937745508042e-06,-4.2724971743142643e-07,-4.0164986880983756e-07,2.3264149980610716e-07,-8.365006836085692e-07,9.857615130501348e-09,-6.175172761363266e-07,-2.855721317901472e-07,-5.673430413902877e-07,-7.489419699206783e-07,8.366922190326232e-08,-1.1487592699316184e-06
-4.1658633539531985e-07,-1.357577029188563e-06,-8.229219924729747e-07,-6.18719017619738e-07,-1.1712764043891243e-06,-8.540293119018166e-07,-1.235624058251632e-06,-4.2485553275886725e-07,-3.867777150306848e-07,2.3857003729731415e-07,-8.288643394805797e-07,8.03301811372672e-08,-5.375724579920138e-07,-1.468104553603222e-07,-5.324826715789672e-07,-7.145870593305566e-07,9.334858269491331e-08,-1.127710652938255e-06
-4.063712282976758e-07,-4.546137436526042e-07,-8.184186935770782e-07,-5.944826328573718e-07,-1.1780089137166327e-06,-8.501469468111865e-07,-1.2325702724063848e-06,-4.2178102256535316e-07,-3.729405460457654e-07,2.3673415486697097e-07,-8.184639372630825e-07,1.5166956763060094e-07,-4.7463738232839933e-07,-5.947931659942728e-09,-4.991180471222588e-07,-6.846274821564677e-07,1.0679515572790626e-07,-1.1085834663351396e-06
-4.021873668139765e-07,2.352774009965121e-08,-8.107420362994057e-07,-5.652103685664961e-07,-1.1873695599755127e-06,-8.435714155968101e-07,-1.231247384582593e-06,-4.164623101227111e-07,-3.5837339892945295e-07,2.2951743118380086e-07,-8.044263932535014e-07,2.1781649526574046e-07,-4.3294566271240416e-07,1.2459288569564372e-07,-4.661435506215276e-07,-6.586180832411244e-07,1.2443134577489683e-07,-1.0918082889188354e-06
-4.03030579305263e-07,7.136328193143403e-08,-8.010064646431642e-07,-5.329559050183728e-07,-1.1903769004637757e-06,-8.330948420144481e-07,-1.2295737882855156e-06,-4.093956181239862e-07,-3.4260008471420537e-07,2.1967320146461544e-07,-7.882340495531278e-07,2.7059536335730985e-07,-4.1477439756999353e-07,2.2857235368198852e-07,-4.3640762878814213e-07,-6.35519618490238e-07,1.4490716499646992e-07,-1.0779323574390187e-06
-4.077855689018573e-07,3.730498530191836e-08,-7.912809112871152e-07,-5.01762955572679e-07,-1.1799798597273796e-06,-8.181519493151307e-07,-1.2268940299139387e-06,-4.024721595937559e-07,-3.261458013187049e-07,2.1021798897135403e-07,-7.727206749383174e-07,3.0368229016839626e-07,-4.191214775305216e-07,2.915269507639574e-07,-4.1202051020360205e-07,-6.135228263272477e-07,1.668635777784058e-07,-1.0665281104846405e-06
-4.152908187730586e-07,-2.5362458493689575e-07,-7.830700379786359e-07,-4.757027381727351e-07,-1.151562980899099e-06,-7.98151138857723e-07,-1.2221572843000226e-06,-3.9702057762320896e-07,-3.0932210107573784e-07,2.0459632824936908e-07,-7.599115363797032e-07,3.1560559917571114e-07,-4.411490983997703e-07,3.0615735628910884e-07,-3.941018469014233e-07,-5.906167000276166e-07,1.90219924087447e-07,-1.0556560014529164e-06
-4.2422047436690036e-07,-6.131625472849022e-07,-7.766902130806383e-07,-4.583544690676632e-07,-1.1040438799493892e-06,-7.729983470424295e-07,-1.2140458372016568e-06,-3.9294247139293037e-07,-2.9234709592928206e-07,2.053109391656243e-07,-7.498323654800699e-07,3.0919505539692377e-07,-4.7346807046398485e-07,2.7053228694471846e-07,-3.856921053178089e-07,-5.668196842804156e-07,2.1552984591509945e-07,-1.0431626290311245e-06
-4.330446216808614e-07,-9.81137328316069e-07,-7.717075175276314e-07,-4.5340066574464546e-07,-1.041813121507147e-06,-7.444917246416364e-07,-1.2023867376609758e-06,-3.8882425719598113e-07,-2.7624258347445904e-07,2.1247943818001576e-07,-7.403719387496154e-07,2.895081903520609e-07,-5.076857839085473e-07,1.9735500757340891e-07,-3.84141146446182e-07,-5.453434039955313e-07,2.4439705161904036e-07,-1.027592324573692e-06
-4.395544416899408e-07,-1.3690477949665803e-06,-7.665623395371633e-07,-4.6288662512535524e-07,-9.734074964405888e-07,-7.161559476292128e-07,-1.1871387422817833e-06,-3.813679635463306e-07,-2.6215029419181147e-07,2.2454426275646705e-07,-7.275517546754744e-07,2.6310625712984253e-07,-5.344204802984187e-07,1.0916775732279285e-07,-3.6274641859859873e-07,-5.304960803366607e-07,2.81940882259558e-07,-1.006988623207832e-06
-4.402230135496009e-07,-1.744082229103864e-06,-7.574950041405991e-07,-4.835773359022128e-07,-9.066390547562468e-07,-6.913803641287528e-07,-1.1659695201708723e-06,-3.651224760926815e-07,-2.4954973716518234e-07,2.398700489005557e-07,-7.068666351695014e-07,2.3781643063084935e-07,-5.431500520877632e-07,3.246427926807955e-08,-3.1533311225916987e-07,-5.245263610077309e-07,3.3685950792393705e-07,-9.776951480749105e-07
-4.307840593535921e-07,-1.935419701256548e-06,-7.392268287899961e-07,-5.063857639947751e-07,-8.456635362416696e-07,-6.723985275808211e-07,-1.1350279889017454e-06,-3.348502670507691e-07,-2.3620128825265494e-07,2.5673678306581513e-07,-6.756966107156343e-07,2.2110681470963492e-07,-5.243791186621683e-07,6.082426232290546e-08,-2.1765995116875272e-07,-5.265218730868579e-07,4.1652001320892943e-07,-9.354829290667281e-07
-4.082672599853135e-07,-1.793718159993602e-06,-7.077154660905024e-07,-5.204486741572346e-07,-7.923691106615272e-07,-6.608613827462485e-07,-1.0927221849332013e-06,-2.8936405128688484e-07,-2.2000416423959058e-07,2.725129783526657e-07,-6.346463101210981e-07,2.184781080884692e-07,-4.7347045880794707e-07,1.481388660867491e-07,-9.193718567051157e-08,-5.331241273171922e-07,5.214731012925863e-07,-8.778860676726426e-07
-3.7265142262992386e-07,-1.3098493741354748e-06,-6.622193056997082e-07,-5.175046878562194e-07,-7.479863600779578e-07,-6.580017552207434e-07,-1.041553346706558e-06,-2.3310744350077508e-07,-2.0016022178112843e-07,2.8430875800021576e-07,-5.84546125512042e-07,2.3400245161161285e-07,-3.930370127955675e-07,1.9830113809677428e-07,-2.3568750235948284e-08,-5.394833847432836e-07,6.443606182067563e-07,-8.056979621800951e-07
-3.2661497296435757e-07,-5.676682463432623e-07,-6.052349470656912e-07,-4.93303703760579e-07,-7.123388466142823e-07,-6.63662848866792e-07,-9.865206804020328e-07,-1.7435953921236329e-07,-1.7685283394632e-07,2.9050614249408687e-07,-5.285587559587332e-07,2.713938451542038e-07,-2.924342509033992e-07,2.878729987870169e-07,3.682394102094976e-08,-5.406828606498145e-07,7.725662522511412e-07,-7.235878216315981e-07
-2.741032183896962e-07,2.0447412578967035e-07,-5.417783731630403e-07,-4.4757737371123423e-07,-6.834797787336709e-07,-6.759148850058325e-07,-9.332922094885703e-07,-1.2216867013457287e-07,-1.5109675921236063e-07,2.9100482544250947e-07,-4.696495333307867e-07,3.328075165803614e-07,-1.8538615944902904e-07,4.771327969439011e-07,1.654174535611846e-07,-5.339029859957002e-07,8.919968979487948e-07,-6.399805951303445e-07
-2.1918799731445403e-07,7.185482768678907e-07,-4.7877653733815e-07,-3.841540364008562e-07,-6.591840540678048e-07,-6.919067066480385e-07,-8.872305100098549e-07,-8.336707545435893e-08,-1.2498129815461334e-07,2.8652668531061763e-07,-4.103260960189668e-07,4.1652143996196865e-07,-8.660213408211757e-08,7.175824391801932e-07,3.2065493698654765e-07,-5.194835302899485e-07,9.915581301510797e-07,-5.649858230414643e-07
-1.6549802298107662e-07,7.104418328830241e-07,-4.2339311876696924e-07,-3.100335864885845e-07,-6.376956077890566e-07,-7.084939610251371e-07,-8.51430569156811e-07,-5.993563302521436e-08,-1.0081563038438252e-07,2.785772601723157e-07,-3.554058267452885e-07,5.164789580101651e-07,-7.588136750848007e-09,9.165057191395071e-07,4.495737347379515e-07,-4.995288706373385e-07,1.066961329112781e-06,-5.064417589084136e-07
-1.1593374436376437e-07,2.1107965130698333e-08,-3.8048635057954294e-07,-2.3328796821265427e-07,-6.170560402184523e-07,-7.222680988336316e-07,-8.248871527149357e-07,-4.828700186965895e-08,-7.970755135845317e-08,2.693440330267927e-07,-3.0633597321616395e-07,6.234099656026356e-07,4.663956659130477e-08,1.078529028479693e-06,5.213192275457851e-07,-4.758298236873072e-07,1.1201721001681594e-06,-4.668974950024664e-07
-7.286232638271172e-08,-1.2742488355968567e-06,-3.5151235645714577e-07,-1.6208106800693528e-07,-5.959194263443082e-07,-7.303326471823725e-07,-8.041217892876969e-07,-4.198192266413202e-08,-6.180785219895386e-08,2.601950337392094e-07,-2.644266459697605e-07,7.256420109252236e-07,7.760423380374862e-08,1.212287299807561e-06,5.462868371766329e-07,-4.4925050285288547e-07,1.1543584373970448e-06,-4.436740872424782e-07
-3.867162445566299e-08,-2.8786824981118286e-06,-3.356200697876716e-07,-1.0502105649461911e-07,-5.759281188103141e-07,-7.317122954110379e-07,-7.869543804806729e-07,-3.5933122605597363e-08,-4.791019149602264e-08,2.503777616043765e-07,-2.3209694445199917e-07,8.102893086314629e-07,9.060709199316479e-08,1.313000566558816e-06,5.975988448439583e-07,-4.1980680692944254e-07,1.170048916621558e-06,-4.308045432212363e-07
-1.5782871681530053e-08,-4.377163720879393e-06,-3.309944248048088e-07,-7.01139133677799e-08,-5.614629706897815e-07,-7.275041275196948e-07,-7.735228273306463e-07,-2.832269917361935e-08,-3.9736144995958835e-08,2.3820432051322057e-07,-2.1180649164837404e-07,8.663116409890691e-07,9.188117720617346e-08,1.3831081495476288e-06,6.716818200882494e-07,-3.861143828026887e-07,1.166573301706649e-06,-4.209633293287947e-07
-5.829072694215937e-09,-4.933984088176709e-06,-3.352467155606632e-07,-6.194383142919478e-08,-5.557800350052813e-07,-7.195417821090308e-07,-7.640719225680409e-07,-1.963456377930543e-08,-3.8426142079430265e-08,2.234131731684702e-07,-2.0559759162424183e-07,8.881510507601495e-07,8.718998565028548e-08,1.427927552486572e-06,7.154515830826971e-07,-3.45486304423403e-07,1.1457978806568828e-06,-4.0750036325799645e-07
-8.929373499824577e-09,-4.210467164219385e-06,-3.4582805160596477e-07,-8.004506373214332e-08,-5.581833743594896e-07,-7.094107093480796e-07,-7.575759421584554e-07,-1.1253788023891664e-08,-4.363724608733135e-08,2.0778283816515448e-07,-2.1449134048567202e-07,8.775912327054315e-07,8.155083808992595e-08,1.454507052222314e-06,7.443069637804869e-07,-2.9588486810295924e-07,1.1135770856355246e-06,-3.866917130737531e-07
-2.365883385520241e-08,-3.593274681306785e-06,-3.6082210611203095e-07,-1.193868502904276e-07,-5.647722201995072e-07,-6.983265695262881e-07,-7.522444328425175e-07,-4.464185969841054e-09,-5.379724868695337e-08,1.9417618496167746e-07,-2.3258753240603142e-07,8.43287829272675e-07,7.955381983525986e-08,1.4695971435134563e-06,7.63698148979403e-07,-2.3770404649632529e-07,1.0790533942864804e-06,-3.584826028886665e-07
-4.7140228114177994e-08,-1.3544023521901716e-06,-3.788166519235836e-07,-1.7091269642051975e-07,-5.697940052680853e-07,-6.866001114944536e-07,-7.451981403860045e-07,1.165482596973481e-09,-6.598954982866901e-08,1.847238111136916e-07,-2.5735091805230297e-07,7.981371617463394e-07,8.556577151765233e-08,1.4782215691948242e-06,7.521810273102112e-07,-1.732840918316469e-07,1.0537250394654413e-06,-3.249270247006678e-07
-7.496241429379311e-08,1.7095413426061092e-06,-3.9776311998000804e-07,-2.221180220144222e-07,-5.658723950287416e-07,-6.728124428941216e-07,-7.294688748156929e-07,9.067234509024317e-09,-7.565966458071467e-08,1.83570156843505e-07,-2.7974264157461946e-07,7.565087025035976e-07,1.0255921471424311e-07,1.4822743226984026e-06,7.275616003230647e-07,-1.0557521274720857e-07,1.0494001527419293e-06,-2.8852729969471805e-07
-1.0174141007904574e-07,3.7205980495718248e-06,-4.1472580543168604e-07,-2.6002837103482e-07,-5.456548343606561e-07,-6.544112578844889e-07,-7.016476929873859e-07,2.4389931246810495e-08,-7.78752785508186e-08,1.9399270368377896e-07,-2.840472965718257e-07,7.23065013421427e-07,1.2941327978290035e-07,1.4782317698991158e-06,7.053602037535087e-07,-3.802668900922317e-08,1.0738770181105847e-06,-2.523035015060467e-07
-1.2266572030594942e-07,3.4170079563909694e-06,-4.2710253060791457e-07,-2.7600743097934727e-07,-5.057192258913174e-07,-6.296215396191542e-07,-6.584332939387509e-07,5.0894243162332515e-08,-6.96801045049732e-08,2.170229343281963e-07,-2.520846081887316e-07,6.921502406739045e-07,1.5885986813230716e-07,1.4562549237239101e-06,7.136769307771108e-07,2.5152634228829388e-08,1.1285253671482018e-06,-2.2014094957575186e-07
-1.34856417748066e-07,2.5010800060456214e-06,-4.335693580833417e-07,-2.6848816743791133e-07,-4.4922316856933134e-07,-5.985389179126247e-07,-5.99987593694269e-07,8.916508903667606e-08,-5.1100376515174e-08,2.498710149907628e-07,-1.8401203286371661e-07,6.495311403809264e-07,1.7839633238501437e-07,1.4034254354841187e-06,7.493036977921177e-07,7.987644634559206e-08,1.2081196002402642e-06,-1.9566283115809229e-07
-1.375454072828474e-07,9.418530332012248e-07,-4.3393551230591877e-07,-2.420408688833856e-07,-3.850014798670333e-07,-5.627947845350877e-07,-5.30828733251126e-07,1.36918507962215e-07,-2.4524957246964254e-08,2.863880019180805e-07,-6.71400160041807e-08,5.813455880580542e-07,1.7396419519197597e-07,1.3097872666925292e-06,7.977396371199934e-07,1.2337180772966604e-07,1.3030227478128102e-06,-1.8059373782460823e-07
-1.316254142972569e-07,-1.984297538223874e-06,-4.2907364348725284e-07,-2.050172699591997e-07,-3.248862020938396e-07,-5.251597482561807e-07,-4.561346312062931e-07,1.8969311705174601e-07,5.919701678644746e-09,3.213300965867435e-07,1.0153074899779247e-07,4.763905892716015e-07,1.3474195440118635e-07,1.1693382672463224e-06,8.518622630572272e-07,1.5455295209584493e-07,1.401735400969862e-06,-1.7403794284752014e-07
-1.1934445754773214e-07,-3.6566433624158612e-06,-4.2120732764064775e-07,-1.6725885069399245e-07,-2.806881599089239e-07,-4.892558238339626e-07,-3.829851193778413e-07,2.416822259269359e-07,3.505921347036912e-08,3.480128796291971e-07,2.607670457297444e-07,3.375826648241053e-07,5.7902859416214524e-08,9.939699999453257e-07,8.984997770258055e-07,1.7442083965814907e-07,1.493743292996084e-06,-1.7232823576044152e-07
-1.0393155694923476e-07,-3.5917278670203604e-06,-4.133356556498223e-07,-1.371575102926883e-07,-2.603154925855809e-07,-4.582448081847999e-07,-3.178621593304022e-07,2.87580527572508e-07,5.8544921789878e-08,3.74173878945301e-07,3.7894457357509683e-07,1.9019035460644134e-07,-4.85489739971324e-08,8.088135572016133e-07,9.360899665790246e-07,1.8692433505529768e-07,1.5716358719291008e-06,-1.693999414769557e-07
-8.896157606052376e-08,-3.3068695726264874e-06,-4.0787131909937875e-07,-1.1878802161849445e-07,-2.6470430040266783e-07,-4.331920552258194e-07,-2.818344567552227e-07,3.241672905055124e-07,7.463196417137894e-08,4.1849014255589107e-07,3.769745393120047e-07,3.238856418134273e-08,-1.678096245734489e-07,6.449108098469375e-07,9.654118494782784e-07,1.9850281712158426e-07,1.6316762564715695e-06,-1.589412232015713e-07
-7.797782838631751e-08,-3.449641429241234e-06,-4.061450794135223e-07,-1.115544655179776e-07,-2.8913863258919397e-07,-4.1319923135869197e-07,-2.5583787725814776e-07,3.4957715095270917e-07,8.365691496447457e-08,4.60263188987047e-07,3.68763020533621e-07,-9.088135157716069e-08,-2.8124874314290076e-07,6.052762213410906e-07,9.85169780342668e-07,2.154511834116767e-07,1.671273213424595e-06,-1.3777578203347792e-07
-7.446223304689195e-08,-3.183323942683512e-06,-4.0895344585905475e-07,-1.1226755553315513e-07,-3.282383683163303e-07,-3.970291403974243e-07,-2.441165654847085e-07,3.6147067887769897e-07,8.625515691914386e-08,4.7289419804917596e-07,3.2537729356908226e-07,-8.559501223278449e-08,-3.757124845150889e-07,6.280896234910283e-07,9.938451011202697e-07,2.4138939420572566e-07,1.6871684335861304e-06,-1.0747164012242142e-07
-8.137842991507349e-08,-1.7595554806485345e-06,-4.165759088471526e-07,-1.168647248703468e-07,-3.7925309594027467e-07,-3.838305523938935e-07,-2.570433550818577e-07,3.570603447970863e-07,8.307617264133503e-08,4.3626655489772096e-07,2.588183766104214e-07,-1.3731031946290048e-07,-4.465780936444004e-07,6.052253413475034e-07,9.906913979856928e-07,2.767492994542281e-07,1.6776406704844728e-06,-7.301455645436467e-08
-1.0013703084833152e-07,-8.48207852768216e-07,-4.281447626923501e-07,-1.2102295462579017e-07,-4.4127599966371277e-07,-3.725877999071232e-07,-2.5883397338767645e-07,3.3483696074605173e-07,7.571647718409827e-08,3.744351742415009e-07,2.0894628068382725e-07,-1.389155592327988e-07,-4.966300225938024e-07,6.134114940122817e-07,9.771398908063616e-07,3.1903727023158667e-07,1.6442992973023274e-06,-4.078591028807249e-08
-1.3000533794190827e-07,-3.1317146646642575e-07,-4.4198803065626927e-07,-1.215086505888157e-07,-5.137102417597664e-07,-3.621982421886117e-07,-2.907779441251137e-07,2.954611568237542e-07,6.650267987904187e-08,3.21369794842474e-07,2.373421714823172e-07,9.249684761349968e-08,-5.335292817586288e-07,7.10362821698634e-07,9.55946838790635e-07,3.628484275240215e-07,1.5916001088404133e-06,-1.7350413306327185e-08
-1.684961223051148e-07,1.161072592985683e-06,-4.5698006598105784e-07,-1.1805453804476508e-07,-5.963862718741352e-07,-3.524297253007161e-07,-3.459542078294954e-07,2.4157668332401637e-07,5.7199890151857106e-08,2.933931755510227e-07,1.6038625265411694e-07,3.504898557072685e-07,-5.670419215462208e-07,8.394188001769068e-07,9.299272987187247e-07,4.01304261699481e-07,1.5262835665378788e-06,-7.847378137396234e-09
-2.1202120802782715e-07,3.5199182469269144e-06,-4.729803646042698e-07,-1.130514843969432e-07,-6.892010018747415e-07,-3.439160945613243e-07,-4.0361160875832023e-07,1.7809198623027685e-07,4.882339365349395e-08,2.9627040278854513e-07,-3.050177125400732e-08,5.321542199918659e-07,-6.057046762028491e-07,9.030114105676814e-07,9.022606066350533e-07,4.294159247914842e-07,1.4579433068107315e-06,-1.3690218410440252e-08
-2.5636282263029444e-07,4.662872363485406e-06,-4.899135137243423e-07,-1.0887971248870568e-07,-7.901975920565561e-07,-3.369898244531274e-07,-4.834163462680308e-07,1.1231854812233665e-07,4.2470140375327486e-08,3.0853161289159715e-07,-2.0356893488357047e-07,6.413808762803967e-07,-6.539781208181255e-07,9.095408587859268e-07,8.770227225896917e-07,4.4631117903576276e-07,1.3976421838552187e-06,-3.1958177456536975e-08
-2.974865008337592e-07,4.580470861390714e-06,-5.072464685845454e-07,-1.0606716716009501e-07,-8.948808266764532e-07,-3.3128953329537156e-07,-5.427401838583222e-07,5.2096350380205275e-08,3.927565496762691e-08,3.293604943118252e-07,-3.3358359142202723e-07,6.908529009172101e-07,-7.118552161098111e-07,8.744221905283174e-07,8.58217695558018e-07,4.541784539922804e-07,1.35405520162887e-06,-5.753138437406664e-08
-3.327494715841578e-07,3.209049770219545e-06,-5.245500114316377e-07,-1.0367993738917021e-07,-9.976077636058849e-07,-3.265385752941058e-07,-5.78037794931608e-07,2.81550113042655e-09,3.953898322606585e-08,3.4586074351607647e-07,-4.4669958356515284e-07,6.710700493932444e-07,-7.766539416884266e-07,8.030062832336651e-07,8.484760751315992e-07,4.5597620218058803e-07,1.33032649101549e-06,-8.541045352105229e-08
-3.6152381875377494e-07,2.946477900146265e-06,-5.417615664496857e-07,-1.000646986519628e-07,-1.0918578629861982e-06,-3.2274236988241506e-07,-6.003942636112995e-07,-3.3857863651828994e-08,4.288074125353148e-08,3.5572654111074804e-07,-4.96663852534975e-07,6.189220207607974e-07,-8.446765617055543e-07,7.089637315424094e-07,8.488920739449612e-07,4.543632970980471e-07,1.3246761605978904e-06,-1.1130601282504021e-07
-3.8479392910618596e-07,3.2167730294624585e-06,-5.587346455701263e-07,-9.308660735896549e-08,-1.168855785445292e-06,-3.1949769522046444e-07,-6.054296578582668e-07,-5.934341591784648e-08,4.9201543034962743e-08,3.631133168897148e-07,-5.097226724891922e-07,5.506691688648916e-07,-9.118195876235054e-07,6.054804863145852e-07,8.591771545379293e-07,4.511475583999477e-07,1.332266152253991e-06,-1.3217698947426798e-07
-4.045379894022536e-07,3.5752416547014142e-06,-5.755093854529084e-07,-8.120372817093835e-08,-1.2185146838590217e-06,-3.161284128856796e-07,-6.078784664812724e-07,-7.75905931270179e-08,5.84375913537351e-08,3.6747216524388324e-07,-5.097723614154917e-07,4.769552692220256e-07,-9.740219895293473e-07,5.019447885185166e-07,8.770498075395128e-07,4.4626291778413463e-07,1.3459372855271287e-06,-1.4791196026918895e-07
-4.2339132173717945e-07,2.229270100191911e-06,-5.934183173247994e-07,-6.49396960961375e-08,-1.233597487750066e-06,-3.127652737272595e-07,-6.134576022989271e-07,-9.456967087317123e-08,6.951666488359057e-08,3.710655406288566e-07,-4.951594015591064e-07,4.1527917100931483e-07,-1.0275742762122194e-06,4.031145702306572e-07,8.981570686797922e-07,4.3780823665687387e-07,1.3577894007325154e-06,-1.6181335552135003e-07
-4.4391182082839123e-07,2.3450924419921443e-07,-6.150625640266959e-07,-4.6190970989806746e-08,-1.212641978443792e-06,-3.1038682361923734e-07,-6.237054812650963e-07,-1.161537673415511e-07,8.071128604167535e-08,3.7107677507215626e-07,-4.5830969817905064e-07,3.728970224399138e-07,-1.0687631402315455e-06,3.1098926221792954e-07,9.176517889609176e-07,4.240394363443912e-07,1.3627352687575908e-06,-1.7828229745530832e-07
-4.671818541052944e-07,-5.385522202377146e-07,-6.426692922045335e-07,-2.5676472041698813e-08,-1.1593495700760838e-06,-3.0952814250154364e-07,-6.391257499594733e-07,-1.452920108951505e-07,9.110991030218548e-08,3.6657657078819385e-07,-4.060357104658563e-07,3.608870915757916e-07,-1.094080609048455e-06,2.2686619237773098e-07,9.321086597128406e-07,4.051015667525663e-07,1.3600261523501557e-06,-2.0023591735967556e-07
-4.919302224786778e-07,-2.5098265334155104e-06,-6.768572822753163e-07,-2.1944307279198103e-09,-1.0811475459973975e-06,-3.097150608919643e-07,-6.566244505039939e-07,-1.8125580158952412e-07,1.0078814612345467e-07,3.5927041700075316e-07,-3.422712054037872e-07,3.8167467270823634e-07,-1.1022791497509318e-06,1.511294334363431e-07,9.397968672047556e-07,3.8281168848242593e-07,1.3511505455232768e-06,-2.287386357141143e-07
-5.150881033677187e-07,-4.024710700687264e-06,-7.168049211347659e-07,2.5319836470091432e-08,-9.883597574844624e-07,-3.1022759042022415e-07,-6.734025575483164e-07,-2.210409452214012e-07,1.0966861032209393e-07,3.50203140431359e-07,-2.6925012273708354e-07,4.2575920162887996e-07,-1.0964618784179178e-06,8.207241643832771e-08,9.402490524431455e-07,3.6002046017785203e-07,1.3375990345347294e-06,-2.635361563547894e-07
-5.330559731428353e-07,-4.19406159571339e-06,-7.604649229313108e-07,5.612891644146653e-08,-8.918903860719124e-07,-3.1042694184354463e-07,-6.880117128763559e-07,-2.604551748283882e-07,1.1739285470365343e-07,3.399633856010196e-07,-1.929977730998191e-07,4.780696028229609e-07,-1.0833488911242746e-06,1.6427741832142115e-08,9.346527219687101e-07,3.408623737400958e-07,1.3210288205687065e-06,-3.0288041809100374e-07
-5.427550973872809e-07,-3.7456113335534375e-06,-8.042814724838721e-07,8.808715354100565e-08,-7.99506541360083e-07,-3.0907934990688745e-07,-6.984514800361085e-07,-2.9436559056450595e-07,1.2437911413984124e-07,3.294736868052192e-07,-1.1779793244825764e-07,5.227094714405578e-07,-1.0701882566198287e-06,-4.894544383669037e-08,9.255042711047881e-07,3.3026935498220404e-07,1.303311087366048e-06,-3.439342482012231e-07
-5.425686356514373e-07,-2.978510033611588e-06,-8.438574021386294e-07,1.181941416243715e-07,-7.143946238356719e-07,-3.043140162527506e-07,-7.015548462227634e-07,-3.1780795313020267e-07,1.3190297135919352e-07,3.197466936206678e-07,-4.913787178171065e-08,5.466569849945533e-07,-1.0624830869481929e-06,-1.164952265224665e-07,9.143809328999766e-07,3.315722902885344e-07,1.2865230450889545e-06,-3.8465036616178133e-07
-5.331543340094036e-07,-1.7353276138541536e-06,-8.758965219636136e-07,1.4249724659430725e-07,-6.370514182588244e-07,-2.947120927123762e-07,-6.948339730359432e-07,-3.277504920600415e-07,1.4088276930816092e-07,3.111243400517091e-07,9.606853688412539e-09,5.410834003976353e-07,-1.0638676025425035e-06,-1.881631845613558e-07,9.020058639923918e-07,3.4442408789521653e-07,1.2709063769876307e-06,-4.258055283874135e-07
-5.172919614801413e-07,-2.7482512010628184e-08,-8.99409940520984e-07,1.5721304539004252e-07,-5.671733010791369e-07,-2.79898051656219e-07,-6.773157170315124e-07,-3.2331225060656025e-07,1.514400575503592e-07,3.0384778648948115e-07,5.083246345917267e-08,5.018594795765453e-07,-1.0763601910081123e-06,-2.6445597775074425e-07,8.900761561298803e-07,3.652714425743235e-07,1.2572937507866105e-06,-4.6787617959107705e-07
-4.985546331611741e-07,1.4553847775056702e-06,-9.1510209845738e-07,1.6125325670664978e-07,-5.039320936646174e-07,-2.6016131869532843e-07,-6.485658283213203e-07,-3.045834436570349e-07,1.635026390459243e-07,2.991202347579043e-07,8.06707101973865e-08,4.296194693801956e-07,-1.0996745541616567e-06,-3.429878526658617e-07,8.780679189222088e-07,3.889837786998301e-07,1.2432926782162216e-06,-5.101724841508526e-07
-4.799156088302357e-07,1.7208709964602836e-06,-9.244427960974234e-07,1.5716405120595605e-07,-4.472173899380348e-07,-2.3673202597448516e-07,-6.093161140461137e-07,-2.7256568672307077e-07,1.7638228168709043e-07,2.983045992121196e-07,1.0652699577501465e-07,3.289112837237241e-07,-1.1306796316473504e-06,-4.181811638540544e-07,8.677687833212544e-07,4.095169744644753e-07,1.2314108332242774e-06,-5.496718881519627e-07
-4.631406723669491e-07,6.910263621138037e-07,-9.295210429188482e-07,1.4911158051706592e-07,-4.0075444951266434e-07,-2.1254128562182094e-07,-5.639359621619982e-07,-2.303492223503128e-07,1.8744051056024192e-07,3.009631789311147e-07,1.284991149603615e-07,2.075910641625575e-07,-1.1637728182649282e-06,-4.813061443743406e-07,8.617438657599841e-07,4.206919642135618e-07,1.2206750948218357e-06,-5.842303480168814e-07
-4.485046267223396e-07,-1.2654490270188338e-06,-9.325381422674131e-07,1.4071579571682355e-07,-3.730307990513014e-07,-1.934219146532289e-07,-5.202507035296912e-07,-1.82852606085712e-07,1.9255315643219107e-07,3.047672922896068e-07,1.4771394660044637e-07,7.76990807978871e-08,-1.1911481740592618e-06,-5.188552199764552e-07,8.619890417921081e-07,4.188875830367757e-07,1.2093144251268268e-06,-6.101948425473195e-07
-4.343561818677746e-07,-3.4071912395363246e-06,-9.343207153063153e-07,1.350821684796299e-07,-3.731334588380741e-07,-1.8445202204346279e-07,-4.856352739274846e-07,-1.3476461591916964e-07,1.886935707785765e-07,3.073254699264751e-07,1.5963942804559494e-07,-4.428590683691229e-08,-1.2028691220581727e-06,-5.161944803664689e-07,8.735910785839217e-07,4.057065226159167e-07,1.2009144452882972e-06,-6.225711526455494e-07
-4.1728196918107715e-07,-4.639464587318493e-06,-9.335718912171402e-07,1.3528430217832036e-07,-4.0511707387240586e-07,-1.8836181580834188e-07,-4.642900928140217e-07,-8.970668365639857e-08,1.753920548927523e-07,3.068451226492276e-07,1.5922359190873223e-07,-1.4123555749317285e-07,-1.1885424180885243e-06,-4.3258793206855414e-07,9.013535953525947e-07,3.8707642874817447e-07,1.1984941713535494e-06,-6.18576666560103e-07
-3.936975657866727e-07,-4.471478975542362e-06,-9.281072842605577e-07,1.4314580717724942e-07,-4.6587924452884317e-07,-2.0532707941100568e-07,-4.581956448860936e-07,-5.158411772542708e-08,1.5363476401620697e-07,3.0104406128370544e-07,1.4389666563201828e-07,-2.020254129309803e-07,-1.1411745736252267e-06,-3.514527477255916e-07,9.450226072391509e-07,3.694635858493705e-07,1.1998430731633086e-06,-5.996238921154693e-07
-3.6202041381798154e-07,-4.970496000603358e-06,-9.165493873365357e-07,1.5780853545511391e-07,-5.460959257120609e-07,-2.3354904662938672e-07,-4.6777108999510224e-07,-2.50768958029689e-08,1.249640196778818e-07,2.8733853372610407e-07,1.0950447748282276e-07,-2.2531527879691923e-07,-1.0608364713665801e-06,-1.8387033114088741e-07,9.980598787893851e-07,3.5749162713058207e-07,1.2021826435768298e-06,-5.727643180376282e-07
-3.236221052552072e-07,-5.920269100897488e-06,-8.98601106424619e-07,1.7645773962458826e-07,-6.314985284050822e-07,-2.687566137687264e-07,-4.89569555288658e-07,-1.3345531602516874e-08,9.272316413362392e-08,2.6526408303464865e-07,5.934558447009543e-08,-2.1752505886651755e-07,-9.555586832001015e-07,-4.6498357506887354e-09,1.0511648619576166e-06,3.543768420188034e-07,1.2047136914412803e-06,-5.471919314018713e-07
-2.8212231827138854e-07,-6.712179037569617e-06,-8.745858591015297e-07,1.961519469195055e-07,-7.055305999846415e-07,-3.025594637613869e-07,-5.151609039997131e-07,-1.5638224428751908e-08,6.299686554027806e-08,2.378084530035786e-07,4.050393109302967e-09,-1.8853878625822976e-07,-8.39778953233507e-07,1.6734451126414968e-07,1.0949562837832298e-06,3.622823792426367e-07,1.2067995044389813e-06,-5.323981750155834e-07
-2.422195344269023e-07,-6.298231106360309e-06,-8.459242995803531e-07,2.140698846495213e-07,-7.5779514403741e-07,-3.346768790361873e-07,-5.351332042602122e-07,-2.794912243203994e-08,4.2557339733207906e-08,2.0946176291644074e-07,-4.498061247454181e-08,-1.4964625048649535e-07,-7.320491465359177e-07,3.1103493857462675e-07,1.1226008782813749e-06,3.8113865404487694e-07,1.2116687739790467e-06,-5.34018217056604e-07
-2.088191475880033e-07,-4.952372479561594e-06,-8.159646056518656e-07,2.2644876916551442e-07,-7.804679735637216e-07,-3.574350423855155e-07,-5.445234950793057e-07,-4.5572068821110934e-08,3.561360407040454e-08,1.8351772662017717e-07,-8.201734052231188e-08,-1.1357341696533058e-07,-6.519981055527166e-07,3.789516122700022e-07,1.1303206997323763e-06,4.083392666176098e-07,1.2189648538781269e-06,-5.548592151956333e-07
-1.860510251097849e-07,-4.019067795289e-06,-7.913161755185928e-07,2.2880032245317315e-07,-7.730543486670333e-07,-3.4676369492534143e-07,-5.437714396307433e-07,-6.44048427115663e-08,4.2810232698952416e-08,1.6158970229334097e-07,-1.1875738899075351e-07,-9.385171534139598e-08,-6.159944916280791e-07,3.7650811599101994e-07,1.1207505028380637e-06,4.4067502318480453e-07,1.230121494899605e-06,-5.941802839767771e-07
-1.761488469804087e-07,-2.797548946897804e-06,-7.751263905322683e-07,2.1767862838069994e-07,-7.432169695968589e-07,-3.2064307156020855e-07,-5.359987916166484e-07,-8.08394456873307e-08,6.224801190046821e-08,1.4424437866164086e-07,-1.4866043862777467e-07,-1.0268923150539361e-07,-6.328963795257152e-07,3.452283434659464e-07,1.1015591433661597e-06,4.7589890159713054e-07,1.2396368789557408e-06,-6.469421153665641e-07
-1.7902426947677478e-07,-1.9179771091617185e-06,-7.672662293006226e-07,1.917770699701738e-07,-6.995173645704798e-07,-2.825910557641612e-07,-5.25410069692495e-07,-9.220113865343722e-08,8.999781867073141e-08,1.292349739957114e-07,-1.6227539847847952e-07,-1.480651236447433e-07,-7.018195017443736e-07,3.3421255578007973e-07,1.0755247565849744e-06,5.117751716171516e-07,1.2423884592951407e-06,-6.988565556076587e-07
-1.9270354552146452e-07,-1.2779259963988707e-06,-7.698566213484913e-07,1.5214813572381152e-07,-6.466312818013588e-07,-2.4484560225219104e-07,-5.169251232891748e-07,-9.753688210894389e-08,1.2026137661939722e-07,1.1330834599319532e-07,-1.4867695868667628e-07,-2.30318659675328e-07,-8.120073008716394e-07,3.3406452296713143e-07,1.033145993043341e-06,5.446963047021458e-07,1.2192857952543817e-06,-7.481285531753415e-07
-2.1378106779661162e-07,-8.115865227738924e-07,-7.833110035579758e-07,1.0351344061270371e-07,-5.911259099600913e-07,-2.0507898736774297e-07,-5.137193730963641e-07,-9.680058335829989e-08,1.4736267593400177e-07,9.22744427431557e-08,-1.0050889092535034e-07,-3.3958616650266683e-07,-9.440278271011495e-07,2.2570707643369867e-07,9.9515300101509e-07,5.704968846828062e-07,1.1954477223110181e-06,-7.924489473332953e-07
-2.3763061771864547e-07,-4.963656157348967e-07,-8.044858087706786e-07,5.5796750466521474e-08,-5.387596391744622e-07,-1.6667602337009192e-07,-5.141643050870678e-07,-8.904324137277319e-08,1.6876613040978928e-07,6.222503244233268e-08,-5.980609716587661e-08,-4.573390305754659e-07,-1.07296188307247e-06,9.559770301658773e-08,9.67576944148276e-07,5.862172667866081e-07,1.1818709735175065e-06,-8.27345154131713e-07
-2.590970442013024e-07,-5.40892540173239e-07,-8.305396776071339e-07,2.2223267027326066e-08,-4.881454898583766e-07,-1.3842411111502914e-07,-5.132977005409747e-07,-7.256858522855631e-08,1.8567759841506928e-07,4.011068704214959e-08,-5.9339769729558646e-08,-5.629397153929251e-07,-1.174797471952997e-06,-5.876037291585978e-09,9.519925844380584e-07,5.904654841357646e-07,1.1785309954418491e-06,-8.4283863649427e-07
-2.73756002116181e-07,-9.784593232669759e-07,-8.498087425113771e-07,1.3839234697219816e-08,-4.5044095783318764e-07,-1.1202308496474333e-07,-5.081725150869742e-07,-4.732469120290141e-08,2.0061848211132994e-07,1.0826644580610447e-08,-1.6687099350530668e-07,-6.408871167863013e-07,-1.2344886759586455e-06,-1.347516960072792e-07,9.641430667870492e-07,5.832640325626892e-07,1.1832370020656164e-06,-8.236526454127541e-07
-2.786563013368041e-07,-1.5821703105667793e-06,-8.379041289143257e-07,3.508823116854957e-08,-4.7077437694183395e-07,-8.697073638233022e-08,-5.005013705420098e-07,-1.6397694208096752e-08,2.1518186233130098e-07,-4.668870797087734e-08,-3.1743422291111154e-07,-6.835197126877138e-07,-1.251248028899946e-06,-2.0095193259478604e-07,9.776693224195033e-07,5.670948825706562e-07,1.1670242435789603e-06,-7.639380766311567e-07
-2.7197500949752596e-07,-2.0330022792776965e-06,-8.035113642193664e-07,8.341253858509285e-08,-5.435857097123771e-07,-6.480469493839771e-08,-4.942548417767938e-07,1.4829794001772749e-08,2.2979674553486116e-07,-1.2356804062221852e-07,-4.6697179876013675e-07,-6.888965598832775e-07,-1.2378938804911202e-06,-2.01866452971622e-07,9.805694596948047e-07,5.475957084593836e-07,1.0891072947716475e-06,-7.175104862337777e-07
-2.525035775062673e-07,-2.225111823901861e-06,-7.066829630625223e-07,1.5100298666718657e-07,-6.729210951005308e-07,-4.316806211525479e-08,-4.927183205248914e-07,3.992689460925175e-08,2.439116512804893e-07,-1.566857358086218e-07,-6.077451521952434e-07,-6.576321426512508e-07,-1.2148319581863819e-06,-1.6571985474128928e-07,9.327061670857143e-07,5.316657726356909e-07,9.479612456364296e-07,-6.938737752340905e-07
-2.1989826121291872e-07,-2.1411411640749137e-06,-5.769163457901207e-07,2.2660431676313716e-07,-8.768975761906903e-07,-2.4270011668754355e-08,-4.976687283534787e-07,5.223770906241022e-08,2.5575672193154235e-07,-1.5862364821814357e-07,-7.511063633538366e-07,-5.911577228934661e-07,-1.20126188902229e-06,-9.011015309748908e-08,8.419192331365605e-07,5.24434289071498e-07,8.472378279478907e-07,-6.848454515413744e-07
-1.7620419143895138e-07,-1.9181285735463656e-06,-4.89792129893411e-07,2.9813234558785047e-07,-9.282237875737608e-07,-9.154815408185596e-09,-5.083050057652982e-07,4.688709443827708e-08,2.631808840541967e-07,-1.4335059890262427e-07,-8.088240227115472e-07,-4.915033222885612e-07,-1.2068654786771657e-06,-1.1556074161113798e-08,7.479771049745322e-07,5.280235115913337e-07,7.636189267622386e-07,-6.794585069415764e-07
-1.245259958715556e-07,-1.7373068726776717e-06,-3.6015903464391964e-07,3.561429140866157e-07,-9.90614515974029e-07,1.980193950511608e-09,-5.197319580027982e-07,2.361571902818652e-08,2.6551870693488104e-07,-1.1389305460068928e-07,-9.134449911716106e-07,-3.631807627070952e-07,-1.228367234253682e-06,5.815570093693883e-08,6.67960847210293e-07,5.419769496232708e-07,6.56724708371427e-07,-5.944718425409251e-07
-6.955019786294511e-08,-1.6152593790637665e-06,-1.9445208483969456e-07,3.954768953345596e-07,-1.1369506547742464e-06,8.988163650204602e-09,-5.247527147947825e-07,-1.275310480777554e-08,2.639340635933887e-07,-4.867698715160276e-08,-1.1235347221073533e-06,-2.1701153454330095e-07,-1.2537937847605056e-06,1.1935807444696677e-07,5.943086680972775e-07,5.635798455962242e-07,5.161270575871344e-07,-4.819127961470648e-07
-2.047350688065082e-08,-1.4732381863117898e-06,-9.627470989265116e-08,4.139769994454676e-07,-1.2913909304561408e-06,1.1468024872982187e-08,-5.186909297416803e-07,-5.499239128237889e-08,2.5975920320393426e-07,1.010315026245211e-08,-1.3413785591662228e-06,-7.19694278878009e-08,-1.2711975687656723e-06,1.7028629955508355e-07,4.635899976249937e-07,5.884763610732928e-07,3.8022436539593984e-07,-4.1564766232757865e-07
2.1343498806665515e-08,-1.4036641322099997e-06,-6.50042468010036e-08,4.1101580486599855e-07,-1.3941045630811697e-06,8.392888486363226e-09,-5.014295020548905e-07,-9.600960431090928e-08,2.536238859958893e-07,6.434743614121729e-08,-1.4961001392387156e-06,4.8690777631952125e-08,-1.27488109843555e-06,2.114165707362563e-07,3.554896913189498e-07,6.127261117185184e-07,3.235349154216587e-07,-3.83302775553735e-07
5.496836581762017e-08,-1.5580877638711962e-06,-1.2742595640442707e-08,3.8785585468423795e-07,-1.4700699643896466e-06,-3.909881695339648e-10,-4.7469632811752757e-07,-1.2927540019651322e-07,2.466408674501235e-07,1.0079451580173896e-07,-1.6374536179931345e-06,1.24727162568257e-07,-1.2660122528917849e-06,2.4272675963128577e-07,3.058584975856834e-07,6.34790888643502e-07,3.3121568186832394e-07,-3.608896754519132e-07
4.1496273503945085e-08,-2.0474381035882334e-06,2.977281047210743e-08,3.482402056742261e-07,-1.4851653264260792e-06,-1.3029927838149376e-08,-4.39523483902911e-07,-1.4902393767822892e-07,2.4137702881624264e-07,1.160878622827554e-07,-1.6648791319151472e-06,1.4457201939705484e-07,-1.2499675802828993e-06,2.621014127284009e-07,2.8449574779075594e-07,6.551865356216217e-07,3.144964822717688e-07,-2.987744616885092e-07
-5.0752684236961804e-09,-3.147106337217322e-06,7.237730407002049e-08,2.978171483492413e-07,-1.511641648742722e-06,-2.6285577732187643e-08,-3.9681505097717937e-07,-1.5145223132185483e-07,2.41247464677681e-07,1.1289542735046228e-07,-1.7825050653886453e-06,1.0814647807595726e-07,-1.2332635696993303e-06,2.649184425684287e-07,2.251300806048195e-07,6.746170772481261e-07,2.9400202808844253e-07,-2.6074363146222274e-07
-4.1284322525738757e-08,-4.924903736413754e-06,7.590496298330899e-08,2.4374981963424014e-07,-1.5450585560549697e-06,-3.6497766631282285e-08,-3.480571693064248e-07,-1.353070912901238e-07,2.498222632983919e-07,9.828425706433532e-08,-1.9935933683156637e-06,2.800302093588642e-08,-1.2212363265081646e-06,2.4677969478992217e-07,1.696842045215217e-07,6.929919460451526e-07,2.7206248605157825e-07,-2.319866062190517e-07
-7.462038667863267e-08,-6.639519457890126e-06,3.057353261262811e-08,1.9518657064746038e-07,-1.5435672917182341e-06,-4.000022764196944e-08,-2.946428245407497e-07,-1.0132121347805137e-07,2.706244829160301e-07,8.204086632539576e-08,-2.1227709913188128e-06,-7.2540878611504e-08,-1.2173356355060069e-06,2.0739390606862713e-07,1.7542726000683068e-07,7.094900081693616e-07,2.3876149989595835e-07,-2.3825765784002548e-07
-1.0918409979943972e-07,-7.572609436042684e-06,-3.380543651073283e-08,1.627330095049492e-07,-1.567437428501935e-06,-3.423672199372678e-08,-2.385488688865276e-07,-5.230972097806738e-08,3.0589438597716735e-07,7.397917710947486e-08,-2.145444181385628e-06,-1.658979325972794e-07,-1.2242745499989508e-06,1.517333356823902e-07,1.6430259464530527e-07,7.224907630335088e-07,2.6282894614805217e-07,-2.4553053443565295e-07
-1.333734927387736e-07,-6.319212853127557e-06,-4.234242606331159e-08,1.561282099928821e-07,-1.4806849566184066e-06,-1.9685913567253978e-08,-1.8441414407367042e-07,5.987057551621387e-09,3.5601071239796346e-07,8.089100497353615e-08,-2.109668206195271e-06,-2.2890729730775448e-07,-1.2454042621953296e-06,8.810312039415179e-08,1.8358553065409695e-07,7.297935125820134e-07,3.689441105103541e-07,-2.4396418068054994e-07
-1.3894173640823753e-07,-3.145201239538861e-06,-6.382148511589866e-08,1.818900134382011e-07,-1.3423703075539829e-06,-4.283888074284794e-10,-1.389700642956896e-07,6.566630520530743e-08,4.156149185214051e-07,1.0522806057579751e-07,-2.098131334362957e-06,-2.4889604071010043e-07,-1.2841615350167177e-06,2.55923315408201e-08,2.248617674920667e-07,7.297616965602566e-07,4.708424614163442e-07,-2.3730993109754142e-07
-1.2541433207312658e-07,7.685497111781051e-08,5.153114846282512e-09,2.4156790110533794e-07,-1.200194141944085e-06,1.7409445106273353e-08,-1.0756564746595361e-07,1.1925186626749852e-07,4.7554449981680223e-07,1.4537685646582368e-07,-2.0160042261139447e-06,-2.2576684166625006e-07,-1.3414519548363504e-06,-2.8110446178714722e-08,2.712095548386917e-07,7.217893160764407e-07,5.606824912210589e-07,-2.022955333498993e-07
-9.551224787554729e-08,1.7306449378546428e-06,1.019800041196411e-07,3.2940421446833543e-07,-1.041045184022686e-06,2.7421089444978538e-08,-9.247577989360042e-08,1.6145240437213968e-07,5.295721795980348e-07,1.9578615238878997e-07,-2.0249902009202197e-06,-1.713074745002038e-07,-1.4131623273572183e-06,-6.869557189237875e-08,3.3022660092677704e-07,7.049719639366466e-07,6.327978116737407e-07,-1.6301032383687033e-07
-5.5906424001159774e-08,2.176375403788436e-06,2.0725231565972658e-07,4.307770168244192e-07,-9.402143524579594e-07,2.3931415605790315e-08,-9.408524370029769e-08,1.892082038440806e-07,5.549766303809495e-07,2.474376657508559e-07,-2.0540119719169395e-06,-1.0543258776136999e-07,-1.4900443691080717e-06,-9.55341727097899e-08,3.61763378548181e-07,6.773763766790408e-07,6.679305990022194e-07,-1.3301403691531553e-07
-1.5722356223576048e-08,4.323440378511297e-06,2.96505692695827e-07,5.251796348994045e-07,-8.917201926280465e-07,3.397684852898181e-09,-1.1113835828123781e-07,2.0174386365998572e-07,5.377684614894353e-07,2.903558657576466e-07,-2.0656774651901566e-06,-4.9351306009769335e-08,-1.5603068895958805e-06,-1.0943466193960339e-07,3.612844878519153e-07,6.379426173530467e-07,6.754448504568815e-07,-1.1520319425067534e-07
1.6182928491627515e-08,5.513158467567794e-06,3.0710788578906795e-07,5.934147548072549e-07,-8.795700139061078e-07,-3.399882705931919e-08,-1.3967332674733084e-07,2.0085088587524919e-07,5.515017335386672e-07,3.169869302412138e-07,-2.042860576938606e-06,-1.872829780596691e-08,-1.6137200910572756e-06,-1.1077394983042164e-07,3.420014061390747e-07,5.885125238099291e-07,6.697388236691929e-07,-1.1348788050128678e-07
3.3598999394019456e-08,5.483793267221219e-06,2.92325997975673e-07,6.236307475506373e-07,-8.655432052784381e-07,-8.461325601171348e-08,-1.7431506382243717e-07,1.8987012801412166e-07,5.467092270306118e-07,3.237085577323791e-07,-2.0215804797249457e-06,-2.081965275351305e-08,-1.64538679574391e-06,-1.0077954913626048e-07,3.0888093530471814e-07,5.329821747002948e-07,6.3648942842697e-07,-1.2307461552189926e-07
3.3900243793506964e-08,5.2887306619199346e-06,2.8227378580104956e-07,6.129079993533005e-07,-8.783363467904703e-07,-1.4342721089462495e-07,-2.1139203575487932e-07,1.7193576689809472e-07,5.013153991924497e-07,3.105349419916606e-07,-1.983261165321374e-06,-5.471139567433044e-08,-1.6569154469746864e-06,-8.370099628425584e-08,2.7409499101035703e-07,4.7503744883351865e-07,6.033826734804087e-07,-1.402211450105582e-07
1.797136791589194e-08,4.790972817973618e-06,2.1290834124884672e-07,5.66186247790293e-07,-9.096572595833611e-07,-2.0550090652197827e-07,-2.4938733998443166e-07,1.4964826790355856e-07,4.3037904612364855e-07,2.8086685211130533e-07,-1.9299469125410227e-06,-1.1287797725736944e-07,-1.6539606911114424e-06,-6.62433712550712e-08,2.4135377235488446e-07,4.1718878477473215e-07,5.807931476567835e-07,-1.617121813535476e-07
-1.039558836340998e-08,3.977994324783143e-06,1.045049203974238e-07,4.943560802285974e-07,-9.372651449759794e-07,-2.660795346133562e-07,-2.8680421038388653e-07,1.2583257834822656e-07,3.689682963509446e-07,2.4098200713072234e-07,-1.8814812688341016e-06,-1.8392001148896852e-07,-1.6423630782402218e-06,-5.503269451064717e-08,2.109846278055256e-07,3.6065787179569985e-07,5.680805027696331e-07,-1.852525719949187e-07
-4.593609490050711e-08,3.9210211015411825e-06,4.6180826212850895e-09,4.1084324091306286e-07,-9.63316809219695e-07,-3.2107828428113826e-07,-3.2173999041267994e-07,1.0323159589231404e-07,3.173257305034374e-07,1.97972824825933e-07,-1.835406783952619e-06,-2.5675841558767564e-07,-1.6263367553155382e-06,-5.5074630871322666e-08,1.834247089214368e-07,3.050109766867124e-07,5.755007212741915e-07,-2.078399226594789e-07
-8.388831153396312e-08,4.62304824399036e-06,-7.588484008878832e-08,3.2726339156325944e-07,-9.720419010592707e-07,-3.682428618860444e-07,-3.534583914434831e-07,8.34120748231152e-08,2.743437809901139e-07,1.5735925409050962e-07,-1.8141206306401619e-06,-3.24315064694489e-07,-1.609154395463377e-06,-6.927364790201558e-08,1.5842112165191618e-07,2.487472150148059e-07,5.933906428361003e-07,-2.2840740463821156e-07
-1.2113606900996393e-07,5.245756780191849e-06,-1.4232837731903122e-07,2.510366330691682e-07,-9.673630068160202e-07,-4.0728642213687076e-07,-3.82458224156726e-07,6.682743820117205e-08,2.429564994333949e-07,1.224411127551923e-07,-1.820765144132413e-06,-3.8382380036981885e-07,-1.593991006229311e-06,-9.744437082423376e-08,1.3553070210550182e-07,1.9138545056973147e-07,6.171352383127755e-07,-2.464938988798761e-07
-1.5596921337789665e-07,5.607595092566246e-06,-1.9244731890119368e-07,1.8584954988937903e-07,-9.594649359688709e-07,-4.3886205984553916e-07,-4.090802982016525e-07,5.366192090979963e-08,2.2237775008776672e-07,9.471981802230078e-08,-1.8470077443963792e-06,-4.3450236252788186e-07,-1.5835749651343205e-06,-1.3548761311378922e-07,1.1493846071292584e-07,1.3464710798262547e-07,6.439503474172068e-07,-2.610738152655247e-07
-1.875325451238248e-07,5.5057187235356974e-06,-2.2914615617474897e-07,1.326580950016309e-07,-9.633931672510786e-07,-4.6406673512281545e-07,-4.336705108602641e-07,4.3717350520262756e-08,2.103021093939755e-07,7.378847220135732e-08,-1.8739067337160636e-06,-4.7516744209852187e-07,-1.5793302822291847e-06,-1.7631650589377933e-07,9.732929804943237e-08,8.119611205717016e-08,6.765762800642343e-07,-2.718541611524578e-07
-2.1573115436832957e-07,4.946337973466294e-06,-2.586253785718754e-07,9.000415239310594e-08,-9.700435788082828e-07,-4.846013896530896e-07,-4.5762407929680645e-07,3.591802858083058e-08,2.03278214361791e-07,5.749128474722567e-08,-1.8941582026846637e-06,-5.028626649050926e-07,-1.5807279778828655e-06,-2.119009662523491e-07,8.253722606896364e-08,3.301282011229927e-08,7.091225492209768e-07,-2.7973766399605705e-07
-2.4106497317084475e-07,4.048347629253507e-06,-2.8582651833445565e-07,5.5006414210043395e-08,-9.804638616354973e-07,-5.02149811353508e-07,-4.822749917379429e-07,2.9039641619241682e-08,1.981264876775586e-07,4.346170356503657e-08,-1.904663607861086e-06,-5.128171270446077e-07,-1.5849546157459835e-06,-2.3503667928738194e-07,7.033607265493813e-08,-8.736553271772427e-09,7.393234681556004e-07,-2.8585539043919627e-07
-2.641330082744203e-07,2.7460272721644085e-06,-3.1435294990753747e-07,2.528521794909332e-08,-9.97219150493286e-07,-5.17277457909076e-07,-5.068904969110081e-07,2.2745173646854116e-08,1.9347464979597272e-07,3.0413108506525455e-08,-1.9007657691147525e-06,-5.005006068465592e-07,-1.5873300063602402e-06,-2.409864736431453e-07,6.089633021614245e-08,-4.3721695502921344e-08,7.701449241096496e-07,-2.9099082691297326e-07
-2.8633999810311636e-07,8.933004591720356e-07,-3.4637658920217064e-07,-1.4081473673193438e-10,-1.010345430224094e-06,-5.295629175193792e-07,-5.293924228210141e-07,1.7106029958186044e-08,1.894546614164795e-07,1.7509900839079715e-08,-1.884434130102835e-06,-4.6521033147807837e-07,-1.5827180360817206e-06,-2.2885163419091502e-07,5.3856622195482726e-08,-7.342607650027878e-08,8.025424719650413e-07,-2.961626795663432e-07
-3.072960549470366e-07,-1.401528913660632e-06,-3.824828026590373e-07,-2.1559069585244604e-08,-1.0239441907353877e-06,-5.387327945924798e-07,-5.487991951868244e-07,1.1527406771408838e-08,1.8635555531936155e-07,3.367811072617627e-09,-1.8568052258961096e-06,-4.1188500464638154e-07,-1.5669951074446602e-06,-2.011338608096909e-07,4.815162469027339e-08,-1.011485318627202e-07,8.36479591423289e-07,-3.0255705003645674e-07
-3.2783809237831717e-07,-3.7422564231560664e-06,-4.233192188171747e-07,-3.923428517896133e-08,-1.0369912236067526e-06,-5.4504330340331e-07,-5.657147249754353e-07,5.0065126190694115e-09,1.8438511298379682e-07,-1.339354309929413e-08,-1.8208853277800992e-06,-3.4913085813402824e-07,-1.5376865171066044e-06,-1.6018473198980253e-07,4.290814341999914e-08,-1.2991805349427778e-07,8.695882375398536e-07,-3.103426810072949e-07
-3.487344845976805e-07,-5.597731688813448e-06,-4.6227562958302115e-07,-5.364344301361218e-08,-1.0480989088232038e-06,-5.489127573391375e-07,-5.813778700752983e-07,-3.0652850659094827e-09,1.841704373411039e-07,-3.317444599935584e-08,-1.7812832647471636e-06,-2.866047241727335e-07,-1.4941995058637365e-06,-1.0638401725792253e-07,3.819370046250509e-08,-1.6063235312309733e-07,8.991631050783587e-07,-3.1847435258998103e-07
-3.69717707249257e-07,-6.450092713499253e-06,-5.011099380533533e-07,-6.630471119719763e-08,-1.0581767467485353e-06,-5.511201368655776e-07,-5.979771085515743e-07,-1.3218219895925323e-08,1.8633840038362962e-07,-5.5547444144123275e-08,-1.7425122499017455e-06,-2.332428052761896e-07,-1.4381120133337417e-06,-3.8982530463222746e-08,3.451474501626012e-08,-1.922533147382582e-07,9.215497385319843e-07,-3.2594061259100047e-07
-3.9116541163405626e-07,-6.0077908210520366e-06,-5.410493397687781e-07,-8.039901151941129e-08,-1.065378631411072e-06,-5.531798082514719e-07,-6.188874946751954e-07,-2.6281407313132493e-08,1.9084152670854474e-07,-7.947027681888496e-08,-1.7086263803308282e-06,-1.9544394881141048e-07,-1.3729203738031195e-06,4.225619764645568e-08,3.262191282280917e-08,-2.2268054568067827e-07,9.33459215348034e-07,-3.321630246165518e-07
-4.1346937096494846e-07,-4.3690142349474264e-06,-5.905691438047744e-07,-9.940902256053055e-08,-1.0688573968397888e-06,-5.56589650699838e-07,-6.462514775007438e-07,-4.227434079956427e-08,1.975266327207405e-07,-1.0256439959425654e-07,-1.681250477166177e-06,-1.7491787082147085e-07,-1.303028932321476e-06,1.365038021122061e-07,3.3875914044249945e-08,-2.4902796315768516e-07,9.340732087831543e-07,-3.360804387180935e-07
-4.3697265752730493e-07,-2.022116651308151e-06,-6.466333680970273e-07,-1.2488715566173163e-07,-1.06634569339424e-06,-5.617026570360674e-07,-6.783280849526782e-07,-5.93398798985803e-08,2.068557277824665e-07,-1.210921624888595e-07,-1.657993021287721e-06,-1.684815140834324e-07,-1.2330172541994869e-06,2.392534970489579e-07,3.984807413741721e-08,-2.6830272287741805e-07,9.239446881644795e-07,-3.362893754086363e-07
-4.616786408821713e-07,4.4788166680545757e-07,-6.997932054918791e-07,-1.561474450189948e-07,-1.0556991987197887e-06,-5.6790826635379e-07,-7.104138623209839e-07,-7.472656526025262e-08,2.1910237008062387e-07,-1.3170763512333806e-07,-1.6334358868534063e-06,-1.7089199786912273e-07,-1.1676148621114483e-06,3.4176734602503356e-07,5.092368103127357e-08,-2.787717133791228e-07,9.034725772037471e-07,-3.3260771986852106e-07
-4.879169075784912e-07,2.3697942467564574e-06,-7.480473864340442e-07,-1.9176576350320212e-07,-1.034403892044905e-06,-5.746052845506246e-07,-7.376246772249145e-07,-8.649158087978591e-08,2.3323626393245504e-07,-1.329422288597673e-07,-1.601960036477558e-06,-1.777050514627547e-07,-1.1112996388226558e-06,4.317119957314427e-07,6.581692353736532e-08,-2.802730729379141e-07,8.744766883931111e-07,-3.2644740286110297e-07
-5.143659945035337e-07,3.16700301898956e-06,-7.895427960355487e-07,-2.3040300182682793e-07,-1.0044434723550163e-06,-5.813076484391288e-07,-7.557301600010136e-07,-9.370297256687673e-08,2.4741420982497773e-07,-1.2478616317852315e-07,-1.5600040192397982e-06,-1.8601736960897998e-07,-1.067232368527813e-06,4.95319971335704e-07,8.266990876424955e-08,-2.730595432742005e-07,8.39872506275979e-07,-3.193564080537791e-07
-5.398295320967176e-07,2.840023351738592e-06,-8.289152580157149e-07,-2.704013516131672e-07,-9.625092992509808e-07,-5.871659169778245e-07,-7.609388088693171e-07,-9.586700198775369e-08,2.601257019364956e-07,-1.0794984636362199e-07,-1.506955169745421e-06,-1.9432061944321717e-07,-1.0370436419970389e-06,5.211561369040111e-07,9.972405306188196e-08,-2.5717893757696955e-07,8.036622850130346e-07,-3.1217149907545254e-07
-5.640661745334289e-07,1.7299183504817396e-06,-8.664451251602974e-07,-3.083581338168302e-07,-9.10419930205364e-07,-5.911883588679709e-07,-7.511284344868868e-07,-9.31744483155399e-08,2.7025522225508023e-07,-8.426003229014867e-08,-1.4451825259244392e-06,-2.0299828751173483e-07,-1.0219800048085457e-06,5.02415160984665e-07,1.1493287421031921e-07,-2.3302958925552782e-07,7.693929718849571e-07,-3.055505143033952e-07
-5.856019254705785e-07,4.064813997613759e-07,-8.870724837313869e-07,-3.4293970364534546e-07,-8.536982632191206e-07,-5.92701734517304e-07,-7.267206630615136e-07,-8.66517989684673e-08,2.7692407762396697e-07,-5.6764663594434396e-08,-1.3789217119691617e-06,-2.141093805287552e-07,-1.0235228767340163e-06,4.3839144883680974e-07,1.265725991096442e-07,-2.011691972154127e-07,7.387337585361897e-07,-2.998737021618197e-07
-6.028923381750601e-07,-5.948265847026491e-07,-8.877714021468012e-07,-3.707034134437492e-07,-7.946886188803231e-07,-5.90972714165127e-07,-6.88871486139841e-07,-7.697362700650587e-08,2.8037438160553435e-07,-2.8440442149155617e-08,-1.311705069840798e-06,-2.2982859542084596e-07,-1.0423531094228569e-06,3.370870275374654e-07,1.3460209017541434e-07,-1.6110074925981883e-07,7.13121111147741e-07,-2.942273684784993e-07
-6.147816846412595e-07,-7.799103719799038e-07,-8.709528911964351e-07,-3.8802609386064284e-07,-7.291696135464047e-07,-5.847998483566457e-07,-6.376982223672438e-07,-6.347417959812308e-08,2.8251571568714297e-07,-1.227851730794012e-09,-1.2440463139901358e-06,-2.5149618493942907e-07,-1.077312066635812e-06,2.1178040112063764e-07,1.4096882179242138e-07,-1.1160028081359767e-07,6.94656992604849e-07,-2.867859365769196e-07
-6.16251946949855e-07,-7.000065868915158e-07,-8.408955358281059e-07,-3.945224037195949e-07,-6.807076497243123e-07,-5.732413572337748e-07,-5.736743674011557e-07,-4.507946516924606e-08,2.8572992386318967e-07,2.3381945691320025e-08,-1.1737563414615023e-06,-2.797675951800001e-07,-1.12571431923784e-06,7.476571516207911e-08,1.4824805534477556e-07,-5.309372635352593e-08,6.844330701720831e-07,-2.768211504904064e-07
-6.221884314338412e-07,-1.642556070706458e-07,-8.096663238150166e-07,-3.9143051653290985e-07,-6.102660157452462e-07,-5.563849829561725e-07,-4.995538423410148e-07,-2.1813605035936083e-08,2.9161736626230703e-07,4.404343698300917e-08,-1.0985899004477731e-06,-3.136557779097038e-07,-1.1837705433370234e-06,-6.638925107418128e-08,1.585746239125842e-07,1.1040029300692525e-08,6.818975807583047e-07,-2.654668676978998e-07
-6.396454060088197e-07,-3.43199438352904e-07,-7.812140144824781e-07,-3.8323092103714433e-07,-5.092998807403231e-07,-5.34644079930058e-07,-4.191785973255431e-07,5.116044660204708e-09,3.0150541091548325e-07,6.103438230869594e-08,-1.0188276222677784e-06,-3.478205724873913e-07,-1.2461168097171406e-06,-2.069432736870574e-07,1.7398030526117363e-07,7.580152477203517e-08,6.86740689125787e-07,-2.542051676163927e-07
-6.667588684142715e-07,-1.3612010404852327e-07,-7.543510034136241e-07,-3.7009415697361873e-07,-4.222857297047734e-07,-5.076013163994496e-07,-3.353148953128254e-07,3.383305800952186e-08,3.172103835994583e-07,7.786808282598589e-08,-9.388575651843827e-07,-3.7087699517549925e-07,-1.3057261963404037e-06,-3.402454063656749e-07,1.961856794110067e-07,1.3628824470726822e-07,6.992452896876538e-07,-2.434746763529624e-07
-6.89819631341923e-07,1.5007720469782374e-06,-7.173963703089649e-07,-3.586692320750281e-07,-3.2168745341771614e-07,-4.741967062198867e-07,-2.5008244276566293e-07,6.144106701381984e-08,3.4011494294831556e-07,1.0125917861529374e-07,-8.679445286903115e-07,-3.673242550309355e-07,-1.3551902858859003e-06,-4.5583548622842866e-07,2.2521600665719578e-07,1.8827567007963942e-07,7.185110179153591e-07,-2.3273614756743955e-07
-6.972774988570777e-07,2.599762495808687e-06,-6.586667482249561e-07,-3.4337799129009726e-07,-3.189305894952243e-07,-4.3376153659415507e-07,-1.6620451772728938e-07,8.384786688748825e-08,3.697548411673083e-07,1.400571254806803e-07,-8.191214391924608e-07,-3.2250146791181827e-07,-1.3884305668722407e-06,-5.406803788377852e-07,2.587772405848138e-07,2.2909992611600294e-07,7.411636468451916e-07,-2.206665943555955e-07
-6.531798803154944e-07,1.8441563207875952e-06,-5.229922932971643e-07,-3.181026333464687e-07,-4.4537206983524136e-07,-3.8659091518236504e-07,-8.615572917001718e-08,9.70095325879469e-08,4.0363915857549737e-07,2.035143729928103e-07,-8.056144375088466e-07,-2.2850318975356941e-07,-1.4020279255813855e-06,-5.837507712563536e-07,2.9337263590184727e-07,2.592766283489534e-07,7.613128862550352e-07,-2.0527173353153152e-07
-5.803493435384187e-07,4.908793414547198e-07,-4.25033573623227e-07,-2.182640953611783e-07,-5.630008978290553e-07,-3.344733779555416e-07,-1.1193129880471589e-08,9.820319006834853e-08,4.375038228097882e-07,2.976607881537539e-07,-8.36610371694546e-07,-8.948665071798987e-08,-1.396528088074365e-06,-5.808990921203195e-07,3.244919426396967e-07,2.8263791708656784e-07,7.719343056015418e-07,-1.8527465174654265e-07
-5.305632161506861e-07,-7.884916719523144e-07,-3.4967273876814984e-07,-5.749906623391803e-08,-5.888965942991866e-07,-2.81563429256664e-07,5.746318940427915e-08,8.600471185123132e-08,4.6529285685517234e-07,4.2069052231862566e-07,-9.140991804224171e-07,7.658457131668537e-08,-1.3771827582690347e-06,-5.391734643412779e-07,3.47214575743285e-07,3.042423751769985e-07,7.657747742519304e-07,-1.619039791417476e-07
-4.854089408495072e-07,-1.1976505140528011e-06,-2.8925194473859376e-07,1.0891499706519449e-07,-6.361389467532069e-07,-2.340411082066323e-07,1.1791392209845002e-07,6.023506708824606e-08,4.80434544425805e-07,5.61450393199249e-07,-1.0308908177796817e-06,2.426190438624725e-07,-1.3521515854148047e-06,-4.755377118326267e-07,3.5717121330823526e-07,3.28290684182765e-07,7.378863578395572e-07,-1.387642070642587e-07
-4.41487697710147e-07,-1.7343066705194427e-06,-2.2577230011293138e-07,2.6863428495050694e-07,-7.264535738580998e-07,-1.9780085110207989e-07,1.6919647327225637e-07,2.2730933145969388e-08,4.78751278018341e-07,7.028884183046902e-07,-1.1705479561344656e-06,3.812758204213932e-07,-1.3282635439654575e-06,-4.1036142500229785e-07,3.533415431550282e-07,3.5727599232143725e-07,6.881614553704055e-07,-1.2027113864414474e-07
-3.411253303387611e-07,-3.1992935170873826e-06,-1.2545517240194558e-07,4.0110662360924523e-07,-8.806854259089732e-07,-1.7636094649857623e-07,2.1188870235809173e-07,-2.2806687723233874e-08,4.601650348211764e-07,8.274112927232569e-07,-1.3108355257357023e-06,4.7206135104016385e-07,-1.3080078704470186e-06,-3.613181044582114e-07,3.3746018927274345e-07,3.913575957328995e-07,6.204266088214837e-07,-1.1074766134301192e-07
-2.7034396342824715e-07,-4.546033347792988e-06,-7.529528587965916e-08,4.381066069695403e-07,-1.087177971838337e-06,-1.708062813031315e-07,2.459680943442415e-07,-7.2657712218487e-08,4.2758449667099936e-07,9.209843530186935e-07,-1.4297935002538973e-06,5.041015492494717e-07,-1.2903410746734182e-06,-3.3992718762770294e-07,3.1224891529027495e-07,4.2805977466402143e-07,5.402072998588123e-07,-1.1393983008968193e-07
-2.5705688995968827e-07,-5.057042093828562e-06,-4.2186921294676605e-08,4.4673421936341423e-07,-1.2627572737058621e-06,-1.8040524141983284e-07,2.69968257140169e-07,-1.2429391259503843e-07,3.852468755946699e-07,9.759097918408237e-07,-1.5107875701576877e-06,4.7661770507462104e-07,-1.273355057302702e-06,-3.5019211240218106e-07,2.8124486215155675e-07,4.6353306337355753e-07,4.533799592543067e-07,-1.3180551109613399e-07
-2.697252245859851e-07,-5.805943457712096e-06,-1.357243987240332e-08,4.518412004922223e-07,-1.408688963323617e-06,-2.0239986437809173e-07,2.834975789367694e-07,-1.7567208777503375e-07,3.3842430875347826e-07,9.922474793486785e-07,-1.5445266031097046e-06,3.9824614222307866e-07,-1.2557864676811539e-06,-3.8962412613082556e-07,2.4842160805797984e-07,4.943590361710174e-07,3.656182034214255e-07,-1.6376332970975192e-07
-2.692367673359866e-07,-5.23817242937175e-06,-1.9973367309570767e-08,5.262139967640729e-07,-1.4138562649648172e-06,-2.3209553409094343e-07,2.8899186079857225e-07,-2.2459020767702818e-07,2.9308366572748847e-07,9.764636095778953e-07,-1.5294600217399304e-06,2.841005391682167e-07,-1.237080647718263e-06,-4.5194669689637394e-07,2.1782106382329847e-07,5.177686163477724e-07,2.809338489076682e-07,-2.0784354417315146e-07
-2.5738864117520024e-07,-4.4067302242686475e-06,-5.996465043442006e-10,5.460093458886013e-07,-1.4200017365726893e-06,-2.643039631959572e-07,2.9017642337003234e-07,-2.6931233409178154e-07,2.542966649534779e-07,9.378195792845713e-07,-1.4718004831050043e-06,1.510260630233048e-07,-1.2171537337402117e-06,-5.303274866598022e-07,1.9242251130891715e-07,5.309202078108488e-07,2.0099285324874123e-07,-2.622738008838788e-07
-2.6463250045828836e-07,-3.454058994643655e-06,1.371886407132907e-08,5.011899487516348e-07,-1.3834512293908839e-06,-2.948283851601726e-07,2.903485410984583e-07,-3.0887103883132964e-07,2.2483464679930397e-07,8.852944289243806e-07,-1.3843113533737798e-06,1.3344127757244835e-08,-1.1963784687134723e-06,-6.18415543309756e-07,1.7181582218174587e-07,5.312345828704445e-07,1.2651129764505522e-07,-3.255496854426176e-07
-2.612464779064246e-07,-2.272945266370605e-06,1.7973515471063226e-08,4.5567936358953804e-07,-1.311051648751076e-06,-3.209062023207419e-07,2.922947053830367e-07,-3.424194176286935e-07,2.0500369873092902e-07,8.261136835784999e-07,-1.283578132957988e-06,-1.1966693033712636e-07,-1.1759489358050531e-06,-7.102342069333337e-07,1.5641248851076747e-07,5.173523474309983e-07,5.87167882121604e-08,-3.9582240827198393e-07
-3.007911694950051e-07,-1.2391360801725547e-06,1.7669207327491373e-09,3.831131722302406e-07,-1.2512725749733692e-06,-3.4145889710973006e-07,2.975557605786441e-07,-3.6924684729373705e-07,1.9283042377278425e-07,7.647153112717486e-07,-1.1868516580498426e-06,-2.441352506308603e-07,-1.158391919979981e-06,-8.007919622170214e-07,1.4695206245983978e-07,4.891764980174444e-07,-1.2342240537048418e-09,-4.709847573763353e-07
-3.4604730069947785e-07,-3.3047219761982493e-07,-1.9248609431379004e-08,2.8647565012462195e-07,-1.1788269612347462e-06,-3.574133284610554e-07,3.0494390848784346e-07,-3.896823079649655e-07,1.8450112186170296e-07,7.021409158979407e-07,-1.10861820420708e-06,-3.598310265181228e-07,-1.1471276694739652e-06,-8.869994257285918e-07,1.3984789523422447e-07,4.474448462975731e-07,-5.370576508982108e-08,-5.487100824441126e-07
-3.943891925747282e-07,4.1429143828176537e-07,-5.3515279591372086e-08,2.255172531533764e-07,-1.1001042248594737e-06,-3.7089508663314615e-07,3.113554129707712e-07,-4.0516385767881e-07,1.7603426447454254e-07,6.369012910722744e-07,-1.0566519602895817e-06,-4.673983940610388e-07,-1.1445569484910296e-06,-9.672447759967038e-07,1.3249234285138976e-07,3.938749206725274e-07,-1.0046160309564487e-07,-6.259033094459996e-07
-4.6653448474863053e-07,9.058135077732666e-07,-8.693907667049269e-08,1.8471547932042535e-07,-9.988200563213395e-07,-3.8348297658953804e-07,3.143877075363429e-07,-4.1740182772223066e-07,1.6549482900174603e-07,5.665089966660309e-07,-1.0291841514481258e-06,-5.671263732318412e-07,-1.1502645824103962e-06,-1.040341738526999e-06,1.234678230810977e-07,3.311615139837318e-07,-1.4387238622505618e-07,-6.990557057667458e-07
-5.168850325040037e-07,1.3017385402064016e-06,-1.4051879858145294e-07,1.6232733242753528e-07,-8.869604618059622e-07,-3.954479933870342e-07,3.12936418137337e-07,-4.282303735431478e-07,1.531898030086742e-07,4.880777538097738e-07,-1.0152954510139754e-06,-6.599907255219338e-07,-1.161109727449092e-06,-1.1054444871681495e-06,1.1105589037095213e-07,2.621068608954641e-07,-1.861065172350946e-07,-7.660303549660084e-07
-5.574801461718287e-07,1.8581156205767534e-06,-1.7720624018204602e-07,1.5605117694997964e-07,-7.714227626759299e-07,-4.0638710226705e-07,3.058285548709276e-07,-4.399698339479957e-07,1.4030608378167712e-07,3.986159883278668e-07,-9.982177293020224e-07,-7.485565119988982e-07,-1.172522191617066e-06,-1.1627670995434003e-06,9.421388635402299e-08,1.8911389899294936e-07,-2.2803078030950857e-07,-8.271802832634822e-07
-5.934447578932269e-07,2.7358376114064796e-06,-2.1946139086018697e-07,1.4771169935243216e-07,-6.688314781071726e-07,-4.1579612921476975e-07,2.9189454171101625e-07,-4.548170397601539e-07,1.2808918197859294e-07,2.963323380274805e-07,-9.597945422105652e-07,-8.361092037661157e-07,-1.1794583229694048e-06,-1.2130073122195665e-06,7.363579459235728e-08,1.1480011242946239e-07,-2.68370192835049e-07,-8.845030646761351e-07
-6.342571009611916e-07,3.7150937124543665e-06,-2.718392066033272e-07,1.394535176414294e-07,-5.803312785189937e-07,-4.232257896258167e-07,2.7123565381989236e-07,-4.737930894257403e-07,1.1758530197140699e-07,1.8199455819048296e-07,-8.856713585393568e-07,-9.252454067012067e-07,-1.1773651443169165e-06,-1.2567974952794047e-06,5.128339000405577e-08,4.212146831009396e-08,-3.041624522634513e-07,-9.403308957237565e-07
-6.869294472478732e-07,4.633023262845156e-06,-3.166137320906797e-07,1.342452126677035e-07,-4.949303930765165e-07,-4.288388989095429e-07,2.44884498564906e-07,-4.968227948127805e-07,1.0886781909693588e-07,5.900780037054675e-08,-7.696205402518821e-07,-1.0170859064229596e-06,-1.1639793225588473e-06,-1.2958675825664284e-06,3.030105048183581e-08,-2.6815085337372994e-08,-3.337269405526526e-07,-9.967257144328487e-07
-7.416704140394094e-07,5.232254737350431e-06,-3.6612072358305203e-07,1.313829363417344e-07,-4.102471139150121e-07,-4.3387714069254956e-07,2.1388693544978378e-07,-5.233288971753557e-07,1.0043975897356e-07,-6.68236280564099e-08,-6.178339160483186e-07,-1.110277695474755e-06,-1.140743345326382e-06,-1.333520079650444e-06,1.5387254468251942e-08,-9.125729489156625e-08,-3.5825320284425324e-07,-1.0546139182417457e-06
-7.83289001853725e-07,5.341083322669058e-06,-4.152823216558848e-07,1.3096355628628198e-07,-3.2258753138551696e-07,-4.399453102900386e-07,1.8032833257491282e-07,-5.519778770798652e-07,9.022861201519078e-08,-1.8709753416279145e-07,-4.525561637827706e-07,-1.199945831116124e-06,-1.1122107744075017e-06,-1.3726369249676533e-06,1.104408651490985e-08,-1.5057633654558288e-07,-3.7984125754916073e-07,-1.1125141262599728e-06
-8.105537006038754e-07,4.947294789877706e-06,-4.704266843166925e-07,1.33302104395466e-07,-2.374760198997052e-07,-4.479520449081727e-07,1.481314415318184e-07,-5.805357686198774e-07,7.697895644728187e-08,-2.920022488430517e-07,-2.9919579508397477e-07,-1.2788654516621427e-06,-1.0841018792013868e-06,-1.4136543531715371e-06,2.0877171528508008e-08,-2.0342357630679799e-07,-3.9951420868123924e-07,-1.166724195583207e-06
-8.272396266005309e-07,4.041965606914611e-06,-5.105340385351768e-07,1.3811736680598499e-07,-1.644407808247551e-07,-4.581753985798234e-07,1.2061472165796232e-07,-6.070956787580779e-07,6.031077168635562e-08,-3.7375483594714937e-07,-2.502021595274769e-07,-1.3408574440635511e-06,-1.0615788451492529e-06,-1.4533992166768876e-06,4.540441497110848e-08,-2.48608756062941e-07,-4.170621973043164e-07,-1.2133500765829728e-06
-8.361740143924119e-07,2.5982110834279774e-06,-5.4478305281544e-07,1.434468924578485e-07,-1.1399162957225637e-07,-4.7076034402179997e-07,9.773045539480272e-08,-6.312245595480768e-07,4.0266077017300555e-08,-4.294778340803729e-07,-2.4693386246586805e-07,-1.3830367751316791e-06,-1.0479450883855273e-06,-1.4854126650741892e-06,8.180921273883814e-08,-2.8581463637893625e-07,-4.309475129001089e-07,-1.2499088528558264e-06
-8.445782190115882e-07,6.080010979423832e-07,-5.748009167990345e-07,1.4648997124344514e-07,-9.44161118048912e-08,-4.852780994781792e-07,7.717902513246877e-08,-6.533359597976195e-07,1.7826724708253424e-08,-4.611220753434353e-07,-1.8688329211850925e-07,-1.4053524295243253e-06,-1.0438730993094565e-06,-1.5017612847087137e-06,1.2713933944800724e-07,-3.148192888307471e-07,-4.373658391181115e-07,-1.2754238800784822e-06
-8.523580794981083e-07,-1.7463940717932782e-06,-5.973427202933032e-07,1.4557557194797231e-07,-1.0670204959147611e-07,-5.000909383780463e-07,5.734079461078834e-08,-6.735551116285013e-07,-4.672244874808232e-09,-4.738577502160837e-07,-1.5496743250209246e-07,-1.409780296252879e-06,-1.0482122871806592e-06,-1.4970129328798389e-06,1.78934411482298e-07,-3.348751111297846e-07,-4.31358546654416e-07,-1.2904775143390496e-06
-8.623018549711253e-07,-4.206058587851291e-06,-6.22240393108055e-07,1.4075973558923655e-07,-1.442786920265749e-07,-5.128606913502567e-07,3.788684075439666e-08,-6.917515390743615e-07,-2.461161601023006e-08,-4.747796706706715e-07,-2.2849311613578984e-07,-1.4006519784496515e-06,-1.0600450446338243e-06,-1.472583563106151e-06,2.3483189329502653e-07,-3.4544389078725924e-07,-4.0997613983149296e-07,-1.2976388860542612e-06
-8.768542597322498e-07,-6.2862243803510325e-06,-6.456679370550623e-07,1.330586226251238e-07,-1.9573378135601327e-07,-5.215756803447942e-07,1.8928821890536913e-08,-7.077895264896686e-07,-4.030521275076579e-08,-4.7128223139714004e-07,-3.668632474873386e-07,-1.3840204956087816e-06,-1.0795556415464385e-06,-1.4370946917126792e-06,2.9274893673500445e-07,-3.4692069239362866e-07,-3.7428763356588497e-07,-1.3007677121043342e-06
-8.986506439218651e-07,-7.227218722707434e-06,-6.66623058992838e-07,1.238282955174585e-07,-2.4778636098849423e-07,-5.250061465043028e-07,9.866578435287792e-10,-7.210296091734203e-07,-5.1024965163359966e-08,-4.6888564465102485e-07,-4.80748013219935e-07,-1.365504570403236e-06,-1.1067085085373044e-06,-1.4022963957783198e-06,3.496855539932962e-07,-3.405282521938601e-07,-3.291551031759818e-07,-1.3033099080623613e-06
-9.262611657547527e-07,-6.904460012356839e-06,-6.789227163355295e-07,1.1405434208243533e-07,-2.888273775496179e-07,-5.230723814479702e-07,-1.565645295899256e-08,-7.305121043477422e-07,-5.7062409881080376e-08,-4.704144608065899e-07,-5.748861190169655e-07,-1.3488240449681789e-06,-1.1397737751987956e-06,-1.3781075527122034e-06,4.019780267708163e-07,-3.2844798722804404e-07,-2.8194257879454796e-07,-1.3074590320465189e-06
-9.567515624170184e-07,-5.619087843203271e-06,-6.906145121646284e-07,1.0314873297533194e-07,-3.1325166593657336e-07,-5.174211637256965e-07,-3.277865701527868e-08,-7.363723070260378e-07,-6.035827070093209e-08,-4.7692438358923e-07,-6.461307738022098e-07,-1.3358064598496092e-06,-1.1753134385821325e-06,-1.3698737654418895e-06,4.464294807181516e-07,-3.1407457051835554e-07,-2.40374215604638e-07,-1.3142267670209114e-06
-9.88287549191239e-07,-3.440447711117716e-06,-7.044056983782248e-07,8.906172285097232e-08,-3.230562956380767e-07,-5.108860505522232e-07,-5.35858933509425e-08,-7.401555433006678e-07,-6.389066095166085e-08,-4.880845987647573e-07,-6.891780096932265e-07,-1.3260405333070514e-06,-1.2086894013757262e-06,-1.3765035589603097e-06,4.81677280685008e-07,-3.008649045434446e-07,-2.0876317838521662e-07,-1.3230453411605656e-06
-1.0181467693670899e-06,-1.2660842889495968e-06,-7.181061807294808e-07,7.055022267062258e-08,-3.245491950705147e-07,-5.055206727601698e-07,-7.878454098829096e-08,-7.430552010434287e-07,-6.930463362926778e-08,-5.014743687138257e-07,-6.980034330637709e-07,-1.3180319323532226e-06,-1.2342677976198699e-06,-1.389976655456334e-06,5.095777095100849e-07,-2.904119626238751e-07,-1.8596509171921191e-07,-1.3315121873519432e-06
-1.0441999458767397e-06,6.555081905995396e-07,-7.325074968401242e-07,4.891752880513189e-08,-3.2399644098072523e-07,-5.014000054365691e-07,-1.046850174713939e-07,-7.447338546723626e-07,-7.573518185407907e-08,-5.131784718236714e-07,-6.744724559928103e-07,-1.3053912370610585e-06,-1.2462424727250224e-06,-1.3980978014805349e-06,5.357378297754233e-07,-2.821540706854719e-07,-1.6647496132026155e-07,-1.3367254590624161e-06
-1.0644201808013297e-06,2.5355583772038817e-06,-7.430796899949796e-07,2.7269832124011425e-08,-3.2627785292914985e-07,-4.975086183956036e-07,-1.2605960256610393e-07,-7.443587477240794e-07,-8.116241842932853e-08,-5.201077829812096e-07,-6.023054336744939e-07,-1.2794655613320324e-06,-1.2404376044427086e-06,-1.3894521010896205e-06,5.643643921788467e-07,-2.7470781060237066e-07,-1.4354320327869411e-07,-1.336790930006963e-06
-1.0775342361768594e-06,3.7250758132545753e-06,-7.485851194872871e-07,9.172416497952403e-09,-3.350269362522142e-07,-4.929996549857534e-07,-1.393424606274512e-07,-7.417549757832648e-07,-8.418411134999217e-08,-5.212553029549744e-07,-5.327802628843515e-07,-1.2364025000779816e-06,-1.2157834784239718e-06,-1.3572542696390198e-06,5.94540337388956e-07,-2.6664628605039533e-07,-1.1268011055424744e-07,-1.3315559426647141e-06
-1.083705339530719e-06,4.38291633643207e-06,-7.493650423169648e-07,-1.714211238577903e-09,-3.517341540348684e-07,-4.873039880184296e-07,-1.4301563710830372e-07,-7.371246986932654e-07,-8.439222857716527e-08,-5.168674185465378e-07,-4.862517814955409e-07,-1.1734050002923437e-06,-1.1745772381836947e-06,-1.3011925124535136e-06,6.267403324771975e-07,-2.564688432776317e-07,-7.467524039515524e-08,-1.3224465944936712e-06
-1.0843009997088682e-06,4.515287121315303e-06,-7.472153963967442e-07,-2.5110345199402486e-09,-3.752552104108731e-07,-4.801099277647885e-07,-1.3780712696784408e-07,-7.30791773558404e-07,-8.244932603395497e-08,-5.076641056680366e-07,-4.62573757426674e-07,-1.0903972572872982e-06,-1.1218591522017284e-06,-1.2257072093653052e-06,6.60350612634063e-07,-2.4306995259551313e-07,-3.3407216933352e-08,-1.3105409216477076e-06
-1.081623143930867e-06,3.857352094770703e-06,-7.436002546577258e-07,6.9980072761274135e-09,-4.030249998260949e-07,-4.7195147443327656e-07,-1.2767890619991067e-07,-7.236917126906331e-07,-8.054169926901968e-08,-4.949222554585084e-07,-4.888554790176755e-07,-9.893939613198973e-07,-1.0640850365605908e-06,-1.139321837070211e-06,6.947216080846722e-07,-2.2602712200260014e-07,5.895975789991238e-09,-1.2967985605175963e-06
-1.078207117020161e-06,2.8189716510495593e-06,-7.393854090852246e-07,2.409107049334721e-08,-4.317620617521775e-07,-4.6405557854692043e-07,-1.1812916650569853e-07,-7.1690469258551e-07,-8.146225929899194e-08,-4.799697539643058e-07,-4.922273144658824e-07,-8.86615932162924e-07,-1.0072604183017494e-06,-1.0522994662423468e-06,7.32164886687469e-07,-2.0431983576951742e-07,4.301051431408593e-08,-1.28315970088327e-06
-1.0756523363630769e-06,1.5407540739610547e-06,-7.349463170860898e-07,4.544583428632271e-08,-4.566270710012194e-07,-4.57056415288711e-07,-1.1201453634857656e-07,-7.09999423801076e-07,-8.634350961887696e-08,-4.632776397340424e-07,-4.295787872016599e-07,-7.77464711886923e-07,-9.558411340887006e-07,-9.720118577671165e-07,7.770930772467123e-07,-1.750486693409711e-07,8.11225858434044e-08,-1.2692077024499188e-06
-1.073982341189081e-06,1.516343391879925e-07,-7.282940368906025e-07,6.992639415931418e-08,-4.7164976351135485e-07,-4.5053667641907275e-07,-1.0840172884203467e-07,-7.005960094462051e-07,-9.374572810024989e-08,-4.449918164803628e-07,-2.642439665755667e-07,-6.79765787161745e-07,-9.13512867933871e-07,-9.087799837920923e-07,8.334901952918142e-07,-1.3456215689792977e-07,1.2809033783937983e-07,-1.2525186579554376e-06
-1.0720867826423665e-06,-1.0402698283782896e-06,-7.158082428872457e-07,9.677476161626316e-08,-4.726089129513431e-07,-4.441119847605753e-07,-1.0556894148619276e-07,-6.858568763612317e-07,-1.0096954999617884e-07,-4.27408262881984e-07,-8.500963760286612e-08,-6.599977236493265e-07,-8.846061237929356e-07,-8.73321943475579e-07,9.035820430158138e-07,-8.07951488084432e-08,1.920348570001793e-07,-1.23294036890577e-06
-1.068359207280642e-06,-1.8965371267814563e-06,-6.939834201181254e-07,1.2510341264706114e-07,-4.5892965700071793e-07,-4.3803832395775273e-07,-1.0282767175427251e-07,-6.636282025110302e-07,-1.051978151543572e-07,-4.1267896362152907e-07,8.106549209631308e-08,-7.361984884668607e-07,-8.739068235754655e-07,-8.705608843114474e-07,9.887846816472731e-07,-1.3981185136062536e-08,2.832164785592491e-07,-1.2105407367894627e-06
-1.0607655261817207e-06,-2.2936306024088588e-06,-6.597434756106472e-07,1.5543796801195524e-07,-4.3244829032824335e-07,-4.3236569529428725e-07,-9.933515760613979e-08,-6.323374137634238e-07,-1.0351221279583468e-07,-4.012779668000204e-07,2.0444726122848113e-07,-7.779658530489536e-07,-8.847527348168178e-07,-9.02234271109771e-07,1.0868333052311372e-06,6.399240251885428e-08,4.119680436917468e-07,-1.1823533632136954e-06
-1.0470048447125289e-06,-2.235640017655884e-06,-6.111123785615472e-07,1.8723186430826758e-07,-3.959701732632176e-07,-4.263573491387273e-07,-9.40110942192814e-08,-5.91433725120438e-07,-9.363496137281472e-08,-3.9470531647489667e-07,3.013919630612079e-07,-1.0293207039203617e-06,-9.171980108643432e-07,-9.651699195474536e-07,1.1916309924634432e-06,1.495963448922251e-07,5.711647819472323e-07,-1.1455220625285986e-06
-1.0254464090165892e-06,-1.9499936639440254e-06,-5.494342361789985e-07,2.1751374997450012e-07,-3.539156633284895e-07,-4.1905306356985754e-07,-8.73764794347688e-08,-5.426421934683059e-07,-7.544155491077942e-08,-3.822659797641427e-07,3.649679076456055e-07,-1.2795822981903782e-06,-9.673401330862686e-07,-1.0400287719207183e-06,1.2931875474568216e-06,2.3759364836931266e-07,7.511877416444474e-07,-1.0996239230388078e-06
-9.961146760374483e-07,-1.7454110300711337e-06,-4.798420782455089e-07,2.416161452097721e-07,-3.125650214438804e-07,-4.0958389057155964e-07,-8.110361567635707e-08,-4.898406745725909e-07,-5.10174139650545e-08,-3.527779893851691e-07,4.386850350530415e-07,-1.4600438525471041e-06,-1.0279703448130366e-06,-1.1010408576237938e-06,1.3798053859791498e-06,3.226083827777406e-07,9.146196829721538e-07,-1.0454284357322101e-06
-9.608207984997063e-07,-1.8411630896020103e-06,-4.097714413378637e-07,2.55433461337172e-07,-2.7797400152567495e-07,-3.969122784120819e-07,-7.533486399325967e-08,-4.372876896044724e-07,-2.3106530746548938e-08,-3.4679575908632343e-07,4.796158326313701e-07,-1.4892548729137072e-06,-1.090766313504392e-06,-1.1279616329268908e-06,1.4433433426326054e-06,4.0113406435461433e-07,9.987360928178077e-07,-9.861095501251465e-07
-9.227989827705279e-07,-2.268417084799203e-06,-3.473478818655621e-07,2.5710808874736634e-07,-2.541642239369252e-07,-3.806000256831363e-07,-6.909228022025864e-08,-3.886822299796538e-07,5.464834107903431e-09,-3.463138197072238e-07,5.436151424263525e-07,-1.4869375479809034e-06,-1.1491192363792053e-06,-1.1102278967728652e-06,1.4795156859615516e-06,4.725825888065673e-07,1.027422929497339e-06,-9.279289738972955e-07
-8.864069057289097e-07,-2.9148597812447438e-06,-3.0074876198985805e-07,2.4623759000673704e-07,-2.4357321563672887e-07,-3.6244993013919004e-07,-6.39760312466423e-08,-3.4765851394505344e-07,3.0797202873447484e-08,-3.072524580105141e-07,5.984617189310887e-07,-1.497942175584798e-06,-1.199148993264454e-06,-1.0529709253679878e-06,1.4906054684947501e-06,5.35630839597125e-07,1.045873001838924e-06,-8.774125379853876e-07
-8.564183167217275e-07,-3.6077782706786273e-06,-2.766361510696644e-07,2.224669942278344e-07,-2.476005795134777e-07,-3.4609405892384025e-07,-6.41434132486861e-08,-3.1739344773111275e-07,4.80473217025339e-08,-2.553500034437567e-07,6.655276645811496e-07,-1.393178193921794e-06,-1.2381519667553923e-06,-9.715912285252986e-07,1.4834670263056047e-06,5.894449086842953e-07,1.0969009037921361e-06,-8.414751280162854e-07
-8.365674906946669e-07,-4.1726068151147725e-06,-2.778434039367907e-07,1.8564325550217456e-07,-2.6606847889173584e-07,-3.357952641483236e-07,-7.399927973751289e-08,-2.988474491140495e-07,5.333369789821439e-08,-2.1450899361828707e-07,6.350988990652792e-07,-1.2581311313705943e-06,-1.2631963867245404e-06,-8.733189518619331e-07,1.466408685725687e-06,6.348242279907699e-07,1.1656204973541526e-06,-8.188685049754774e-07
-8.28355877293302e-07,-4.465227848089263e-06,-3.017802352733806e-07,1.3643957930302347e-07,-2.980806151317435e-07,-3.347517813241877e-07,-9.49407280735427e-08,-2.9030446404740186e-07,4.4792720956409954e-08,-1.8732909222117238e-07,5.455271946508874e-07,-1.1881645824618165e-06,-1.2723778650379987e-06,-7.672178972456506e-07,1.447221090919265e-06,6.73070536348096e-07,1.2126050447586416e-06,-8.049653344764045e-07
-8.311188707305514e-07,-4.3613345515771205e-06,-3.4129322587593345e-07,7.477171690117212e-08,-3.4454841630725027e-07,-3.441741406612035e-07,-1.2662530951330117e-07,-2.8906669562292276e-07,2.1875010002398915e-08,-1.7553247622241404e-07,4.994638266469824e-07,-1.1556042036351855e-06,-1.2672354585992157e-06,-6.588597571002471e-07,1.4289495093567806e-06,7.056682185100724e-07,1.2089694268028069e-06,-7.923932386204992e-07
-8.427871851546044e-07,-3.777777225706197e-06,-3.8636568350149586e-07,-9.221627631904947e-10,-4.0822438685656494e-07,-3.644100636389653e-07,-1.6841975099196692e-07,-2.9274961416322426e-07,-1.4793589544024974e-08,-1.8342009316812646e-07,4.2710367055701033e-07,-1.1563364251663784e-06,-1.2528342665505118e-06,-5.452667432805838e-07,1.412086481621704e-06,7.34052480376069e-07,1.1510704989982404e-06,-7.673446563626638e-07
-8.606560090196673e-07,-2.741638861565964e-06,-4.256228522561657e-07,-9.155271668532118e-08,-4.897787400186651e-07,-3.9417214123771347e-07,-2.1829272598678244e-07,-2.99075152333742e-07,-6.224220310367898e-08,-2.1018354702804325e-07,3.21363058766232e-07,-1.2044898349003124e-06,-1.2348015371275297e-06,-4.263537447312555e-07,1.3956169303173649e-06,7.589833094723384e-07,1.093386660190022e-06,-7.228415205858825e-07
-8.8102183353308e-07,-1.4527788768592865e-06,-4.488999080396904e-07,-2.0158915620309463e-07,-5.843433724592715e-07,-4.2985469607638346e-07,-2.7140378706368495e-07,-3.061746467206996e-07,-1.1508300014286163e-07,-2.507536615717203e-07,2.4497655072012776e-07,-1.2862333066700638e-06,-1.216082157583221e-06,-3.0228843904655223e-07,1.3786805485701048e-06,7.814664416729577e-07,1.0355818762416555e-06,-6.651652570204004e-07
-9.010510989131601e-07,-2.2828968156799017e-07,-4.5082782196598703e-07,-3.2376130618080576e-07,-6.819163820330391e-07,-4.684397808155726e-07,-3.2398785010423075e-07,-3.138246322338642e-07,-1.672579345524572e-07,-2.971131530408494e-07,1.7666508269196494e-07,-1.3829061044133718e-06,-1.1959068118656284e-06,-1.6712281474084278e-07,1.360698985827337e-06,8.014582003520365e-07,1.0021562135776472e-06,-5.941350610083369e-07
