0,1,2,3,4,5,6,7,8,9,10,11,12,13,14,15,16,17
2.6868869576351485e-07,-1.458061515354007e-08,2.0990303577620256e-07,8.49629597406812e-09,-1.6252640356470478e-07,8.137318597038814e-07,5.409330364408222e-07,-7.435600078681246e-07,-2.032996384914933e-07,5.271488845229076e-08,9.090334922719216e-08,2.7499987259449767e-07,1.0114028338238687e-07,-6.70315653194814e-09,-4.1101411027509206e-07,-3.1537290504516343e-07,-1.6737931970935317e-07,7.337465232263333e-08
2.467631227846099e-07,-7.310463332810164e-08,1.5478038780693492e-07,2.084695895438605e-08,-6.253925649840756e-08,5.915298611438563e-07,5.493353163568514e-07,-8.067201616028161e-07,-1.809802389708655e-07,3.608769840813342e-08,9.51952278226564e-08,2.293705457547317e-07,-7.363183971198858e-09,-8.536968450386456e-08,-3.0756422704612975e-07,-3.2549051663478704e-07,-1.1735556992397499e-07,7.196223338430236e-08
1.9804223333243448e-07,-7.898018052275859e-08,9.734372067191396e-08,3.146452297209885e-08,3.104864641272407e-08,3.504084309317459e-07,5.458882090440702e-07,-8.094692846286146e-07,-1.5640066608203538e-07,2.652140849589356e-08,-1.4246064820072551e-08,1.7466389040535996e-07,-1.0593547674155676e-07,-1.3789126516342618e-07,-2.183028333568158e-07,-2.7768869406821937e-07,-1.4812121784633563e-07,7.739844700109952e-08
1.3622408070505605e-07,-1.0716054377924805e-08,4.3812979629954576e-08,3.89872661038274e-08,7.95697159907371e-08,1.48612068097418e-07,5.817190771125869e-07,-7.497942660805798e-07,-1.3194023743906108e-07,2.9699856162038053e-08,-7.494219157287185e-08,1.2146717603062619e-07,-1.3546731967398417e-07,-1.67308922346143e-07,-1.7005694263713167e-07,-2.2878143364385698e-07,-2.1657075709270085e-07,7.756453782145775e-08
7.487685712139412e-08,7.456830032773358e-08,-2.9607226277255755e-10,4.461624821528507e-08,6.198703717084727e-08,2.2686320759965946e-08,5.708351301770579e-07,-6.391791121793296e-07,-1.0803798673483995e-07,5.325694240528204e-08,-8.649398865692629e-08,7.79601362867668e-08,-1.0813874420718332e-07,-1.6140077437960528e-07,-1.4799273956808395e-07,-2.080347925694672e-07,-2.2860464314920075e-07,8.76363397105246e-08
2.287614449419803e-08,1.562067965324132e-07,-3.2890904806610704e-08,4.818152837372088e-08,-1.2994812622976266e-08,-2.759357090908746e-08,4.488751577850423e-07,-4.957802160206135e-07,-8.510493094473513e-08,9.772491994666044e-08,-4.197042497890904e-08,5.233376663676363e-08,-8.288848324237236e-08,-1.4603612290575366e-07,-1.3840417006065763e-07,-2.1593573377397534e-07,-2.1302608354019397e-07,8.076031077718889e-08
-1.6328065058772926e-08,2.3434706333635714e-07,-5.52086975324166e-08,4.909647964359783e-08,-1.1033062975926441e-07,-3.177109579430078e-08,2.619075035978247e-07,-3.381934456594804e-07,-6.264050725587507e-08,1.4982246720802494e-07,-3.268163213201325e-08,4.675217120768526e-08,-7.220609204465462e-08,-1.1905120623526478e-07,-1.2224637061594906e-07,-2.3563829234905075e-07,-1.7817707440485316e-07,9.47044205898465e-08
-4.296291972067512e-08,2.4089873667356956e-07,-6.804997932857129e-08,4.4958938101769214e-08,-1.8505532244590034e-07,-2.7323106849873578e-08,2.5878490977334347e-08,-1.7771205294336706e-07,-4.210741790174598e-08,2.0298920618185525e-07,-9.927042030400235e-08,5.218399779434774e-08,-7.013429728959027e-08,-7.526873247270483e-08,-7.624369628129087e-08,-2.0300352045852187e-07,-1.1206315571527551e-07,1.0883898906075153e-07
-6.000635998875235e-08,1.6254708280811857e-07,-7.151110101196482e-08,3.4018452714736035e-08,-2.1223912561264464e-07,-3.888891021384095e-08,-1.2566222307821846e-07,-1.3755393910233625e-08,-2.3735540207007117e-08,2.2600728924521817e-07,-1.7396813836655974e-07,5.627330624554195e-08,-8.909971887742476e-08,-4.43878928954108e-08,2.0535815506363347e-09,-1.401007000887063e-07,-3.562183916405879e-08,2.6380414625044427e-08
-7.144551442133192e-08,9.279581439153454e-08,-6.537422018735492e-08,1.5952178488498816e-08,-1.7525910320469327e-07,-7.561481696289078e-08,-2.423908823347577e-07,1.634043264275931e-07,-4.5354458528910074e-09,2.2099201972918106e-07,-2.516172643873846e-07,4.8033462440054315e-08,-1.0926100268195962e-07,7.471640705816772e-09,1.0364362023524593e-07,-3.5535835496364263e-08,5.121484554039484e-08,-1.2551903417765872e-08
-8.205731711324533e-08,3.1322810072082445e-08,-5.199962318678347e-08,-6.97929024924804e-09,-8.874218478398778e-08,-1.4014689309414967e-07,-3.7732099226617083e-07,3.6051983974647664e-07,2.1502479452685317e-08,1.3476065932824716e-07,-1.953529316208563e-07,1.4840426652581476e-08,-1.216638512015826e-07,6.242771715381032e-08,2.1482914783472577e-07,1.1108527480791689e-07,1.416387925681997e-07,-3.233774273445242e-08
-9.666242355843222e-08,-4.786914578308409e-08,-3.582478936260344e-08,-3.1191735910704855e-08,9.145855897029647e-09,-2.2556481813695318e-07,-4.611405509993606e-07,5.68941833447016e-07,6.421266951716646e-08,-1.7210666302369547e-08,-1.161362843488854e-07,-4.7398648312130695e-08,-8.427841221263991e-08,1.1682803840559251e-07,2.944463011437e-07,2.764401599856341e-07,2.207153623166479e-07,-5.714044320587116e-08
-1.1589330338206832e-07,-1.0042991082497412e-07,-2.3037698646012852e-08,-5.358790372212341e-08,9.408692579964408e-08,-3.124259961595399e-07,-5.177613875719429e-07,7.637837494871665e-07,1.2674854873595217e-07,-1.2369175768082998e-07,4.617391584900824e-09,-1.3299913916521908e-07,3.695615741740917e-08,1.75945210044887e-07,2.881584754074677e-07,4.1863952240696334e-07,2.804979034036793e-07,-6.498024550656163e-08
-1.3770444462893334e-07,-1.689455655881877e-07,-1.9372916061958962e-08,-7.146497336871232e-08,1.6436532208035712e-07,-3.701744638881172e-07,-5.731539813198899e-07,9.140828430221412e-07,2.0665026405112624e-07,-1.845073286731156e-07,2.3289115529697719e-07,-2.3744619711816575e-07,1.5934260916857574e-07,2.0353033549378288e-07,2.6646675858568e-07,4.915312931524767e-07,2.7734680785514566e-07,-1.0799275490601719e-07
-1.5576661773886497e-07,-2.4713911059982186e-07,-2.91181246569297e-08,-8.361238201622407e-08,2.371499105125223e-07,-3.7030485545171283e-07,-6.046383510931895e-07,9.973635704857308e-07,2.8116774071739787e-07,-3.435119962585802e-07,3.549652770665063e-07,-3.327366169535493e-07,2.5080386804252015e-07,1.8417683685419242e-07,2.1277421348289142e-07,4.681273479284412e-07,2.3884472036287416e-07,-1.875476187135349e-07
-1.6864416859013096e-07,-2.509213879634165e-07,-5.315599684102591e-08,-8.978258427497564e-08,3.3233342462871824e-07,-3.071600131764016e-07,-6.23303552828059e-07,1.006067778277035e-06,2.985009074062212e-07,-5.616556066479281e-07,3.0810694019024904e-07,-3.9829815049989187e-07,4.381936641332565e-07,1.9303797877603924e-07,2.0945299160080366e-07,4.197588258466774e-07,2.0666122849900493e-07,-2.3606963680864713e-07
-1.7822901600506166e-07,-2.1963628460044225e-07,-8.71645482391206e-08,-8.998209308047505e-08,4.489509605591319e-07,-1.9973560478245495e-07,-6.499283355898639e-07,9.482991357183266e-07,2.896709433553158e-07,-7.299324745380661e-07,1.8762591870253252e-07,-4.2689671951550483e-07,6.500399418098042e-07,1.5326176843338652e-07,1.6013109125669342e-07,3.662514106697311e-07,1.51185179889751e-07,-2.967404111772278e-07
-1.8701015816991123e-07,-2.230894943925901e-07,-1.2268885143417057e-07,-8.437139346133671e-08,5.567323779316979e-07,-8.107114385125635e-08,-7.019283737519833e-07,8.477926820816871e-07,2.71349957901034e-07,-8.074501453092252e-07,1.2658526385666296e-07,-4.1602641770971284e-07,8.324519151698185e-07,7.829729142363313e-08,5.1892318062597814e-08,3.285575498893062e-07,5.75776854718895e-08,-3.7629342219624236e-07
-1.990605639564577e-07,-1.837544537998958e-07,-1.4921523926350078e-07,-7.34842068969588e-08,6.155544496560303e-07,1.3710391228962453e-08,-7.88780407579823e-07,7.333382410727264e-07,2.5399241193591383e-07,-8.793074569667377e-07,9.932030852752801e-08,-3.7577562778415193e-07,9.832351434730538e-07,5.09082143637128e-08,-5.274248642997817e-08,2.1953301166268615e-07,-4.205184606359524e-08,-4.5907924529677326e-07
-2.1587796963600378e-07,-1.2502918187236492e-07,-1.5655474325215145e-07,-5.856052787891681e-08,5.987377853779591e-07,5.853539333238188e-08,-8.565376749098602e-07,6.289498581681937e-07,2.2213304041249515e-07,-8.800350767023801e-07,6.6571721827612e-08,-3.19716135433749e-07,1.0465063007514396e-06,9.128066308254673e-08,-9.086316339317305e-08,3.017941703367477e-08,-7.014977067924174e-08,-5.281314578531502e-07
-2.376262945038836e-07,-5.026489030306405e-08,-1.4036194520120747e-07,-4.204615690071738e-08,5.0639357512907e-07,4.412762637870465e-08,-8.942161845954679e-07,5.474035403805554e-07,1.8923254119300748e-07,-9.044866520907448e-07,-3.324562675879686e-08,-2.6114431252947187e-07,1.1150848468747631e-06,1.2561050378726466e-07,-1.3112437955460321e-07,-1.4580688507449193e-07,-4.472544207516617e-08,-6.069949333006916e-07
-2.6508335849978114e-07,6.79895826476792e-08,-1.0368254996561636e-07,-2.5698175855658385e-08,3.735376121344926e-07,-2.3849144007750944e-08,-8.220430405457802e-07,4.882979275439178e-07,1.676078834519553e-07,-9.051117319403772e-07,-1.3135369459142845e-07,-2.1161317451570942e-07,1.1786731396852523e-06,1.8599177693368542e-07,-1.5192393470789167e-07,-2.0954127372485138e-07,-1.2708705423375787e-08,-6.415931189575289e-07
-3.005679578602784e-07,1.3586240336197424e-07,-5.549596659593349e-08,-1.2396835456003766e-08,2.5440934464589297e-07,-1.3194265044132183e-07,-6.349075574772237e-07,4.440180483641667e-07,1.6906597245970597e-07,-8.799631018002183e-07,-1.1579046146665876e-07,-1.833285858333647e-07,1.2156569140536115e-06,2.4936516469403883e-07,-8.179191574286378e-08,-2.3926807584900664e-07,-9.920113449787318e-09,-6.327315712791014e-07
-3.432571938777332e-07,1.7036713622268207e-07,-7.291760885595379e-09,-3.3891757827356136e-09,1.944458585955315e-07,-2.594770078078664e-07,-5.659032704571199e-07,4.0701327678591424e-07,1.6675377385809934e-07,-8.228124881204961e-07,-7.661758216317356e-08,-1.811461808849916e-07,1.2050747312627907e-06,2.9807407646784143e-07,2.5374003553174173e-09,-1.8360320389240797e-07,8.313012316863187e-08,-6.933308367141029e-07
-3.8997224291633043e-07,2.2462589152585184e-07,3.203707770599868e-08,1.4381400551399731e-09,2.4742668293058583e-07,-3.748952724380107e-07,-5.608399133896655e-07,3.733363148594079e-07,1.643986343440643e-07,-7.330721679402917e-07,-1.7380541934517334e-08,-2.029033248217135e-07,1.196890196997375e-06,3.7163149007092975e-07,5.9212852278298744e-08,-1.1252203993177583e-07,2.0974641762772236e-07,-7.651857109972039e-07
-4.3497248057795655e-07,2.2991768977319168e-07,5.8792928394593944e-08,6.4994952802966355e-09,4.1232659828346146e-07,-4.377161420586122e-07,-5.7261230248294e-07,3.4619604101655897e-07,1.793634764243213e-07,-6.421472630817004e-07,4.360550136519957e-08,-2.39583064467662e-07,1.1978018329978578e-06,4.713532392479516e-07,7.485532498907651e-08,-3.1697601035325223e-08,3.0904499084121983e-07,-8.236042512640994e-07
-4.689549326252415e-07,2.1034629734369475e-07,7.595347691738845e-08,1.7705415481734453e-08,6.563878902262715e-07,-4.136139416179616e-07,-4.884657792822292e-07,3.3970351701841847e-07,2.533471366922282e-07,-5.88161657887707e-07,7.306082367887887e-08,-2.764232272728189e-07,1.2047264323565376e-06,5.880305023299799e-07,5.939946381663545e-08,2.8404673367174727e-08,3.771096207423815e-07,-8.953876495244198e-07
-4.823851264722527e-07,1.6493649461745103e-07,9.181963023040627e-08,4.145643882498802e-08,9.212021801553406e-07,-2.9313692523691613e-07,-2.9634829445048646e-07,3.753507008846187e-07,3.3170427651229933e-07,-5.562019657505574e-07,2.6459199312035845e-07,-2.9886036503249157e-07,1.229827743465809e-06,7.054676986747588e-07,8.860366528917487e-09,5.619737308635076e-08,4.167983684668372e-07,-9.32304567808377e-07
-4.6750398409813985e-07,3.18373171221398e-08,1.1574355064234883e-07,8.400900526841382e-08,1.1383202169638407e-06,-9.234281780836509e-08,-7.870623703703747e-08,4.6839398607820373e-07,3.842876276570585e-07,-5.479875221070717e-07,5.94996588092841e-07,-2.9659958294684235e-07,1.2728911535985316e-06,8.314372998905247e-07,-6.748673399993503e-08,1.7006730559193315e-07,4.242958028212481e-07,-1.0022065324570949e-06
-4.221320401458334e-07,-3.633321780233836e-08,1.53875041822732e-07,1.4783391233656542e-07,1.2676636651563021e-06,1.5834972777634543e-07,1.5242600463410115e-08,6.147866191869479e-07,4.1339467381724246e-07,-5.579088254666142e-07,7.830365444291273e-07,-2.6319616416094455e-07,1.3225509256369696e-06,9.331549485875147e-07,-1.5290770870706177e-07,3.0843746295141857e-07,4.0614077261153937e-07,-1.092334869461734e-06
-3.491868449499079e-07,-7.013870247944717e-08,2.1107211400792e-07,2.3232593118369625e-07,1.2974640279646514e-06,4.256910414796221e-07,3.6362630160930967e-08,7.908785622931551e-07,4.313552083502513e-07,-5.78023718242429e-07,9.98029883112647e-07,-2.0002450703065188e-07,1.3725309161269776e-06,1.0122895073190112e-06,-2.317263516110768e-07,4.6394269689877993e-07,3.730265192701755e-07,-1.2001554063988106e-06
-2.522642192290184e-07,-1.2628824386681218e-07,2.869623795746785e-07,3.334549976555467e-07,1.2189924986137586e-06,6.711896058756525e-07,1.1375487837437039e-07,9.677843240071214e-07,4.398662601533382e-07,-5.788832341696614e-07,1.1599755491841243e-06,-1.1351867344934812e-07,1.419711105879559e-06,1.0806535086845593e-06,-2.9028569382208977e-07,6.261782520698429e-07,3.37341657674687e-07,-1.2999080317968535e-06
-1.3604016318947587e-07,-1.3414229035604964e-07,3.7965198877214375e-07,4.455613179158148e-07,1.0765042623740567e-06,8.546484933856557e-07,1.0994754557872694e-07,1.1269273887768364e-06,4.4070104700804756e-07,-5.582025569472642e-07,1.2316779197616195e-06,-8.22604688474237e-09,1.472973746376047e-06,1.1355044718213528e-06,-3.2456483006896546e-07,7.182596679417578e-07,3.0918083529293436e-07,-1.3668490108213406e-06
-5.247044277273954e-09,-9.342988515526706e-08,4.848349710147227e-07,5.557653432734483e-07,9.49092295295355e-07,9.529177390844116e-07,8.265111049892858e-08,1.2640432167785217e-06,4.400580199571469e-07,-5.162743814166586e-07,1.3086322635428142e-06,1.093617833817978e-07,1.5306839419122196e-06,1.1864639464119389e-06,-3.3657244588937314e-07,7.508751272400192e-07,2.940658032545404e-07,-1.4163143963442507e-06
1.35248749941773e-07,-4.010890805611391e-08,5.990135019883388e-07,6.593079086470251e-07,8.622552308232683e-07,9.756614671256606e-07,-2.0351450210578968e-08,1.3857571646930898e-06,4.4391614645680986e-07,-4.5397386534559693e-07,1.448349274167466e-06,2.3139270512601828e-07,1.5920970788265032e-06,1.2283843088705087e-06,-3.3006869862433716e-07,8.156825022633683e-07,2.948149602542778e-07,-1.4426168177040388e-06
2.805867956288677e-07,-7.365119900382757e-10,7.185202281447344e-07,7.567445806538509e-07,9.06213858911121e-07,9.638948189952504e-07,-7.842865627859511e-08,1.4985283658044403e-06,4.559668187351962e-07,-3.7738074709499476e-07,1.5123785442450634e-06,3.495639380510354e-07,1.6632138614237763e-06,1.2538884457267793e-06,-3.118723046984149e-07,9.463720178956963e-07,3.116748150019769e-07,-1.4683034555582336e-06
4.2228717230042185e-07,7.769781612253147e-08,8.408733823919649e-07,8.432435660344156e-07,8.576322792785009e-07,9.697152525179743e-07,-9.709579487294763e-08,1.5979546753394e-06,4.785410801115434e-07,-2.937455343095839e-07,1.4770083647482645e-06,4.5369922083553026e-07,1.7406229029638311e-06,1.2660876340028497e-06,-2.841222373634552e-07,1.068987839044719e-06,3.3657193495942536e-07,-1.4743876842794883e-06
5.535119616387064e-07,1.9169072017194746e-07,9.598115725598326e-07,9.079978160837123e-07,6.739183686055011e-07,1.0319843819030045e-06,-1.388279730104538e-07,1.6683682510650904e-06,5.171808431879817e-07,-2.120097399136091e-07,1.3520267259661018e-06,5.335519788854511e-07,1.821019120994941e-06,1.2605175673001427e-06,-2.5195000459417005e-07,1.104541461734212e-06,3.6115359787482913e-07,-1.4396667776203102e-06
6.642543920279155e-07,3.1930034892527523e-07,1.0366495777332346e-06,9.537161341420937e-07,7.321141766309441e-07,1.1582206167585197e-06,-1.371177132243936e-07,1.6917723034112079e-06,5.669981127745223e-07,-1.446094791442039e-07,1.1763819707409326e-06,5.823973887240821e-07,1.9047633622782019e-06,1.239781723776437e-06,-2.185493022638602e-07,1.037540073585403e-06,3.721819108705228e-07,-1.401956804227143e-06
7.465407553679578e-07,4.526877947895447e-07,1.0670471288886337e-06,9.825523712922313e-07,9.039216550598429e-07,1.3208710671117843e-06,-1.1684455554813406e-07,1.6586023249259002e-06,6.084625838993465e-07,-8.927775956395378e-08,9.956350521900436e-07,5.989478964836775e-07,1.9688046725339807e-06,1.2101516815619687e-06,-1.8541662944668608e-07,9.925221780366875e-07,3.6043122851453267e-07,-1.3374580668171535e-06
7.944911089224201e-07,5.486181113711456e-07,1.0236828039976371e-06,1.0056618522561543e-06,9.873902405362778e-07,1.47595388827775e-06,-1.0662481615588396e-07,1.5740145896655993e-06,6.478241784027721e-07,-9.508663931711301e-08,8.716022559670124e-07,5.865962579610349e-07,2.019112952300506e-06,1.176195368291235e-06,-1.5925771336267328e-07,9.586918394887668e-07,3.22043639686739e-07,-1.267229409986516e-06
8.013297872949123e-07,6.107646196353245e-07,9.266652087364033e-07,1.0121469424860614e-06,1.0578081616434754e-06,1.5722928436877265e-06,-1.0697515515188457e-07,1.4585026674507504e-06,6.865619828681193e-07,-1.2242761939160526e-07,8.198007053627327e-07,5.533485685060055e-07,2.080658112441438e-06,1.1434190764275127e-06,-1.465420214633578e-07,9.110268030875609e-07,2.6131895199633687e-07,-1.2323905717894021e-06
7.650382143624259e-07,6.47753894000295e-07,8.801819989162848e-07,1.002926791995525e-06,1.079208338446105e-06,1.563001560823852e-06,-1.4157688953881568e-07,1.3424319748357994e-06,7.230780966064676e-07,-2.5254995861418944e-07,8.164496153025946e-07,5.108402301842943e-07,2.137211106327951e-06,1.1159064528424082e-06,-1.5124136976728423e-07,9.208139123368142e-07,1.8378855027106369e-07,-1.218233811834853e-06
6.88835877990952e-07,6.622750153920924e-07,9.164877822051023e-07,9.621693142332516e-07,1.0789641173236643e-06,1.4287489954387295e-06,-2.037047142215338e-07,1.2494655557573757e-06,7.577928409620917e-07,-3.616266805725006e-07,7.77983601836621e-07,4.712294621339611e-07,2.1567947431261816e-06,1.0961457441286659e-06,-1.7549581403713388e-07,9.261527994623708e-07,9.287376648740606e-08,-1.2070729230108335e-06
5.801081299586688e-07,6.693572418472332e-07,8.297638644086017e-07,8.830599598813908e-07,1.0815145147230985e-06,1.183953955882817e-06,-2.6486320613754914e-07,1.1827862094577997e-06,7.588517655774955e-07,-4.7571527014571187e-07,6.384933767957668e-07,4.4423753590140846e-07,2.1141790609078375e-06,1.0861944368653496e-06,-2.1376052028153248e-07,9.054567304562384e-07,3.125816801775201e-08,-1.1626089617978084e-06
4.568934808556952e-07,6.737214222040719e-07,6.499946445271925e-07,8.762924146656945e-07,1.0874488634643518e-06,8.803145574925936e-07,-3.092271387236664e-07,1.1242682936250735e-06,6.917462089442611e-07,-5.821864792768443e-07,5.350467673843281e-07,4.3549911930895996e-07,2.0077247639687588e-06,1.084881945663907e-06,-2.3363077889174684e-07,8.818762675348201e-07,2.4540822558112547e-08,-1.1404196622938913e-06
3.359741199815856e-07,6.804918642374102e-07,4.5872319123678446e-07,8.978615019568006e-07,1.1146683856388882e-06,5.873873798722021e-07,-3.1724155689306774e-07,1.0477589098068436e-06,6.383471676879819e-07,-6.054508359268436e-07,4.432978158525365e-07,4.403225190563816e-07,1.9229872409959476e-06,1.0893930240537404e-06,-2.0626159974824993e-07,8.130263444302789e-07,8.393694590073381e-08,-1.1176133427833162e-06
2.3630507928855868e-07,6.98107573397494e-07,3.3444292371788836e-07,9.147578028420897e-07,1.0936886621375086e-06,3.5583283802205595e-07,-2.727011034801607e-07,9.38657345779494e-07,5.814599645402289e-07,-6.354958502484104e-07,3.732725454160609e-07,4.4752234762329313e-07,1.9524880922778683e-06,1.0945729052464035e-06,-1.437934521506128e-07,7.479111969792354e-07,1.675997235182578e-07,-1.0786465605953545e-06
2.1042639678965807e-07,7.253360208435708e-07,2.7798332389651237e-07,8.697776334608047e-07,1.0204965033614412e-06,1.9615807695722435e-07,-1.8019996653379574e-07,8.029455550011253e-07,5.438365197360454e-07,-6.369501809978012e-07,3.2051138356469796e-07,4.44425158215062e-07,1.9920066469819584e-06,1.0970853206730534e-06,-7.578336451729147e-08,6.857429185750205e-07,2.2099751458842126e-07,-1.0450044619896978e-06
2.0789652623327526e-07,7.642800824387918e-07,2.824186812250677e-07,7.955813116735379e-07,9.095208512306621e-07,8.593124375904177e-08,-5.823273956524509e-08,6.593832454476539e-07,5.482897289465892e-07,-5.462107946220668e-07,1.4159585779214548e-07,4.1938789592795407e-07,1.9199337842434442e-06,1.0920553484249587e-06,-3.2633509010559766e-08,6.358390280210722e-07,2.9517385459316634e-07,-9.683175771074036e-07
2.0043364815563585e-07,8.103086375519045e-07,2.5129772258109523e-07,7.383515716656184e-07,7.721570319415564e-07,-6.59938598905005e-09,6.707576479781269e-08,5.268503976117318e-07,4.913893630162378e-07,-3.9801854090186643e-07,2.025491584215147e-08,3.677600744664501e-07,1.8043682821429903e-06,1.0806270000496063e-06,-2.2655986796652397e-08,6.096734324868775e-07,4.3048804427727347e-07,-8.58746758925401e-07
2.5182806843461396e-07,8.478236432285388e-07,2.0723954018710055e-07,6.781804800476773e-07,6.361020862695969e-07,-1.0365308695627561e-07,1.6313738585649902e-07,4.1612580607813634e-07,3.683833933064441e-07,-2.1731094214057635e-07,-1.1431635144070767e-08,2.90312535843537e-07,1.664716173086198e-06,1.0699072984551997e-06,8.945709293806267e-08,6.073104644686002e-07,5.537222590238488e-07,-7.489715972185677e-07
3.4059859087022496e-07,8.53428696459743e-07,2.618829933780541e-07,6.352915390359622e-07,5.445289101015633e-07,-2.0363702629407253e-07,2.0937981711034532e-07,3.302033412084682e-07,2.7899216084054006e-07,-7.176466896394938e-08,-1.2283380044494462e-08,1.9181462785815721e-07,1.5015382237193762e-06,1.0381445361703411e-06,1.407787119545018e-07,6.049277429149614e-07,6.177577429168033e-07,-6.708348742013745e-07
4.1687498949357816e-07,8.312270762027183e-07,3.443679550767535e-07,6.269781908616239e-07,4.647776241457166e-07,-2.810543648970645e-07,1.9699133623770312e-07,2.6864056476912644e-07,1.8206819334142265e-07,6.244253817921181e-08,-3.563946369679824e-08,7.764180205149394e-08,1.372076885951491e-06,9.929563203164767e-07,9.928356769144765e-08,5.80723527823229e-07,6.448649545389462e-07,-5.812969205626841e-07
4.678443863219465e-07,7.964432612137345e-07,4.502346143274941e-07,6.472244741869947e-07,3.969341810047172e-07,-3.00728469347445e-07,1.3844391794953742e-07,2.3158079248004954e-07,6.731598326946644e-08,1.9109303121838244e-07,-3.5170194995948836e-08,-4.425987268578682e-08,1.258195852833756e-06,9.247802399086058e-07,6.367182158138507e-08,5.131565490247286e-07,6.142093990053131e-07,-5.259589499880082e-07
4.954878766524473e-07,7.551610505253498e-07,5.584435595126214e-07,6.588111853618061e-07,3.459498316272591e-07,-2.3488009630723412e-07,6.732008295012679e-08,2.1724383288785087e-07,6.351292490716232e-10,2.806284339545171e-07,-4.995087238747282e-08,-1.6421815680567903e-07,1.1217751355397916e-06,7.951000070651286e-07,6.41908875909438e-08,3.9732592025803207e-07,6.032350283350373e-07,-4.3983830935814195e-07
4.961034738778781e-07,7.215833418869819e-07,6.487505009681135e-07,6.735671443292147e-07,2.9799251845234525e-07,-1.0435893809409406e-07,1.355087857325482e-09,2.1938538826852356e-07,-3.730341203072023e-08,3.3867926000516264e-07,-2.0367793285097954e-08,-2.856695867938024e-07,9.702472796230716e-07,6.96766433268553e-07,3.920993098914157e-08,2.489002656429361e-07,6.046684081304705e-07,-3.2403725809096953e-07
4.71175318782617e-07,7.075892506704029e-07,6.746552065418941e-07,6.368483394026914e-07,2.6853754540766603e-07,8.534598782721805e-08,-3.0034657609851775e-08,2.281903666749703e-07,-7.728303305070012e-08,2.9915704352507165e-07,9.079789664987622e-08,-3.548109994476665e-07,8.513451301580624e-07,6.231529817075286e-07,8.37383966507107e-09,1.137568697764264e-07,5.440783854333365e-07,-2.566599849104808e-07
4.260148708078864e-07,6.558183332952169e-07,6.306422348785012e-07,5.603073203227371e-07,2.6238339525200154e-07,3.369177333627233e-07,-1.6120179369538534e-08,2.3211614657649212e-07,-1.0925170030010073e-07,2.5013219033006124e-07,2.3560251752856417e-07,-4.0946147630248983e-07,7.493200342495106e-07,5.306907239197028e-07,-8.568669640193863e-08,3.916711245193973e-08,4.632573202241169e-07,-1.977621297439767e-07
3.674556581617858e-07,5.552232527509003e-07,5.3675627207134e-07,4.957308375260115e-07,2.832008125346676e-07,5.866602725379035e-07,4.046259562963016e-08,2.218205681397739e-07,-1.3060066793562346e-07,2.974855498839906e-07,3.2793766264739003e-07,-3.846832890614777e-07,6.616113906567309e-07,3.8304525352276027e-07,-2.406762425825856e-07,3.927051973516455e-08,3.061887201448277e-07,-1.5430602215158515e-07
3.018461446569217e-07,4.772855104150191e-07,4.0875715195055806e-07,4.002276649965743e-07,3.2636085963263066e-07,7.727401821112124e-07,1.1185707720969114e-07,1.9190193390008436e-07,-1.4486733594549073e-07,3.0865328506776344e-07,4.780170917926196e-07,-3.8553508312092936e-07,6.610913778945398e-07,2.6280383441564604e-07,-3.797885116394063e-07,4.959782780807523e-08,1.6011886710780993e-07,-1.1962443122935878e-07
2.2939348198695172e-07,4.701311845047515e-07,2.6766213562448104e-07,2.643368001873799e-07,3.9141557480402403e-07,8.456080881190535e-07,1.696017529169869e-07,1.4473711373726e-07,-1.538446154773641e-07,2.801852717865128e-07,5.849660154395378e-07,-4.0234442202883516e-07,5.901796753753139e-07,2.010021219303101e-07,-4.631463982640223e-07,3.831282875457323e-08,1.5156990487272774e-08,-7.827427951557719e-08
1.3988351912209232e-07,4.1015565893779135e-07,1.1587362012554462e-07,1.2360165330271955e-07,4.461677283509483e-07,7.783469069715411e-07,1.9524287997460835e-07,9.222153551063079e-08,-1.6080701444191825e-07,2.1348362158993403e-07,6.113332116878119e-07,-4.2846095022241996e-07,4.787670326559338e-07,1.8786899855298762e-07,-5.339105046409706e-07,2.681143100746264e-08,-1.3665815904486495e-07,5.181779371183541e-09
2.6941734941738846e-08,3.0977684256012366e-07,-4.724724821845988e-08,7.476055664675821e-09,4.806664758378718e-07,5.953804916742671e-07,1.8266178592191573e-07,5.413009020749526e-08,-1.6372935367579998e-07,9.231794879106444e-08,5.850802002581388e-07,-4.6771098781335887e-07,4.6057989373097513e-07,1.7191392422403712e-07,-5.999628983155503e-07,1.2750759543973267e-07,-2.3608990351315443e-07,8.982702225496767e-08
-1.036593677264253e-07,2.739049176053288e-07,-2.1728922116728211e-07,-9.90531572546668e-08,4.788174555857517e-07,4.019404259234373e-07,1.6607516122209118e-07,5.15543564396519e-08,-1.731423064824807e-07,-5.6263155292669536e-08,5.021803098221617e-07,-4.902958909743073e-07,4.893921445806124e-07,1.5846496326597643e-07,-6.487575616571099e-07,2.1486271385215358e-07,-3.164903929656064e-07,1.7358344152953036e-07
-2.136944847150465e-07,1.9535275697302013e-07,-3.8692993739814786e-07,-1.959480990868647e-07,4.426637717480276e-07,2.2038377426881194e-07,1.4570320505750525e-07,9.616989186869798e-08,-1.9240697841059484e-07,-2.1510484026555917e-07,3.677558637734568e-07,-4.763421649971716e-07,4.582926786370014e-07,1.4512731815570225e-07,-6.900114209625068e-07,2.0821279286533362e-07,-3.267945094325025e-07,2.67185943570772e-07
-2.631321787224875e-07,6.52228226632342e-08,-5.466452617951915e-07,-2.753368379284104e-07,3.93291157541399e-07,-2.2789475417486243e-09,1.2516440710191986e-07,1.832715719046579e-07,-2.255180955768928e-07,-3.09130779190797e-07,2.0441212179024577e-07,-4.1696830695614255e-07,3.354796114450681e-07,1.2590915619885298e-07,-7.112520688529154e-07,1.4385150410173338e-07,-2.7706832852612504e-07,3.1369766658294773e-07
-2.3647047921975358e-07,1.431095077837638e-08,-6.869264481610803e-07,-3.416065316814365e-07,3.3601311433565133e-07,-2.331400731513096e-07,9.434551497018225e-08,2.929651858588459e-07,-2.7045113720614896e-07,-3.1887433154829553e-07,7.699514415715227e-08,-3.2902045851309067e-07,2.1613948253867495e-07,9.241283505515911e-08,-7.027507525795204e-07,1.5796944915091463e-08,-2.5133800746190797e-07,2.8883829009145825e-07
-1.9462712299080152e-07,-4.409908677847693e-08,-7.999548994634954e-07,-3.93382619356518e-07,2.695612344441412e-07,-4.607284449833914e-07,7.195230946554044e-08,3.985701771530138e-07,-3.1884222583110236e-07,-3.614394553155268e-07,-4.672898629363575e-08,-2.897637477628119e-07,1.3211858996179825e-07,6.070513416560682e-08,-6.8884840778134e-07,-6.731180125846353e-08,-1.7922317864187725e-07,2.397428543479868e-07
-1.6704645621532537e-07,-1.0528923478183382e-07,-8.810553264659819e-07,-4.243865227108072e-07,2.026153836473953e-07,-6.648481757472683e-07,8.126033948716363e-08,4.779892965662594e-07,-3.636789166724223e-07,-2.921836059821303e-07,-1.677090743423311e-07,-1.4948063843668217e-07,5.268290693091036e-08,2.9400170952195204e-08,-6.816010452277661e-07,-1.2470053256430592e-07,-6.831331573172187e-08,1.5707132243357022e-07
-1.4074123501811344e-07,-1.5580234591418415e-07,-9.312220623214948e-07,-4.3824324587821827e-07,1.344776383059451e-07,-7.939417578602455e-07,1.521838944202381e-07,5.204705671574648e-07,-3.980191588309954e-07,-1.7798200831908376e-07,-2.8167062327315324e-07,1.5837489008347654e-08,-6.0931716064888635e-09,2.9340619759459182e-08,-6.819055769561305e-07,-2.3821947321871758e-07,4.05536588342597e-08,9.137409371334915e-08
-7.357633805493581e-08,-2.4038028074204353e-07,-9.627860254620958e-07,-4.417370014250775e-07,8.332803867245953e-08,-8.208917120700456e-07,2.5617461811239605e-07,5.245142050171945e-07,-4.1816797298109735e-07,-8.836785957702394e-08,-3.741681990380697e-07,1.7581324138039497e-07,-5.704813789710209e-08,2.1613069833425848e-09,-6.953383288128612e-07,-3.3605888974459437e-07,1.031652244034154e-07,-6.772927304975778e-09
5.155968984022958e-08,-3.372380982138139e-07,-9.875379316165245e-07,-4.332812943584106e-07,7.256410460521216e-08,-7.753666787221787e-07,3.6480808900966417e-07,4.895067114600382e-07,-4.1723690555644807e-07,-9.340788281003395e-09,-4.1588326790913707e-07,3.300155353578378e-07,-1.3944653708691673e-07,-7.29574852956263e-08,-7.113002951982159e-07,-4.656717648437235e-07,1.2686044233572032e-07,-1.038318448070835e-07
2.1044173116340073e-07,-4.093820779440748e-07,-1.0263395753898688e-06,-4.1888763895538797e-07,1.1046629914607674e-07,-6.459884706347215e-07,4.822608022659698e-07,4.1889602150436184e-07,-4.000620718213824e-07,3.797107252433371e-08,-4.526354513591364e-07,4.2975521486237585e-07,-1.7744845863248258e-07,-1.236853686473146e-07,-7.192555236431109e-07,-4.988918010537451e-07,8.623247852752999e-08,-2.162379013751554e-07
2.568263838722481e-07,-4.6767777847211346e-07,-1.1004262109770289e-06,-4.080942198372509e-07,1.8365344928674453e-07,-4.0346644648695477e-07,5.46978214369643e-07,3.203336481771006e-07,-3.739246409237036e-07,1.3955883436034186e-08,-4.793475698203005e-07,5.034040223878194e-07,-1.677612497797878e-07,-1.216992499548234e-07,-7.222950618912068e-07,-4.703111752735804e-07,-4.527278414466536e-08,-3.4256666274517003e-07
2.3978814384746657e-07,-4.825804052248945e-07,-1.2225515783628925e-06,-3.814888145350359e-07,2.6064782903339767e-07,-1.1656406449422287e-07,6.308536027515342e-07,2.0696442309977566e-07,-3.4263990994928056e-07,-9.66987556710971e-08,-5.968723946011456e-07,5.602661842193679e-07,-1.5832668763618682e-07,-1.141905936826115e-07,-7.006437742223145e-07,-3.9866556564772886e-07,-1.1900830778688832e-07,-4.6463326466119506e-07
1.8945548291503008e-07,-4.624722873460107e-07,-1.390128925029292e-06,-3.1741193154423757e-07,3.097457235346266e-07,1.5202588075729913e-07,7.14291817750804e-07,9.827825775334436e-08,-3.1031691683767913e-07,-1.5921651706658434e-07,-8.413630597386615e-07,5.894587017437798e-07,-1.3833197119294918e-07,-1.294312793499297e-07,-6.61087919352937e-07,-3.533114724465676e-07,-1.920428034016072e-07,-5.852218061006967e-07
1.8723791140946438e-07,-4.4517788456513765e-07,-1.586073456596975e-06,-2.746956937084076e-07,3.107944779576972e-07,3.2878234689291693e-07,7.589448661621985e-07,1.5575726846144508e-08,-2.714318588176727e-07,-1.9754221321513159e-07,-9.745318516384665e-07,6.079234317983381e-07,-9.775294674477662e-08,-1.302312111837644e-07,-5.910922349796003e-07,-2.817442025184634e-07,-2.596351639771785e-07,-6.973704605127925e-07
1.7677009885501718e-07,-4.4194945831629894e-07,-1.7748024374693344e-06,-2.3475269081169783e-07,2.7694050874429593e-07,3.060440568548833e-07,8.02447634218189e-07,-2.1111840192977147e-08,-2.19477829928778e-07,-2.2405295243857334e-07,-1.110630208661941e-06,6.111518867703207e-07,-7.766342096816214e-08,-9.7646419450602e-08,-4.773972517397373e-07,-2.3504558323472167e-07,-3.208479384630583e-07,-7.948342092338638e-07
9.638705291949284e-08,-4.361226159204307e-07,-1.8382937569067268e-06,-1.9816405027658873e-07,2.3341891455185775e-07,1.8266359262399215e-07,7.87178121386258e-07,2.6696753048855346e-09,-1.5676399704581376e-07,-2.210716382721109e-07,-1.269914944477757e-06,5.982241386666788e-07,-5.276867249290723e-08,-3.020018407027538e-08,-3.4691615463688456e-07,-2.1593507156052826e-07,-4.874739736713809e-07,-8.821087512205864e-07
9.698180148920455e-08,-4.3411332925457477e-07,-1.8460259186808442e-06,-1.6625826901363954e-07,2.1635321453720446e-07,-1.4046510090955425e-07,7.266891099462846e-07,8.936349236457586e-08,-1.0536225472177476e-07,-2.3495794105699846e-07,-1.338299246201831e-06,5.734598053678029e-07,-2.6090552248561165e-08,4.247194539192818e-08,-2.0976666933075995e-07,-1.4747694669048313e-07,-5.977135548172383e-07,-9.505423171570615e-07
1.554049756850437e-07,-4.3181245644619193e-07,-1.8423241481503683e-06,-1.301802844279814e-07,2.452950278202316e-07,-5.300453725815452e-07,6.432730432567482e-07,2.2419726564747668e-07,-6.83375993254167e-08,-2.9375104670606594e-07,-1.4210636894815574e-06,5.383541184480504e-07,1.3928200790369092e-08,1.0051032405482373e-07,-1.2476583210232697e-07,-9.999602982298567e-08,-5.979094662620977e-07,-9.970241439402595e-07
2.132527388936375e-07,-3.62509212371896e-07,-1.867305451604449e-06,-9.032165700695809e-08,3.1347315475621944e-07,-9.353223712249986e-07,5.299450542206213e-07,3.8867898313984204e-07,-9.082575663904304e-08,-2.924064345703169e-07,-1.6129858527021958e-06,4.987869137575025e-07,1.6595691540706356e-08,1.5842105894378453e-07,-5.401722347107911e-08,-1.2553457664725341e-08,-5.653271581314588e-07,-1.0241854379731145e-06
3.80922732714405e-07,-3.292196346163844e-07,-1.877198431649889e-06,-5.97763460661862e-08,3.948639291261415e-07,-1.2853220839836013e-06,4.1024780847739386e-07,5.714588673032561e-07,-1.455031171813401e-07,-2.1305715031595813e-07,-1.6810563285243e-06,4.634747512817048e-07,1.8240287028562393e-08,1.7783494845273437e-07,1.2657247945381177e-08,9.389656014020817e-08,-4.821724927652477e-07,-1.0331057782337433e-06
4.776185061437505e-07,-3.074601209891385e-07,-1.7852604613193629e-06,-3.2949930233598496e-08,4.4803862386838883e-07,-1.5424724202057375e-06,3.0154728274280304e-07,7.725147330359414e-07,-1.470896064309796e-07,-1.5070242570719993e-07,-1.6343838618634558e-06,4.383503461487308e-07,9.709771594017921e-09,1.8355185112831188e-07,1.4479369536398506e-07,1.0942522170204015e-07,-3.9129868273969106e-07,-1.0288825676053503e-06
5.756657123075428e-07,-2.837697814334483e-07,-1.6672430993045643e-06,-1.972424935249281e-08,4.3269657696371245e-07,-1.6904635134289826e-06,2.1667376740610238e-07,9.931898014895806e-07,-1.5909168947217546e-07,-1.1655200411045123e-07,-1.6309091398579048e-06,4.282798105309116e-07,1.013688751915517e-08,1.6326467087033003e-07,2.8771458452847294e-07,1.7029038783379387e-07,-3.0879605172027874e-07,-1.0203865220415635e-06
6.586730988411349e-07,-2.905930159453938e-07,-1.6286901070979564e-06,-2.557507247056871e-08,3.3994076533193896e-07,-1.713827075153532e-06,1.6333524128602527e-07,1.2167984343226238e-06,-1.912718304400312e-07,-7.030561595013589e-08,-1.6535410632036165e-06,4.372182100784886e-07,3.8614635101431115e-09,6.335816907972542e-08,3.7017563193256356e-07,1.716214037326924e-07,-2.5190276489272576e-07,-1.0084060022056428e-06
6.713878543161326e-07,-3.047823406986261e-07,-1.5810052586117475e-06,-3.149312348329138e-08,1.9605273519457266e-07,-1.601445954554196e-06,1.3783426906575626e-07,1.4123791427164592e-06,-2.0852130960555053e-07,-4.4743874541716626e-08,-1.6401442984089786e-06,4.697239589534975e-07,2.9041289622354617e-08,-3.58753264861483e-08,4.2652338263264824e-07,1.80612192097917e-07,-1.484699680932649e-07,-9.959089798490723e-07
7.2731581734223e-07,-3.0903978482820333e-07,-1.5749514858208912e-06,-3.7727260191844043e-08,4.903009464849301e-08,-1.35619857484181e-06,1.297608675718548e-07,1.536933068806962e-06,-2.586959680198926e-07,5.355634566901451e-09,-1.655773408418319e-06,5.341799745881905e-07,3.266217582331447e-08,-9.53877194253905e-08,4.876327492721285e-07,2.2529771962179013e-07,-7.778971386691009e-08,-9.877125221257765e-07
8.641654064575448e-07,-3.0911017111524823e-07,-1.6034851903894927e-06,-4.615256648386418e-08,-5.530070238758611e-08,-1.012515139588867e-06,1.268292258857678e-07,1.5597072269976085e-06,-2.6463645407434416e-07,7.328479355608613e-08,-1.660991890831851e-06,6.351088575138023e-07,8.886650786655161e-09,-1.5256141324720424e-07,5.426828142279346e-07,2.528144205596884e-07,3.2062198132232924e-08,-9.845463792954907e-07
1.0667182497060717e-06,-3.1320773320285186e-07,-1.6129180449231813e-06,-6.246629414216077e-08,-8.635100469397628e-08,-6.290420131842184e-07,1.2205252885790673e-07,1.4952103124148e-06,-2.4832211092733995e-07,1.4765118114184088e-07,-1.5846107351830317e-06,7.690875732697913e-07,-1.6242701553559585e-08,-1.8865438582417082e-07,5.987484342040669e-07,1.4444923376925872e-07,1.2492151935054193e-07,-9.732703111073212e-07
1.3048103781613858e-06,-3.430057653119726e-07,-1.6083409908072492e-06,-8.24336275016005e-08,-2.6405644457244595e-08,-2.521202374020028e-07,1.1826130466927638e-07,1.3937465987353082e-06,-2.4469189417437697e-07,1.8247517946197475e-07,-1.5909154354831443e-06,9.283342991691435e-07,-9.168252517009442e-08,-2.496413923796025e-07,6.270878830506937e-07,-9.118194411043257e-10,1.948099116707714e-07,-9.52905848411791e-07
1.505964829748328e-06,-3.146885823124652e-07,-1.5675981828042722e-06,-1.082830076113232e-07,1.2274417836719758e-07,1.056782742821755e-07,1.2665782322359805e-07,1.3237007733894483e-06,-2.01834479558662e-07,2.131622602630817e-07,-1.6430769650555884e-06,1.0805509240267723e-06,-1.4818019418404815e-07,-3.612179641394597e-07,5.937046602679719e-07,-7.353121904189327e-08,2.904787454167117e-07,-9.220091198469995e-07
1.6340946416755906e-06,-2.700624710737663e-07,-1.4955852105909648e-06,-1.228811771203024e-07,3.399108998228965e-07,4.501115083093301e-07,1.6025928581689134e-07,1.353646427742407e-06,-1.3014644723870597e-07,2.451305123840634e-07,-1.7212518182786637e-06,1.2067177214320874e-06,-2.3302228830545723e-07,-4.5338158131184446e-07,5.409480299773312e-07,-1.1738679670354503e-07,3.387105303223098e-07,-8.788947742214328e-07
1.7109741781122928e-06,-2.203807289867624e-07,-1.4191694467804289e-06,-1.2501365963736695e-07,5.88896828044731e-07,7.741331713200733e-07,2.2790221392918998e-07,1.4968855952840453e-06,-6.73719721517773e-08,3.0257795638964823e-07,-1.7026928796905907e-06,1.296725892863901e-06,-2.949721678020705e-07,-5.222704987452687e-07,4.750239127932377e-07,-1.0960748756666941e-07,3.376610461330906e-07,-8.269989206235635e-07
1.7790587530439841e-06,-1.727785146941441e-07,-1.3507980028642049e-06,-1.3799346988179843e-07,8.069700755865074e-07,1.0224827883530685e-06,3.3068079115569805e-07,1.6723128725276466e-06,5.67066936126502e-10,3.4950379174655344e-07,-1.5654983427729694e-06,1.3418072645763529e-06,-3.3510616358411105e-07,-5.752055778509416e-07,4.572796331720551e-07,-1.2062719948045916e-07,3.3404861595154036e-07,-7.670930617484685e-07
1.8633426842933456e-06,-9.73905659697818e-08,-1.2921702889910234e-06,-1.2310931056790804e-07,9.513376453353334e-07,1.158624165830372e-06,4.552635477358054e-07,1.8391465868228617e-06,1.1409440311184127e-07,3.612840610702994e-07,-1.5529844281933213e-06,1.3262115904540035e-06,-3.9794311577619743e-07,-5.881288395300623e-07,4.517503964321292e-07,-1.4972353966738908e-07,3.2421191188799113e-07,-7.055588318678483e-07
1.8277415457918129e-06,-3.9821886855360824e-08,-1.2431333467410874e-06,-1.0961076406662108e-07,9.866244954297625e-07,1.1804101750397965e-06,5.812333203681775e-07,1.9229362811403305e-06,2.552544073597724e-07,3.7238709663658424e-07,-1.4645982063872694e-06,1.287222007900687e-06,-4.3230014074583544e-07,-6.144125549342729e-07,4.507625797101682e-07,-1.1331234633684143e-07,2.896783458326671e-07,-6.535960747403186e-07
1.6866130148805768e-06,3.2867886163276358e-09,-1.1944162839777638e-06,-7.084650228979972e-08,8.984519128804984e-07,1.0800767512910516e-06,6.88606414040365e-07,1.7955520128498525e-06,3.7934245968442817e-07,3.561883154696221e-07,-1.4269583357655918e-06,1.2244403170014898e-06,-3.628332964203214e-07,-6.371971293528316e-07,4.6964495353212456e-07,-8.883028960953272e-08,2.5244874794031766e-07,-6.028222900233965e-07
1.5724471388890247e-06,1.3846945839749249e-08,-1.1496314581382387e-06,-7.228276848961938e-09,7.107312117515214e-07,8.911997128220698e-07,7.622639821668239e-07,1.8149163471666367e-06,4.892139853094175e-07,3.171971718396712e-07,-1.4653858478444857e-06,1.1382843933704782e-06,-2.3309248342687643e-07,-5.947661057581005e-07,4.993504184506416e-07,-2.935064578722172e-08,2.097098408208681e-07,-5.615823782861297e-07
1.508182072808831e-06,3.603804290628313e-08,-1.098428827223844e-06,5.098468244841327e-08,4.723984392753975e-07,6.683528808859123e-07,7.961202551319645e-07,1.8748792954955249e-06,5.754726382365392e-07,2.7166644004705564e-07,-1.4926356271526532e-06,1.0526751015427062e-06,-1.2551997441756124e-07,-5.122132921163233e-07,4.772919776074403e-07,3.8015690218340055e-08,1.1925812470269943e-07,-5.277718657443404e-07
1.48789632640473e-06,6.269083956696176e-08,-1.034730165781859e-06,1.1483200951544833e-07,2.4273250322266345e-07,4.5235358713829167e-07,7.909890727316782e-07,1.5690525498444182e-06,6.355795955444107e-07,2.3417406637952144e-07,-1.5342025683250176e-06,9.742435327233361e-07,-5.658895164712212e-08,-4.232227176775973e-07,4.46706141710004e-07,1.0517780139707879e-07,4.441798338234433e-08,-4.947176457758569e-07
1.5004851319492533e-06,1.221449837438708e-07,-9.567201115568127e-07,1.7510571917104448e-07,7.24808712911814e-08,2.614245537042455e-07,7.51837252305097e-07,1.1885125906227283e-06,6.877039016687509e-07,2.118579033994456e-07,-1.5595469624947375e-06,9.225053051966878e-07,-2.1279781415166253e-08,-3.2379486786535405e-07,4.332814421951322e-07,1.1146820441552829e-07,1.8404107107685762e-08,-4.639886996437153e-07
1.4838672973426593e-06,1.982228861368092e-07,-8.626111483547769e-07,2.406581075782695e-07,-2.2761001225442482e-08,1.3184778510030127e-07,6.904041846204753e-07,1.003522124832278e-06,7.608769410382986e-07,2.0398811561767988e-07,-1.5762108295221025e-06,9.140694287179246e-07,-1.5165250560307977e-08,-2.18409958697914e-07,4.102811318378894e-07,5.829122817234334e-08,1.3855174089413231e-08,-4.3544507970224234e-07
1.434993672906517e-06,2.418384826806152e-07,-7.949250066939473e-07,3.174107885409497e-07,-7.40382591753674e-08,4.042430418009364e-08,6.200054140713047e-07,8.813419467872597e-07,8.182230057779049e-07,2.3382727759310734e-07,-1.622896428569118e-06,8.889481440476699e-07,-3.955505926115237e-08,-1.5163845870459688e-07,3.0648959267362025e-07,-2.6844219493703105e-08,1.1347082938616858e-08,-3.983657981340419e-07
1.389794050626605e-06,3.299294430077695e-07,-7.653574156856282e-07,3.994628219172557e-07,-1.3185107486293518e-07,-6.044867823941551e-08,5.584318926164453e-07,7.877682880149151e-07,8.622834938765247e-07,2.6324267542824396e-07,-1.6558379548288638e-06,6.913887585479541e-07,-7.202312325157189e-08,-1.0083143950846201e-07,1.673917059163006e-07,-8.889954373359919e-08,6.7712746479401455e-09,-3.5338828392735966e-07
1.3594520857202027e-06,4.996162300118161e-07,-8.040090698088705e-07,4.808325216646469e-07,-2.2479368732102308e-07,-1.3107673961432225e-07,5.205441048736999e-07,5.970674608688148e-07,9.045311580561419e-07,2.6031266720303525e-07,-1.6993873788485321e-06,5.401136151418763e-07,-7.852543360505989e-08,-5.6345430162203544e-08,8.029091123426132e-08,-7.11460222730017e-08,-3.4733126612876146e-08,-3.2773329581761033e-07
1.336569862107144e-06,5.855627756877178e-07,-9.390233353688008e-07,5.41802751807327e-07,-3.899176590479489e-07,-1.506256587711607e-07,5.111666624806102e-07,6.256876234142747e-07,9.300783442603262e-07,2.5100066186080906e-07,-1.7370245733690727e-06,4.657714961693958e-07,-8.832124718298745e-09,-3.018395264808252e-08,9.46068044612137e-08,-1.7625385124189556e-08,-1.0978380364826052e-07,-3.1766637020738556e-07
1.3258623848879957e-06,6.351656609733807e-07,-1.0069143470136475e-06,5.877055416589588e-07,-6.294805097923287e-07,-1.1031528203022244e-07,5.405422738172846e-07,7.93376482883048e-07,9.459335786698701e-07,1.9464370134476245e-07,-1.7600360540650977e-06,4.0463902432776534e-07,5.276858340444988e-08,6.137294488891355e-09,2.215196272302313e-07,1.054891688360073e-07,-1.7902428906302372e-07,-3.2621114556262616e-07
1.2948816990640864e-06,6.718529962069712e-07,-1.054328186956168e-06,6.41445378564985e-07,-8.902971377082948e-07,-3.4917809347448618e-09,5.881185753017909e-07,8.464968889769158e-07,9.53927948060167e-07,1.1226470211446765e-07,-1.8075479166229955e-06,3.9377556330295247e-07,8.645710010870277e-08,6.021181267511005e-08,3.382464124930696e-07,1.8335553622286663e-07,-2.657397717719656e-07,-3.223872755028738e-07
1.2261327397527026e-06,7.250367137465997e-07,-1.1144636104279604e-06,7.056808790007532e-07,-1.1348232136502087e-06,1.3844604956866718e-07,6.404550347770615e-07,8.725088869888019e-07,9.511609968624866e-07,9.485449760019499e-08,-1.9207619313217975e-06,3.5767386896738347e-07,1.3005803693147828e-07,6.733535982430032e-08,4.1289313283609687e-07,2.3419068391591006e-07,-3.289967276475426e-07,-2.923498485148398e-07
1.1391516105033337e-06,8.080523347870977e-07,-1.1790899121440957e-06,7.964901711273352e-07,-1.264558371947785e-06,2.3579219839619373e-07,6.822555779434252e-07,8.916850165982343e-07,9.374100074022372e-07,1.1005174090347919e-07,-1.9520652751372547e-06,3.5173455920095566e-07,1.817136650421221e-07,3.350078886079459e-08,4.736475192730991e-07,2.9907512379951153e-07,-3.360583322444004e-07,-2.1155642760632774e-07
1.0278904862984848e-06,9.190464497579324e-07,-1.2348430734419558e-06,8.717232771589515e-07,-1.1934646046017661e-06,2.5498179994419254e-07,6.987531768681444e-07,8.432449843856369e-07,9.258483035431148e-07,1.4186636925990078e-07,-1.946763028609244e-06,3.6357120044072546e-07,2.3532678090193418e-07,-1.487581182140759e-09,5.243158755456744e-07,3.4007030699694825e-07,-2.983595018251947e-07,-8.687209201961998e-08
9.166677212782037e-07,9.540319571472487e-07,-1.2939695042726073e-06,9.166856042018192e-07,-1.1976232751720117e-06,2.188024917394262e-07,6.860138392482806e-07,8.165857588805573e-07,9.169042499028308e-07,1.6605811261275515e-07,-1.88940307491167e-06,4.2830270795164217e-07,2.7797728259746696e-07,-6.732956464660527e-09,5.605817006717506e-07,3.729861850148357e-07,-1.7930966993685915e-07,1.972421333210124e-08
8.305474880289048e-07,9.813008044013875e-07,-1.3765764774531387e-06,9.614632840817082e-07,-1.2619246199578962e-06,1.1524498767172758e-07,6.420771708266907e-07,8.493988912075743e-07,9.052377013917777e-07,1.026914305433326e-07,-1.7686665355737174e-06,4.774706354149678e-07,3.299171919934481e-07,-6.91400839333098e-09,6.053152150808515e-07,4.1085662089722244e-07,-6.377053263958639e-09,8.810251884639024e-08
8.033358655517117e-07,9.56903469121258e-07,-1.4497950394934701e-06,9.825842826826375e-07,-1.2912793594039377e-06,-3.770664476295827e-08,5.770287921485993e-07,9.514502810950811e-07,8.945860655574146e-07,4.603319373599295e-08,-1.7865767795565478e-06,5.146242349187328e-07,3.656358058073523e-07,-2.4742475455901084e-08,6.69064569467966e-07,3.974102060246449e-07,4.6329508095978025e-08,1.5452087523081974e-07
8.143378622149999e-07,8.796874246569579e-07,-1.5039259971512372e-06,1.0211476347145026e-06,-1.160784274503018e-06,-2.023150917356496e-07,5.020760963283179e-07,1.0725347627598298e-06,8.813790724946548e-07,6.157600059779376e-08,-1.9030106114495232e-06,5.684846521428599e-07,4.0487305175322416e-07,-1.0405022298197228e-08,6.640835292044761e-07,4.177978966835835e-07,1.0325244762325379e-07,2.0588272607185098e-07
8.102032405308402e-07,8.223582310162055e-07,-1.5449502919103722e-06,1.0519890295993918e-06,-8.912734686038619e-07,-3.3966854139296005e-07,4.458435182112373e-07,1.1721425009967248e-06,8.674024578192439e-07,1.0229787654746554e-07,-2.0363592738630474e-06,5.997196610723535e-07,4.4616929579346284e-07,-4.462261395409642e-09,6.422218093278041e-07,5.074838720070643e-07,1.5876422989925985e-07,2.1908767093466412e-07
7.822366610071473e-07,8.053167953441225e-07,-1.5524982890959409e-06,1.0820698172453593e-06,-6.597545065362619e-07,-3.9396483440316436e-07,4.1714135031654734e-07,1.2245573326402954e-06,8.532063434209884e-07,1.1348731723288197e-07,-2.0780735208810736e-06,6.463428244887835e-07,5.130106658030003e-07,1.1446797516996844e-08,6.362119791001802e-07,5.064177481218349e-07,1.9960227516204975e-07,2.0442406875426332e-07
7.482937045878486e-07,8.160282369136652e-07,-1.5743593532899215e-06,1.0977409368985878e-06,-5.352273492177718e-07,-3.1616027730712673e-07,4.277061467120142e-07,1.2571871036056628e-06,8.43848677502659e-07,1.503665217413555e-07,-2.047538251530756e-06,7.058872944648426e-07,5.599191835457507e-07,2.978062835265303e-08,6.367000487292305e-07,5.373822090412809e-07,2.635097681754528e-07,2.1595876974825458e-07
6.752492386614798e-07,8.44282704900916e-07,-1.6060414137758747e-06,1.1039652486180453e-06,-4.855309143005356e-07,-1.0676402543164873e-07,4.956306679121496e-07,1.2692722518578429e-06,8.41359212425639e-07,1.7124394743137314e-07,-1.938311835651747e-06,7.678540717358732e-07,5.89681607489122e-07,4.524045083635008e-08,6.523844950814544e-07,5.155380282643103e-07,3.381694533679516e-07,2.9580904287150454e-07
6.369498605950822e-07,8.78818907209332e-07,-1.6031428700430282e-06,1.1017132562382424e-06,-5.491916115704833e-07,1.7935361189853212e-07,6.078900047958845e-07,1.2529606031264345e-06,8.44468316192225e-07,1.7873517991808324e-07,-1.883483673407274e-06,8.73684764990175e-07,6.045539164128029e-07,7.855107168391512e-08,7.078603509601843e-07,5.363828893649112e-07,4.464257151004982e-07,3.413189291696201e-07
6.367755007022873e-07,9.174673664327686e-07,-1.5488969872842993e-06,1.0897799602807589e-06,-5.814766427305445e-07,4.634475450484061e-07,7.481131781822404e-07,1.1746739758591854e-06,8.579681218474296e-07,1.3674811843968533e-07,-1.841898346357388e-06,1.0384330534727668e-06,6.077092564264193e-07,6.476601447909103e-08,7.96016621776867e-07,5.173408871185498e-07,5.847173393260353e-07,3.5479284968463574e-07
7.012959619019622e-07,9.561484278647e-07,-1.4316880102124512e-06,1.0945945951035176e-06,-4.927182648390467e-07,6.624773592133237e-07,8.990164529199205e-07,1.0490139903403253e-06,8.692240324389906e-07,1.0678825624454428e-07,-1.8222658784854075e-06,1.2022468874399454e-06,6.083322272636089e-07,5.088683075066367e-08,8.067645928815548e-07,4.773791860865871e-07,7.50367143816095e-07,4.032201700829937e-07
8.097596436481012e-07,1.0071864409017464e-06,-1.2894780505359803e-06,1.1147345540933567e-06,-2.7136674012657807e-07,7.317580718301642e-07,1.011990419239982e-06,8.970376005826021e-07,8.814384466497617e-07,9.492616731649173e-08,-1.8507132995541611e-06,1.338932891488989e-06,6.038709642641433e-07,5.1572395868357065e-08,7.619276968363929e-07,4.854887565221113e-07,9.094104598835615e-07,4.2320730534335757e-07
9.555009628901451e-07,1.0342906424192994e-06,-1.179234336613689e-06,1.1349842549650337e-06,4.0809362127907396e-08,6.873286302052701e-07,1.0755567046419614e-06,7.179210455917982e-07,8.70932766831032e-07,7.397767283537592e-08,-1.8949380264862845e-06,1.4226444184957666e-06,6.003716624638449e-07,4.069305778116944e-08,7.104763773347336e-07,4.852099414488632e-07,1.0334509833264102e-06,3.8979325727110746e-07
1.1033731785574019e-06,1.0189773711546617e-06,-1.0727667272416664e-06,1.128169114533711e-06,3.7740648448002045e-07,5.945422488119676e-07,1.118361366190069e-06,7.712310862300515e-07,8.493789497569537e-07,8.809057189595741e-08,-1.893658995809048e-06,1.4970151140294842e-06,5.721203857518134e-07,3.8171445379720216e-08,6.527326099551795e-07,4.852278177001566e-07,1.144744135479354e-06,3.5384315897573904e-07
1.1691282974218838e-06,9.405247402643257e-07,-9.946068060461985e-07,1.1084846765059459e-06,6.926853514964562e-07,5.389467932938417e-07,1.1324728719616815e-06,9.548408512625538e-07,8.415090054988168e-07,1.4500330211465417e-07,-1.875271208384515e-06,1.6106538501265806e-06,5.639207864804698e-07,1.2535384542790455e-08,6.124999573456843e-07,4.911140564595662e-07,1.1741201117875127e-06,3.300737320907035e-07
1.1688361311047083e-06,9.033573893695007e-07,-9.504748909831416e-07,1.0983593534688621e-06,9.566945599396657e-07,5.832695451186502e-07,1.1508297225828219e-06,1.044246356019182e-06,8.572421426770856e-07,2.512243710591712e-07,-1.869771155519451e-06,1.7473774048249605e-06,5.668406677055104e-07,-3.3481534067098865e-08,6.426274464034589e-07,4.858796192053525e-07,1.1823444018786333e-06,3.232699930847728e-07
1.157077037767494e-06,8.80548490222173e-07,-9.129592034167797e-07,1.069919243066945e-06,1.1688719005941306e-06,7.62154728760471e-07,1.2680904441022327e-06,1.0723899330229786e-06,8.799652827956576e-07,3.808064635835249e-07,-1.9056214251345318e-06,1.7676485714982728e-06,5.610781286864894e-07,-7.302424488098273e-08,6.645797603717268e-07,4.797790729748945e-07,1.2310778977859398e-06,3.2375120566911124e-07
1.1620718967653535e-06,8.722880163201549e-07,-9.011060933747084e-07,1.0288434372237564e-06,1.3157097871556071e-06,1.053434762723612e-06,1.3196040213068151e-06,1.1175131668794226e-06,8.827587462596779e-07,5.134604191915437e-07,-1.9309689037471396e-06,1.7852947038007193e-06,5.225578577498063e-07,-9.0229573659281e-08,6.5345636937686e-07,5.315270467407349e-07,1.3108775589301626e-06,2.8098962343971056e-07
1.173295416177315e-06,8.52407576006539e-07,-9.035729249417121e-07,9.904727826520286e-07,1.390373177827934e-06,1.3918354064585568e-06,1.3205200046885605e-06,1.2341995329004549e-06,9.107106074212726e-07,5.749602050977001e-07,-1.8554892230380469e-06,1.7830717583833912e-06,4.758314665777565e-07,-9.671424504375147e-08,6.60474688971104e-07,5.760526083239383e-07,1.418484031921001e-06,2.3561164444137046e-07
1.1851326912103894e-06,7.004079283119933e-07,-9.481808058648958e-07,9.323778129737555e-07,1.39207741129518e-06,1.7107555122774691e-06,1.3291167455043475e-06,1.3420421525515439e-06,9.539882051715796e-07,6.109378950819175e-07,-1.8088090795867282e-06,1.7616682392371238e-06,4.3234617068771776e-07,-7.694890127612996e-08,6.405906504380666e-07,5.549905430369292e-07,1.536920012881867e-06,2.1556807151892543e-07
1.209824777691933e-06,5.474756507854914e-07,-9.919327237486691e-07,8.94168512664342e-07,1.3301898061992184e-06,1.9580024167011023e-06,1.2617119115722553e-06,1.43484988694371e-06,1.0126899238786171e-06,6.906673841211806e-07,-1.737308785670811e-06,1.8037607806278583e-06,4.073008970021167e-07,-5.519354262517291e-08,6.428877584941566e-07,5.255760971171564e-07,1.5949747445669128e-06,2.2905452135157483e-07
1.2013021258984612e-06,4.803646961162836e-07,-9.845255638680228e-07,8.67540184059475e-07,1.216653986187638e-06,2.0992677853179007e-06,1.2619104739053706e-06,1.4462558270119415e-06,1.0885227703767506e-06,8.314524894725109e-07,-1.667990535158615e-06,1.8738966481873782e-06,3.9189158741142263e-07,-4.739032197870218e-08,6.357702581378886e-07,5.211222166579763e-07,1.6223851810458796e-06,2.7966883049356955e-07
1.2155824001681479e-06,4.449053958968381e-07,-9.345136854778069e-07,8.294026830245808e-07,1.0747272212729869e-06,2.1097288220394595e-06,1.3402886608362668e-06,1.6688549308789102e-06,1.1753431485539966e-06,9.772824200813722e-07,-1.6324081821819931e-06,1.906915419300841e-06,3.101794613542159e-07,-5.929347147016683e-08,6.582806923845935e-07,5.346218406121084e-07,1.6196391474542017e-06,3.09065887836591e-07
1.263084302974094e-06,4.135515121506568e-07,-8.098917292021976e-07,7.922712291154055e-07,9.421664352787307e-07,1.9736822911365198e-06,1.3587337070825478e-06,1.946195602294763e-06,1.2289725988749858e-06,1.0529005276865727e-06,-1.6161463227479747e-06,1.926586486583714e-06,2.2093314888833273e-07,-7.289665210177257e-08,6.360403291216337e-07,5.699021545265769e-07,1.6472470552033277e-06,3.2177092243047677e-07
1.3242983863760939e-06,3.7340294689635916e-07,-6.167135294141398e-07,7.279355022503914e-07,8.522140429805685e-07,1.6720985860904316e-06,1.2678277434057024e-06,2.0639642225892995e-06,1.2988674598943793e-06,1.0526401619303143e-06,-1.4668428222648261e-06,1.938217258562392e-06,1.5394857664739432e-07,-9.13075876902059e-08,6.031373685123821e-07,5.923329788307477e-07,1.7078147332146252e-06,3.4186472802853804e-07
1.4756357039129841e-06,3.3533613085221623e-07,-5.217674521429958e-07,6.972134184672002e-07,8.29163733818487e-07,1.2504185519296928e-06,1.117834879135105e-06,2.0573728770880916e-06,1.369839961548243e-06,1.0418106779660398e-06,-1.3879760422029972e-06,1.938495698011817e-06,7.29927812366204e-08,-1.2501500188735197e-07,6.178676900290446e-07,5.711342322348998e-07,1.7124246300756213e-06,3.407304368807968e-07
1.6127107002446673e-06,2.8676390098905853e-07,-4.865390595666712e-07,6.984090201250677e-07,8.808492741733905e-07,7.944645001087995e-07,9.753660923038367e-07,2.0916743930296567e-06,1.4815568450342426e-06,1.0287211728851369e-06,-1.2868402728771112e-06,1.9266761269723092e-06,3.568019894365801e-08,-1.5675575464398466e-07,6.036938951128611e-07,5.472899292367498e-07,1.687591965105514e-06,3.157011171238192e-07
1.6985999920872974e-06,2.7756066377417025e-07,-3.871306870661061e-07,7.300261554558852e-07,1.0009362728507132e-06,4.0001352040215346e-07,8.835112221936022e-07,2.1666825510630128e-06,1.5622190758146825e-06,1.0520306486119022e-06,-1.1018104145579388e-06,1.9060384848931409e-06,6.801160493580452e-09,-1.9932498809923216e-07,5.868729975735971e-07,4.902593799773025e-07,1.6572461375354982e-06,2.772598396737676e-07
1.8147894225671914e-06,2.72722075359393e-07,-1.8712922842365762e-07,7.51161091334254e-07,1.1701774715434067e-06,1.618586528936724e-07,9.423118920785737e-07,2.100932823676846e-06,1.59902505977602e-06,1.103998951702358e-06,-1.0155474032746296e-06,1.879032045800753e-06,-4.335703549879026e-08,-2.646074967541211e-07,5.592432946732549e-07,4.927778236011459e-07,1.6148877611773485e-06,1.8800640236449201e-07
1.95911643106188e-06,3.310526133786067e-07,6.707997841763676e-08,7.371190744825591e-07,1.3556165899281733e-06,1.025622427478291e-07,1.012300923427159e-06,1.9540129210177504e-06,1.6122294718961281e-06,1.1657069685531125e-06,-9.770583559194036e-07,1.857380857703324e-06,-9.282052704807369e-08,-3.258203074199065e-07,5.59365168664116e-07,4.7543855105214283e-07,1.5742893103368935e-06,1.0301347322854449e-07
2.1286073001128757e-06,3.834846604794043e-07,2.325874080768626e-07,7.095276916638242e-07,1.5128592055065669e-06,1.8756416107225818e-07,1.1484173079324703e-06,1.758168226086801e-06,1.550218216036128e-06,1.2141673761780857e-06,-9.488479181183866e-07,1.8334985999311965e-06,-1.4904273161918571e-07,-3.782228556328301e-07,6.17570271137208e-07,4.213953532336537e-07,1.5300160195693029e-06,3.051569002175601e-08
2.2004946356400304e-06,4.0453527464539745e-07,3.301452292898485e-07,7.137913275094836e-07,1.5999302205075172e-06,3.99798763165489e-07,1.326201528383947e-06,1.505491769814279e-06,1.5040170789401424e-06,1.2253709706751525e-06,-9.485322296576521e-07,1.7977893644360832e-06,-2.2584997392152932e-07,-4.1240844985772717e-07,7.018397794322625e-07,4.2775689621793086e-07,1.4803073639259137e-06,-5.085849709351786e-08
2.1691998298468513e-06,4.1147544200770754e-07,3.798790652099039e-07,7.503515714514493e-07,1.5917312891341487e-06,6.89540131025449e-07,1.4348553956285896e-06,1.234632213019026e-06,1.4731318335523969e-06,1.2043907939238057e-06,-9.675945381762607e-07,1.739217158159477e-06,-3.0639792865903075e-07,-4.280923876238368e-07,7.224346660806286e-07,4.834934775421884e-07,1.421229643558375e-06,-1.249315086886106e-07
2.1464606319400043e-06,3.7159260587477437e-07,4.3922876453428066e-07,7.895747438639245e-07,1.492028936963083e-06,9.6583582852781e-07,1.4981152224953794e-06,9.989051510837614e-07,1.4530849531111215e-06,1.161884340138819e-06,-9.596539781502709e-07,1.6675807689117258e-06,-3.827613572965771e-07,-4.340062985554901e-07,7.457133046399628e-07,5.92333108000996e-07,1.3920539270114335e-06,-1.9164912440239147e-07
2.127463750718788e-06,2.9195741194361906e-07,5.038564215387424e-07,8.131189343401787e-07,1.3331741224376439e-06,1.1705334389011842e-06,1.544963132679069e-06,8.889346410799908e-07,1.4460804590688667e-06,1.1070589796376285e-06,-9.82993323545893e-07,1.5878454003675094e-06,-4.6307687464291e-07,-4.4527009544217496e-07,7.526477617456293e-07,7.12359329902623e-07,1.3835769130095691e-06,-2.5704348519863465e-07
2.095417972407905e-06,2.247486613991877e-07,4.7589171937628274e-07,7.953386367653512e-07,1.1582728735157168e-06,1.2658966218675734e-06,1.5566878613445122e-06,9.083580185396366e-07,1.450506620492851e-06,1.051716502704327e-06,-1.0232588436018325e-06,1.5253195992550377e-06,-5.437670575389651e-07,-4.5831388233469965e-07,7.748129687206875e-07,7.458996212313261e-07,1.384737960617073e-06,-3.429255465264304e-07
2.0330694757818313e-06,1.7430294178413823e-07,3.95980494916297e-07,7.515603165352968e-07,1.0012224728447475e-06,1.2450020677418852e-06,1.545381477736876e-06,1.021998419196211e-06,1.4603249450349579e-06,1.0093484963486036e-06,-1.0287265909440926e-06,1.4846436223559567e-06,-6.196124431680806e-07,-5.077218454181331e-07,7.953906078627393e-07,7.148797055694499e-07,1.402386962861273e-06,-4.158479879352331e-07
1.9039763597688093e-06,1.191360519961254e-07,3.032002755833728e-07,6.97274648023752e-07,8.716364935932735e-07,1.153705953367278e-06,1.4842531875176553e-06,1.1961103835699883e-06,1.4201017857848148e-06,1.0029689043041583e-06,-1.0219633171618768e-06,1.4499243578522124e-06,-6.935676006893312e-07,-5.820591438761354e-07,7.642142793815016e-07,6.594292952436473e-07,1.4268782485290046e-06,-4.913558216208215e-07
1.7288137436422929e-06,7.070891815025469e-08,2.0690083620932984e-07,6.054803436582743e-07,7.517734757849806e-07,1.0561478316492528e-06,1.3850719996715576e-06,1.3440768832169964e-06,1.3424880889416324e-06,1.027294549529736e-06,-9.846719884662109e-07,1.4288149380122315e-06,-7.825738733116899e-07,-6.642395347155653e-07,6.909708897829253e-07,5.877177046083847e-07,1.4529452898271846e-06,-5.680017592552418e-07
1.5878194672784867e-06,3.4026173637959946e-08,1.3218862216303754e-07,5.06106690402023e-07,6.079337547808923e-07,9.56512286103165e-07,1.3207930957923648e-06,1.4275740108001332e-06,1.2772292841500614e-06,1.0649688584912387e-06,-9.508522555402358e-07,1.4189662941643934e-06,-8.675887548154191e-07,-7.835753602810619e-07,5.931339692579229e-07,5.166902560085265e-07,1.4716797041352012e-06,-6.307773042100754e-07
1.4750547425898134e-06,-7.514268694288386e-09,1.1559004817017316e-07,4.156401563523963e-07,4.1252619838384825e-07,8.529435300583719e-07,1.2918669948341023e-06,1.4354579509520623e-06,1.2080541275577547e-06,1.1095063101679914e-06,-9.267345456151307e-07,1.4170326709598172e-06,-9.505461596666018e-07,-9.065908067042168e-07,4.6219783845247207e-07,4.4012506886783175e-07,1.4460772903886655e-06,-6.92633850400656e-07
1.4155203793022205e-06,-4.9645319551374044e-08,1.2636053776867707e-07,3.1883823453602576e-07,1.622875724212599e-07,7.411384405033188e-07,1.2908303180154902e-06,1.3589605500497652e-06,1.11269189264623e-06,1.1481460221633706e-06,-9.293345521477074e-07,1.4160218332397431e-06,-1.043456607871589e-06,-9.842045472369584e-07,3.1885096702714173e-07,3.1389202419605917e-07,1.342046422822429e-06,-7.598306572996625e-07
1.3970654115005267e-06,-9.016354911624571e-08,1.0254254578451539e-07,2.2079723159497347e-07,-1.1587403580425468e-07,5.901196943793686e-07,1.2978765147378119e-06,1.2204014979195237e-06,1.0394989178784614e-06,1.167717085367837e-06,-9.244955420347367e-07,1.4062757714442725e-06,-1.1174198658122428e-06,-1.0159091467562742e-06,1.946315671771812e-07,1.7484352129432998e-07,1.2075034719076691e-06,-8.249340765765148e-07
1.387341871667864e-06,-1.4167542228412238e-07,6.161948030041528e-08,1.1659235961767797e-07,-3.7373844799056336e-07,4.002832109093998e-07,1.1318738892304037e-06,1.0458587427190057e-06,9.75202676892215e-07,1.1863153455205863e-06,-9.238113095297233e-07,1.3839270164399974e-06,-1.2006506682631562e-06,-9.975756252437178e-07,7.352829251424587e-08,3.760003076898709e-08,1.1005929973059237e-06,-8.811321241727435e-07
1.413598788264692e-06,-1.957745731359564e-07,-3.575394414809889e-08,4.361255357971754e-09,-5.588978425234744e-07,1.856577280809727e-07,1.0160756174639602e-06,8.890897546241452e-07,9.061647624338396e-07,1.1816031367110217e-06,-9.526730856772021e-07,1.3493583118888002e-06,-1.2881014727475687e-06,-9.96737220371363e-07,-5.295495480390227e-08,-1.1298354724292645e-07,1.0220194975567645e-06,-9.317116042068002e-07
1.362154186346516e-06,-2.4034996021186837e-07,-3.6846806615811134e-08,-1.0257699577215213e-07,-6.342819794466748e-07,-6.921636352144118e-09,1.0390119821583992e-06,8.008460566443031e-07,8.291098971034284e-07,1.1414816088866692e-06,-1.0028250646745684e-06,1.282841231520361e-06,-1.3707886188446732e-06,-1.0076699449035723e-06,-1.851386845143459e-07,-2.5167019237912997e-07,8.674470278724674e-07,-9.786311219280868e-07
1.3584307143698495e-06,-2.796209292433504e-07,1.3055041287689337e-08,-2.008703529879343e-07,-5.90604753547174e-07,-1.3526934177305157e-07,1.0264386416582567e-06,8.043463388009287e-07,7.253139137927319e-07,1.0600820357061125e-06,-1.0771737814952903e-06,1.198065143118215e-06,-1.4272315969954932e-06,-1.0276878802728437e-06,-2.941924625320889e-07,-2.638961027142643e-07,6.675353058339281e-07,-1.033613869717514e-06
1.370810542553559e-06,-3.170600575155825e-07,-2.5895783699430564e-08,-2.928559826260889e-07,-4.502047115002985e-07,-1.7266348493319827e-07,1.002714629339974e-06,8.620814441606322e-07,5.942804819956474e-07,9.647941941913612e-07,-1.1555310132121796e-06,1.1105993160777397e-06,-1.4239460845222504e-06,-1.0852711891335716e-06,-3.0517089589370705e-07,-1.8801762297304743e-07,5.014627373158368e-07,-1.0811135447023696e-06
1.3601973953742167e-06,-3.563667026911182e-07,-1.5082729039985238e-07,-3.659392621742194e-07,-2.615849240134168e-07,-1.3208759776909552e-07,9.694393074152017e-07,9.340729721200851e-07,4.602867264823283e-07,8.832356416631174e-07,-1.2045869824624972e-06,1.0128224963456358e-06,-1.3585775922266978e-06,-1.1435678637425457e-06,-2.8949487117488665e-07,-1.5125509173819025e-07,3.217350687419447e-07,-1.135082003291552e-06
1.3031902245264689e-06,-3.9705754531748237e-07,-2.4248206645028215e-07,-4.2221376248977616e-07,-8.390500793141374e-08,-6.149932073349849e-08,8.797268976538705e-07,9.764004394366193e-07,3.279655341734795e-07,8.150902112669416e-07,-1.1327360549932508e-06,9.039691713700961e-07,-1.2766940595003688e-06,-1.2060732835664316e-06,-2.707640241587014e-07,-9.80533599830322e-08,1.6907577767416634e-07,-1.1956648387878027e-06
1.2334279911643703e-06,-4.397290381310834e-07,-3.658246633502049e-07,-4.651881884608503e-07,3.213236572932349e-08,3.480775590211374e-09,8.233641644970504e-07,9.565907151801431e-07,1.985246634996512e-07,7.703590099695915e-07,-1.0219321514617807e-06,7.793646805201494e-07,-1.2292847129750584e-06,-1.282293602179953e-06,-2.5035824920243974e-07,-5.535593966541709e-09,4.183505922544214e-08,-1.2710288849443595e-06
1.1749888962774382e-06,-4.861486204294066e-07,-4.902314503122886e-07,-4.962975875902271e-07,5.822982727420587e-08,5.1005906054276816e-08,7.82835572269355e-07,8.48006271818829e-07,8.207561944011982e-08,7.361547839042132e-07,-9.165567841858816e-07,6.384195347972401e-07,-1.165573162835779e-06,-1.3975132330883928e-06,-2.428147356892521e-07,5.089742941623697e-08,-7.597075809153685e-08,-1.3419699901218777e-06
1.0673384069021127e-06,-5.444822995833896e-07,-5.801712482057646e-07,-5.171274970989294e-07,-7.856883004254687e-09,9.860829657269763e-08,7.407411370256683e-07,6.534985867886415e-07,-1.4648849531395936e-08,6.990573410148078e-07,-7.155229172509755e-07,4.957284745299044e-07,-1.1144387307902063e-06,-1.4997701084440136e-06,-2.519452429461196e-07,4.9703719579646e-08,-1.7304853264428637e-07,-1.419806626179808e-06
9.485124309275054e-07,-6.188693240911626e-07,-6.535088253227303e-07,-5.3578314537832e-07,-1.451909275167545e-07,1.6209146766891628e-07,6.379158423041832e-07,4.0629552582642516e-07,-8.775174059877568e-08,6.547465566620917e-07,-5.517297709292328e-07,4.2350906806703283e-07,-1.1088588727882412e-06,-1.5465940580756601e-06,-1.9016938777444626e-07,4.673344309375976e-08,-2.6189908497368803e-07,-1.44741446746402e-06
9.204832492650512e-07,-6.997172889702406e-07,-6.954656868596863e-07,-5.492985459895573e-07,-3.1549216320503114e-07,2.415618631819744e-07,4.785035500354858e-07,1.730884310940963e-07,-1.3717593094465836e-07,6.059026690531137e-07,-5.510239005518309e-07,4.077903691778873e-07,-1.153289934542322e-06,-1.5578898152472984e-06,-7.241193629138297e-08,4.039121647234112e-08,-3.3909100769601454e-07,-1.424765144657731e-06
8.89631568215131e-07,-7.760531769699481e-07,-7.47063562733978e-07,-5.428788884225097e-07,-4.736988998403693e-07,3.2773359894581887e-07,3.11718563363958e-07,4.6312103858720574e-10,-1.6210640726043876e-07,5.255436845076861e-07,-5.800574585189565e-07,3.6874532056068545e-07,-1.1839724189774905e-06,-1.5728168095860366e-06,-4.233698593411875e-08,2.4715765352750116e-08,-3.9923696215113e-07,-1.4286514705009483e-06
8.23166180009903e-07,-8.017569978250644e-07,-7.81378310853638e-07,-5.698951045010206e-07,-5.811478829969794e-07,4.0346006139192087e-07,1.6069720081717603e-07,-8.448690883011128e-08,-1.8465480605469775e-07,4.340743714598706e-07,-6.637131179458841e-07,2.9912489175448184e-07,-1.1841582429963606e-06,-1.5881973978791788e-06,-7.863872994733019e-08,1.8957912381634243e-08,-4.44004152894154e-07,-1.4403400756024062e-06
8.249603587979285e-07,-7.398205311140372e-07,-8.075686382337928e-07,-5.861096268343035e-07,-6.148186277780047e-07,4.5925620378689916e-07,1.0107093769443938e-07,-8.047321770866668e-08,-2.1814496660793183e-07,3.4543635040995447e-07,-6.9665214689474e-07,2.350240371744972e-07,-1.2012115931777423e-06,-1.618624828966208e-06,-1.2516448048656165e-07,2.1054984188235358e-08,-4.772377479791414e-07,-1.4576341982990695e-06
8.878574984319876e-07,-7.198736815655194e-07,-8.377025631818518e-07,-5.89686270479763e-07,-5.696455357676774e-07,4.908936006965905e-07,1.4832866689489945e-07,-7.441585208558886e-09,-2.7185093978698033e-07,2.4771552834840707e-07,-8.086408143443713e-07,2.1895377024728362e-07,-1.1680635122816783e-06,-1.6637930199287882e-06,-1.2929266879988218e-07,4.849874795547545e-09,-5.042623471636426e-07,-1.4807387268877828e-06
9.429779203796637e-07,-7.151130068591468e-07,-8.461960934444e-07,-5.723322839969253e-07,-4.561031096308368e-07,4.918222601559838e-07,2.6366542268100723e-07,1.136038562891857e-07,-3.5603788855760546e-07,1.689889051314255e-07,-1.0048187313358515e-06,2.4544817783643225e-07,-1.0981670183785589e-06,-1.7032811420677578e-06,-1.4740300694084212e-07,-2.984644961811695e-08,-5.297438464614736e-07,-1.4990291877337229e-06
9.827436941914864e-07,-6.046385591212228e-07,-8.498490084595372e-07,-5.155273681475864e-07,-2.974822806949752e-07,4.7330221474676264e-07,4.2163977076238023e-07,2.4395708651785137e-07,-4.5740922537826285e-07,1.0372937085222948e-07,-1.2067455708717034e-06,2.618792157842322e-07,-9.758605164174616e-07,-1.7501898254138944e-06,-2.792837740897726e-07,-6.99926857971298e-08,-5.557942127149366e-07,-1.507960022624641e-06
1.0112750223809687e-06,-4.6507754286781105e-07,-8.450927263885452e-07,-4.868523873586151e-07,-1.258742910095855e-07,4.3983911631602e-07,5.8206889931427e-07,3.507665966771624e-07,-5.632447670567446e-07,4.5614963256571785e-08,-1.3255717128703604e-06,2.733315815914184e-07,-8.342592311106241e-07,-1.7926408254648076e-06,-3.278277097252438e-07,-1.1485009774802716e-07,-5.815853274055893e-07,-1.5222683513057767e-06
9.933641005496658e-07,-3.5999017853987836e-07,-8.108604702963522e-07,-4.835789892884988e-07,2.5474553575402214e-08,4.282983510898297e-07,7.340459495710046e-07,4.2332443003194657e-07,-6.435463945393549e-07,-6.178263296834509e-10,-1.4869045204557672e-06,2.8497204273575874e-07,-7.593892857729281e-07,-1.7952317705267952e-06,-3.074461408974062e-07,-1.5031235593901003e-07,-6.050080824386583e-07,-1.509984862042963e-06
9.635575330649356e-07,-2.8537082801382676e-07,-7.650152144918945e-07,-4.976992131447549e-07,1.315734659782893e-07,4.6045669911702176e-07,8.400849113410966e-07,4.868548001833729e-07,-6.704238157105652e-07,-3.153658006873075e-08,-1.5059433711517986e-06,2.6431987987145827e-07,-7.025811172655154e-07,-1.7781432427278136e-06,-2.75240857876005e-07,-1.6119168964365193e-07,-6.240394704316684e-07,-1.501338414861949e-06
9.405127640240967e-07,-2.3112202895903407e-07,-7.17612029270078e-07,-5.13775396197066e-07,1.8100275729688684e-07,5.340927955847988e-07,8.94256363922291e-07,5.727780162975918e-07,-6.218196390065522e-07,-5.0330666659074254e-08,-1.4987773863313219e-06,2.363451108791048e-07,-6.268232417652535e-07,-1.7563071422663513e-06,-2.542398252922363e-07,-1.3337552706811238e-07,-6.370669623660883e-07,-1.4765444865899707e-06
9.286498111618236e-07,-1.9582009109517636e-07,-6.611304752548076e-07,-5.153339129755152e-07,1.7525916830241474e-07,6.17480116396991e-07,8.852251845594726e-07,7.050447891869249e-07,-5.540185648474882e-07,-5.950450746411176e-08,-1.4702803177504422e-06,2.034696180398166e-07,-5.254183660098337e-07,-1.7361350925493058e-06,-3.0117573667484496e-07,-5.19304075655196e-08,-6.42377300699561e-07,-1.4860668808105718e-06
9.260313614310136e-07,-1.707782434306535e-07,-5.816540602275902e-07,-5.029817700517142e-07,1.2586196071862022e-07,6.470844593497019e-07,8.113923505442464e-07,8.555819052124774e-07,-4.820125333735976e-07,-5.856930533276001e-08,-1.4347278627639393e-06,1.71663457872848e-07,-4.4479408461057713e-07,-1.7085560340861492e-06,-3.693325875589625e-07,5.049882167873263e-08,-6.368226759493066e-07,-1.5619642643322364e-06
9.147074296973885e-07,-1.468689067354443e-07,-5.003765293169505e-07,-4.915244434440101e-07,5.120345633455459e-08,5.768613145148822e-07,7.420110502501156e-07,1.020647184390207e-06,-4.0357343980248265e-07,-7.088024976087986e-08,-1.4153624081128068e-06,1.6728617373868465e-07,-3.829173770056553e-07,-1.6708760383346683e-06,-4.140435230712486e-07,1.4650542692637747e-07,-6.153896727266131e-07,-1.6330083562575964e-06
8.906416916737752e-07,-1.1646404750421922e-07,-4.288462360120823e-07,-4.5744426484808153e-07,-2.851311084841725e-08,4.0044798962272557e-07,6.673488912204271e-07,1.1660540924475303e-06,-3.877992923902898e-07,-9.000631175423409e-08,-1.4091382565042832e-06,1.8802727100952234e-07,-2.8117282265773796e-07,-1.627842929274853e-06,-4.3755240159279566e-07,1.9793070694621632e-07,-5.716679146667571e-07,-1.658476249634154e-06
8.530067960798528e-07,-7.563335825160664e-08,-3.7482064671452203e-07,-3.9653869448562834e-07,-9.823245851477397e-08,1.6112655179963012e-07,6.566744785636078e-07,1.2590679631382805e-06,-4.0773295807013914e-07,-1.040033973464185e-07,-1.405851822767465e-06,2.2676823657707242e-07,-2.0036395943779506e-07,-1.5868553133163147e-06,-4.3125440484310524e-07,2.6769966062303236e-07,-5.002418558607982e-07,-1.6241322485002684e-06
8.486455899785688e-07,-2.4768350003332757e-08,-3.5141655973814566e-07,-3.2088227214858745e-07,-1.514795349909461e-07,-8.469240986677835e-08,6.704920820357537e-07,1.2955500992823452e-06,-4.1820977360307545e-07,-1.0074856130650503e-07,-1.401106865623586e-06,2.8942187461130334e-07,-1.3939519765195304e-07,-1.558272312891127e-06,-4.2549547578979024e-07,2.94718342160252e-07,-4.000065993803647e-07,-1.5745485146252703e-06
8.666933543758869e-07,3.3127673123681166e-08,-3.200976458372531e-07,-2.3211088464611274e-07,-1.8429426268957907e-07,-3.04632466372843e-07,5.436143189497044e-07,1.2809214541991379e-06,-4.3121432184080054e-07,-8.617769710459031e-08,-1.3917419579710549e-06,3.76384012209886e-07,-8.25336863502303e-08,-1.538057273049747e-06,-3.987531019022391e-07,2.913332067912262e-07,-2.733245999209435e-07,-1.5189276231708632e-06
9.030964580116915e-07,9.359569943427605e-08,-2.6668975332257473e-07,-1.5192929354469562e-07,-1.8706335979942445e-07,-4.6640018057218125e-07,3.8196511385532183e-07,1.2384053537493583e-06,-4.309147573811855e-07,-6.203945903830806e-08,-1.3751835993603444e-06,4.847306364404455e-07,-3.900370634248672e-08,-1.5145017034623085e-06,-3.934085628872476e-07,2.1978480949206627e-07,-1.276856913110351e-07,-1.4575387342061347e-06
9.704872450150953e-07,1.515747112596536e-07,-1.9223367353901233e-07,-8.372998045945683e-08,-1.4702343517438537e-07,-5.547131415952407e-07,3.75831861146403e-07,1.194491591719423e-06,-4.1621056621408973e-07,-2.9045993977714496e-08,-1.352800781066001e-06,6.150440268707777e-07,1.4654403646892746e-08,-1.4889318480987011e-06,-3.7853187135929544e-07,1.7132294917822323e-07,2.576901571734953e-08,-1.3864329453066216e-06
1.0624146099930067e-06,2.019788887388465e-07,-9.757524585932187e-08,-2.6727000952650523e-08,-5.986139047519487e-08,-5.64258088232948e-07,4.3901624858373224e-07,1.1753776146929751e-06,-4.054965810415934e-07,2.327395837178291e-08,-1.3297544870149704e-06,7.578422264564189e-07,8.443735025071027e-08,-1.4654244691750604e-06,-3.521773814243127e-07,1.336714586192443e-07,1.7469266963661215e-07,-1.3130060261877542e-06
1.1579859035149107e-06,2.400994128272842e-07,9.415554851107447e-09,1.986934864856335e-08,6.334847492966881e-08,-4.951053644809208e-07,5.028190474205098e-07,1.200127162621043e-06,-3.7719411629598895e-07,8.903435966466223e-08,-1.3112983953522931e-06,9.001264979671327e-07,1.4294356018743355e-07,-1.4454919440101015e-06,-3.270550207164466e-07,9.941119938728456e-08,3.075446747394772e-07,-1.2464930687558108e-06
1.2858162091044204e-06,2.623243815561264e-07,1.250816381913519e-07,4.961508468528318e-08,2.0059847819240853e-07,-3.73109954492974e-07,5.961014615379316e-07,1.2840773421020415e-06,-3.234111636820531e-07,1.5576787933094266e-07,-1.3066814480054756e-06,1.0300430288762263e-06,1.261571029448682e-07,-1.4309507544219383e-06,-2.7794600056684855e-07,1.0475015553378382e-07,4.162092412323446e-07,-1.1880055307676793e-06
1.4282827206314135e-06,2.67230750382787e-07,2.386696340249001e-07,7.959462969132179e-08,3.3034586920127714e-07,-2.2709774058625784e-07,6.62700438601477e-07,1.438720775855341e-06,-2.628231831365315e-07,2.135570397635701e-07,-1.32427173083536e-06,1.1369671668600537e-06,8.802563882252466e-08,-1.4243123852023392e-06,-2.387837493805018e-07,1.224310287660714e-07,4.97212000495257e-07,-1.1391178245223814e-06
1.5436468265153452e-06,2.5599188249033504e-07,3.290367482734135e-07,1.0709478730845156e-07,4.3705064740751446e-07,-1.1041418116710332e-07,7.228959789608255e-07,1.656856197248378e-06,-1.8954435443754324e-07,2.4926729377988074e-07,-1.3667763822940785e-06,1.22004353106331e-06,1.2758801031482158e-08,-1.4400573031864794e-06,-2.039446138580696e-07,1.5015584492701591e-07,5.509664502826018e-07,-1.0881049900106073e-06
1.6464951839616878e-06,2.3189291264794023e-07,4.0899290818463256e-07,1.288440631318345e-07,5.111517039543032e-07,-5.485497128054009e-08,7.938696743988321e-07,1.907524363321612e-06,-1.1041042573550168e-07,2.634219698320365e-07,-1.4327204139993431e-06,1.2807962684287449e-06,-7.62992755864938e-08,-1.4629930075840304e-06,-1.66247626749449e-07,1.933443512276839e-07,5.802666068454958e-07,-1.0332811445822768e-06
1.7215356607889804e-06,1.9975903254454043e-07,4.77752841648161e-07,1.5188806449249985e-07,5.490520121023809e-07,-8.357862032333437e-08,8.824188649868354e-07,2.139465014737118e-06,-2.1953866822339504e-08,2.596878053656609e-07,-1.5136306988273648e-06,1.3258386691168214e-06,-1.4984656489579628e-07,-1.4869127460808016e-06,-1.2166435581201048e-07,2.448196422039455e-07,5.889705951829785e-07,-9.755326313611703e-07
1.7668962498156972e-06,1.6459063985379088e-07,5.395666611309956e-07,1.734492993744269e-07,5.545773427046285e-07,-1.9658653345753296e-07,9.821682723037553e-07,2.29686200555912e-06,8.160987736096455e-08,2.441302346022236e-07,-1.5960094170651627e-06,1.3579961890893643e-06,-2.2450936147058038e-07,-1.5091794468850068e-06,-7.954687537594397e-08,2.8829795857826607e-07,5.808308788784362e-07,-9.126090909214286e-07
1.8067178297127147e-06,1.3001838830540244e-07,5.992336896845921e-07,1.9457371443444667e-07,5.375922900892772e-07,-3.4605865817497797e-07,1.0590492308806894e-06,2.3554568612286144e-06,1.9409794497938606e-07,2.1804965137259325e-07,-1.6663175659229952e-06,1.3766758055832217e-06,-2.9646794765089085e-07,-1.5270526402901752e-06,-4.213240201269152e-08,3.228042468822791e-07,5.584953316262659e-07,-8.542423965465794e-07
1.839630659582315e-06,9.734623240928338e-08,6.539781801065319e-07,2.1731805894987335e-07,5.083573071220649e-07,-4.691196668463574e-07,1.0815407242928257e-06,2.2726604285193094e-06,2.8888868532670954e-07,2.004784814447283e-07,-1.7139883523125252e-06,1.3801996677584546e-06,-3.7625497564554503e-07,-1.5429378564632353e-06,-1.3835781988370842e-08,3.4086331415022013e-07,5.25376438050064e-07,-8.192914494757178e-07
1.8519144874788681e-06,6.571405253054849e-08,6.894880666545385e-07,2.2583795125873058e-07,4.7220466707907645e-07,-5.176538650603649e-07,1.0532721299723696e-06,2.0599434416507147e-06,3.5056296493386514e-07,1.9508328426083053e-07,-1.7330037426396304e-06,1.3719498874771395e-06,-4.321733998433788e-07,-1.559349440398259e-06,-1.2142927303962569e-08,3.337789139415467e-07,4.839676253393385e-07,-8.095786581393466e-07
1.8462853246546831e-06,3.289461109565458e-08,7.029346777885302e-07,2.1765921704895014e-07,4.282175895340958e-07,-4.892968979036805e-07,9.763817931710805e-07,1.7602605325059255e-06,3.8983947569522966e-07,2.015507365059418e-07,-1.724944406130522e-06,1.3573568583349358e-06,-4.849775903205767e-07,-1.5739685147741356e-06,-2.951430373189946e-08,3.026906020057038e-07,4.3659396901707027e-07,-8.176279155027536e-07
1.8275700120975097e-06,-3.6547359509604027e-09,7.079363371092824e-07,1.9781710458437365e-07,3.750070060936684e-07,-4.173348940328319e-07,8.745263779240934e-07,1.4203534754414785e-06,4.0410105578656315e-07,2.2534425282692428e-07,-1.6979135482883483e-06,1.3420263185332892e-06,-5.369301462210354e-07,-1.579685270428717e-06,-6.11886445425653e-08,2.4502280436838216e-07,3.8929333610067155e-07,-8.35981014378005e-07
1.7908241886252369e-06,-4.632738378224263e-08,6.762425299137902e-07,1.6607804910735945e-07,3.189565345585201e-07,-3.406677175050174e-07,7.866030000129025e-07,1.0984933782013809e-06,4.143564730856551e-07,2.6180134682573726e-07,-1.6621738878550581e-06,1.3332442470946071e-06,-5.917971019109258e-07,-1.5829487961591337e-06,-1.243203460995858e-07,1.5922089706303025e-07,3.4667976655957323e-07,-8.56140764608385e-07
1.7402598502134971e-06,-9.572885730442058e-08,6.103201361152378e-07,1.2774499432825366e-07,2.705110592786032e-07,-2.9714442431078696e-07,7.391979496666982e-07,8.385680047629626e-07,4.219835965302727e-07,3.0636156190792376e-07,-1.627914822511849e-06,1.3368676452111208e-06,-6.528170670682876e-07,-1.5877627498791875e-06,-2.0403348423486465e-07,5.6023568214988735e-08,3.1423366650168135e-07,-8.752898466381628e-07
1.6793507995988996e-06,-1.4991590271469429e-07,5.208225517600713e-07,8.479859292838246e-08,2.3195214525083876e-07,-2.8585358363766515e-07,7.339127418069567e-07,6.68373723846868e-07,4.194283502421883e-07,3.591411273287702e-07,-1.603327499232767e-06,1.3613605888926626e-06,-7.094868070395949e-07,-1.5929447549465978e-06,-2.8014234865472403e-07,-4.8566495945526106e-08,2.9777430150500526e-07,-8.981496026206791e-07
1.6058788270328311e-06,-2.052534154854975e-07,4.1435616166916525e-07,3.816611900464361e-08,1.9324703002830237e-07,-2.727526041267067e-07,7.688479644631812e-07,5.935900116281091e-07,4.108955671288973e-07,4.059852478427245e-07,-1.5893333102886816e-06,1.4064683968282285e-06,-7.654603325151643e-07,-1.598715674593091e-06,-3.4217645030982665e-07,-1.4810826148852002e-07,3.0023905727984943e-07,-9.254725070816417e-07
1.5661383068627604e-06,-2.58265931252226e-07,3.1107246188540325e-07,-9.902824476989607e-09,1.3686919789977185e-07,-2.1574439973725755e-07,8.204231815168937e-07,6.122782078203414e-07,4.0046494355907585e-07,4.434200554629637e-07,-1.5793268766005488e-06,1.4635454553337243e-06,-8.070351234825919e-07,-1.6042950659061633e-06,-3.7260927519086036e-07,-2.3830441070812465e-07,3.200833630766605e-07,-9.567827033769815e-07
1.530117205507578e-06,-3.074030894982391e-07,2.3371862621046301e-07,-5.3764071466622646e-08,4.904543395796264e-08,-8.497533223591767e-08,8.493650057687003e-07,7.056714659779666e-07,3.7308438927553245e-07,4.652549724687897e-07,-1.5681669009736354e-06,1.5264169103612012e-06,-8.387802903463826e-07,-1.608846120344346e-06,-3.695504942629237e-07,-3.1561962758589114e-07,3.529484109093987e-07,-9.950911041006175e-07
1.5162747746073181e-06,-3.5271526740474096e-07,1.8838885154170793e-07,-9.74971502335929e-08,-7.073191770657664e-08,1.1187144166505652e-07,8.339962540080789e-07,8.575830061620454e-07,3.3334963624712616e-07,4.768388407409919e-07,-1.5507266174658539e-06,1.586862575234621e-06,-8.878476170683326e-07,-1.6138538775419196e-06,-3.448085392229522e-07,-3.792984967683514e-07,3.910585902757076e-07,-1.041962728410505e-06
1.5294898043834048e-06,-3.9466353545623394e-07,1.6740568423129352e-07,-1.4001961974068e-07,-2.099030732572362e-07,3.35577703818833e-07,7.653269278439377e-07,1.0402451028562632e-06,2.8740237723358245e-07,4.781756627053222e-07,-1.5251166232585232e-06,1.6380026472270622e-06,-9.274505264558969e-07,-1.616749185118998e-06,-3.1015174962375506e-07,-4.285428254736585e-07,4.234894066217788e-07,-1.0971597387640967e-06
1.557774194097872e-06,-4.3387982035900417e-07,1.692554177104353e-07,-1.8021210252004601e-07,-3.4864393981428673e-07,5.239665793608142e-07,6.534197066146441e-07,1.225162706248528e-06,2.3300906804430848e-07,4.893360659029227e-07,-1.497651852214179e-06,1.6786279275071776e-06,-9.68746959285063e-07,-1.6216485949172242e-06,-2.653572276199019e-07,-4.6048356128665e-07,4.4032485370100096e-07,-1.16007922310237e-06
1.6231999261806748e-06,-4.7211187581806366e-07,1.8408581858426096e-07,-2.2125978143634482e-07,-4.7090756482954365e-07,6.257754663193308e-07,5.211100083338831e-07,1.3759583479508638e-06,1.7045924599190525e-07,5.030656055090598e-07,-1.47716303050879e-06,1.7008165067103113e-06,-1.0147566250144725e-06,-1.6296416703415768e-06,-2.2668327197655156e-07,-4.787073890229429e-07,4.339946100329387e-07,-1.2296599286950055e-06
1.706199832977712e-06,-5.12508086956838e-07,1.9852590977593157e-07,-2.63477703071502e-07,-5.736501642074575e-07,6.183808987639665e-07,3.9866552077133733e-07,1.3733285735237364e-06,9.920545485497377e-08,4.768847022023602e-07,-1.4705478972453975e-06,1.6662666024845647e-06,-1.06379045519215e-06,-1.632982912666147e-06,-2.0125556396931564e-07,-4.794255377887973e-07,4.0070255851969473e-07,-1.298477792715222e-06
1.760881025075956e-06,-5.583135727814065e-07,1.9864359476779868e-07,-3.0900086175691804e-07,-6.643903197124731e-07,5.077182199988995e-07,3.0398109301569726e-07,1.1965069298161674e-06,1.607336434489817e-08,4.111997035957806e-07,-1.4809407486624097e-06,1.584313587779576e-06,-1.0878793841375983e-06,-1.6408835293530659e-06,-1.9260753447322183e-07,-4.667490402473528e-07,3.409331426306477e-07,-1.375084650316961e-06
1.7477902836601091e-06,-6.113970481484559e-07,1.7114687932646413e-07,-3.597809296580865e-07,-7.475487983989459e-07,3.227945601519367e-07,2.4189067391229203e-07,1.1031806114602611e-06,-8.007564727223308e-08,2.8460910528437256e-07,-1.5041516856649006e-06,1.4570510730741237e-06,-1.0712240114652527e-06,-1.6501442287596598e-06,-2.1026074666976275e-07,-4.4872477689162407e-07,2.5847459130500406e-07,-1.4552916653511204e-06
1.6581713649094404e-06,-6.714987380245247e-07,1.0470062275064098e-07,-4.1352160756697126e-07,-8.151715355318642e-07,1.0533458192890614e-07,2.0019210731910835e-07,8.035910334488299e-07,-1.8250426489204434e-07,1.5951055771690961e-07,-1.5291627001247806e-06,1.254501757016346e-06,-1.0197631501246027e-06,-1.654954407766615e-06,-2.5653003160770896e-07,-4.3422933395458454e-07,1.5973615413672954e-07,-1.5367115500300472e-06
1.5141601757276698e-06,-7.365819719684945e-07,-2.5405354299142757e-09,-4.684392716380148e-07,-8.531581382021491e-07,-9.213288314279715e-08,1.6204163000159536e-07,4.099925659212896e-07,-2.8714384340629257e-07,1.0155164153659148e-07,-1.54346491655139e-06,1.179860729831087e-06,-9.3668491474073e-07,-1.6546637263077389e-06,-3.317110502728651e-07,-4.3216971458634363e-07,5.262334712062281e-08,-1.6205437390546505e-06
1.3606140585003668e-06,-8.037765978821932e-07,-1.4816213751588848e-07,-5.244466105997994e-07,-8.526503746887453e-07,-2.1646773085965808e-07,1.0994884584576335e-07,1.1247489777851643e-07,-3.891146080007967e-07,5.5145532389678254e-08,-1.5372769315894027e-06,1.118725766224182e-06,-9.03261196687888e-07,-1.6474409723459317e-06,-4.3450113049205796e-07,-4.4638444135430866e-07,-5.5411827567412497e-08,-1.6998067927931744e-06
1.253303750030261e-06,-8.698393575931907e-07,-3.193642009474863e-07,-5.80886261834925e-07,-8.13288907801465e-07,-2.387065561011571e-07,3.33951435470705e-08,1.0058538239991216e-07,-4.857102519903873e-07,-1.0562437471489761e-07,-1.508849410732867e-06,9.471582959361152e-07,-8.402051735788616e-07,-1.6327769601989347e-06,-5.534595573142924e-07,-4.7618469765137137e-07,-1.5810149743981423e-07,-1.7709192561770687e-06
1.026068897956112e-06,-9.313507777530783e-07,-4.981303608974799e-07,-6.375414430690729e-07,-7.359431401232205e-07,-1.6874692026578382e-07,-6.275883077238134e-08,1.834434993617403e-07,-5.71057752133028e-07,-3.3220060920129787e-07,-1.4653911825266834e-06,7.287239771489233e-07,-7.348806073372221e-07,-1.614420043324937e-06,-6.756324635133317e-07,-5.166353263122147e-07,-2.507977562697671e-07,-1.8299955752121273e-06
7.884036274394077e-07,-9.844736550334448e-07,-6.882680326578205e-07,-6.93499715789508e-07,-6.17069686957185e-07,-5.948637127829437e-08,-1.6083281810312975e-07,2.7270075800581133e-07,-6.467664937502314e-07,-5.120463475503328e-07,-1.4200213492362466e-06,5.404266351452888e-07,-6.277654834848045e-07,-1.598171524653764e-06,-7.89226569282874e-07,-5.651641604924655e-07,-3.3055863110123635e-07,-1.8767541832223238e-06
6.752082233009455e-07,-1.0251168598116827e-06,-8.330515708850948e-07,-7.461295847724542e-07,-4.5316742704860726e-07,1.781283189418756e-08,-2.4532587038653e-07,5.305861341666389e-07,-7.116606022257066e-07,-6.249874561237922e-07,-1.3859065069728203e-06,3.723393920494407e-07,-4.990088919083425e-07,-1.584912612390635e-06,-8.830835952358584e-07,-6.177951903669029e-07,-3.9551704983323375e-07,-1.9058081811295232e-06
5.877532589032598e-07,-1.0498023200115366e-06,-8.649812540356731e-07,-7.920363665478577e-07,-2.4915333258915365e-07,2.3431323868436385e-09,-3.035630787579994e-07,8.507856369620734e-07,-7.668580602975836e-07,-7.07346274104676e-07,-1.3720549287945e-06,2.536124834633635e-07,-4.015361749649409e-07,-1.5779095572315968e-06,-9.54042391833825e-07,-6.749825503162505e-07,-4.4443646500137957e-07,-1.9190732593294734e-06
5.2804914759677e-07,-1.0566895873902304e-06,-9.551402146996466e-07,-8.285962026318512e-07,-2.309952433439443e-08,-1.4004655330645411e-07,-3.3114814364631683e-07,1.0581420969528853e-06,-8.117419223743565e-07,-7.527350485766485e-07,-1.3792201554322373e-06,1.4026010324898982e-07,-3.308601249697307e-07,-1.5785713149319816e-06,-1.0061355870896364e-06,-7.36493948485581e-07,-4.774527705023912e-07,-1.9198018259826526e-06
4.160003697611466e-07,-1.0462221768767037e-06,-9.845195325172641e-07,-8.538090365829273e-07,1.9464352642642215e-07,-4.0508690554593325e-07,-3.3903313485511166e-07,1.1072970361417919e-06,-8.484929531905602e-07,-8.317438784772062e-07,-1.4027463806301369e-06,8.983600496637555e-08,-3.339836061839161e-07,-1.5854289366084503e-06,-1.0471281952727103e-06,-8.023577967307276e-07,-4.961089479755678e-07,-1.909307085853917e-06
2.999551449386669e-07,-1.021010979259619e-06,-9.696023685725448e-07,-8.674049380556016e-07,3.6701890456725067e-07,-7.451395310798481e-07,-3.4518381642895474e-07,1.0246181420286783e-06,-8.798949567208622e-07,-9.077780362507605e-07,-1.4370647777612402e-06,9.269814317353295e-08,-3.194798566319145e-07,-1.5973836861515283e-06,-1.0820727498299834e-06,-8.7235817004662e-07,-5.031049405977513e-07,-1.8917867783568856e-06
2.834109699347589e-07,-9.852439882459369e-07,-9.212957088899057e-07,-8.718274885340234e-07,4.5905358236579334e-07,-1.0850244248082967e-06,-3.683487942881256e-07,8.419751592416109e-07,-9.076590915641786e-07,-9.044529795317112e-07,-1.4768699910850907e-06,1.0216062927970345e-07,-3.096652514379242e-07,-1.6132141621165424e-06,-1.1185200971532345e-06,-9.439987498374735e-07,-5.023638446707541e-07,-1.8689742633400796e-06
2.8126204045898927e-07,-9.43819101657325e-07,-8.913223128037581e-07,-8.706725941781645e-07,4.49005892314772e-07,-1.3496460674385315e-06,-4.247267247616778e-07,6.247531596133653e-07,-9.361394150335428e-07,-8.941797907279503e-07,-1.5200150437691325e-06,8.48172665126751e-08,-3.077504361014084e-07,-1.6317994922775266e-06,-1.161505065873731e-06,-1.0129292760665348e-06,-4.977618967814691e-07,-1.8416054211749383e-06
2.656695727593478e-07,-9.013312701777218e-07,-8.948838754389868e-07,-8.679335782726793e-07,3.342334503448122e-07,-1.4745233729950084e-06,-5.16961011905244e-07,4.4225534072007624e-07,-9.649172436786303e-07,-8.802287053304719e-07,-1.5662099501185084e-06,4.960089660740517e-08,-3.108048208040772e-07,-1.655026051137777e-06,-1.2035665096152423e-06,-1.0695960385773393e-06,-4.921424401952484e-07,-1.8117887260657223e-06
2.711230509350512e-07,-8.611695098178687e-07,-9.094218158321656e-07,-8.667915855723496e-07,1.3042844030256386e-07,-1.4285296257485672e-06,-6.311007075170019e-07,3.4835582250802396e-07,-9.9272850783327e-07,-8.567472787204256e-07,-1.6151371911852337e-06,6.293208390170483e-09,-3.1367428548067464e-07,-1.6781283043504203e-06,-1.240550564334623e-06,-1.1131918569091701e-06,-4.864339347803549e-07,-1.7787059304621144e-06
2.983820397814355e-07,-8.250542956830579e-07,-9.368422137224501e-07,-8.690282946503991e-07,-1.351786717486593e-07,-1.2282110638614973e-06,-7.413634356481837e-07,3.671921961241415e-07,-1.0148385528439634e-06,-8.847064206591277e-07,-1.6655760755476516e-06,-4.32334532068833e-08,-3.177323108841069e-07,-1.702009265958794e-06,-1.2694310580655132e-06,-1.1459894615028336e-06,-4.79981782907421e-07,-1.7445494840606271e-06
3.0166927955431843e-07,-7.932653825341881e-07,-9.790203744236527e-07,-8.748852778557759e-07,-4.2916378663364807e-07,-9.431646411443221e-07,-8.154209908849946e-07,4.831937280106465e-07,-1.0286874749748143e-06,-9.1762159767958e-07,-1.7155473503793509e-06,-8.866313713374028e-08,-3.273183796604208e-07,-1.7273210034452865e-06,-1.2875779865567795e-06,-1.1716019231857662e-06,-4.698510892751247e-07,-1.7120992173336125e-06
2.916836448913669e-07,-7.652088530218383e-07,-1.0255457155985915e-06,-8.838486705815251e-07,-7.130177965579506e-07,-6.664336025229235e-07,-8.285035701153185e-07,6.520391204856577e-07,-1.0324189839842845e-06,-9.52202253724152e-07,-1.7625910948756724e-06,-1.2408096107485135e-07,-3.457676171784766e-07,-1.752004481588286e-06,-1.2957935861501435e-06,-1.1956588051366514e-06,-4.522052626287276e-07,-1.6835409264913262e-06
2.801181881760061e-07,-7.400951122065514e-07,-1.076026191178661e-06,-8.948456277389853e-07,-9.490686076004896e-07,-4.6970282343282727e-07,-7.750445046070281e-07,8.227461986895065e-07,-1.0244416549597256e-06,-9.870814721083393e-07,-1.8045099498540464e-06,-1.4443276256493568e-07,-3.715505086679974e-07,-1.776052556462509e-06,-1.29555279315212e-06,-1.2203110305872829e-06,-4.251504405250273e-07,-1.660927521910575e-06
2.7282926052096317e-07,-7.174323692131366e-07,-1.1258783796499836e-06,-9.062858087207008e-07,-1.1114814383554892e-06,-3.7485974253307995e-07,-6.710231204781548e-07,9.597430906694804e-07,-1.0058751275361668e-06,-1.0081766802448421e-06,-1.8399980874874917e-06,-1.4473734105955105e-07,-4.040430660981433e-07,-1.7987486753519156e-06,-1.2857166616182915e-06,-1.2442076920241218e-06,-3.8832643624439476e-07,-1.6440221876376855e-06
2.837778666304967e-07,-6.976084587832111e-07,-1.1706397906104465e-06,-9.168507486542201e-07,-1.1960629801578842e-06,-3.4711723910899286e-07,-5.455219812520068e-07,1.0450011301177852e-06,-9.788513659695564e-07,-1.0204615168044526e-06,-1.8692194766486538e-06,-1.2851477192620602e-07,-4.431361023002209e-07,-1.8163127144175314e-06,-1.2674630960094545e-06,-1.2664369869321341e-06,-3.442690729232301e-07,-1.6314137375787462e-06
3.07605942692532e-07,-6.818747313165375e-07,-1.2086625173512034e-06,-9.254049358419168e-07,-1.2192461429284913e-06,-3.432588829762801e-07,-4.3068145502874933e-07,1.069698697999326e-06,-9.461208161753902e-07,-1.0233591032692847e-06,-1.893325505196373e-06,-1.0152858542470789e-07,-4.858440402088866e-07,-1.825353566648151e-06,-1.244887041666122e-06,-1.285625120388935e-06,-2.978642088194196e-07,-1.6199139418763295e-06
3.3121581121980894e-07,-6.717529721084287e-07,-1.2380889355330567e-06,-9.308668941812188e-07,-1.2082512519240683e-06,-3.2731720177895803e-07,-3.509174745505129e-07,1.0284226908628768e-06,-9.122730948404723e-07,-1.017004837512524e-06,-1.914763505052411e-06,-7.04853664954077e-08,-5.300890086704969e-07,-1.8305010207505895e-06,-1.2199499623709053e-06,-1.2981698017920507e-06,-2.550302554526807e-07,-1.6080857002718788e-06
3.586265080284007e-07,-6.683462629756106e-07,-1.2561329684504586e-06,-9.32183822835497e-07,-1.188138549577071e-06,-2.863733406485461e-07,-3.148930174871753e-07,9.230018246472858e-07,-8.795236484644179e-07,-1.0023296550429213e-06,-1.9360166402335566e-06,-4.070442451244564e-08,-5.749784922656545e-07,-1.8317249181739877e-06,-1.1960739062233383e-06,-1.3010985958941771e-06,-2.210943306646097e-07,-1.593601875597117e-06
3.8876187718865496e-07,-6.718368488892959e-07,-1.2591259986802767e-06,-9.286003199390589e-07,-1.1711984735244686e-06,-2.2912702040017556e-07,-3.211613666730043e-07,7.663511964001465e-07,-8.464309204962066e-07,-9.825253650910593e-07,-1.958708298802405e-06,-1.5092686071992706e-08,-6.185822867283051e-07,-1.831089240273293e-06,-1.1754206700949962e-06,-1.293596225324177e-06,-1.996951191385534e-07,-1.5749792850171642e-06
4.260326845398441e-07,-6.816012393812716e-07,-1.2438833345106427e-06,-9.199741363624971e-07,-1.1509428536467505e-06,-1.761614994468011e-07,-3.5856931506851635e-07,5.868125814080743e-07,-8.105659999391104e-07,-9.590063734332343e-07,-1.9835567812278063e-06,7.797496726423978e-09,-6.597850138732286e-07,-1.8312777500921188e-06,-1.157783505628912e-06,-1.2757329346778622e-06,-1.9160104828105965e-07,-1.5518028692909838e-06
4.7558169128110686e-07,-6.966748114522003e-07,-1.2092122710243216e-06,-9.072575828516628e-07,-1.1065487670298684e-06,-1.701293638430689e-07,-4.114128313994244e-07,4.169131623370219e-07,-7.702335542714428e-07,-9.321677137115806e-07,-2.0100712580386647e-06,3.078657894501899e-08,-6.979935824777969e-07,-1.8318227960190213e-06,-1.1434221550710137e-06,-1.2488277930718918e-06,-1.949951873710187e-07,-1.524021649663416e-06
5.406714359864226e-07,-7.160297260443307e-07,-1.1561894070999718e-06,-8.921550462081196e-07,-1.0166838421802257e-06,-2.746416951119958e-07,-4.6491632748181444e-07,2.8683830475029975e-07,-7.25657100030277e-07,-9.02716353100609e-07,-2.0383491243526557e-06,5.665711605231384e-08,-7.3194540273448e-07,-1.8323410061513145e-06,-1.1331269140692403e-06,-1.2143668354925645e-06,-2.0588577301191592e-07,-1.492489591508214e-06
6.265095717774133e-07,-7.389541432984763e-07,-1.0874868901058434e-06,-8.76592471820772e-07,-8.713906972278838e-07,-5.029414566041124e-07,-5.058205829005875e-07,2.1907493787365083e-07,-6.774236691899102e-07,-8.712691219044205e-07,-2.067911416779331e-06,8.964779110429069e-08,-7.60046602958554e-07,-1.8313605709043649e-06,-1.121773446863659e-06,-1.1724866189622052e-06,-2.1883884902245344e-07,-1.4573435796787065e-06
7.305838489027361e-07,-7.637070372653302e-07,-1.0070067768760515e-06,-8.622620099565684e-07,-6.768538975462004e-07,-8.658950952918402e-07,-5.28261595598429e-07,2.2265100651230262e-07,-6.277433278911889e-07,-8.380472293225344e-07,-2.0982064159370287e-06,1.3236286491333682e-07,-7.80709884407794e-07,-1.8274765021483076e-06,-1.1070960944321193e-06,-1.1242825027122205e-06,-2.2867262730474792e-07,-1.4203800898931205e-06
8.424297209298857e-07,-7.88583642670197e-07,-9.200924134020187e-07,-8.501040552587171e-07,-4.538099089355957e-07,-1.3070073227739023e-06,-5.348419498951008e-07,2.9453702540842605e-07,-5.765893250986717e-07,-8.033805863204719e-07,-2.1285710528508364e-06,1.842675950934237e-07,-7.933591182974108e-07,-1.81452284271165e-06,-1.0873589902666642e-06,-1.0692110858645097e-06,-2.3149427035536047e-07,-1.3791007301696717e-06
9.541420581247646e-07,-8.123200288245909e-07,-8.334004733978104e-07,-8.398823249946123e-07,-2.307164798152687e-07,-1.7594783523131401e-06,-5.334326176998446e-07,4.1881652948166856e-07,-5.230880790068796e-07,-7.670502454576438e-07,-2.1570605329714956e-06,2.4397971672638387e-07,-7.97216778762045e-07,-1.7902049411373782e-06,-1.0603925360308026e-06,-1.0067486702999058e-06,-2.251586368809596e-07,-1.334096678596694e-06
1.0560252038055366e-06,-8.344964749076464e-07,-7.538613577016694e-07,-8.301228088005793e-07,-3.35146731557296e-08,-2.0492763370052906e-06,-5.315331996115647e-07,5.724381783550552e-07,-4.661242718984375e-07,-7.286708148883748e-07,-2.1816478344094524e-06,3.071651342769437e-07,-7.9059044052839e-07,-1.7543070452003147e-06,-1.0270545291237574e-06,-9.362191677255707e-07,-2.0944233484652774e-07,-1.2875503279072753e-06
1.1370380569084569e-06,-8.552549609520274e-07,-6.871747049388292e-07,-8.188308877549621e-07,1.2309522773189722e-07,-1.9923367488969065e-06,-5.333537802189329e-07,7.281336775694312e-07,-4.051088326622611e-07,-6.888210811526383e-07,-2.2004764909835132e-06,3.697636202250899e-07,-7.721367578764277e-07,-1.7097106037835018e-06,-9.890560620931826e-07,-8.575745210303592e-07,-1.8572343706057818e-07,-1.2405748331142166e-06
1.185875095745587e-06,-8.743863574278821e-07,-6.364799838331876e-07,-8.042340023064715e-07,2.3905493615404043e-07,-1.6595768486761483e-06,-5.39629953634718e-07,8.543095987735835e-07,-3.416794479368887e-07,-6.474580971317442e-07,-2.2119489354284218e-06,4.2822493059307087e-07,-7.406010832288347e-07,-1.6589985589943838e-06,-9.488991854933488e-07,-7.709308636310276e-07,-1.5573844197277303e-07,-1.1954388391644781e-06
1.2009403844074626e-06,-8.910664119279256e-07,-6.015013028550505e-07,-7.852490590067726e-07,3.242906812539521e-07,-1.4049726845089568e-06,-5.473105268887579e-07,9.232282155658392e-07,-2.7846625388771027e-07,-6.057704908044186e-07,-2.2143503691353946e-06,4.799087104201422e-07,-6.959376997696261e-07,-1.6038973597776894e-06,-9.097367170972463e-07,-6.788218114982214e-07,-1.2221707706150428e-07,-1.1533401042725757e-06
1.1851998288627049e-06,-9.03704905674067e-07,-5.783158399601342e-07,-7.614488609142062e-07,3.878775902533748e-07,-1.0245252041197188e-06,-5.499305208089431e-07,9.301898461462336e-07,-2.182175646415994e-07,-5.646149897483263e-07,-2.2063817206808476e-06,5.254403098690538e-07,-6.388125078540896e-07,-1.547683804466343e-06,-8.747580510513238e-07,-5.838581723349991e-07,-8.818825452750842e-08,-1.1151574191019967e-06
1.1482124818361654e-06,-9.109689127637233e-07,-5.598708549228505e-07,-7.328964256933394e-07,4.280784601782945e-07,-6.155064102686839e-07,-5.372769280482892e-07,9.013114970361426e-07,-1.6175615532149672e-07,-5.241324796610571e-07,-2.1877539828383494e-06,5.666546520490148e-07,-5.716463078760373e-07,-1.486510464745889e-06,-8.442806545896922e-07,-4.878846352930275e-07,-5.6658412435490756e-08,-1.0818192736649089e-06
1.107226623349938e-06,-9.121495950876367e-07,-5.37343963851605e-07,-6.999688705097117e-07,4.317917989439251e-07,-2.1043208173082113e-07,-4.995794902378396e-07,8.81650598507447e-07,-1.104424556071549e-07,-4.843534471331231e-07,-2.158443442814356e-06,6.062456967268245e-07,-4.975312509158561e-07,-1.4224518737231747e-06,-8.172818912707442e-07,-3.946028778220018e-07,-3.023310978590531e-08,-1.0554750142799455e-06
1.0807413621872741e-06,-9.073566074110827e-07,-5.023392548866344e-07,-6.631421463230323e-07,3.850575897071799e-07,1.2650234437501702e-07,-4.34228871526767e-07,9.158462500407784e-07,-6.5426271340629e-08,-4.443892504459843e-07,-2.1206385517910236e-06,6.465529189439155e-07,-4.189063883103168e-07,-1.3585701791820728e-06,-7.916105970069298e-07,-3.0505568004499016e-07,-1.0100369192492929e-08,-1.0364520747759205e-06
1.072097362464712e-06,-8.975446558988903e-07,-4.4940056537782945e-07,-6.230070628867237e-07,2.8725727767366035e-07,4.6644146042052744e-07,-3.473478652604627e-07,1.0303280886100936e-06,-2.9217560311558977e-08,-4.036309959377624e-07,-2.077465558760653e-06,6.886918803090231e-07,-3.3780685819588374e-07,-1.2943981073723149e-06,-7.655813727484991e-07,-2.1990585846036248e-07,3.908432704526288e-09,-1.0240605005737203e-06
1.0906627866712993e-06,-8.844294896774087e-07,-3.776217921812504e-07,-5.805182343980146e-07,1.5668729992222026e-07,7.376451963368795e-07,-2.539298285264843e-07,1.2253569202354406e-06,-6.143627783306823e-09,-3.6197075064678364e-07,-2.0320359783043606e-06,7.31821567748686e-07,-2.553751071508259e-07,-1.230644157683804e-06,-7.383929600623099e-07,-1.4002381384781054e-07,1.3445619813227486e-08,-1.017778471986159e-06
1.136041287665076e-06,-8.701482758512761e-07,-2.903939332542453e-07,-5.365879665639104e-07,2.6517582202157984e-08,8.21962842246434e-07,-1.7189154839131015e-07,1.4751908691794533e-06,8.516673948979002e-11,-3.1988696497785823e-07,-1.987995187788873e-06,7.740288653636004e-07,-1.723904481681585e-07,-1.1678695570449487e-06,-7.106602749734883e-07,-6.591215210860308e-08,2.0609810879244098e-08,-1.0160920225208393e-06
1.1995966037700785e-06,-8.565236470421822e-07,-1.937037898362881e-07,-4.92521685675345e-07,-6.475177903100944e-08,7.836097181119001e-07,-1.1397553323722281e-07,1.7286974647297458e-06,-1.2276623806473629e-08,-2.7786978542404513e-07,-1.9470055584831482e-06,8.132535114601418e-07,-8.998027908247731e-08,-1.1070269589859424e-06,-6.841642822294577e-07,2.1020085329061503e-09,2.7122435471538516e-08,-1.0193462635079986e-06
1.2767687580615896e-06,-8.444394543622604e-07,-9.448698210848994e-08,-4.495932399352287e-07,-9.352067299850283e-08,7.331496122189332e-07,-8.425524749501876e-08,1.919639773205362e-06,-4.112596027837929e-08,-2.36522285825947e-07,-1.909922563105511e-06,8.47373728072899e-07,-9.870546467540578e-09,-1.0502944967510377e-06,-6.59530800537111e-07,6.346495504980653e-08,3.345852715348416e-08,-1.0274875720710543e-06
1.3587802731665175e-06,-8.341413463011208e-07,-3.718791545542731e-11,-4.0914324736944363e-07,-6.370729487318563e-08,7.160546985656904e-07,-7.960942450694571e-08,1.9854592095617807e-06,-8.127628521921207e-08,-1.9810664399348327e-07,-1.877416118134158e-06,8.742704483146183e-07,6.532157450022478e-08,-1.0011863808323697e-06,-6.394733352877819e-07,1.1600872912653152e-07,3.831242325569948e-08,-1.0403077388497076e-06
1.4367449721435766e-06,-8.252788201614341e-07,8.203812069351598e-08,-3.7258208022167804e-07,-4.030402609312455e-09,7.831673539088151e-07,-9.209296510610303e-08,1.8900318426066427e-06,-1.2513878310818374e-07,-1.6584096202318414e-07,-1.8497497871643768e-06,8.91908800878189e-07,1.3420359951217706e-07,-9.628591350976091e-07,-6.25300271440554e-07,1.5955832397625824e-07,3.9223578332004264e-08,-1.0575494435867735e-06
1.5002059913888598e-06,-8.170767574862167e-07,1.4427700791158624e-07,-3.406722308647608e-07,4.8198307084366885e-08,8.853962516484772e-07,-1.1101822937513647e-07,1.6428379638671372e-06,-1.6548655639602738e-07,-1.42183896255565e-07,-1.8271580052594954e-06,8.999279415088486e-07,1.9645711119852155e-07,-9.351801773548311e-07,-6.1669259068411e-07,1.9345570220366268e-07,3.3643365617488983e-08,-1.0773132804796448e-06
1.5451396553448947e-06,-8.084341576387602e-07,1.8040919331628305e-07,-3.1333374159648037e-07,6.653096333599494e-08,1.0086948224190901e-06,-1.2465552979979576e-07,1.3005435572005567e-06,-1.9719011230791216e-07,-1.2895373644481835e-07,-1.8097314703678866e-06,8.975114518032558e-07,2.523999951594425e-07,-9.149652353036414e-07,-6.138995564292745e-07,2.159559038140416e-07,2.0684230903719716e-08,-1.0967535763264435e-06
1.563093391481532e-06,-7.983483693325917e-07,1.866286383770084e-07,-2.8974036034424804e-07,4.761785055521785e-08,1.151642180692476e-06,-1.2504577818455467e-07,9.491123968569673e-07,-2.1959312291535242e-07,-1.2734386381570534e-07,-1.7977039002567492e-06,8.854200956365341e-07,3.0248873253063836e-07,-9.012187792072237e-07,-6.171859573801997e-07,2.249113853244912e-07,2.119084992663409e-09,-1.1132947029182308e-06
1.5531641815963779e-06,-7.858224626063149e-07,1.6298754373398633e-07,-2.6924646468896425e-07,1.4035872188976114e-08,1.2772584856018187e-06,-1.1330047434307181e-07,6.751615714035481e-07,-2.3677814099519172e-07,-1.3731916869669864e-07,-1.7911490778481698e-06,8.646004220964235e-07,3.458522814626734e-07,-8.950471196011365e-07,-6.270482014439796e-07,2.1691010371229066e-07,-2.020265818193266e-08,-1.1258702493218552e-06
1.5202975460494657e-06,-7.71331429811921e-07,1.1446457064976579e-07,-2.5136470587220477e-07,4.398823300498257e-09,1.3451915182451396e-06,-9.819503710768665e-08,5.398226235923343e-07,-2.5465016855657735e-07,-1.566715282802927e-07,-1.7898784466258108e-06,8.363820928254052e-07,3.7783921967052714e-07,-9.002307583439606e-07,-6.438530805580374e-07,1.9148970352599455e-07,-4.2652347379158594e-08,-1.1346545336701064e-06
1.4714694243710342e-06,-7.551566946470471e-07,5.041865628284822e-08,-2.3576148276707443e-07,5.182500503766178e-08,1.3006169686815617e-06,-9.006074237421512e-08,5.607455551164106e-07,-2.7808058476730747e-07,-1.8100937388246217e-07,-1.7926884556542344e-06,8.035009380167377e-07,3.971209302650729e-07,-9.169247420617261e-07,-6.660602613593329e-07,1.4672049278321051e-07,-6.003502062809186e-08,-1.1411510976278743e-06
1.418148080588859e-06,-7.371827674109633e-07,-1.8457998740193093e-08,-2.224188745621903e-07,1.620455289971151e-07,1.1182236810334713e-06,-9.527624324533152e-08,7.163373155793536e-07,-3.08721133416365e-07,-2.0400849792650866e-07,-1.799230401183714e-06,7.675855177768362e-07,4.0153259789314856e-07,-9.501003655832783e-07,-6.902540006424728e-07,8.446257423251136e-08,-6.710653059520617e-08,-1.1472860307336016e-06
1.369562089737639e-06,-7.17764079647659e-07,-8.41749399072226e-08,-2.1190555855735732e-07,3.0791795775520877e-07,8.186841122609306e-07,-1.1462948997922473e-07,9.645412826811024e-07,-3.449024179669839e-07,-2.235406147868374e-07,-1.8106723162388345e-06,7.281675654254706e-07,3.8893835536799463e-07,-9.897298746817027e-07,-7.137601884169128e-07,1.0481971704537099e-08,-6.328215423401006e-08,-1.154184055205915e-06
1.3294770131650932e-06,-6.97531413897717e-07,-1.4363727310608652e-07,-2.0565804340842745e-07,4.4539249762410123e-07,4.533050438069583e-07,-1.4656069739281825e-07,1.2468281690997604e-06,-3.841548668316974e-07,-2.407021189080362e-07,-1.8292498585708858e-06,6.827349945514738e-07,3.6002586910794204e-07,-1.0351573994796847e-06,-7.373319844203679e-07,-6.984438772480665e-08,-5.1479189327505347e-08,-1.16345405427499e-06
1.300218979631777e-06,-6.775651082008234e-07,-1.9764299041108183e-07,-2.0540219676309084e-07,5.392989597087927e-07,8.228202948290012e-08,-1.8831587411382375e-07,1.5006041249479076e-06,-4.250746554690207e-07,-2.578092798043019e-07,-1.857841418335525e-06,6.289880836806846e-07,3.1666094330533427e-07,-1.0881514477349635e-06,-7.601240194017925e-07,-1.4935443199337692e-07,-4.0161251664600045e-08,-1.1736365587442973e-06
1.2804005017644666e-06,-6.587581415586447e-07,-2.4804341422471126e-07,-2.1212363523738998e-07,5.809050440194467e-07,-2.4434921632750984e-07,-2.388429376719348e-07,1.6775274401993526e-06,-4.672881269083222e-07,-2.780758647302838e-07,-1.8980125325658866e-06,5.660019828440162e-07,2.630081893856305e-07,-1.1444431165833193e-06,-7.821524754170672e-07,-2.2173108559741523e-07,-3.711276015688617e-08,-1.182260875212243e-06
1.269142000065224e-06,-6.41587470950806e-07,-2.9576350942176816e-07,-2.2540593511645176e-07,5.90010772133194e-07,-4.989732770478794e-07,-3.008250307078261e-07,1.746929141038659e-06,-5.106987275267078e-07,-3.036095952792075e-07,-1.948969704844712e-06,4.949317856292147e-07,2.0351723656018714e-07,-1.2034984319732054e-06,-8.065416650633328e-07,-2.829140230094656e-07,-4.8558071703997084e-08,-1.1880912849571365e-06
1.266121768284507e-06,-6.260992152466841e-07,-3.409993713703306e-07,-2.4344061790652645e-07,6.00926092276777e-07,-6.830602090459783e-07,-3.787386604073957e-07,1.7033922062659315e-06,-5.545423889522483e-07,-3.3508621214650064e-07,-2.00778267534338e-06,4.1857594300095215e-07,1.44117583212783e-07,-1.2615894698527872e-06,-8.398364230219872e-07,-3.3094705194496137e-07,-7.943739767059546e-08,-1.1908711884134334e-06
1.2690362788007641e-06,-6.125353505203184e-07,-3.8456084393631894e-07,-2.6398107558118387e-07,6.408075115938558e-07,-8.289732395195894e-07,-4.731415410921169e-07,1.5646489699478564e-06,-5.966668890098462e-07,-3.714001307891785e-07,-2.067036042240082e-06,3.4062286190007e-07,8.60435788680508e-08,-1.315473849681702e-06,-8.809446042852205e-07,-3.6714200664182753e-07,-1.3033978783346487e-07,-1.1917471905583974e-06
1.274871166793465e-06,-6.015911720275458e-07,-4.2840803230070926e-07,-2.852571614380989e-07,7.095541279830289e-07,-9.770209517889472e-07,-5.724103951186894e-07,1.359067941478961e-06,-6.348638402581239e-07,-4.091586742388089e-07,-2.122103253467131e-06,2.6630138441218544e-07,2.937829072156334e-08,-1.3606497873436995e-06,-9.322205914238008e-07,-3.9432806328616757e-07,-1.9834315793042472e-07,-1.1930993294653542e-06
1.2803360269271221e-06,-5.937162580629311e-07,-4.748905963047399e-07,-3.0648947520598374e-07,7.757413453454744e-07,-1.1506579279498045e-06,-6.578175049204201e-07,1.1187431627190023e-06,-6.662301290837429e-07,-4.437162586985622e-07,-2.1687984548832546e-06,2.0012253908731207e-07,-2.5973122707005017e-08,-1.3970391985042635e-06,-9.916116171915155e-07,-4.171245901726207e-07,-2.7616191602585263e-07,-1.1980787112302623e-06
1.2834038965483645e-06,-5.891467666695604e-07,-5.257141860791003e-07,-3.27916468981151e-07,7.921579172238682e-07,-1.3333112489310723e-06,-7.114018521722065e-07,8.751170293434232e-07,-6.885757744592333e-07,-4.724961167270346e-07,-2.204006195333142e-06,1.4476151651886456e-07,-8.17880856581378e-08,-1.4225667887245564e-06,-1.053228594729295e-06,-4.38572731125608e-07,-3.540859445559796e-07,-1.2060093180458636e-06
1.279013390104283e-06,-5.878662999248084e-07,-5.81478925823732e-07,-3.502176650760539e-07,7.181417674803278e-07,-1.4775863258913178e-06,-7.227037959432034e-07,6.567943130401298e-07,-7.007565773335168e-07,-4.96064699910432e-07,-2.2259044749323525e-06,1.0100393494478748e-07,-1.386416472807998e-07,-1.4373540582341142e-06,-1.1133274798648535e-06,-4.629598908009603e-07,-4.1951450593675297e-07,-1.2154365362617802e-06
1.265883741872857e-06,-5.894533747527437e-07,-6.417116138830358e-07,-3.737276674854556e-07,5.36784376919551e-07,-1.5293156712656275e-06,-6.971116147390302e-07,4.89520821582108e-07,-7.037318139630597e-07,-5.172857161003534e-07,-2.236177864804746e-06,6.745041985579214e-08,-1.9883799775353077e-07,-1.4364421267784394e-06,-1.1675363064172345e-06,-4.956485374043388e-07,-4.6584947402944864e-07,-1.2238776142376336e-06
1.2528490799590564e-06,-5.928008471217181e-07,-7.0524085179012e-07,-3.9766449678245667e-07,2.626799244972411e-07,-1.4565296108466484e-06,-6.508768445933062e-07,3.9350367947942216e-07,-6.990245013983215e-07,-5.395858120724078e-07,-2.2419304463259474e-06,4.147334748083258e-08,-2.5738404942582995e-07,-1.4200744166827875e-06,-1.211226508536933e-06,-5.375795994242995e-07,-4.861450719167237e-07,-1.2275603062447621e-06
1.2329770581656139e-06,-5.953530615538781e-07,-7.704818996392731e-07,-4.202269968156896e-07,-6.001822427550932e-08,-1.2715236902938414e-06,-6.021255794573102e-07,3.795225962468608e-07,-6.881289642020156e-07,-5.639717011149387e-07,-2.2417963687225206e-06,1.9951908200113442e-08,-2.8912396781277494e-07,-1.3788162408237619e-06,-1.242382658523063e-06,-5.933855692214821e-07,-4.783242859916645e-07,-1.2230917750837137e-06
1.2029180244499635e-06,-5.95978967766353e-07,-8.356211642331043e-07,-4.3876302726453153e-07,-3.718539197976356e-07,-1.0273615008901293e-06,-5.655983528218615e-07,4.3490655267822564e-07,-6.760766868709024e-07,-5.92072697893449e-07,-2.2343408086519237e-06,-5.925562621720379e-10,-3.031668054689496e-07,-1.3135800001509547e-06,-1.2585209977546654e-06,-6.600752602173506e-07,-4.459477327208456e-07,-1.2095017397723103e-06
1.1625399067778975e-06,-5.923046752328751e-07,-8.985095266037342e-07,-4.5214983827002265e-07,-6.212127385865392e-07,-7.811640041868896e-07,-5.505471945879236e-07,5.270218791970945e-07,-6.624440639424302e-07,-6.253000920070748e-07,-2.2184697078547976e-06,-2.3366920582042185e-08,-2.9860867170975124e-07,-1.2329612537872384e-06,-1.2702406311466816e-06,-7.152287414287212e-07,-4.079885999300273e-07,-1.1879239385568307e-06
1.1091601322408347e-06,-5.836686488348832e-07,-9.56539493482947e-07,-4.6080819445966765e-07,-7.834233674933273e-07,-5.687383137872412e-07,-5.602508187824237e-07,6.02179617128107e-07,-6.485301991025323e-07,-6.578367813654896e-07,-2.190739600986254e-06,-5.015524871701383e-08,-2.722231826028429e-07,-1.1599015492716074e-06,-1.2849468414391507e-06,-7.556151286384448e-07,-3.6978050313169683e-07,-1.1627710455364704e-06
1.0352924770958956e-06,-5.705487674184328e-07,-1.0072776205798756e-06,-4.669720805932802e-07,-8.634565562517703e-07,-3.994704972928615e-07,-5.8888713538781e-07,6.503601837637514e-07,-6.354036298936929e-07,-6.829892369637104e-07,-2.153091788804865e-06,-8.148508117680351e-08,-2.3414756821351486e-07,-1.0942651808332767e-06,-1.2883203078331663e-06,-7.810587238668742e-07,-3.36666187799393e-07,-1.137404297710591e-06
9.592215158850218e-07,-5.620756302857053e-07,-1.049853790572761e-06,-4.7369298610201626e-07,-8.816691468327896e-07,-2.787320101556075e-07,-6.278825447047307e-07,7.046237823276242e-07,-6.247387680337577e-07,-6.958559845395357e-07,-2.1101016963502995e-06,-1.1768193475130206e-07,-1.8920085035473532e-07,-1.0347734146512023e-06,-1.2919126845246045e-06,-7.856734076367866e-07,-3.21668171724432e-07,-1.114944217204276e-06
8.730277089800515e-07,-5.678435560157587e-07,-1.0864131401873862e-06,-4.84377528051926e-07,-8.541736980597241e-07,-2.1910571624723497e-07,-6.680915668430548e-07,7.736911358166178e-07,-6.192656665686111e-07,-6.931543228737547e-07,-2.071441308195587e-06,-1.6020857851196543e-07,-1.2246871212342858e-07,-9.762862999539626e-07,-1.3120840179208955e-06,-7.79488633468095e-07,-3.589682869704821e-07,-1.096679992870982e-06
7.733524297474231e-07,-5.967499589406422e-07,-1.1227109844618721e-06,-5.018845136567563e-07,-7.87992180281183e-07,-2.3382900457665713e-07,-7.054864614253115e-07,8.677547113590636e-07,-6.194021313315144e-07,-6.830460873944303e-07,-2.037909399320632e-06,-2.1237497820542092e-07,-3.165434902924407e-08,-9.125917373443045e-07,-1.3553598879981913e-06,-7.779068224363647e-07,-4.750457803725037e-07,-1.078488793469926e-06
6.641438848810211e-07,-6.485015758035667e-07,-1.1669541686351406e-06,-5.291911505566223e-07,-6.86166450265897e-07,-3.24314161725701e-07,-7.437833179036917e-07,9.406683423224167e-07,-6.217226940770591e-07,-6.963792858046726e-07,-2.009353769986252e-06,-2.79012696653664e-07,4.8504524910194755e-08,-8.539460291178156e-07,-1.4052309442957946e-06,-7.49117213869559e-07,-5.919540164042108e-07,-1.0653000811579341e-06
5.342459512606848e-07,-6.996870327740656e-07,-1.2264437943040383e-06,-5.705911846133173e-07,-5.539335732368754e-07,-4.6794830412485625e-07,-7.922242877574926e-07,9.71157862051564e-07,-6.029087285028909e-07,-7.427494096271933e-07,-1.9848203432475312e-06,-3.620950326141952e-07,1.8061296506774552e-07,-7.728977993175394e-07,-1.4661439810905207e-06,-6.862529003477677e-07,-7.148106948085872e-07,-1.054969584986809e-06
