0,1,2,3,4,5,6,7,8,9,10,11,12,13,14,15,16,17
4.557058245234117e-06,1.4592145058862897e-06,1.1376164417826355e-07,2.0189282693589152e-07,5.1419253577635e-08,3.281719321619753e-07,1.9402809058484915e-07,2.042053741337247e-07,3.5075942732354275e-07,-6.210777184759409e-08,4.499673003367981e-07,1.5265293626667034e-07,1.0032288562438856e-07,3.007661462942377e-07,6.1041957451644824e-09,7.724506644205197e-08,2.67960145279201e-07,-9.2857380209932e-08
1.0489974625619446e-05,3.6980358362329078e-06,5.714536037073855e-08,2.007890028899994e-07,4.62131587584764e-08,3.6025583745963243e-07,1.738373190481264e-07,1.8517867479483187e-07,3.0456288279317356e-07,-9.971327816934673e-08,3.7503335452292975e-07,1.499734085691313e-07,1.1315508915899154e-07,2.7286351402480394e-07,-2.477980990683102e-09,1.0430557178225376e-07,2.5417468009646127e-07,-7.083387733997598e-08
1.2917751224663607e-05,4.8663093118906694e-06,-3.876303585940747e-09,1.8474413655588244e-07,3.72141681663555e-08,3.748982294938499e-07,1.8009119862920892e-07,1.593029376113641e-07,2.562020930193486e-07,-1.2876874863159898e-07,3.1795537421566684e-07,1.3171666847237468e-07,1.0641114837745339e-07,2.404084068532042e-07,-1.5669786271567073e-08,1.277299801250862e-07,2.29249718673205e-07,-5.518076245726037e-08
9.82572931318233e-06,4.802417600191544e-06,-5.232576965537533e-08,1.5406896316252148e-07,2.253320147467943e-08,3.7967298909925395e-07,2.1278559590195355e-07,1.2692375176877497e-07,2.1055080278194901e-07,-1.4335431842087772e-07,2.921320584261146e-07,9.09432123712143e-08,8.193145155178856e-08,2.0436330352514426e-07,-4.3380918106630334e-08,1.4504763662319967e-07,1.9565849989834893e-07,-4.6845375047881956e-08
6.8729833644448036e-06,3.7540025652039256e-06,-8.830501282658159e-08,1.0680490092155603e-07,-4.608484809595619e-09,3.782188579134356e-07,2.385036360882934e-07,8.694194103065186e-08,1.6708274591857088e-07,-1.5829301211152935e-07,2.9889931919081966e-07,2.832010920766678e-08,4.60189015809255e-08,1.6282071944089104e-07,-7.097352734890784e-08,1.5485863933076164e-07,1.5383778023438402e-07,-5.0597917924392365e-08
6.207626370066244e-06,2.0927360561742125e-06,-1.438174223523584e-07,4.2040912800617074e-08,-4.5333185649482056e-08,3.754469853479532e-07,2.422728128488217e-07,3.7025305803348835e-08,1.3223363307763193e-07,-1.753416224727826e-07,3.24029289284902e-07,-3.830083904429931e-08,4.389035978844663e-09,1.1137448126682726e-07,-1.0557896840424778e-07,1.547695409246851e-07,1.0054296830839365e-07,-7.172369222267618e-08
6.864303866034817e-06,2.528759928585633e-07,-2.3158542957002788e-07,-2.552407616384433e-08,-9.501662461783607e-08,3.749524084194386e-07,2.3531315113534576e-07,-1.4549657169501862e-08,9.956151150454473e-08,-1.8813531352436001e-07,3.433445815117685e-07,-1.052360758690965e-07,-3.666159828108146e-08,5.402356492144417e-08,-1.4586374664842055e-07,1.3950436305446617e-07,4.4807360149425765e-08,-9.58255669159837e-08
3.990033096067284e-06,-1.389017414934134e-06,-3.4324070615076733e-07,-1.0648649071459984e-07,-1.4573633133043693e-07,3.4047312768699157e-07,2.1944766182103238e-07,-6.488558339874945e-08,6.736151132966437e-08,-1.9013405972719015e-07,3.3358843953001526e-07,-1.5670512901556652e-07,-6.981402460177519e-08,1.78562459990317e-09,-1.6647768389368062e-07,1.0617612185708408e-07,-9.06929355943014e-09,-1.0520160324602089e-07
-1.0366710801371512e-06,-2.5806624066815802e-06,-4.2960962596136414e-07,-1.6641672622650012e-07,-1.8679243444337636e-07,2.91045745773083e-07,1.9782563970755264e-07,-9.983357785980649e-08,3.369605953378546e-08,-1.579710018127503e-07,3.162024222386416e-07,-1.8898789341634494e-07,-8.83515108719346e-08,-5.001772602575338e-08,-1.6743785396599562e-07,4.6339236982248534e-08,-5.971521702755598e-08,-7.405793566480275e-08
-5.919594655730949e-06,-3.164770523770682e-06,-4.3649586076929903e-07,-1.9218020714531827e-07,-1.8339245018846623e-07,2.444809423634261e-07,1.5268451388536794e-07,-1.2694209058938115e-07,-5.052010939152486e-09,-6.546126140770457e-08,2.7617563291598907e-07,-1.7993880941522701e-07,-8.961835161440269e-08,-1.0193593536137395e-07,-1.2721468408726063e-07,-3.07455367963882e-08,-1.0472422815631765e-07,-3.7087356614743334e-08
-9.695769407523514e-06,-3.19967248292827e-06,-2.5903916366644357e-07,-1.6113358595782835e-07,-1.3640721430905394e-07,9.67288001818651e-08,7.148305380682875e-08,-1.4164246019980453e-07,-6.634940403233076e-08,1.75333326379374e-08,1.8125390472663276e-07,-1.142160610771746e-07,-7.68536561714837e-08,-1.526064698276949e-07,-1.7962059011808845e-08,-1.4209699301180995e-07,-1.4451111679047654e-07,8.370247884015158e-09
-1.2364265035107664e-05,-2.9075221924533284e-06,2.0235526387672314e-08,-6.532937078399639e-08,-4.561004666335076e-08,-1.2176474019810241e-07,-5.645520176702182e-08,-1.2256816024681154e-07,-1.4353169320612593e-07,9.909544151097836e-08,1.89475935307735e-08,-5.544639599638502e-08,-5.678209863296474e-08,-2.1042973083745378e-07,7.125320069427587e-08,-2.440181542344059e-07,-1.762689891069763e-07,5.3126080919510454e-08
-1.216965046812914e-05,-2.4093493236241966e-06,2.5315799519215896e-07,-3.5269004905741235e-08,1.0716105095190713e-07,-3.786046886252374e-07,-2.231688136344806e-07,-8.023002792948204e-08,-2.2579640657300597e-07,1.9120507520231488e-07,-2.414364787236576e-07,6.7364968467567095e-09,-3.528940490456597e-08,-2.5719796745462395e-07,1.3029117076454723e-07,-2.7068270774783476e-07,-1.9604373493055912e-07,9.708982788821446e-08
-9.782783180631074e-06,-1.9703209316060735e-06,3.992162212375772e-07,-5.8913391972902634e-08,1.6392017820962373e-07,-6.890858142143767e-07,-4.1643070835217836e-07,-5.0943592368881616e-08,-3.1335131527968603e-07,2.7384901915429184e-07,-6.143912317796636e-07,4.298265162543408e-08,-1.544301793255e-08,-2.4440868944118443e-07,1.655270353854268e-07,-1.9627733707250124e-07,-1.9801799169910038e-07,1.3259016885473663e-07
-6.967137771453839e-06,-1.7090903004194122e-06,5.05483041371895e-07,-7.398361321404915e-08,1.677564179336737e-07,-1.0146405004996244e-06,-6.191607336017834e-07,-4.278992767147595e-08,-3.969616472910101e-07,3.4836173713203177e-07,-1.0802295074351778e-06,7.653616974047633e-08,1.5530399149153554e-09,-1.888868183767538e-07,1.8935987112432782e-07,-1.0990362926208378e-07,-1.8773107704997996e-07,1.788142995361551e-07
-3.7895885065993094e-06,-1.5951862920204313e-06,6.392955057998548e-07,-5.104276181685509e-09,2.46679342939247e-07,-1.3402501123635599e-06,-8.030572161019166e-07,-5.5192907708801846e-08,-4.7096818996090026e-07,4.3923578248817956e-07,-1.591472052492552e-06,1.589695507343693e-07,1.50321108234493e-08,-1.4292242360161745e-07,3.0050173501545996e-07,-6.225179899681217e-08,-1.7014950431902329e-07,2.3022084256103708e-07
8.486498861569308e-08,-1.6112464681008538e-06,7.736516267646797e-07,1.297895543813026e-07,2.829089216714405e-07,-1.556720249130007e-06,-9.513113843701809e-07,-3.8623614677939805e-08,-5.195022351059095e-07,5.274394821617457e-07,-2.1084242527522706e-06,2.790137058858269e-07,2.472238324069091e-08,-1.1496567931409223e-07,4.0821959588016173e-07,-6.18891304030555e-08,-1.4904155518772266e-07,2.451426404824257e-07
4.347198615128256e-06,-1.7538158394307821e-06,7.442982306234126e-07,2.5308597594919656e-07,2.3684197125170203e-07,-1.6595748547332868e-06,-1.0716859239034607e-06,-5.227680619261555e-09,-5.266934439530602e-07,5.846037664075087e-07,-2.5556114518294946e-06,3.867175994335471e-07,3.09189928411167e-08,-9.068150997434418e-08,4.440624346736709e-07,-3.541087350535411e-08,-1.278694301746036e-07,2.856333151237048e-07
8.664550066740763e-06,-2.0886564601466037e-06,5.909565768545909e-07,3.6845106694193515e-07,1.8613828815501633e-07,-1.7381097712712071e-06,-1.15912454297663e-06,2.8896950931386207e-08,-4.915494567766165e-07,6.53925562223025e-07,-2.8757099452581945e-06,4.6308288798885393e-07,3.345268288682323e-08,-6.863931252959102e-08,4.810525816518573e-07,4.7103443457170086e-08,-1.0554302798701977e-07,3.08188863286674e-07
1.2144898745015788e-05,-2.7017710983826006e-06,4.4975884386695385e-07,4.3958132225062636e-07,1.3960890396540205e-07,-1.7169749124980438e-06,-1.2203617270869307e-06,4.9207979704324124e-08,-4.657648146389864e-07,7.150618698054754e-07,-3.040366931121858e-06,4.950328456370872e-07,2.9843091750853465e-08,-4.8310941204369263e-08,4.4945490451087876e-07,2.25648582063782e-07,-8.21908436347262e-08,3.190581099751752e-07
1.3618973215998942e-05,-3.664714489389217e-06,3.04313242846286e-07,4.7274529350069686e-07,1.277477298775187e-07,-1.674561784157458e-06,-1.2488239849503997e-06,5.2184503707967195e-08,-4.636637044146551e-07,7.636592536614372e-07,-3.042525771158331e-06,4.657486920636254e-07,1.5004511315263778e-08,-1.952987078346288e-08,3.964229837506636e-07,4.022919247386932e-07,-6.057709623833902e-08,3.452622639198152e-07
1.2351549609258952e-05,-4.889402314170916e-06,2.12765680317557e-07,4.927163254838092e-07,7.22128604719182e-08,-1.681179558365681e-06,-1.255448716121106e-06,3.224910020713138e-08,-4.891196704467633e-07,8.095785561842333e-07,-2.8895111972215934e-06,4.4047001987709387e-07,-1.60889618886369e-08,3.5905363501688796e-09,3.589503396621376e-07,5.579172442557131e-07,-4.617671700373832e-08,3.6304917253146174e-07
8.40112435988703e-06,-6.1481516781864405e-06,1.5962800566784236e-07,5.306183736755366e-07,3.99916574314095e-08,-1.748192409946786e-06,-1.2567719354122638e-06,2.2793190021884776e-08,-5.085991123614682e-07,8.575593102517925e-07,-2.5947483175319364e-06,4.3387770681402874e-07,-6.436832535702126e-08,1.6638648306296313e-08,3.7280913645489947e-07,6.956552200670295e-07,-4.1803396243103155e-08,3.857364148215032e-07
3.1415444637527196e-06,-7.072390962374984e-06,1.5651666699032816e-07,5.730433172861594e-07,5.757393180943535e-10,-1.8855850968668626e-06,-1.2598653315310383e-06,3.316663877137581e-09,-5.354527994708708e-07,9.301244411391411e-07,-2.1892613442867934e-06,4.480980107102284e-07,-1.2445751941033928e-07,2.6580634726670863e-08,3.9346484335450544e-07,7.898109978842639e-07,-4.857865432785665e-08,3.973471679548773e-07
-2.132179125078488e-06,-7.177689466577619e-06,1.8942448876594102e-07,6.170748884623202e-07,-4.263658713700273e-08,-1.942816660427708e-06,-1.2678913774821791e-06,1.6425495768028608e-08,-5.62195904977275e-07,9.775562503450711e-07,-1.7775522354053762e-06,4.780040680621206e-07,-1.8590066483249137e-07,2.8164188840291194e-08,3.805604740049757e-07,8.438144695112711e-07,-6.54467651560416e-08,4.1074024348586553e-07
-7.643721204789905e-06,-6.147899039198087e-06,2.467884842077965e-07,6.646814194879917e-07,-1.2736437201168358e-07,-1.9400959888543277e-06,-1.2704433593566432e-06,1.6413505968217986e-08,-5.649842203174817e-07,9.947038534109326e-07,-1.396903447419868e-06,4.682246338412595e-07,-2.3652065308947732e-07,2.324144646329451e-08,3.775139323555378e-07,8.91292796738091e-07,-8.968655807384534e-08,4.1858940215848303e-07
-9.466454465962498e-06,-3.7708391993994675e-06,2.8764714233097206e-07,7.057603419831416e-07,-1.6972018047076914e-07,-1.8807350477279276e-06,-1.2623376399426427e-06,-7.861594992709066e-09,-5.364340477630772e-07,9.886977081211491e-07,-1.057813520268846e-06,3.6143956433225407e-07,-2.6553811896459004e-07,1.0833762664885672e-08,3.6166288911504515e-07,8.979240929839712e-07,-1.1907829476458427e-07,4.2374203647697916e-07
-7.925124030226939e-06,-2.2854705914965118e-07,3.0507060957824383e-07,7.447920314058344e-07,-1.3071279211111481e-07,-1.7996114630268123e-06,-1.239568523327459e-06,-5.332908979502906e-08,-4.954516993506905e-07,9.770076097113958e-07,-8.193350211559646e-07,2.4319942642970785e-07,-2.654056010748859e-07,-1.1214328629436439e-08,3.4714898236298305e-07,8.525909695065728e-07,-1.4986658874997342e-07,4.2337797933071215e-07
-4.608876232016528e-06,3.5772453141225674e-06,3.5263948598491154e-07,7.791345006821072e-07,-1.3749371357031588e-07,-1.6955610817347554e-06,-1.204881998512096e-06,-1.0745089519709106e-07,-4.4057317083825614e-07,9.520927207385952e-07,-6.932226519505228e-07,1.4634780882507235e-07,-2.329565792017901e-07,-3.7846193230574325e-08,3.125950652276597e-07,8.119626620811066e-07,-1.7588140920080005e-07,3.951834088040346e-07
-7.85801178219131e-07,6.792407390857542e-06,4.0332077283525377e-07,8.041866401827371e-07,-1.6482236501667969e-07,-1.5282062955114473e-06,-1.1582833847845228e-06,-1.3542653943417787e-07,-3.9253522603717393e-07,8.995055039752434e-07,-6.734731888960514e-07,7.450580658101831e-08,-1.7080882458823013e-07,-6.067874035116567e-08,2.4980722565208983e-07,7.723142101024311e-07,-1.9036414385452714e-07,3.8421414444882976e-07
2.5997548651225336e-06,8.53141698871653e-06,4.723573991626165e-07,8.12173221036144e-07,-2.1725366526302355e-07,-1.402087322667914e-06,-1.1020336238480666e-06,-1.417150543280291e-07,-3.554658569435365e-07,8.517329679933363e-07,-7.331780932920289e-07,5.885223196795849e-08,-8.88678253574176e-08,-7.392870508038601e-08,1.9272485258088013e-07,7.388464116297903e-07,-1.8905565960405477e-07,4.004418027184449e-07
4.631820898548853e-06,8.34186613031611e-06,5.316210965797488e-07,8.096466598623057e-07,-3.098614475420525e-07,-1.3194955795370138e-06,-1.0382721877641375e-06,-1.623359951967379e-07,-3.227115635503871e-07,8.246317785409689e-07,-8.031826135329143e-07,4.238193308937072e-08,-4.09318554440019e-09,-7.691909447131814e-08,1.4305240952870235e-07,7.31314667345197e-07,-1.7232744028382956e-07,3.779240621723776e-07
4.861498270975838e-06,6.525887689088838e-06,5.414008950137966e-07,7.98745598320064e-07,-3.653441346353199e-07,-1.2746928535238074e-06,-9.741665506252328e-07,-2.0287375597762103e-07,-2.982971696916645e-07,8.060510303086109e-07,-7.533456826671883e-07,1.620184294039555e-08,6.368128351211368e-08,-7.060345778047495e-08,1.0188723709821797e-07,7.155587255005006e-07,-1.4450004454693723e-07,3.335157962257691e-07
3.272161943735929e-06,3.927718794739836e-06,5.02678064326115e-07,7.837235844426481e-07,-3.75840031250724e-07,-1.278271834394631e-06,-9.146318532751867e-07,-2.2607150346345827e-07,-2.7655074605200923e-07,7.936889140453765e-07,-5.533194436885207e-07,-1.5670057846841255e-08,9.941293085686536e-08,-5.930845902461228e-08,5.546377941626216e-08,6.80723561199253e-07,-1.118384757632254e-07,2.956891365211898e-07
2.949334421509727e-07,1.5755083714670584e-06,4.213611963155445e-07,7.761625404144606e-07,-3.387707765590538e-07,-1.2862098760817513e-06,-8.652130049812864e-07,-2.3628526801129828e-07,-2.688171758878872e-07,7.774500499173441e-07,-2.161626209842331e-07,-4.833340720790305e-08,9.955901420968771e-08,-4.681641344891698e-08,-8.313704097254036e-09,6.384577344720493e-07,-7.986226067129524e-08,2.456332266949832e-07
-3.2520546460659074e-06,3.8911724944614115e-07,3.5729303285828687e-07,7.840615704605384e-07,-2.8507269955666444e-07,-1.2727856868563184e-06,-8.301977481452234e-07,-2.2353092557456332e-07,-2.683977355910903e-07,7.444359996247211e-07,1.5056064340559076e-07,-8.729598739254127e-08,7.291855060016279e-08,-3.550855598687579e-08,-9.747703595424655e-08,5.799725421981122e-07,-5.320302139567539e-08,2.0717490865480299e-07
-6.410971556925389e-06,9.452067173758098e-07,3.292401137044691e-07,8.139905848268495e-07,-2.1855590637070055e-07,-1.2684548289194605e-06,-8.079308122849791e-07,-1.9881564797692554e-07,-2.7363088212848147e-07,6.957762415336338e-07,5.224467991125017e-07,-1.483710892970578e-07,3.531520930231634e-08,-2.751377338453336e-08,-1.8172154561022877e-07,5.070627981114322e-07,-3.6412727969950873e-08,2.0158172678667348e-07
-8.43031626080234e-06,3.1409400658043305e-06,3.638410862768046e-07,8.668272361704379e-07,-1.6594336137648855e-07,-1.2695277796314596e-06,-7.953269105543588e-07,-1.7380565552351685e-07,-2.84971071115401e-07,6.46745676924827e-07,8.493916334394674e-07,-2.277369902452272e-07,2.590708951015082e-09,-2.4134519813082146e-08,-2.582873289102918e-07,4.2608956666674906e-07,-3.269610255749459e-08,1.9689839388748837e-07
-9.018702952152929e-06,6.344732941979374e-06,4.6161518881580135e-07,9.363826400311292e-07,-1.5954864998367524e-07,-1.2636692828024557e-06,-7.884276044928071e-07,-1.5122929873599667e-07,-2.981738996320304e-07,5.880785546825261e-07,1.073441227384973e-06,-3.160562105416673e-07,-1.408910475248064e-08,-2.477175835357466e-08,-3.2434871181450873e-07,3.3971090199013424e-07,-4.202533677473495e-08,2.0252883453467246e-07
-8.420569319128442e-06,9.545463013392766e-06,5.945076635405441e-07,1.0127785757391844e-06,-1.648090854339596e-07,-1.2677836289091318e-06,-7.838472559738328e-07,-1.310500529836495e-07,-3.142511793111236e-07,5.273825914558453e-07,1.2464787359832658e-06,-3.950755372088796e-07,-1.0430572715217341e-08,-2.6210216004730848e-08,-3.697009134421696e-07,2.5661968896067455e-07,-5.995757238450103e-08,2.1770413795945658e-07
-7.296576233904728e-06,1.1687975995747208e-05,7.379682610110173e-07,1.0859231313142132e-06,-1.4296621308169004e-07,-1.2716693265282436e-06,-7.770694406924577e-07,-1.2104623395401422e-07,-3.307752876724525e-07,4.812004384243972e-07,1.3861976677751894e-06,-4.5286334815176984e-07,1.0374459779953372e-08,-2.4669143379172218e-08,-3.9709439369013647e-07,1.8647199569746476e-07,-7.966248100055017e-08,2.193908425695693e-07
-6.406771671607444e-06,1.221766062637312e-05,8.5437343215288e-07,1.1479398965419011e-06,-9.3445165783483e-08,-1.273069300081726e-06,-7.636879128622336e-07,-1.1147619174466223e-07,-3.4476136921751924e-07,4.4895669053588146e-07,1.4831638233642324e-06,-4.899609443691219e-07,3.935140920320111e-08,-1.8819719491952758e-08,-4.163115988092983e-07,1.3354974396080413e-07,-9.577197541043068e-08,2.0912713447024823e-07
-6.198625812360051e-06,1.1064332852925089e-05,9.112115589418175e-07,1.193218953177604e-06,-2.3939637070058328e-08,-1.275540668255676e-06,-7.382881871369469e-07,-9.676636378674951e-08,-3.506612754958908e-07,4.3141723422062504e-07,1.5204681289706423e-06,-5.144058577581205e-07,6.883512186204079e-08,-1.0040395238858718e-08,-4.2734206319463857e-07,9.7687563575945e-08,-1.0563898264833097e-07,1.8744436298987826e-07
-6.531251000535016e-06,8.668964087452707e-06,8.922095215809662e-07,1.21710602216572e-06,5.166409143639375e-08,-1.282223537835819e-06,-6.960915266256774e-07,-8.413304712327041e-08,-3.5101263030874073e-07,4.224622754417706e-07,1.647933262951263e-06,-5.361165896059859e-07,9.336645148278727e-08,-1.0503653526018695e-09,-4.256117885855424e-07,7.655954553761878e-08,-1.0883013187912823e-07,1.589184047730024e-07
-6.7412775452378845e-06,5.751347226627958e-06,8.08686932298191e-07,1.2162838470975664e-06,1.1136278309204685e-07,-1.286504694202045e-06,-6.347724286937948e-07,-7.159795754241182e-08,-3.500485593686734e-07,4.1569893581843865e-07,1.7229506006635375e-06,-5.485121320679948e-07,1.1617492172812066e-07,8.14864157677525e-09,-4.238294198750162e-07,6.859067666641378e-08,-1.0527854916758652e-07,1.2994189989262912e-07
-6.021911065534734e-06,2.7682644555616326e-06,6.846103096193259e-07,1.1914083485397331e-06,1.4658467639824196e-07,-1.295097791520535e-06,-5.54463326522317e-07,-5.893667666807819e-08,-3.4811357035770455e-07,4.07875467769097e-07,1.6847425024821989e-06,-5.46043179488965e-07,1.4933808305656017e-07,2.4445674641635334e-08,-4.2516424915187294e-07,7.42324011719052e-08,-9.369890518790334e-08,1.0189912492049996e-07
-3.85076331169032e-06,1.441964985982431e-07,5.569408964298975e-07,1.1490330911945535e-06,1.6264469753671996e-07,-1.3132279025641135e-06,-4.5811887429994905e-07,-4.4511030655197346e-08,-3.455859295726759e-07,4.068186976044609e-07,1.5580882609822373e-06,-5.140252698548587e-07,2.037036896307388e-07,5.255040707455797e-08,-4.1303081040011487e-07,9.432335780489471e-08,-7.295500161239688e-08,7.665051731436337e-08
-2.1704148152098224e-07,-1.92338048939282e-06,4.684146182361927e-07,1.1001094533704945e-06,1.6719073229818547e-07,-1.3413504809721244e-06,-3.5439756370425e-07,-2.4994330060244475e-08,-3.4150535724707087e-07,4.188163013341213e-07,1.2188597922889578e-06,-4.5486071463664826e-07,2.879262219210623e-07,9.697863028247874e-08,-3.9526360910126477e-07,1.2695166313267792e-07,-4.508313806487692e-08,6.254330959366466e-08
4.381003183559735e-06,-3.4814474734704285e-06,4.4955510682799365e-07,1.0556473987805562e-06,1.6530689608347833e-07,-1.3859605323033773e-06,-2.5511182983537473e-07,-1.5908936128739313e-09,-3.3679802764215806e-07,4.4239053110286326e-07,7.621835085441332e-07,-3.8228260374210687e-07,4.0221251682022146e-07,1.5720697121925574e-07,-3.774070452789393e-07,1.6532529150034898e-07,-1.5490584897844498e-08,5.2204006899239853e-08
9.066044167705193e-06,-4.6927842897032875e-06,5.107332267177277e-07,1.0227846838592402e-06,1.642455091574357e-07,-1.450891821699948e-06,-1.7376617064156523e-07,2.0385666853932548e-08,-3.3566770399907713e-07,4.732644104026836e-07,3.3502419504742947e-07,-3.1243889671216236e-07,5.320775146274779e-07,2.2651011454466137e-07,-3.560209222737292e-07,1.9903262086534792e-07,9.031408211366042e-09,4.264305815991621e-08
1.2813618177509386e-05,-5.553555715372382e-06,6.418733864369445e-07,1.0035785132926915e-06,1.7320960825402614e-07,-1.536654371492691e-06,-1.2212740320414833e-07,3.5004322354899384e-08,-3.429495883713867e-07,5.001664005688118e-07,1.8771249675144584e-08,-2.577074379935984e-07,6.368103068685424e-07,2.9780009855890894e-07,-3.369522076900228e-07,2.1836562845192422e-07,2.391281913195278e-08,2.9134978106503172e-08
1.4764547448760538e-05,-6.071057178317329e-06,8.124741772590075e-07,9.9639435308659e-07,1.9650223876956994e-07,-1.6386291408284456e-06,-1.0471203421620332e-07,3.998640615868968e-08,-3.604778252544699e-07,5.1945306636154e-07,-2.484430249714743e-07,-2.1895745314381452e-07,7.011715457940344e-07,3.6487412893272833e-07,-3.1947212853728293e-07,2.1833889237429154e-07,2.974480937848287e-08,8.958172135990592e-09
1.4439589780972915e-05,-6.3572598532312985e-06,9.839408894685045e-07,9.982913338894221e-07,2.3820309565688036e-07,-1.7482729859161297e-06,-1.200315251005763e-07,3.715432721743215e-08,-3.862913134904202e-07,5.30627152584758e-07,-3.819565947573117e-07,-1.9586627085777408e-07,6.949022038848398e-07,4.235927801140161e-07,-2.989594046803444e-07,1.9948403937611013e-07,3.0949703498754325e-08,-1.2909911830779043e-08
1.1748016684647962e-05,-6.49854818644138e-06,1.1124589018749906e-06,1.0067475773562071e-06,2.9628177298724244e-07,-1.8560336389317696e-06,-1.6081165650542937e-07,2.9517332857146175e-08,-4.1661302357070664e-07,5.334515661584741e-07,-3.9494606284044947e-07,-1.8571724206868977e-07,5.991476669863029e-07,4.528762020627081e-07,-2.759331114793576e-07,1.6562610812340148e-07,3.1375719382671144e-08,-3.3761814933693916e-08
6.967874731850779e-06,-6.6579831913498815e-06,1.1642873909201533e-06,1.0197292419302713e-06,3.590305808089111e-07,-1.955861763123752e-06,-2.172561441672354e-07,1.7654031269984672e-08,-4.4777058418350523e-07,5.267944241158866e-07,-3.474985828895069e-07,-1.903785046807594e-07,5.847958706932731e-07,4.6833917073455335e-07,-2.615863077265301e-07,1.2122321410618202e-07,3.069310227074337e-08,-5.48159707239327e-08
8.270959263675718e-07,-6.879409667619486e-06,1.1250525825180163e-06,1.0344503212162012e-06,4.1081680662881707e-07,-2.0457810331022365e-06,-2.807683377403065e-07,-7.784218144289292e-10,-4.781402820844293e-07,5.055973176022179e-07,-1.5840076532564463e-07,-2.1225086170926318e-07,6.475712073343152e-07,4.643820080666531e-07,-2.6295498676449556e-07,7.078697053690013e-08,2.436371513046317e-08,-8.095943840148232e-08
-5.522433127966287e-06,-6.96952728787381e-06,1.0025052561493786e-06,1.0464877154119723e-06,4.3797044039373596e-07,-2.1261435855844907e-06,-3.4609037123865494e-07,-2.8978101316763355e-08,-5.075663728866568e-07,4.653246190893004e-07,8.315801139090332e-08,-2.556033618498014e-07,6.924746101617835e-07,4.3243652757746913e-07,-2.864600363362742e-07,2.050530589430631e-08,7.1100610236269104e-09,-1.1637248447351549e-07
-1.0825729956513167e-05,-6.592006442605511e-06,8.258195389449577e-07,1.0500983055922406e-06,4.357871681607002e-07,-2.194990843188383e-06,-4.0930298115837044e-07,-6.701851670567235e-08,-5.35627934375774e-07,4.062418776033166e-07,3.224550477676347e-07,-3.1920078210139676e-07,7.167398328734468e-07,4.106315489307043e-07,-3.3191276972583185e-07,-2.0553088740050714e-08,-2.289045709733043e-08,-1.6035710405994205e-07
-1.4151088275598915e-05,-5.448370540881287e-06,6.344541674199994e-07,1.0392906465782322e-06,4.107735247324038e-07,-2.2467215048803333e-06,-4.6589851573225577e-07,-1.1035569846270363e-07,-5.599765936723783e-07,3.362572639925158e-07,5.578083531888068e-07,-3.984351164385335e-07,6.626099656288208e-07,3.634381919066197e-07,-3.952312006166998e-07,-4.229278954534575e-08,-6.342458926396504e-08,-2.1057797246002486e-07
-1.5117781202252654e-05,-3.5592828708994337e-06,4.6423933223031106e-07,1.0089677035318853e-06,3.758080579254457e-07,-2.274617500698746e-06,-5.105739494259835e-07,-1.5220402205207694e-07,-5.789524141495535e-07,2.628756331782568e-07,7.742342146071181e-07,-4.825585335010119e-07,5.864999135478497e-07,3.006818617428846e-07,-4.6854852512185384e-07,-3.808104116887015e-08,-1.1083410497294597e-07,-2.657976588018051e-07
-1.3871391210835568e-05,-1.194811710079481e-06,3.3895837817060366e-07,9.555451145965115e-07,3.422246397756649e-07,-2.275275148278108e-06,-5.373417019235256e-07,-1.8741762770601127e-07,-5.928068862969246e-07,1.9397191310209896e-07,9.21845550867393e-07,-5.640884190618231e-07,4.985291919514298e-07,2.4181080554607095e-07,-5.400097431860093e-07,-8.550541024544326e-09,-1.627600746056354e-07,-3.2480726722089766e-07
-1.0942203956459712e-05,1.2005615679225678e-06,2.67414876158491e-07,8.770056126730249e-07,3.1387824563228674e-07,-2.2532026889104574e-06,-5.426413578194504e-07,-2.1546914925705787e-07,-6.023857112558696e-07,1.3184338485760372e-07,9.56837623155833e-07,-6.367701931095249e-07,3.8605303308724565e-07,1.6294697680128846e-07,-5.99194370819922e-07,3.831742938532453e-08,-2.1842644174143566e-07,-3.882019608947109e-07
-7.089077893516601e-06,3.085719389394976e-06,2.4020709850631915e-07,7.733685919613081e-07,2.8676997002374706e-07,-2.2206014080769805e-06,-5.276532613375528e-07,-2.3927950268514256e-07,-6.101375601940896e-07,7.577341974389457e-08,8.461534816588308e-07,-6.963686849561312e-07,2.9957597008961294e-07,9.976869911359479e-08,-6.41956531152354e-07,9.076120416978476e-08,-2.759880808762809e-07,-4.5432922263374566e-07
-3.138551880251418e-06,4.085723926072291e-06,2.3974823545754117e-07,6.486392270264223e-07,2.5369100811379093e-07,-2.1926250650434013e-06,-4.986182379196637e-07,-2.618455698955813e-07,-6.175128407781506e-07,2.7483328108405428e-08,5.595706960773551e-07,-7.378574617647007e-07,2.3015185924158783e-07,5.4375843275464865e-08,-6.647800550477968e-07,1.3769397922289925e-07,-3.301026449992362e-07,-5.20311836853577e-07
1.8231251587830616e-07,4.057049049893773e-06,2.477540587967733e-07,5.131371022863185e-07,2.0943677420649652e-07,-2.1811558255312368e-06,-4.646986865704147e-07,-2.8374682022865976e-07,-6.230638192680226e-07,-9.68602110316035e-09,1.72280709099395e-07,-7.571589194218096e-07,1.690561353041651e-07,1.972747738176025e-08,-6.696339498159747e-07,1.7141132655596666e-07,-3.7323273811363126e-07,-5.784774344932106e-07
2.3745724427453736e-06,3.128605139209738e-06,2.48191603316377e-07,3.827718990529858e-07,1.5271591741516078e-07,-2.190840420516192e-06,-4.355503340144711e-07,-3.036972136832983e-07,-6.237903430639085e-07,-3.215499514248671e-08,-2.304211824549692e-07,-7.540058921777375e-07,1.208459506378068e-07,4.50594859959101e-09,-6.636037884841178e-07,1.8790769019415436e-07,-3.9919647678745853e-07,-6.23343172805754e-07
3.2020142918535384e-06,1.4614257232921094e-06,2.3364232113629085e-07,2.7342896886336654e-07,8.486929655317078e-08,-2.219596217470964e-06,-4.1793706701445996e-07,-3.2153680248991623e-07,-6.17572058463579e-07,-3.942470396549578e-08,-5.77300132872543e-07,-7.332736053366816e-07,7.672659088925473e-08,-4.1475773345499224e-09,-6.540989697236962e-07,1.8587831416818683e-07,-4.067784779201044e-07,-6.530795909033701e-07
2.6273544472123622e-06,-6.888876065015047e-07,2.0480557032533087e-07,1.9366356500221236e-07,8.256009907474542e-09,-2.26205978554018e-06,-4.1384653612370217e-07,-3.397302601311103e-07,-6.050240539058398e-07,-3.6206152461870756e-08,-8.147668467367971e-07,-7.035011053128544e-07,4.1609180245835964e-08,-1.2839375707180724e-08,-6.479644935512355e-07,1.6612303916929464e-07,-4.000886913534743e-07,-6.702913280249777e-07
7.353071579066562e-07,-3.003721507440279e-06,1.7084699276663397e-07,1.415363232932014e-07,-7.330568433090242e-08,-2.3125117722911687e-06,-4.201675619463417e-07,-3.6199947887585335e-07,-5.896293518835314e-07,-2.9625915952887488e-08,-9.460547294649353e-07,-6.695713560217554e-07,2.1580529044096878e-08,-2.5188446841826583e-08,-6.478950412939965e-07,1.321593311079042e-07,-3.8534901959873295e-07,-6.808828287200647e-07
-2.2327245951022244e-06,-5.141867765320164e-06,1.3891237046746566e-07,1.0800457951664198e-07,-1.5274052964405367e-07,-2.3655685924160027e-06,-4.297883700889811e-07,-3.901803767145955e-07,-5.761391717728071e-07,-2.2863244513415464e-08,-1.005522817575317e-06,-6.342417844123064e-07,1.9969183500802447e-08,-4.342993530828364e-08,-6.507965799300328e-07,9.082754619736558e-08,-3.676422343582628e-07,-6.887319801966635e-07
-5.7530217422529275e-06,-6.678424426917633e-06,1.134558065710884e-07,8.360746813612679e-08,-2.1977718958613658e-07,-2.4159495391835913e-06,-4.348089914032858e-07,-4.223919960967226e-07,-5.677517412180075e-07,-1.522875890803023e-08,-1.0388047523756606e-06,-5.975433137125041e-07,3.895455599668225e-08,-6.430089426264835e-08,-6.491877525930832e-07,5.0938531912660924e-08,-3.5009699778168134e-07,-6.956542790838054e-07
-9.023804507086432e-06,-7.256645084037549e-06,9.086487790193192e-08,6.352562371843481e-08,-2.645626498896257e-07,-2.4591210423418665e-06,-4.298819829087935e-07,-4.545426088096619e-07,-5.652793779718373e-07,-4.123152518777305e-09,-1.0823693257087404e-06,-5.598373938690973e-07,7.57311288582732e-08,-8.269600396094466e-08,-6.399541620832409e-07,1.9708532012150295e-08,-3.3551919707107604e-07,-7.014479597563783e-07
-1.1236733997792387e-05,-6.734516304276479e-06,6.175998894019863e-08,4.833809514807951e-08,-2.827973180999173e-07,-2.4927973881793913e-06,-4.151453637100323e-07,-4.831889909336692e-07,-5.680229332701923e-07,1.2036507060417724e-08,-1.1447193075993847e-06,-5.24663272551514e-07,1.2097427474196968e-07,-9.608473271551995e-08,-6.267057182555249e-07,-9.064931920226437e-10,-3.288998668884125e-07,-7.092085562638222e-07
-1.1954396258118084e-05,-5.294218088592496e-06,2.166299822695387e-08,4.143358416405768e-08,-2.785123039774464e-07,-2.5177638948133888e-06,-3.9713206014354224e-07,-5.076128614535138e-07,-5.745769219528516e-07,3.161624045627355e-08,-1.1982284414864734e-06,-4.990781301920858e-07,1.6056291646965832e-07,-1.0675902552728801e-07,-6.192760511223522e-07,-1.51633575011033e-08,-3.3268396387579333e-07,-7.215633401734552e-07
-1.1317573556636063e-05,-3.3585473096532188e-06,-2.4471861392610922e-08,4.626970436882799e-08,-2.622077336735962e-07,-2.536766668752276e-06,-3.8552449422047185e-07,-5.296597300576048e-07,-5.836937772281015e-07,5.0228542649022425e-08,-1.1966781742935212e-06,-4.900884576687793e-07,1.8071507020266476e-07,-1.2041431791993442e-07,-6.287263289553177e-07,-3.094979932289987e-08,-3.489619031104868e-07,-7.381713848518737e-07
-9.967040612301331e-06,-1.416052073761546e-06,-6.392615783566444e-08,6.510521292948671e-08,-2.4613088259665823e-07,-2.552045401971985e-06,-3.872241573908531e-07,-5.514828157358143e-07,-5.937796213104196e-07,6.458871614116484e-08,-1.1025193992217297e-06,-5.017777932239726e-07,1.7421434516563296e-07,-1.420150193879571e-07,-6.605710949102432e-07,-5.5687132885218215e-08,-3.7630339528902133e-07,-7.573787135908516e-07
-8.760558480435511e-06,9.488507784481955e-08,-8.109893878752477e-08,9.809415466995471e-08,-2.4048790030843335e-07,-2.563538967145554e-06,-4.0195945421573094e-07,-5.740230916631477e-07,-6.031975014207854e-07,7.247008048171276e-08,-9.101391163020426e-07,-5.326880397776469e-07,1.4381697584476582e-07,-1.728026842446424e-07,-7.120314723907678e-07,-9.348502492034188e-08,-4.094806101194326e-07,-7.745973745237928e-07
-8.410524452501815e-06,9.151522321152682e-07,-6.601186973253722e-08,1.4206196190786406e-07,-2.518467496662666e-07,-2.5692759201616427e-06,-4.2216551760923387e-07,-5.975848479696903e-07,-6.117691147827927e-07,7.258965209834598e-08,-6.600493740897313e-07,-5.754867887663671e-07,1.0049839632817597e-07,-2.1003741352889418e-07,-7.73360533668026e-07,-1.4486470023093352e-07,-4.433652268743085e-07,-7.855962766164075e-07
-9.166421019799319e-06,9.519902214289415e-07,-2.2693672769919735e-08,1.9014568604291727e-07,-2.825448512939955e-07,-2.5676349720362886e-06,-4.369548071987911e-07,-6.229122843871869e-07,-6.209998958728163e-07,6.410767119539677e-08,-4.2802810765411036e-07,-6.194194796485022e-07,5.840033732070361e-08,-2.4848521661489254e-07,-8.325061634483024e-07,-2.081747491922129e-07,-4.73386835811909e-07,-7.893332419115533e-07
-1.0719633273426482e-05,2.553617263291752e-07,3.303508913375228e-08,2.333002905753747e-07,-3.3042023933686843e-07,-2.5595803796388764e-06,-4.3740542625406904e-07,-6.512679897817638e-07,-6.336629622838355e-07,4.7318285292290426e-08,-2.93933016247939e-07,-6.527334441565665e-07,3.0635413215016454e-08,-2.821571354322634e-07,-8.773273522798878e-07,-2.8025730767013014e-07,-4.957020832741863e-07,-7.866018112747046e-07
-1.239702435635134e-05,-9.56110866841939e-07,8.204893092754116e-08,2.6357512103698306e-07,-3.889589437848653e-07,-2.548905690073039e-06,-4.201254498137637e-07,-6.826439520277601e-07,-6.519487368974851e-07,2.6462246617030608e-08,-3.0765781261110197e-07,-6.6530442272726e-07,2.7386530896997086e-08,-3.0506195207532536e-07,-8.984930339584233e-07,-3.5509504847459005e-07,-4.954226891393923e-07,-7.779232354465725e-07
-1.345740407884322e-05,-2.340424688393033e-06,1.1186533412293283e-07,2.78225739348668e-07,-4.482244133629163e-07,-2.54029257788093e-06,-3.876945969137193e-07,-7.141211369243014e-07,-6.75286755690676e-07,9.951816225536369e-09,-4.6753890378121145e-07,-6.508833663291797e-07,5.413980785559467e-08,-3.1158513554812146e-07,-8.909455258943674e-07,-4.225516909157349e-07,-4.819099854019159e-07,-7.635898477662181e-07
-1.3308203116485354e-05,-3.47567993218676e-06,1.2262645755059004e-07,2.823998012792213e-07,-4.973472098301051e-07,-2.536880640223804e-06,-3.475561459880665e-07,-7.407664089349058e-07,-6.999674685515995e-07,7.249376187366151e-09,-7.199808738528034e-07,-6.089103526457705e-07,1.0916828757878312e-07,-2.9782320999923005e-07,-8.543613335369977e-07,-4.7026320711802993e-07,-4.517836149111053e-07,-7.433291065471867e-07
-1.1651468952085454e-05,-4.043516045082058e-06,1.2764124546344737e-07,2.875058556038948e-07,-5.286025392404772e-07,-2.5389708930819038e-06,-3.096749473605823e-07,-7.588342028488761e-07,-7.209604762069288e-07,2.2850319226500755e-08,-9.788324155866326e-07,-5.458154386932532e-07,1.8283355911361422e-07,-2.6397361038730075e-07,-7.946616057426869e-07,-4.883779283670547e-07,-4.0179191243933047e-07,-7.175948401050116e-07
-8.58769358782136e-06,-3.930919951311977e-06,1.4452606571251877e-07,3.0504266864980935e-07,-5.409362414279764e-07,-2.5440482591473223e-06,-2.8333612023067137e-07,-7.683810037178972e-07,-7.342889618661356e-07,5.27206887352261e-08,-1.1588760924209594e-06,-4.744280766002872e-07,2.606033284701274e-07,-2.1527251527110498e-07,-7.234171870900922e-07,-4.734145398898384e-07,-3.605303287435079e-07,-6.892428668553006e-07
-4.615212031299686e-06,-3.2048351276566117e-06,1.8630260033337028e-07,3.3989664130201824e-07,-5.397051612993356e-07,-2.5476101641226673e-06,-2.7428612932514497e-07,-7.72912455511265e-07,-7.381674236645626e-07,8.545764093094219e-08,-1.2070468080189153e-06,-4.093923633761505e-07,3.2842420290046725e-07,-1.6148492959204747e-07,-6.545295207374091e-07,-4.2826807192650624e-07,-3.084767341393585e-07,-6.622451903829766e-07
-4.980807477999348e-07,-2.0156146073527604e-06,2.5213277511450904e-07,3.880200693588428e-07,-5.319905715280008e-07,-2.5446483060611916e-06,-2.808680893227888e-07,-7.762609596230905e-07,-7.326291136139641e-07,1.0890389961250952e-07,-1.1157524198935065e-06,-3.618530682901347e-07,3.777538070428563e-07,-1.1299351033250292e-07,-5.998214097462223e-07,-3.5935762396126753e-07,-2.5369175129213154e-07,-6.396560765168571e-07
2.931861153805063e-06,-5.189446620359989e-07,3.256481515750417e-07,4.3944636295096603e-07,-5.214361310648936e-07,-2.53158418156491e-06,-2.9414766269383567e-07,-7.795452777314505e-07,-7.18329750967606e-07,1.1653331743351603e-07,-9.156930365690807e-07,-3.3626782627851897e-07,4.0754075072594337e-07,-7.714533649386287e-08,-5.663109839248013e-07,-2.7433819381607296e-07,-2.1026345123899564e-07,-6.227705514960291e-07
4.9725897449354764e-06,1.0866071994337364e-06,3.820131906838728e-07,4.833545726701479e-07,-5.074419930131021e-07,-2.507678030001547e-06,-3.027223606637999e-07,-7.806111348810756e-07,-6.961907125250763e-07,1.0903366106789441e-07,-6.561097704079351e-07,-3.331954087932056e-07,4.2159396212159616e-07,-5.7713364762644225e-08,-5.558053205334597e-07,-1.8206011132531143e-07,-1.640736556256613e-07,-6.110258897885876e-07
5.223311261814894e-06,2.5199292446397614e-06,3.999834982014633e-07,5.118887445636796e-07,-4.889546474923667e-07,-2.474940185120639e-06,-2.9729674758463575e-07,-7.766369901520198e-07,-6.681914319636429e-07,9.166778655420316e-08,-3.8350084700118237e-07,-3.4761716551699797e-07,4.2357420737637357e-07,-5.52905258616856e-08,-5.666003732025603e-07,-9.335825693899924e-08,-1.344693928813782e-07,-6.041730496769318e-07
3.6926293226068664e-06,3.4308909573323e-06,3.739095968448633e-07,5.222344665372411e-07,-4.684860064299016e-07,-2.43674996708065e-06,-2.7559624508215075e-07,-7.672210701471591e-07,-6.379586332142867e-07,6.998781194711731e-08,-1.2513389733549451e-07,-3.776269118224948e-07,4.142816120309369e-07,-6.979081408821981e-08,-5.959190910741135e-07,-2.0574653601939328e-08,-1.2427549135272744e-07,-6.031692065925033e-07
7.938502765563075e-07,3.509904732905744e-06,3.1972935901132443e-07,5.178011069281941e-07,-4.5222348181304764e-07,-2.396279076412683e-06,-2.4331480779944017e-07,-7.54898141171573e-07,-6.10118003498108e-07,4.7510009864027035e-08,1.2000613787460042e-07,-4.211206050608436e-07,3.929309037921415e-07,-9.893628048473897e-08,-6.40983660828133e-07,2.4763425088646234e-08,-1.4427692397754037e-07,-6.079150252715378e-07
-2.752305085208994e-06,2.628551998211197e-06,2.725265631365762e-07,5.082015297626403e-07,-4.459492739812075e-07,-2.3556297244281148e-06,-2.1026820351637837e-07,-7.428236050786987e-07,-5.885451159366209e-07,2.5880382597456516e-08,3.784303544088767e-07,-4.788106110224293e-07,3.600799253984506e-07,-1.386318628835606e-07,-6.96930525739678e-07,3.510836400319326e-08,-1.7134134683246563e-07,-6.16976138347936e-07
-6.051323008820515e-06,9.422520016933533e-07,2.739408668034054e-07,5.067018784734936e-07,-4.5021141391642723e-07,-2.3157346131340707e-06,-1.856438554021735e-07,-7.322010911305612e-07,-5.748461808145785e-07,5.725750768827164e-09,6.859127344821002e-07,-5.515201318121745e-07,3.1963543286305004e-07,-1.8378869823530016e-07,-7.595780628739577e-07,9.171022840174598e-09,-1.9486780191533616e-07,-6.277702155368285e-07
-8.225132868772938e-06,-1.123022246945126e-06,3.5146175912373915e-07,5.250835447926354e-07,-4.588452750875316e-07,-2.2765477394599683e-06,-1.7493179273311976e-07,-7.222547138919804e-07,-5.68315081926878e-07,-1.3659815261774098e-08,1.072830790118543e-06,-6.383981551409701e-07,2.7877325610273324e-07,-2.2862932022317653e-07,-8.234333112573858e-07,-4.793819495703802e-08,-2.1514300907534466e-07,-6.36913660605561e-07
-8.689464700026588e-06,-3.0354741724566692e-06,4.992972365958252e-07,5.68248286461118e-07,-4.618499016559776e-07,-2.237341639258765e-06,-1.7855333840409687e-07,-7.120488145422027e-07,-5.672126251404832e-07,-3.474410377797092e-08,1.5195990905423964e-06,-7.340073348113108e-07,2.455430865150721e-07,-2.7000328432286096e-07,-8.828770326821768e-07,-1.2625711102630262e-07,-2.3126799072805292e-07,-6.433604997912608e-07
-7.422258420596292e-06,-4.365099648546128e-06,6.764395572986188e-07,6.3163955800524e-07,-4.4991983118706634e-07,-2.1970354606757178e-06,-1.9176990951838958e-07,-7.017853902782597e-07,-5.700386322740907e-07,-6.033015904248204e-08,1.9656178664770118e-06,-8.068000300965084e-07,2.2550885179059702e-07,-3.0638304549243214e-07,-9.326008054429432e-07,-2.1248216043738162e-07,-2.4211564662736055e-07,-6.485705981944831e-07
-5.054888262655138e-06,-4.9076978808104525e-06,8.248357342478523e-07,7.029182341237859e-07,-4.1752027719932183e-07,-2.154396724981475e-06,-2.0566195985514082e-07,-6.918643474839749e-07,-5.756171990671243e-07,-9.043969500065567e-08,2.3313729508848912e-06,-8.592439252369642e-07,2.200726169977814e-07,-3.397793075027821e-07,-9.662256306075341e-07,-2.908184320324314e-07,-2.5024967152230913e-07,-6.5371081439817e-07
-2.6756526038490372e-06,-4.682346940807263e-06,8.960553897633794e-07,7.669331146313387e-07,-3.6376252764560754e-07,-2.1086147720306967e-06,-2.0909277157059524e-07,-6.809642825708332e-07,-5.822784978503212e-07,-1.201848907067714e-07,2.371348675685571e-06,-8.532064171553616e-07,2.27661588535798e-07,-3.647411664126813e-07,-9.77668724416604e-07,-3.447948448152925e-07,-2.552839735932565e-07,-6.579880125130904e-07
-1.374118254670614e-06,-3.8444539372806935e-06,8.7037830287311e-07,8.114125951205815e-07,-2.9200177056354445e-07,-2.0608425642066003e-06,-1.9241936602729416e-07,-6.658002477423312e-07,-5.874667222948873e-07,-1.4128492366840606e-07,2.2131191146403676e-06,-7.825436840722665e-07,2.4596657914344355e-07,-3.802671406743629e-07,-9.630133776747397e-07,-3.6162917245286204e-07,-2.5431399197385493e-07,-6.58683263545086e-07
-1.7461513552348964e-06,-2.579766936079531e-06,7.599591407825869e-07,8.304921510046353e-07,-2.0877031626940766e-07,-2.0156906818608197e-06,-1.5198304551835134e-07,-6.433661579232519e-07,-5.885822871882275e-07,-1.4675759321095475e-07,2.0963181493394627e-06,-7.963299975010526e-07,2.7281898817053887e-07,-3.479181773427628e-07,-9.234041414094651e-07,-3.377291023302219e-07,-2.44587731386412e-07,-6.531816740023371e-07
-3.6669648278493413e-06,-1.0416393557187179e-06,5.983275029918492e-07,8.245760857813048e-07,-1.219144396900073e-07,-1.980493138369785e-06,-9.186326947961745e-08,-6.137556814550863e-07,-5.844838296534148e-07,-1.3522728454179136e-07,1.8563202825166617e-06,-8.382684121945706e-07,3.057869600430135e-07,-2.833008774133925e-07,-8.654603533211922e-07,-2.8115294800694445e-07,-2.2676287570522671e-07,-6.41431958674893e-07
-6.461007282116691e-06,6.398995741936536e-07,4.243785849821665e-07,7.978263106744554e-07,-3.8117006214265976e-08,-1.96163172084579e-06,-2.1989535432197404e-08,-5.805848990318888e-07,-5.762614601069088e-07,-1.1110855578804641e-07,1.378758846416042e-06,-8.118276389855347e-07,3.4255998908203337e-07,-2.2359885741942202e-07,-8.000805013403654e-07,-2.0798452763762792e-07,-2.0493759591854036e-07,-6.261936281855331e-07
-9.292627985999555e-06,2.3049347201174097e-06,2.6901595818025535e-07,7.560965389327373e-07,3.92478660627405e-08,-1.9601370798851524e-06,4.6886596842364424e-08,-5.481351683791287e-07,-5.663444744941041e-07,-8.052884587442291e-08,8.044112087143209e-07,-7.383140861218539e-07,3.828816437874322e-07,-1.7257528444353273e-07,-7.377486170011952e-07,-1.3446485666256933e-07,-1.8343466313722677e-07,-6.104966934596995e-07
-1.1480964478346624e-05,3.730213266951263e-06,1.4938419668662032e-07,7.067515857747427e-07,1.111448819136758e-07,-1.9700902312020566e-06,1.0804476503896747e-07,-5.178460273394537e-07,-5.565057501471013e-07,-4.6806330215771064e-08,3.5240107712617053e-07,-6.458207391000142e-07,4.3000226340680437e-07,-1.1650126884479647e-07,-6.841247588248169e-07,-7.039824951665177e-08,-1.6387102369089762e-07,-5.951338027820846e-07
-1.2593075908412141e-05,4.653568492848363e-06,7.067451124772409e-08,6.589285253245432e-07,1.8203855288871496e-07,-1.9815414361726215e-06,1.5939417484287396e-07,-4.874300944269814e-07,-5.465812504072595e-07,-9.376253466411501e-09,-1.2173646776247436e-09,-5.575032175673287e-07,4.891452686166921e-07,-7.043816245614388e-08,-6.393443738688005e-07,-1.791966371695943e-08,-1.449420159414277e-07,-5.787898875498306e-07
-1.2389869003643885e-05,4.850982344091078e-06,3.188847547817411e-08,6.221074732194452e-07,2.560763101947817e-07,-1.9862081196478697e-06,2.0119051291924502e-07,-4.5351109013820706e-07,-5.350663402676874e-07,3.3449436711611375e-08,-2.8566293637930187e-07,-4.5883058377099484e-07,5.630455596389382e-07,-2.4676559695240903e-08,-6.00390504875427e-07,2.4948113799549398e-08,-1.2484262494314026e-07,-5.599774074943407e-07
-1.0775469040987105e-05,4.237903610805788e-06,3.2393323015839964e-08,6.029655031855521e-07,3.317317851902516e-07,-1.981779172190836e-06,2.3313598492585193e-07,-4.1538988170098806e-07,-5.209606306781241e-07,8.088084622561492e-08,-4.901214495086009e-07,-3.883709096701646e-07,6.476494388929408e-07,1.9963864847118513e-08,-5.651998245392977e-07,6.011786357662161e-08,-1.0369886911677744e-07,-5.391082800870332e-07
-7.82194721529114e-06,3.0063555092861616e-06,7.546303474261751e-08,6.027659685440275e-07,4.000985732188856e-07,-1.9714107001040188e-06,2.534258052400488e-07,-3.76386109517475e-07,-5.04841637897886e-07,1.2877982664650443e-07,-6.079592808008309e-07,-3.515321817175247e-07,7.31795006895545e-07,5.667436581968774e-08,-5.347483702278024e-07,8.839415197156064e-08,-8.362857478369036e-08,-5.187545788213378e-07
-3.825692506766233e-06,1.627210638533798e-06,1.649814561174153e-07,6.175766899748636e-07,4.4987100706650224e-07,-1.958910914132219e-06,2.605594090305884e-07,-3.416442043907293e-07,-4.879736578499805e-07,1.7205567218439393e-07,-6.18826933108928e-07,-3.3630790218164784e-07,8.018691281073313e-07,8.568335195276757e-08,-5.107072395960073e-07,1.1115808740098089e-07,-6.680888563513269e-08,-5.020351397783046e-07
6.845911655430648e-07,6.687985464785661e-07,2.977996248235393e-07,6.409240556743125e-07,4.7520925280293114e-07,-1.9438846032179203e-06,2.557862183426565e-07,-3.146818437261734e-07,-4.705574915627842e-07,2.0767340332043014e-07,-5.250044167329509e-07,-3.4647107022506943e-07,8.479561255230784e-07,1.031554693333328e-07,-4.940092021288324e-07,1.3117616477609923e-07,-5.3811371521574395e-08,-4.912963500572415e-07
5.014317913765224e-06,5.854178368910114e-07,4.5921849096193506e-07,6.666407286679865e-07,4.798623402304727e-07,-1.9211258504565635e-06,2.43328533710193e-07,-2.9575639017964407e-07,-4.5119474858290893e-07,2.3537575386820835e-07,-3.2358960485002524e-07,-3.7088062043648584e-07,8.666187260635223e-07,1.1074144403913061e-07,-4.849653164864117e-07,1.5054295178826102e-07,-4.3953904662520406e-08,-4.874984061018359e-07
8.448893111272728e-06,1.5067156591822894e-06,6.25064601985738e-07,6.9048605911079e-07,4.745107584345919e-07,-1.8846763492712665e-06,2.2743588708523585e-07,-2.828896900596167e-07,-4.282890563669204e-07,2.5575147036627153e-07,-1.6055158840506358e-08,-4.083718508129612e-07,8.590439059446083e-07,1.1032180366142316e-07,-4.847367413865227e-07,1.6773030161464121e-07,-3.7140168887188676e-08,-4.907926966258646e-07
1.0497763626453166e-05,3.1637229545174684e-06,7.683912969736928e-07,7.106314643946465e-07,4.698714823156329e-07,-1.8327280964798868e-06,2.1041061527698655e-07,-2.7404060064219914e-07,-4.0196847735154e-07,2.680277876357849e-07,3.8162165852548355e-07,-4.597404480643366e-07,8.27658855259428e-07,9.982858277938414e-08,-4.96627088271786e-07,1.77262434424595e-07,-3.497563606446773e-08,-5.007905442854273e-07
1.1150656211314825e-05,5.003968149108723e-06,8.677354462216745e-07,7.276551909103856e-07,4.711598008899929e-07,-1.7690875593146522e-06,1.9155636667841018e-07,-2.6821220737144105e-07,-3.745675196960301e-07,2.7019528368055377e-07,8.577858809368637e-07,-5.223724495790023e-07,7.748030154953957e-07,7.55940468766542e-08,-5.242081578932047e-07,1.7320917713584344e-07,-3.970513035427654e-08,-5.158472560848721e-07
1.0901313369302288e-05,6.4300222144183375e-06,9.133281698471355e-07,7.440847191924928e-07,4.774014518767672e-07,-1.7006350926801722e-06,1.6947340682439505e-07,-2.647208727169697e-07,-3.4922028375800043e-07,2.615230730563222e-07,1.3581081736922538e-06,-5.918845656370781e-07,7.040179292058705e-07,3.59135381045841e-08,-5.676030052551105e-07,1.5379500820026586e-07,-5.1919233580193814e-08,-5.325282883310559e-07
1.039131272677714e-05,7.0513354856805135e-06,9.082853432779865e-07,7.629728296588315e-07,4.8406749696971e-07,-1.6338655995813593e-06,1.455828811481418e-07,-2.6206861037360284e-07,-3.280162330212207e-07,2.446834500352583e-07,1.8334005244672275e-06,-6.598987867884375e-07,6.217948603664436e-07,-1.5788461165090626e-08,-6.21065179359354e-07,1.2305880151100617e-07,-6.963713930859567e-08,-5.463091566500079e-07
9.902120851234957e-06,6.842789835111253e-06,8.655963235254015e-07,7.85542590430948e-07,4.855328109254943e-07,-1.5735833653536036e-06,1.2497160947557364e-07,-2.582762554722429e-07,-3.114471024168233e-07,2.2503363590193815e-07,2.125953147763972e-06,-7.158075393114968e-07,5.376306148244473e-07,-7.099510726328804e-08,-6.746199670454696e-07,8.823619677367388e-08,-8.946375629920098e-08,-5.537926369424888e-07
9.141174846878556e-06,6.159627721771681e-06,8.03332625945357e-07,8.09066701875279e-07,4.7617699059388016e-07,-1.5241321726239833e-06,1.1398361576661982e-07,-2.5274602115874006e-07,-2.994632869425779e-07,2.0753312008732967e-07,2.072143061041711e-06,-7.507320706788343e-07,4.621486883826249e-07,-1.1975265049910233e-07,-7.184852402503074e-07,5.5366773052223385e-08,-1.0873391708121069e-07,-5.548839573822554e-07
7.515477301420077e-06,5.5916677624197666e-06,7.384218020641855e-07,8.267125312211375e-07,4.513923978460091e-07,-1.4910271098818534e-06,1.1664350172692549e-07,-2.4769601342064494e-07,-2.9281228310249624e-07,1.942236468933847e-07,2.024347111845467e-06,-7.60915519586021e-07,4.0455806701219425e-07,-1.5457551363232177e-07,-7.472040520824666e-07,2.6891965074408647e-08,-1.26465886270358e-07,-5.530624483243913e-07
4.6368050732800125e-06,5.703680466133147e-06,6.802667371504403e-07,8.301724970770422e-07,4.097588216352167e-07,-1.4803844435386306e-06,1.3259530084857964e-07,-2.471365770713026e-07,-2.929905384600821e-07,1.8466586100580233e-07,1.9237043347255034e-06,-7.482241000140653e-07,3.7087200304167375e-07,-1.7176744733292854e-07,-7.60517615818413e-07,2.776114651624737e-09,-1.4231184217421294e-07,-5.533174843955275e-07
6.418461030685408e-07,6.755284431863609e-06,6.281853461967931e-07,8.13852406463725e-07,3.555117380990689e-07,-1.4957491363708173e-06,1.5668207462965709e-07,-2.537164136789739e-07,-3.0063638049566565e-07,1.7848576552051884e-07,1.7305370484978639e-06,-7.179917888450074e-07,3.636673904216615e-07,-1.7061834955269865e-07,-7.611835756367405e-07,-1.6821475731139588e-08,-1.5513489568793238e-07,-5.59295197463215e-07
-3.854852773627415e-06,8.565116351498155e-06,5.732657202007542e-07,7.779604443646836e-07,2.9841553970163817e-07,-1.5349570990938814e-06,1.8185820756624684e-07,-2.662397392763995e-07,-3.1408929142178387e-07,1.7696830894128408e-07,1.2974404441763648e-06,-6.765697185389895e-07,3.8308952849280685e-07,-1.5284467835804248e-07,-7.522735934350808e-07,-3.045589561686896e-08,-1.6305567910274745e-07,-5.71903738467134e-07
-8.047316727515996e-06,1.0607232024447112e-05,5.014448930679662e-07,7.285871443486615e-07,2.495700403938768e-07,-1.5902128805047408e-06,2.0119787978847937e-07,-2.8028786940874414e-07,-3.2983687879228603e-07,1.819621076215345e-07,8.368373012248686e-07,-6.300130016404768e-07,4.2774732906836424e-07,-1.2266779026435697e-07,-7.368564643218117e-07,-3.690087232175013e-08,-1.6521312825212497e-07,-5.901071426017893e-07
-1.1251456163257158e-05,1.2231715431810127e-05,3.9838822113755753e-07,6.748537605098582e-07,2.159473592861267e-07,-1.6518299357587902e-06,2.1017489774489455e-07,-2.9144616617905667e-07,-3.4469690557005715e-07,1.9341004821873196e-07,4.635597318908823e-07,-5.838476116805751e-07,4.941716698633808e-07,-8.72238948387738e-08,-7.183729417324289e-07,-3.7446099637400014e-08,-1.6358274509945087e-07,-6.123625413562765e-07
-1.310769289621797e-05,1.2880674740892545e-05,2.5839975109194313e-07,6.248142185239428e-07,1.9811996973060983e-07,-1.7126995038291924e-06,2.0684645544204504e-07,-2.981940857725523e-07,-3.5781908034416183e-07,2.0827311419131204e-07,2.822819523807301e-08,-5.427050684030753e-07,5.751506128584745e-07,-5.540466922811508e-08,-7.002726975536846e-07,-3.634849465220814e-08,-1.6279626209089955e-07,-6.370962646514905e-07
-1.3603333930125442e-05,1.2216175281482101e-05,9.298665272596904e-08,5.825841917276193e-07,1.923906134142827e-07,-1.7699451548670777e-06,1.907274706439308e-07,-3.019388440308936e-07,-3.70676197829623e-07,2.2224115608412792e-07,-2.80403415768974e-07,-5.097083542182474e-07,6.593834633010399e-07,-3.443614836523673e-08,-6.861443832865888e-07,-3.8541738265663286e-08,-1.6760684284510487e-07,-6.621812684741631e-07
-1.2931405899260148e-05,1.0107010757238458e-05,-6.87426953202522e-08,5.483059129614986e-07,1.947478640678439e-07,-1.8231941140228879e-06,1.6507780260537473e-07,-3.0460932485802586e-07,-3.8509788859244644e-07,2.3269383339073755e-07,-4.648014371933949e-07,-4.852967069627341e-07,7.345389643125554e-07,-2.6840055075176088e-08,-6.781201121616547e-07,-4.646727546976895e-08,-1.798891879302439e-07,-6.841315733170222e-07
-1.1317086195482223e-05,6.908528545493386e-06,-1.8945834440232342e-07,5.202385710235112e-07,2.034587726203018e-07,-1.8721816166083264e-06,1.3310027849797416e-07,-3.066503497804129e-07,-4.0120311145694953e-07,2.400428339206317e-07,-5.835983630695878e-07,-4.673125173554787e-07,7.922900905457013e-07,-2.995108008537735e-08,-6.765749915480113e-07,-5.890557194082254e-08,-1.9775163127965245e-07,-6.991922437036901e-07
-8.95608782788184e-06,3.2882043161809594e-06,-2.373721254163e-07,4.966310173707939e-07,2.187836341391265e-07,-1.916513368895542e-06,9.989856677813632e-08,-3.075226444637137e-07,-4.1710575478410667e-07,2.4618697564964954e-07,-6.127093478063008e-07,-4.5299260019708783e-07,8.31420276980323e-07,-3.867143567006318e-08,-6.813108602003315e-07,-7.268474429657354e-08,-2.1762526871502346e-07,-7.056170800934906e-07
-6.08871662639265e-06,9.318997231868138e-08,-1.9898717619442306e-07,4.758789641874456e-07,2.4060114904589464e-07,-1.957621350798853e-06,6.908179128087646e-08,-3.0785261040484293e-07,-4.3054542979898446e-07,2.5164421260019143e-07,-6.139185874457106e-07,-4.412125038667083e-07,8.565028476021128e-07,-4.917831948276792e-08,-6.925492038852318e-07,-8.52179055938874e-08,-2.373349340091575e-07,-7.049585074513374e-07
-3.091353783277293e-06,-1.1853183639935408e-06,-8.733437497450395e-08,4.5592314074757903e-07,2.6639559430550266e-07,-2.0001659663697785e-06,4.361117437546692e-08,-3.1048913286758207e-07,-4.4074922601791445e-07,2.5431470912601133e-07,-6.010053095829236e-07,-4.334728394754573e-07,8.733038411048068e-07,-6.05848590902754e-08,-7.108279306368495e-07,-9.528507551167315e-08,-2.57007577522262e-07,-7.012655168381622e-07
-4.384175964503096e-07,-2.2651104496488076e-07,5.8757358640213207e-08,4.346756139116868e-07,2.9146683533476823e-07,-2.0503317291998514e-06,2.3790659460892846e-08,-3.1896976489035614e-07,-4.486843066591234e-07,2.511781228103445e-07,-5.718789409268159e-07,-4.3236011624411335e-07,8.849661802551977e-07,-7.353981864964739e-08,-7.354988586185343e-07,-1.0190056999298295e-07,-2.772156638629411e-07,-6.986495319420646e-07
1.4736073469567853e-06,5.474363490202973e-07,1.8686085433842137e-07,4.114583765538037e-07,3.1077580837644926e-07,-2.1117891273155264e-06,7.764474976299004e-09,-3.348416110155403e-07,-4.5566101211474486e-07,2.4106886548943934e-07,-5.360236307181303e-07,-4.3897820572165394e-07,8.919786401459638e-07,-8.80519189689636e-08,-7.633568467064001e-07,-1.0343855972443493e-07,-2.965973109710691e-07,-6.990712539913553e-07
2.481768816750278e-06,3.7311535331466213e-06,2.504741966484785e-07,3.878933155241293e-07,3.2054566461865687e-07,-2.182803735842133e-06,-4.948658814932679e-09,-3.5648795358107405e-07,-4.6194001843859745e-07,2.2561075879086234e-07,-4.992719544015398e-07,-4.5174658056770757e-07,8.941565588381054e-07,-1.028888662046491e-07,-7.8881576752316e-07,-9.857262481468847e-08,-3.1183120947732514e-07,-7.02007915651862e-07
2.6366112620400764e-06,8.148257932525096e-06,2.2686655933664316e-07,3.6716437009185885e-07,3.188220701030309e-07,-2.2569422827831982e-06,-1.4928968694992655e-08,-3.804901473595934e-07,-4.667404852138538e-07,2.0748124164285786e-07,-4.671501078126012e-07,-4.676569253533773e-07,8.906426231673588e-07,-1.1693869994391814e-07,-8.066487394630502e-07,-8.814473173559899e-08,-3.20030130888735e-07,-7.062690795156193e-07
2.043971209688943e-06,1.125510257961844e-05,1.2465863505699365e-07,3.521691983684941e-07,3.052397880588763e-07,-2.326395618798565e-06,-2.249951738274321e-08,-4.0416075379202093e-07,-4.6941856450649405e-07,1.8793268605599708e-07,-4.4426737052773385e-07,-4.84659195891772e-07,8.777317501216541e-07,-1.3081775245474907e-07,-8.150078907280593e-07,-7.580304798816718e-08,-3.2109960046744213e-07,-7.119780051464718e-07
7.918024958010914e-07,1.1574820077178958e-05,-2.255398099803302e-08,3.440575377099903e-07,2.8026883994550596e-07,-2.3848633433293674e-06,-2.8322414077112185e-08,-4.2687408542918064e-07,-4.7037092649509697e-07,1.6626410671005475e-07,-4.3233947668413594e-07,-5.0283366492439e-07,8.483845260714688e-07,-1.464088075265211e-07,-8.163826825402192e-07,-6.621219969733797e-08,-3.175134055683722e-07,-7.206884327200766e-07
-9.163402888676184e-07,1.1730862417899838e-05,-1.7272646501112263e-07,3.421660035858406e-07,2.4479860892222237e-07,-2.4281863022289915e-06,-3.3268798273783455e-08,-4.490747634631166e-07,-4.7062382736545133e-07,1.418345834006461e-07,-4.2877541601130905e-07,-5.233147925512918e-07,7.957296082866112e-07,-1.644536496327995e-07,-8.158677140433114e-07,-6.199181639683484e-08,-3.125865481246395e-07,-7.334763642882388e-07
-2.6206787006604362e-06,1.1097058695559197e-05,-2.919988560213414e-07,3.450980561188095e-07,2.0030675708881745e-07,-2.453593764954361e-06,-3.752846939200949e-08,-4.703748748565715e-07,-4.7069724151157693e-07,1.1623144121439485e-07,-4.277124547645216e-07,-5.460851995812544e-07,7.184193365920518e-07,-1.8298530428055741e-07,-8.179339560268359e-07,-6.207047143899016e-08,-3.077795758597687e-07,-7.490409464759057e-07
-3.7033529153789053e-06,7.461559904272178e-06,-3.623847381643909e-07,3.5178579773951636e-07,1.5130841296680066e-07,-2.459536370651408e-06,-3.849973075739813e-08,-4.891450643104101e-07,-4.7027587912812266e-07,9.296956041308607e-08,-4.241910972143311e-07,-5.690244892081981e-07,6.240569694272666e-07,-1.9833624235041117e-07,-8.241384808484478e-07,-6.293643999253034e-08,-3.021464447776981e-07,-7.639928664436106e-07
-3.6542867171936045e-06,3.0884730312028215e-06,-3.8022250302818034e-07,3.613245013900474e-07,1.0442846428759503e-07,-2.4469653256634148e-06,-3.1489322662144344e-08,-5.041724665539518e-07,-4.6921603399068203e-07,7.473551959848705e-08,-4.181321233880831e-07,-5.892035056069082e-07,5.283733868264142e-07,-2.0789655579179417e-07,-8.332697447847397e-07,-6.157121885854864e-08,-2.9442090779731817e-07,-7.750468864408276e-07
-2.267749601941966e-06,7.583138016712075e-08,-3.515456110589825e-07,3.7166872751374394e-07,6.490632094171239e-08,-2.420835275325739e-06,-1.682476415251425e-08,-5.164566341819611e-07,-4.686793498091584e-07,6.099317973189159e-08,-4.151497148002374e-07,-6.047064667669143e-07,4.50078290331841e-07,-2.1213585313665996e-07,-8.42515536308212e-07,-5.746539222332618e-08,-2.848395003004977e-07,-7.809410098236912e-07
3.181671677408525e-07,-1.1340069018327336e-06,-2.883099190821019e-07,3.792217997456881e-07,3.6948189235481636e-08,-2.3895810414309552e-06,1.891839819943854e-09,-5.288543837212038e-07,-4.708693187658464e-07,4.8690980327057264e-08,-4.2354600345181845e-07,-6.153885928814306e-07,4.0392384628056956e-07,-2.139149260930909e-07,-8.490644830870655e-07,-5.210111224961421e-08,-2.74249128649036e-07,-7.825328349687501e-07
3.695864492376528e-06,-6.629890602172764e-07,-2.0519408192257514e-07,3.8110124465564676e-07,2.3423979302453537e-08,-2.361913016896986e-06,2.2499805256124265e-08,-5.434900847693291e-07,-4.773575805176076e-07,3.561151603172279e-08,-4.4917090939085214e-07,-6.216043490944008e-07,3.9597664686728385e-07,-2.1589945422044747e-07,-8.506816916233918e-07,-4.674046616784747e-08,-2.627855602280051e-07,-7.81048265481126e-07
7.3212278940907215e-06,1.1256520534950144e-06,-1.1625293251071502e-07,3.7856047461703443e-07,2.502313858708851e-08,-2.3430193731133696e-06,4.085883400896835e-08,-5.593502749751454e-07,-4.875981559311631e-07,2.299955581755388e-08,-4.915025067539544e-07,-6.227742967318299e-07,4.2356487447506755e-07,-2.1852823493858433e-07,-8.461651387236778e-07,-4.09865323706421e-08,-2.4921825314275916e-07,-7.76423375679194e-07
1.064602101720039e-05,3.422446505393535e-06,-3.221600165443841e-08,3.7770327228598115e-07,3.97591719677895e-08,-2.332977260375138e-06,5.518281730327988e-08,-5.725925554430343e-07,-4.991315647539356e-07,1.4734209562530404e-08,-5.430564286281461e-07,-6.175989803138967e-07,4.785115258552513e-07,-2.204064456034173e-07,-8.35863272849276e-07,-3.3574997600593605e-08,-2.3198787870089428e-07,-7.675450356646228e-07
1.320412043445923e-05,5.351318850586528e-06,4.019763910090414e-08,3.859470031836086e-07,6.27119636360644e-08,-2.3282253117591914e-06,6.597433065391741e-08,-5.795810116210035e-07,-5.093462711916923e-07,1.3743864451333568e-08,-5.926870917413969e-07,-6.058305580034408e-07,5.50032452832666e-07,-2.2062166725309973e-07,-8.216478263547831e-07,-2.4387918125005427e-08,-2.116176309032884e-07,-7.54192791313883e-07
1.4646449531203462e-05,6.269822099175149e-06,9.673909146454155e-08,4.070342438671665e-07,8.693590086536656e-08,-2.324240674280243e-06,7.124867336992799e-08,-5.798835516254462e-07,-5.172220691995565e-07,1.910311727172736e-08,-6.299278720481085e-07,-5.898507041521848e-07,6.255471139092089e-07,-2.205430948046969e-07,-8.064270087333898e-07,-1.5466491782440275e-08,-1.9122996334012822e-07,-7.386367585557193e-07
1.4753115613751024e-05,5.939912670187689e-06,1.335503283892973e-07,4.386120851956352e-07,1.0653278471107577e-07,-2.3173259258841844e-06,6.937305120174577e-08,-5.762470250790033e-07,-5.235738818145174e-07,2.6763822826644232e-08,-6.479857339037355e-07,-5.74027357971454e-07,6.912231071132355e-07,-2.2299979353619474e-07,-7.928392581597331e-07,-9.785106689477532e-09,-1.7460428768180496e-07,-7.249381246505537e-07
1.3460933703465605e-05,4.542709549193048e-06,1.4756319159689037e-07,4.7378434409343163e-07,1.188677702363949e-07,-2.3047288834249454e-06,6.184218046657528e-08,-5.71524799197181e-07,-5.297945584792242e-07,3.3302921022928674e-08,-6.45414284994657e-07,-5.621187948584443e-07,7.348184131917828e-07,-2.294979985363242e-07,-7.81715129851287e-07,-8.643265282144175e-09,-1.6285466076470243e-07,-7.163843281788848e-07
1.0922508012810568e-05,2.6008167814387973e-06,1.4465666907124215e-07,5.048602410447223e-07,1.2708720630185595e-07,-2.284554931354969e-06,5.333938482390166e-08,-5.656788977183669e-07,-5.364720489877066e-07,3.904362098496751e-08,-6.272875460485903e-07,-5.547170157592537e-07,7.503935196760235e-07,-2.383157292958435e-07,-7.712363775472894e-07,-1.0018870311387003e-08,-1.556600580368973e-07,-7.13411465861228e-07
7.57752884286426e-06,7.768794613489975e-07,1.335805702398258e-07,5.263760148730455e-07,1.378931803492613e-07,-2.255615246543715e-06,5.052529215623103e-08,-5.558350463254007e-07,-5.427360817658236e-07,4.7663933248617105e-08,-6.055258963489149e-07,-5.490123341224136e-07,7.415331489533152e-07,-2.453422544002009e-07,-7.580367824807908e-07,-9.65277454347258e-09,-1.484155508986991e-07,-7.138474825118604e-07
4.128515407514957e-06,-3.9036425530770646e-07,1.3693636250067005e-07,5.357938019709157e-07,1.526500229567656e-07,-2.223983029723861e-06,5.865570193622985e-08,-5.393165427970251e-07,-5.48600628325004e-07,6.280369697659836e-08,-5.96967952116808e-07,-5.410490923016581e-07,7.203095798713814e-07,-2.468478082569633e-07,-7.395280543099128e-07,-4.154345807566009e-09,-1.4200615463509277e-07,-7.149604710517596e-07
1.3840011467213575e-06,-6.842315264884481e-07,1.7753932935682315e-07,5.326953560395591e-07,1.6521893230720094e-07,-2.198349821720831e-06,7.72826975519955e-08,-5.168162938833956e-07,-5.545718268451922e-07,8.490790097079493e-08,-6.188649051054954e-07,-5.284133675176375e-07,7.025956363502416e-07,-2.415614012846022e-07,-7.155140198512118e-07,6.6491117970891594e-09,-1.38355239629991e-07,-7.152339505978441e-07
-1.0025704972323851e-07,-2.486293294362506e-07,2.627104499920644e-07,5.183431391314653e-07,1.7802076459388473e-07,-2.187993543381492e-06,1.0985683974092812e-07,-4.927484105283777e-07,-5.621303407638762e-07,1.1126311994196484e-07,-6.829545199875119e-07,-5.109781367058837e-07,7.025240960925504e-07,-2.301332587427054e-07,-6.874459263373439e-07,2.0303944159893407e-08,-1.387497509578294e-07,-7.144144860699782e-07
-2.7294537651387353e-07,5.61841277856158e-07,3.8486835775377637e-07,4.962343124179007e-07,1.8809041868540817e-07,-2.1984511733122655e-06,1.525777139292271e-07,-4.72405846838878e-07,-5.729384348884266e-07,1.3892744302814876e-07,-7.899114714670396e-07,-4.894757093973216e-07,7.284841163688792e-07,-2.1283757657155071e-07,-6.567777226770651e-07,3.4595546106088966e-08,-1.4329954526773643e-07,-7.123285151278907e-07
4.4871432537730216e-07,1.3379795204962732e-06,5.245278791351181e-07,4.7252214495971437e-07,1.9384927639845168e-07,-2.2254310165230964e-06,1.8010334465969153e-07,-4.5844785317524495e-07,-5.866644656983582e-07,1.6722532141765584e-07,-9.265996106428362e-07,-4.639296953270366e-07,7.816155071023185e-07,-1.8840373105481637e-07,-6.232126927723667e-07,4.973254431181784e-08,-1.4807266480765524e-07,-7.080732462366158e-07
1.3163753005599394e-06,1.6977799848728578e-06,6.616247923971275e-07,4.549247354094562e-07,2.213945178743138e-07,-2.2568776664863464e-06,1.9177202732166338e-07,-4.496281672820621e-07,-6.008793969731065e-07,1.9728759744953193e-07,-1.0677485742680349e-06,-4.3365803386973046e-07,8.563367555196256e-07,-1.5572596960796544e-07,-5.859004699576284e-07,6.749699488914863e-08,-1.5038815688142502e-07,-7.004637585061852e-07
1.559885278962335e-06,1.3787445368849426e-06,7.498140016952005e-07,4.5002410921933895e-07,2.687491438845427e-07,-2.277581425911211e-06,1.8426523302472983e-07,-4.424238441966274e-07,-6.120828131387887e-07,2.2936439589372928e-07,-1.1822405228381655e-06,-3.984304145611543e-07,9.417701208600557e-07,-1.1710591640661528e-07,-5.455073435855536e-07,8.798130618962055e-08,-1.3602897071792702e-07,-6.891152820678742e-07
6.902229832922694e-07,3.023480252510524e-07,8.15390540367777e-07,4.6051019767144123e-07,3.1789259509457376e-07,-2.2869497857405877e-06,1.6359342894726754e-07,-4.336330854757941e-07,-6.211820311463505e-07,2.608640717803558e-07,-1.2417233711908463e-06,-3.593235210668543e-07,1.0237149626933764e-06,-7.992415471848553e-08,-5.049381620336941e-07,1.0717445489502063e-07,-1.209714391839642e-07,-6.748053409433447e-07
-1.2881368919511192e-06,-1.4142107186735643e-06,8.438704373757225e-07,4.845755843325785e-07,3.532564711512977e-07,-2.2604149564336326e-06,1.4249645127391886e-07,-4.2148684097706444e-07,-6.2183474680822e-07,2.873188135207633e-07,-1.2273144828887302e-06,-3.182120252894111e-07,1.0876944586825688e-06,-5.4506193241956586e-08,-4.6832479182653365e-07,1.1824322698587259e-07,-1.0195402328452237e-07,-6.585480931612613e-07
-3.86430268096689e-06,-3.498476792247477e-06,8.124092926496029e-07,5.182594788450353e-07,3.089183600824623e-07,-2.1922122758339934e-06,1.1909946212798012e-07,-4.0490408969126495e-07,-6.128934668218475e-07,3.05446000475894e-07,-1.132030603905045e-06,-2.764608258073954e-07,1.1226847449389665e-06,-4.9256268500559143e-08,-4.38994356100766e-07,1.1581516400479629e-07,-4.598873175005873e-08,-6.402893043845557e-07
-6.287155641412547e-06,-5.588590003005416e-06,7.86132032759993e-07,5.587348361387805e-07,1.999394610304126e-07,-2.08221324697448e-06,6.57131998724599e-08,-3.8272060086029773e-07,-5.939866094510761e-07,3.153010976748318e-07,-9.60584358108402e-07,-2.3438901290200122e-07,1.1236516316235428e-06,-6.671321498646797e-08,-4.185046741145799e-07,9.956965770770959e-08,2.116042787936049e-08,-6.186662797145717e-07
-7.95906956734463e-06,-7.307669288904304e-06,6.985287668651164e-07,6.053704896766284e-07,1.547223978766665e-07,-1.9021278308825178e-06,-9.679765572290782e-09,-3.543799393720945e-07,-5.555985848035778e-07,3.194955942229887e-07,-7.281967060998099e-07,-1.9240916288506194e-07,1.0916711550809896e-06,-1.0328873574977915e-07,-4.0694122875778953e-07,7.428086569703274e-08,1.0702010032898149e-07,-5.924119820206618e-07
-8.706020807698034e-06,-8.33689810293533e-06,5.782063324769601e-07,6.577052908042381e-07,1.2984408474696177e-07,-1.6891204188310098e-06,-1.0066858802719084e-07,-3.2150926989185626e-07,-5.083375501788045e-07,3.2043365928893835e-07,-4.5812767327945604e-07,-1.5276022250580375e-07,1.0324014708192826e-06,-1.5223609911593147e-07,-4.037846962125959e-07,4.6919114707458343e-08,2.0150566668993953e-07,-5.622915470856224e-07
-8.753339368240862e-06,-8.469277134484049e-06,4.795492262629943e-07,7.126042340090833e-07,3.4650635568613624e-08,-1.4550981056257518e-06,-2.449834758464459e-07,-2.884504497978956e-07,-4.56460503924464e-07,3.184291723490257e-07,-1.772793576964927e-07,-1.1956549178193958e-07,9.545369505520583e-07,-2.0682869904178514e-07,-4.0778810982506917e-07,2.3857114199689834e-08,2.730567446588931e-07,-5.314316869198884e-07
-8.52204082767337e-06,-7.652099293111978e-06,3.760419923031859e-07,7.636559130228714e-07,-6.72320350371376e-08,-1.2080212563405745e-06,-4.2282849274448396e-07,-2.604396819142792e-07,-4.0429157458953834e-07,3.125928841354228e-07,8.962248845977256e-08,-9.648169872228828e-08,8.690656050272884e-07,-2.6151083663385173e-07,-4.1654751582681283e-07,1.0441483960459883e-08,3.4456137988520696e-07,-5.032644812084128e-07
-8.385363643943344e-06,-6.008565765659934e-06,3.445533815498896e-07,8.034296630139955e-07,-1.8696567626203702e-07,-9.853024470235899e-07,-6.247671751350286e-07,-2.4042269065039334e-07,-3.650881319107845e-07,3.0328661572599296e-07,3.2543153810836097e-07,-8.384713034501885e-08,7.884665184439137e-07,-3.113833384255052e-07,-4.2684456501368325e-07,1.2059662633902049e-08,3.9622989182371214e-07,-4.789928202921708e-07
-8.33280897652133e-06,-3.82816304568907e-06,3.8569038937135723e-07,8.27038927372758e-07,-3.3871571331786665e-07,-7.72511278363017e-07,-8.200573753898768e-07,-2.2719460295671435e-07,-3.347188488719859e-07,2.931097903172885e-07,5.234241513227622e-07,-7.8143907140581e-08,7.244466444854103e-07,-3.520693855089274e-07,-4.358452353829593e-07,3.395628029906878e-08,4.2597014211979e-07,-4.5717845249410785e-07
-8.288388480583212e-06,-1.5166447791100484e-06,4.690727127265138e-07,8.344840787854107e-07,-4.631615767670163e-07,-5.725684482589419e-07,-1.0123766723306386e-06,-2.1649189028561551e-07,-3.1154205427133365e-07,2.850553793490668e-07,6.865919233802501e-07,-7.453415290418648e-08,6.845826205885024e-07,-3.8105141327215447e-07,-4.4276509468378427e-07,7.880505351290333e-08,4.5470724201821997e-07,-4.358507539807193e-07
-8.006757008115328e-06,4.805161329804984e-07,5.859100533671848e-07,8.302237446354913e-07,-5.467527205700757e-07,-3.893001215062205e-07,-1.1524534952379923e-06,-2.038980998285095e-07,-2.920655078114735e-07,2.7976293521406573e-07,8.241655320861514e-07,-7.03186474788839e-08,6.701164067701853e-07,-3.991633498108239e-07,-4.499680590864899e-07,1.4417473453524517e-07,4.78746883223836e-07,-4.1498125026461554e-07
-7.223817975927957e-06,1.8796149994528546e-06,6.890616548476645e-07,8.207833354861214e-07,-5.885917762814572e-07,-2.108683452091082e-07,-1.2452590386105973e-06,-1.8686948447891805e-07,-2.677847451100365e-07,2.7502470539925126e-07,9.470072310477654e-07,-6.627101184352444e-08,6.765483303156995e-07,-4.1008041841813947e-07,-4.6214805507587703e-07,2.2269802629948784e-07,5.017307848531485e-07,-3.9683960381329916e-07
-6.2048830627354595e-06,2.6995529781823936e-06,7.528976350717815e-07,8.117455645866622e-07,-5.982506294884111e-07,-3.895971877018203e-08,-1.3561748191380326e-06,-1.6436558458526504e-07,-2.357436944770215e-07,2.6840245204271867e-07,1.062749193782761e-06,-6.486393855969014e-08,6.962507929925474e-07,-4.176366936768617e-07,-4.836853787378626e-07,3.0523626153766183e-07,5.241409889858418e-07,-3.8396579903803704e-07
-5.317628050629455e-06,3.202780135992962e-06,7.719656801903802e-07,8.056341060814797e-07,-5.890621966779239e-07,1.2980640121205834e-07,-1.4451463621021231e-06,-1.3530093793679818e-07,-1.936673734826809e-07,2.602143182289306e-07,1.1717469533561224e-06,-6.735102164282618e-08,7.209569539116121e-07,-4.234268374627892e-07,-5.157915726309719e-07,3.8446712067164327e-07,5.463068932178647e-07,-3.768928716320745e-07
-5.059593706487216e-06,3.7286637539798974e-06,7.543144605116687e-07,8.016330758253003e-07,-5.622277642848995e-07,2.974554375320175e-07,-1.5379453879845463e-06,-9.835095185767363e-08,-1.417721563477152e-07,2.5359607675565297e-07,1.265220607223109e-06,-7.233935687653712e-08,7.429466532992461e-07,-4.269443869733745e-07,-5.559654456248335e-07,4.5621511598670805e-07,5.685585608060186e-07,-3.7376334957778315e-07
-5.862042774296794e-06,4.425155795344008e-06,7.189097666956632e-07,7.965537170705981e-07,-5.196770526516908e-07,4.58397324700824e-07,-1.5945759082399903e-06,-5.3994132101166944e-08,-8.415897755053567e-08,2.514378876973427e-07,1.327338923764588e-06,-7.702774124741441e-08,7.554086936949314e-07,-4.278537193617817e-07,-5.999397748029984e-07,5.183027726550319e-07,5.905848207408014e-07,-3.719158022601662e-07
-8.016145663359212e-06,5.15363837649477e-06,6.809136736804345e-07,7.863120025291138e-07,-4.6882106660154304e-07,6.013854258047525e-07,-1.5787809471018363e-06,-6.708017908544101e-09,-2.749013569381467e-08,2.532522739673609e-07,1.3424349556375311e-06,-7.97190184760225e-08,7.531062552498476e-07,-4.27932603868436e-07,-6.438471996656788e-07,5.689166095885119e-07,6.115623766697353e-07,-3.697680457375057e-07
-1.0918257364229327e-05,5.624105809875191e-06,6.453213108092481e-07,7.680734760015566e-07,-4.2379244063279e-07,7.13246189319331e-07,-1.552367762427034e-06,3.576379113737295e-08,2.1137106779304405e-08,2.5523377586276015e-07,1.304754946821381e-06,-8.110808821554142e-08,7.341455219444601e-07,-4.305245124283838e-07,-6.850846124735845e-07,6.064656205055779e-07,6.269038564278408e-07,-3.6720868642756404e-07
-1.36573720326849e-05,5.577870496441287e-06,6.121283946095556e-07,7.42827295090207e-07,-3.9732247027968803e-07,7.864502202540896e-07,-1.5238097387415618e-06,6.647420933670577e-08,5.7474639836739714e-08,2.535360211707517e-07,1.2247137308584157e-06,-8.317660095089158e-08,7.019997490207095e-07,-4.378990088833332e-07,-7.219582216023014e-07,6.308827714148461e-07,6.344169078714139e-07,-3.643326090532595e-07
-1.543757170899151e-05,4.898732016588309e-06,5.847427313255027e-07,7.165440469118293e-07,-3.8920674576191066e-07,8.244526277660684e-07,-1.4599490970844478e-06,8.332533775646418e-08,8.226174429450186e-08,2.473893361568312e-07,1.126631166618113e-06,-8.719798386620644e-08,6.652203222353028e-07,-4.4921504294765523e-07,-7.533962409489164e-07,6.44461966394562e-07,6.349974520987004e-07,-3.602214473263432e-07
-1.5299890227521854e-05,3.6291437161939497e-06,5.707013015085739e-07,6.984373659985747e-07,-3.8993678251750916e-07,8.402396951443635e-07,-1.4008054698075324e-06,8.94319671324235e-08,1.0045597388852408e-07,2.3889722521122984e-07,1.0388071434255238e-06,-9.316292814060297e-08,6.334708500536082e-07,-4.611722171356302e-07,-7.795009976222421e-07,6.507594642653441e-07,6.306439100769758e-07,-3.5340175321050096e-07
-1.3307122410822277e-05,1.9226372006228694e-06,5.739945243294983e-07,6.96935144870718e-07,-3.930906957205595e-07,8.491343514778854e-07,-1.3176423289078784e-06,8.95780501153345e-08,1.1794199499673497e-07,2.2987252410548954e-07,9.82018060727567e-07,-1.0098693306758834e-07,6.117993031611634e-07,-4.7079549824469674e-07,-8.023907271508664e-07,6.52281657359969e-07,6.222482612269922e-07,-3.436921240325853e-07
-1.0269383342348813e-05,-1.6435032554830918e-08,5.885447887246999e-07,7.153860228801196e-07,-3.9475884574327677e-07,8.614591210403139e-07,-1.2348000179960508e-06,8.614758814334407e-08,1.3803928898600868e-07,2.1909855171337671e-07,9.62993148263564e-07,-1.1178864666135637e-07,5.968774588753553e-07,-4.777291494927244e-07,-8.258048593185273e-07,6.492398854250107e-07,6.101862167039946e-07,-3.335121750583126e-07
-6.439023512680462e-06,-1.9414694801038177e-06,6.000484280671496e-07,7.499235083590351e-07,-3.938664081188128e-07,8.802079329728756e-07,-1.193355647227361e-06,7.827771927808163e-08,1.6026013801557734e-07,2.030015769973374e-07,9.7558018451686e-07,-1.273949986101004e-07,5.783643436213981e-07,-4.837997141054867e-07,-8.528282054098482e-07,6.409232351254013e-07,5.938940945222718e-07,-3.270366457321084e-07
-1.703453534995447e-06,-3.595933095321827e-06,5.938210839470091e-07,7.906145364499974e-07,-3.904070559659435e-07,9.042368675057824e-07,-1.1515280914994643e-06,6.46897981952712e-08,1.819046125054354e-07,1.792197736034474e-07,1.007136706880755e-06,-1.4829230010364792e-07,5.455551159143946e-07,-4.90322735785831e-07,-8.834378952728776e-07,6.286146639894808e-07,5.738153978862786e-07,-3.2763711297456376e-07
3.0857015657193415e-06,-4.801070216457093e-06,5.618404664705937e-07,8.249594140458189e-07,-3.824044323508562e-07,9.329760001956038e-07,-1.1350631030749656e-06,4.6960176722786126e-08,2.007097088843643e-07,1.4958847468380668e-07,1.0446066822838895e-06,-1.720625157336725e-07,4.950032929594075e-07,-4.961055993889273e-07,-9.13403986542254e-07,6.16899522040142e-07,5.529237480909807e-07,-3.360120377007273e-07
8.024919895934464e-06,-5.502282222310026e-06,5.046955246351058e-07,8.417554433203601e-07,-3.680626074405101e-07,9.681909586317135e-07,-1.1034938898846758e-06,2.9709181955749692e-08,2.1610505163524974e-07,1.1975192426045844e-07,1.0761973099176105e-06,-1.9399826153601434e-07,4.3349204654077845e-07,-4.983756069084017e-07,-9.373630892317886e-07,6.113443092625122e-07,5.344740529732535e-07,-3.507552190826153e-07
1.2429489749257207e-05,-5.745345278246523e-06,4.289669787378054e-07,8.338728017238866e-07,-3.483250894777418e-07,1.0114939128888782e-06,-1.0740154942938788e-06,1.7296542099194525e-08,2.2826551925218605e-07,9.577474489517864e-08,1.0899137240111958e-06,-2.0961476884066725e-07,3.745493344443013e-07,-4.956947331097943e-07,-9.520965576594288e-07,6.143227477755232e-07,5.196451792972445e-07,-3.706666422011933e-07
1.4591438622229476e-05,-5.601554888797923e-06,3.44113941163446e-07,7.997079284135889e-07,-3.2864956808465696e-07,1.0606400747606997e-06,-1.0566736920638017e-06,1.0090221572240438e-08,2.3640500782329146e-07,8.071008105746347e-08,1.0739334226248887e-06,-2.170522550761745e-07,3.31583311416672e-07,-4.898940386604353e-07,-9.587982172121968e-07,6.230526193470154e-07,5.064108866481682e-07,-3.961549348383189e-07
1.5050414944388569e-05,-5.127690924834906e-06,2.6171547824474646e-07,7.43397260738501e-07,-3.1819387246103853e-07,1.1085992788156366e-06,-1.035351479372208e-06,4.096638897220944e-09,2.384530905589296e-07,7.403624856081288e-08,1.0209218700410648e-06,-2.1731632044102214e-07,3.1245145540891104e-07,-4.850697333154999e-07,-9.619548713044543e-07,6.319511432912649e-07,4.911062912600315e-07,-4.2819005110713077e-07
1.4326668244314641e-05,-4.402987575450572e-06,1.948717218026473e-07,6.737945530180158e-07,-3.2489658922888267e-07,1.1468286520246111e-06,-1.015848866988275e-06,-5.4717045965952115e-09,2.326890093540868e-07,7.405255041532285e-08,9.329284093781758e-07,-2.1236507385594605e-07,3.1795363835092504e-07,-4.845417354052257e-07,-9.654653451728444e-07,6.373246116727723e-07,4.7150312996498597e-07,-4.6598937819128055e-07
1.238284161306256e-05,-3.5517466754197085e-06,1.5426601530390908e-07,6.023583388139585e-07,-3.493869376394842e-07,1.1700581333193398e-06,-9.825536093811694e-07,-2.019465974853147e-08,2.196895109840469e-07,8.032201847114861e-08,8.222594788355999e-07,-2.0327717928937752e-07,3.43168271893682e-07,-4.88695182821677e-07,-9.70259736227507e-07,6.402099807851809e-07,4.483696360299043e-07,-5.058933090952556e-07
9.435765835156403e-06,-2.735857103033907e-06,1.4260000534388038e-07,5.402860331898346e-07,-3.8283466391371156e-07,1.1785051386873615e-06,-9.414096469642724e-07,-3.7824535361264254e-08,2.0250985632000694e-07,9.343222971906395e-08,7.067854282126459e-07,-1.9051314132590132e-07,3.796006735825762e-07,-4.955022032848661e-07,-9.74927887063227e-07,6.449200869288036e-07,4.242273710852613e-07,-5.426422959071876e-07
6.536922404829095e-06,-2.1219989108745063e-06,1.5331581211633442e-07,4.955865402806738e-07,-4.1141837152439527e-07,1.17621200189254e-06,-9.034258937010518e-07,-5.527833164958767e-08,1.8477772348253055e-07,1.1251408371114142e-07,6.020705614330003e-07,-1.7569614231254197e-07,4.173907521122897e-07,-5.028630907014992e-07,-9.784775792594268e-07,6.548379139668848e-07,4.0070091708486664e-07,-5.720197004844272e-07
4.286461752357033e-06,-1.8409630026237812e-06,1.755345097033747e-07,4.7127533077828804e-07,-4.2462581388742664e-07,1.1677095053515684e-06,-8.744962393210478e-07,-7.19509183065989e-08,1.6843025451720173e-07,1.336759446943358e-07,5.156794481996254e-07,-1.6250824693331417e-07,4.477705699343263e-07,-5.102341830384617e-07,-9.818952410658073e-07,6.693121175628762e-07,3.772254135200834e-07,-5.928548376590465e-07
1.967547316581863e-06,-1.9736938444585264e-06,1.9967631995357136e-07,4.6582420362244605e-07,-4.20841693889685e-07,1.156247238333943e-06,-8.478591611980249e-07,-8.994633652890032e-08,1.5311132797106768e-07,1.518064821279282e-07,4.479423730270559e-07,-1.5521176843514428e-07,4.6600406797906897e-07,-5.178546428451302e-07,-9.875909840751712e-07,6.843773366506851e-07,3.525141133917124e-07,-6.069694025145532e-07
-2.727695813953914e-07,-2.5546469524396966e-06,2.1838630552144357e-07,4.75626412527774e-07,-4.062063577765812e-07,1.144183763482187e-06,-8.222391021522709e-07,-1.1122084319508609e-07,1.3753837091947352e-07,1.6450895659632174e-07,3.9750864390610547e-07,-1.5591901027917464e-07,4.738000422936081e-07,-5.245979486445546e-07,-9.970912800118094e-07,6.963232788285979e-07,3.270495633985749e-07,-6.174339666502255e-07
-1.963992839279326e-06,-3.5445921424915286e-06,2.2455029196765513e-07,4.973863878378419e-07,-3.8941431511113366e-07,1.1334058195476007e-06,-7.949620040414461e-07,-1.349259843589677e-07,1.2127965388116416e-07,1.74373905204672e-07,3.663606954369118e-07,-1.631457369651395e-07,4.785828104712253e-07,-5.271152580146529e-07,-1.0092877311277788e-06,7.047794929722239e-07,3.0374260800525476e-07,-6.268421697694422e-07
-3.1065091414301062e-06,-4.776870812471715e-06,2.1134051586836627e-07,5.287318924622225e-07,-3.779180965706897e-07,1.1240292209316558e-06,-7.601059734641084e-07,-1.5781460769717984e-07,1.051928237933299e-07,1.872134210371296e-07,3.6109150232501926e-07,-1.729930746466375e-07,4.884921041896516e-07,-5.216400548815468e-07,-1.0210182797052333e-06,7.127389993340644e-07,2.857969425023888e-07,-6.371104017619143e-07
-3.737007668553632e-06,-5.95758416264861e-06,1.756286701215959e-07,5.671612333818552e-07,-3.7724918601731e-07,1.1123972392557542e-06,-7.185408434762977e-07,-1.7729464833303696e-07,9.021764187708919e-08,2.074350394151323e-07,3.899926723153172e-07,-1.8200203975719624e-07,5.061901078520745e-07,-5.071758678470067e-07,-1.029348431262263e-06,7.235782090124253e-07,2.736470549385497e-07,-6.50510535794627e-07
-3.887453866705099e-06,-6.753090447360634e-06,1.2141535372810144e-07,6.086188342559495e-07,-3.910607846214681e-07,1.0910218543320275e-06,-6.754228799119017e-07,-1.9405717044675928e-07,7.589128281461937e-08,2.3425752985363363e-07,4.570039072883889e-07,-1.8922223767064867e-07,5.263905246060896e-07,-4.873151116222364e-07,-1.03358007283384e-06,7.376378695418208e-07,2.6392319975114687e-07,-6.699617156281621e-07
-3.617501991103652e-06,-6.923038168479001e-06,5.8993265600996994e-08,6.470425424722006e-07,-4.1985721216715343e-07,1.0517995627277431e-06,-6.297652053656612e-07,-2.1142975994226148e-07,6.033750602390115e-08,2.621559450877621e-07,5.555840799563858e-07,-1.9560492757829751e-07,5.391032203710465e-07,-4.687192035464399e-07,-1.0352210528825143e-06,7.513940459571801e-07,2.516659792871593e-07,-6.973385346225791e-07
-3.189986882928972e-06,-6.413612855347683e-06,1.6392986827148566e-10,6.75510777357339e-07,-4.5916308485686155e-07,9.907488638858019e-07,-5.910474408226419e-07,-2.317650202421094e-07,4.204867061424773e-08,2.8536102015276843e-07,6.663003532688212e-07,-2.0128153701589765e-07,5.357705526431097e-07,-4.5710514231969184e-07,-1.0358467428346974e-06,7.599235440145295e-07,2.3406030804633442e-07,-7.310904243815103e-07
-3.0637421764282807e-06,-5.383132443653479e-06,-4.579830144201803e-08,6.887609000210331e-07,-4.992170587955605e-07,9.106448547817804e-07,-5.682469837337065e-07,-2.533729783463421e-07,2.1875618064798676e-08,3.0249833762991714e-07,7.600626896307625e-07,-2.0335957943755588e-07,5.136627515320472e-07,-4.5388100665709924e-07,-1.0346888294311796e-06,7.603446433939942e-07,2.1286456151569985e-07,-7.657053904116877e-07
-3.660544881462389e-06,-4.140028235050217e-06,-7.289590181213903e-08,6.858705657039138e-07,-5.273962962792644e-07,8.194855472735259e-07,-5.616844908270285e-07,-2.711156703023271e-07,3.236769666479669e-09,3.172825285812345e-07,8.05992854780179e-07,-1.964866128708455e-07,4.765541116208953e-07,-4.559626662251274e-07,-1.0278344718095472e-06,7.532871009659789e-07,1.933922437334375e-07,-7.941246011616945e-07
-5.101865281013431e-06,-2.9873500504703297e-06,-7.724689789463265e-08,6.708892727511708e-07,-5.332106268422352e-07,7.262739826085349e-07,-5.681560082459197e-07,-2.803170764933412e-07,-9.957436942294304e-09,3.3485216398277037e-07,7.806332639620214e-07,-1.762296347312654e-07,4.328165128185682e-07,-4.586709513351815e-07,-1.0102484386617896e-06,7.41604521881028e-07,1.8084079341258503e-07,-8.115765838253041e-07
-7.082101660031935e-06,-2.0952445498482294e-06,-5.576897300853847e-08,6.50276690208371e-07,-5.14031453399193e-07,6.372123087871267e-07,-5.796631476788962e-07,-2.8080459027507427e-07,-1.610872415356348e-08,3.570660395720874e-07,6.752530018880813e-07,-1.4280405931724633e-07,3.9250017068090097e-07,-4.5921422935591476e-07,-9.79514765523996e-07,7.27862233721301e-07,1.766273268645958e-07,-8.179696490912933e-07
-8.951524056910192e-06,-1.4456884072060583e-06,-5.868482651110135e-09,6.292980390578186e-07,-4.777768533953624e-07,5.546805803267284e-07,-5.881138882530942e-07,-2.7781011796051765e-07,-1.7442101826613895e-08,3.808428906415074e-07,4.996212220213529e-07,-1.021021414083643e-07,3.64430748176558e-07,-4.577295980792709e-07,-9.383047617591456e-07,7.132247037838234e-07,1.7759577523863552e-07,-8.171421537825044e-07
-9.976335905146086e-06,-9.009999159983693e-07,7.329076078298068e-08,6.105696161001297e-07,-4.3955911175089937e-07,4.794846350604488e-07,-5.893911226660102e-07,-2.788096177678245e-07,-1.8448997156513475e-08,4.008392897370737e-07,2.812360095124122e-07,-6.290627821992151e-08,3.543295711808458e-07,-4.552505956118431e-07,-8.935491634069103e-07,6.988618118673863e-07,1.787799536296546e-07,-8.138356257003256e-07
-9.673283234683164e-06,-3.6097146123767696e-07,1.7926941388985944e-07,5.953693132779905e-07,-4.1371473809612696e-07,4.14305484600727e-07,-5.803824085332931e-07,-2.885591697915049e-07,-2.2794811738782735e-08,4.138311690429416e-07,5.9330558266393134e-08,-3.247838583105493e-08,3.645341025509924e-07,-4.5108904963345967e-07,-8.529387352197571e-07,6.878913823175807e-07,1.7710088942904512e-07,-8.108830856992037e-07
-8.052727031437606e-06,1.361351928531621e-07,3.063528196254578e-07,5.857444647986918e-07,-4.065715827607443e-07,3.6503841221341514e-07,-5.670002034842452e-07,-3.060713382641079e-07,-3.035392496690804e-08,4.209877733434694e-07,-1.2529433396543235e-07,-1.3671577630297445e-08,3.946489709831113e-07,-4.4235658768119216e-07,-8.214185476725135e-07,6.852447973419722e-07,1.729886531542869e-07,-8.084791393138251e-07
-5.604917405961835e-06,4.451179352593609e-07,4.4612721146215894e-07,5.851580847541576e-07,-4.149147221759987e-07,3.384663024671215e-07,-5.534557562178817e-07,-3.2574507754430776e-07,-3.763741491849217e-08,4.2635680468828295e-07,-2.4182957863727206e-07,-5.045694281899321e-09,4.418673704852221e-07,-4.25946870239576e-07,-7.997732066083926e-07,6.952624520702214e-07,1.6908273805936368e-07,-8.055888181250536e-07
-3.0292732897448993e-06,4.2997899043706384e-07,5.868593413135918e-07,5.967285561958608e-07,-4.304725023625373e-07,3.380901309577194e-07,-5.402608277474319e-07,-3.4166631267495463e-07,-4.0558992497854133e-08,4.3300954672987514e-07,-2.7886387366925277e-07,-3.232696614017435e-09,5.007931690076655e-07,-4.012528893014999e-07,-7.856305740691466e-07,7.191810277592923e-07,1.676867321425653e-07,-8.019813712767241e-07
-9.148853988357606e-07,6.800591519999844e-08,7.133543405616335e-07,6.203085050565024e-07,-4.4591811352743333e-07,3.6129460738566475e-07,-5.282588470377364e-07,-3.515618881542303e-07,-3.732157040316801e-08,4.4019669017783594e-07,-2.477127891030301e-07,-5.3027545894521195e-09,5.639028907922438e-07,-3.713586356843591e-07,-7.754546030747731e-07,7.545662510510541e-07,1.692812987701168e-07,-7.989732790796037e-07
4.2049926270799133e-07,-4.914859833123474e-07,8.102135648168515e-07,6.511682273920108e-07,-4.578309768008214e-07,3.999993769690244e-07,-5.163854903080791e-07,-3.571207642965008e-07,-2.9660407889385954e-08,4.441545098262881e-07,-1.7718792655568083e-07,-9.243097357097662e-09,6.231757714525506e-07,-3.414036299032576e-07,-7.657756768968116e-07,7.970588140550618e-07,1.7324406729582818e-07,-7.9810136149064e-07
9.31587064375341e-07,-9.50165665755267e-07,8.673344038799835e-07,6.820471456451945e-07,-4.6604445946840465e-07,4.445401491727606e-07,-5.049122976462786e-07,-3.607990771262294e-07,-2.1141853289746533e-08,4.418457463706579e-07,-1.0114620490297373e-07,-1.2789755591425028e-08,6.718755159701396e-07,-3.1520498815939186e-07,-7.534225457333906e-07,8.428878079497236e-07,1.796618039834536e-07,-7.989018823729993e-07
7.982841076419077e-07,-9.651294408654582e-07,8.833759360786075e-07,7.070471177749195e-07,-4.713247397299878e-07,4.883884908004798e-07,-4.931580940708692e-07,-3.625993087618335e-07,-1.4443783891278931e-08,4.3397747312617743e-07,-4.7542231898947445e-08,-1.2711017088086473e-08,7.057321794313702e-07,-2.930102961588875e-07,-7.359162952333984e-07,8.899225086688521e-07,1.899858404699898e-07,-7.979939663763454e-07
3.614270912661108e-07,-2.8409357068786183e-07,8.64818124212772e-07,7.236445453876318e-07,-4.7342598772723615e-07,5.307947827065426e-07,-4.828699313843708e-07,-3.59975538489111e-07,-9.84499965368512e-09,4.244047239761356e-07,-3.001155081972122e-08,-5.857149135914121e-09,7.238621621600394e-07,-2.722829493700317e-07,-7.128574319008007e-07,9.365680723137882e-07,2.0562674315322833e-07,-7.906832882970021e-07
2.196601841044097e-08,1.1179899592457353e-06,8.219239542583726e-07,7.311587310209571e-07,-4.713928842832162e-07,5.755013485898346e-07,-4.7252853759316266e-07,-3.507196454942727e-07,-6.148544062101304e-09,4.1658228095393777e-07,-4.954683596334833e-08,8.85311821944531e-09,7.291334796178645e-07,-2.506401703344814e-07,-6.864616013002809e-07,9.802072696450846e-07,2.2586148142921246e-07,-7.741572171982657e-07
1.1386926829288493e-07,2.9694138025499376e-06,7.650849759404309e-07,7.281183452811309e-07,-4.6580655564472756e-07,6.263698545495206e-07,-4.603426612986682e-07,-3.3589023700340193e-07,-2.218173034803359e-09,4.1054740558556657e-07,-1.005476101151977e-07,2.9501490886648782e-08,7.269463849620882e-07,-2.2818753112943365e-07,-6.608173391086792e-07,1.0175476112670754e-06,2.4744867374847655e-07,-7.496939022488969e-07
7.544054720921166e-07,4.730272137645805e-06,7.046879401476242e-07,7.119434286674655e-07,-4.5932403381329216e-07,6.83460392609563e-07,-4.4706442739786996e-07,-3.197548681423486e-07,2.1048793549174614e-09,4.0338080828815465e-07,-1.7506496574270347e-07,5.251239772746596e-08,7.227133775906183e-07,-2.0712993650917105e-07,-6.387610690962696e-07,1.0471035648513553e-06,2.668967179370102e-07,-7.220544857267942e-07
1.7103319590894994e-06,5.787413521243488e-06,6.535366839309654e-07,6.81316264848893e-07,-4.533821870964235e-07,7.429582307221659e-07,-4.328154367180258e-07,-3.065077166884243e-07,6.72299948576381e-09,3.927234681021741e-07,-2.655715619703299e-07,7.531784691633886e-08,7.195815530557903e-07,-1.8918718390445936e-07,-6.200263875131686e-07,1.0712104506321841e-06,2.8322113416019193e-07,-6.963206420528537e-07
2.4189067589527884e-06,5.74987462129038e-06,6.262173212230422e-07,6.386136135100793e-07,-4.4457565496955577e-07,8.001698144334223e-07,-4.1754723772620657e-07,-2.9681738186712373e-07,1.2522831414671578e-08,3.7983215688845256e-07,-3.652943713004121e-07,9.790690735471478e-08,7.175337509031351e-07,-1.7354644771753595e-07,-6.015487578794683e-07,1.0950119160097203e-06,2.9831967755747254e-07,-6.753910283832043e-07
2.2521459568854944e-06,4.617228168327596e-06,6.3221765716103e-07,5.89950805649925e-07,-4.2575029468679556e-07,8.515670150787666e-07,-3.9803573489999974e-07,-2.876055987069084e-07,2.1441080346690703e-08,3.691449444137617e-07,-4.680118443379102e-07,1.218053262058095e-07,7.142143325087381e-07,-1.575188925823864e-07,-5.794951861487072e-07,1.122847030924144e-06,3.1452394360027853e-07,-6.598098571547583e-07
8.79917029903621e-07,2.7175361912456246e-06,6.678212053287938e-07,5.426924706427605e-07,-3.918934505880963e-07,8.937610831038073e-07,-3.7090259409301195e-07,-2.753600069978858e-07,3.4247776370110396e-08,3.6464578280818804e-07,-5.672772695417471e-07,1.473610025025048e-07,7.0705844381477e-07,-1.393587975331664e-07,-5.529345255934939e-07,1.1548409062557306e-06,3.3157848738708794e-07,-6.493971517820993e-07
-1.5281286051209844e-06,5.083497244217123e-07,7.149391486838082e-07,5.022033228931253e-07,-3.455204998665269e-07,9.217360774790819e-07,-3.360550842416519e-07,-2.5972966832356587e-07,4.9387168364900594e-08,3.6632303972314646e-07,-6.568915679191281e-07,1.7184897310099047e-07,6.95463495436769e-07,-1.2042611681602516e-07,-5.250807454795103e-07,1.1862265643961687e-06,3.458329010537954e-07,-6.445880740149896e-07
-4.358168465214287e-06,-1.5983062342851818e-06,7.488053048240613e-07,4.7019367421386644e-07,-2.963382776843827e-07,9.300425008201945e-07,-2.966972883770208e-07,-2.437449881516831e-07,6.332692064317948e-08,3.701474670651577e-07,-7.315433610585357e-07,1.9037514660737486e-07,6.815751222129694e-07,-1.0433439018575419e-07,-5.01709904570249e-07,1.2100684472801147e-06,3.5256073210036195e-07,-6.457823453193354e-07
-6.7814638280849175e-06,-3.3214159402786695e-06,7.484080169743431e-07,4.4592401648541475e-07,-2.5533923439583944e-07,9.169872152600721e-07,-2.593323438418216e-07,-2.3050538887668666e-07,7.277296027944453e-08,3.7160549748875485e-07,-7.876569922394546e-07,1.990739110709954e-07,6.690922791680171e-07,-9.382525793055139e-08,-4.875376163849018e-07,1.2217809722824394e-06,3.49500213969149e-07,-6.516120140481385e-07
-8.071771350295144e-06,-4.510657466864539e-06,7.026237940560401e-07,4.289982282277424e-07,-2.283594221734948e-07,8.877825965498069e-07,-2.2958133179794562e-07,-2.1983801519218845e-07,7.737401944190768e-08,3.6923369170815954e-07,-8.241531341669472e-07,1.9789696554922423e-07,6.610926983548401e-07,-8.796637249854632e-08,-4.835607990580236e-07,1.2222716013989603e-06,3.3885405828856236e-07,-6.581547403929898e-07
-7.901332996007012e-06,-5.109296179484527e-06,6.10951109954838e-07,4.20806823724089e-07,-2.1381683298060238e-07,8.531549405067002e-07,-2.088904988385504e-07,-2.0824276795724786e-07,8.011745518064429e-08,3.647561149690501e-07,-8.423873349864912e-07,1.9058340497915128e-07,6.585567275836355e-07,-8.30474427307928e-08,-4.874014040985e-07,1.2171112163730737e-06,3.257964772001824e-07,-6.604727761449347e-07
-6.45569798882006e-06,-5.132337948749744e-06,4.821745694201138e-07,4.2284941503315086e-07,-2.0545803962456797e-07,8.240403197208942e-07,-1.9473855305983536e-07,-1.9209221770727107e-07,8.535785249255234e-08,3.599460760172941e-07,-8.458081772972727e-07,1.8176564082910508e-07,6.600001885450541e-07,-7.613108002508253e-08,-4.959582287439019e-07,1.212037372384905e-06,3.1458250023654964e-07,-6.557045588009883e-07
-4.3504712865322335e-06,-4.67403326781146e-06,3.323125160391026e-07,4.335368747858421e-07,-1.9740185026077878e-07,8.064444545301985e-07,-1.8320353880635262e-07,-1.709974803010804e-07,9.578044571473696e-08,3.535418448401388e-07,-8.391999417937883e-07,1.7352139288568685e-07,6.618847008412247e-07,-6.804256728301026e-08,-5.080694720701605e-07,1.2083897656811434e-06,3.0567832535619576e-07,-6.454448833554795e-07
-2.4572604871822354e-06,-3.917147069873079e-06,1.798241075270842e-07,4.4676712123993633e-07,-1.8754482292352827e-07,8.004120798094256e-07,-1.7083345057784897e-07,-1.480455044848703e-07,1.1100637359554472e-07,3.415638789005065e-07,-8.267431020201615e-07,1.6432837995440121e-07,6.600115269040824e-07,-6.301093469592394e-08,-5.247178224815029e-07,1.2026603889616977e-06,2.9643222440038235e-07,-6.351769348715311e-07
-1.6538472165277186e-06,-3.0910085728026415e-06,3.832346904290669e-08,4.5397776881562067e-07,-1.771334801110761e-07,8.034162148092449e-07,-1.5466637730507266e-07,-1.2663047205996192e-07,1.287013712187055e-07,3.2096920656174905e-07,-8.108737318859388e-07,1.513229961430881e-07,6.517158431832384e-07,-6.49685661180263e-08,-5.470154226675495e-07,1.1906846736269446e-06,2.8449670653228535e-07,-6.308651516550566e-07
-2.5016216667019095e-06,-2.3720750950715943e-06,-8.785096184830903e-08,4.48322476654756e-07,-1.6774403355773637e-07,8.14906648779974e-07,-1.317179731216025e-07,-1.0695526401923143e-07,1.472744799755099e-07,2.9309263473701725e-07,-7.912654232200524e-07,1.336480346128101e-07,6.376341699204657e-07,-7.422911997707744e-08,-5.737229725649053e-07,1.1723487479216346e-06,2.7061208058068994e-07,-6.353522219992674e-07
-5.0042631233596975e-06,-1.7969009291608357e-06,-2.005123453584685e-07,4.279941380353661e-07,-1.5882060130404348e-07,8.384405763426891e-07,-9.807881689555627e-08,-8.54418093915085e-08,1.6737561221521312e-07,2.635648793418197e-07,-7.650043671737556e-07,1.1375072713320063e-07,6.215403321903191e-07,-8.747468479294407e-08,-6.00466302160323e-07,1.1522351246556964e-06,2.5832465572873325e-07,-6.471484169368606e-07
-8.60677853303388e-06,-1.2458884149755034e-06,-2.9863945599864514e-07,3.9694029238245666e-07,-1.4773164156757974e-07,8.80142443944573e-07,-4.993822538147601e-08,-5.7534480729523416e-08,1.9086774917908958e-07,2.388113306474087e-07,-7.278873867941331e-07,9.55185531837455e-08,6.077141725252116e-07,-1.0076119842566912e-07,-6.218171525001606e-07,1.1356999541834534e-06,2.511811629525273e-07,-6.620040520839673e-07
-1.2408705699661289e-05,-5.33715103867209e-07,-3.7044327128146464e-07,3.6313066723814065e-07,-1.3184000977493358e-07,9.448167261162548e-07,1.4298293147504929e-08,-2.1551303844272592e-08,2.183724175964053e-07,2.2207318733152742e-07,-6.755055825799373e-07,8.103607548361099e-08,5.975908653232966e-07,-1.1258223219632531e-07,-6.344544693255561e-07,1.1240028155294408e-06,2.498928152920453e-07,-6.761669556465933e-07
-1.545527253929105e-05,4.416199323996905e-07,-3.9401714955886324e-07,3.355420486289639e-07,-1.1069417948775306e-07,1.0324564519016591e-06,9.304261691347655e-08,1.9597670791622654e-08,2.4759648531124705e-07,2.121588247476314e-07,-6.046601629590016e-07,6.900712590117676e-08,5.886547814969493e-07,-1.245808622832856e-07,-6.391506915113624e-07,1.112883317904407e-06,2.518633318978749e-07,-6.876748536806991e-07
-1.7007695895973023e-05,1.58137935214158e-06,-3.492612287165498e-07,3.211030331041113e-07,-8.668844299767668e-08,1.137300473242737e-06,1.8139366475000888e-07,6.021533854819233e-08,2.7407349982547093e-07,2.056294232859776e-07,-5.152248045638795e-07,5.631686009584748e-08,5.76481653167872e-07,-1.395416106992416e-07,-6.399360460566725e-07,1.095855890578875e-06,2.533425039262995e-07,-6.959536040209942e-07
-1.674628268493633e-05,2.5936688680172926e-06,-2.3412616303537988e-07,3.224180929563386e-07,-6.37692439458539e-08,1.2493460154006466e-06,2.7308967315990574e-07,9.541290093479971e-08,2.936901475833848e-07,1.9994736807219185e-07,-4.121648445603854e-07,4.1030736985778917e-08,5.578915860971529e-07,-1.586072951606325e-07,-6.411866361366064e-07,1.0691205847123162e-06,2.5201849089542667e-07,-7.005731952218931e-07
-1.4851366509719676e-05,3.154249378366659e-06,-7.243693440059881e-08,3.3671275462260435e-07,-4.5129606081437144e-08,1.3562576734452953e-06,3.615825433369166e-07,1.2325654230378742e-07,3.0452450993987737e-07,1.9464280269531707e-07,-3.067444491503385e-07,2.390713951177387e-08,5.327513060959525e-07,-1.8028173948933028e-07,-6.456727816702276e-07,1.033840921425631e-06,2.4770609180177433e-07,-7.011163438430077e-07
-1.192798468653932e-05,3.0922750655717723e-06,9.217425697411419e-08,3.5624889562753187e-07,-3.179350638828698e-08,1.4441069855841841e-06,4.3996035486877077e-07,1.439224029577542e-07,3.066814087497802e-07,1.899931140040127e-07,-2.1655929695503316e-07,7.331542942447273e-09,5.035660029952089e-07,-2.018148035376011e-07,-6.544513752489224e-07,9.94720065637174e-07,2.4090250900211127e-07,-6.984795340679846e-07
-8.790838438425305e-06,2.431148669434006e-06,2.1049440188354563e-07,3.702789515281134e-07,-2.351429371001352e-08,1.4980285310302195e-06,4.998807526883766e-07,1.5746807610934221e-07,3.011105411378472e-07,1.8528145569852463e-07,-1.6290939104092411e-07,-6.755221351492671e-09,4.740405488502804e-07,-2.2120807139869174e-07,-6.676541529421227e-07,9.572481347741405e-07,2.31141209018992e-07,-6.961518250993685e-07
-6.167424029550426e-06,1.2718476024173832e-06,2.4352245909137355e-07,3.683067541210754e-07,-2.0782551818391316e-08,1.5050902972816696e-06,5.320636523579526e-07,1.6313507505354867e-07,2.886743876686633e-07,1.790223388169855e-07,-1.6492216624602595e-07,-1.7618157173059677e-08,4.4813456010116946e-07,-2.3762401277827386e-07,-6.845569973754594e-07,9.261072731180974e-07,2.1710055860215436e-07,-6.994593509083823e-07
-4.447530830760633e-06,-3.025026506943298e-07,1.7602233861002923e-07,3.4398801311777616e-07,-2.50510193821838e-08,1.4594756515710246e-06,5.293270987194183e-07,1.6106631735564249e-07,2.70586643508493e-07,1.7126828179458753e-07,-2.3262124085042497e-07,-2.462902499918718e-08,4.295461027818531e-07,-2.4965943861524164e-07,-7.0263634961772e-07,9.051467103375633e-07,1.9859899123270855e-07,-7.127868795223478e-07
-3.632944031057559e-06,-2.1682272421219823e-06,2.1832004982110133e-08,2.9811726385124143e-07,-3.653161366204566e-08,1.3669274341322358e-06,4.899960979599584e-07,1.542887664838974e-07,2.495935491862851e-07,1.6542855169905243e-07,-3.625801335464811e-07,-2.5901322150955e-08,4.210492847200156e-07,-2.5392577998858617e-07,-7.171687472538286e-07,8.977095214153514e-07,1.7827827502657663e-07,-7.368835147768805e-07
-3.430312104901304e-06,-4.0322295944553206e-06,-1.836710908369833e-07,2.3778067305652268e-07,-5.199045156819068e-08,1.2448626981492713e-06,4.1991742285686095e-07,1.4831556312545632e-07,2.3014039954152422e-07,1.670951521683664e-07,-5.392360270496808e-07,-1.8518755356750696e-08,4.2416650392333165e-07,-2.46139516797712e-07,-7.22872506350089e-07,9.059737321065436e-07,1.6083189173824302e-07,-7.66887116220819e-07
-3.554322987156069e-06,-5.425961240158002e-06,-3.947883003734322e-07,1.749514400581458e-07,-6.516515561397462e-08,1.11694092147924e-06,3.3113511391119643e-07,1.480395008428245e-07,2.1677540607501864e-07,1.8022786056329333e-07,-7.40833357480817e-07,-5.698451412018396e-10,4.392939557634351e-07,-2.243101755734012e-07,-7.171267541822768e-07,9.290763012179646e-07,1.5014540198912926e-07,-7.959882397874991e-07
-3.6010380711722353e-06,-5.899546316976361e-06,-5.679168760138671e-07,1.2032053435991445e-07,-7.016624210634022e-08,1.0045082548999388e-06,2.3831208960943494e-07,1.5425222942593029e-07,2.117455911890857e-07,2.0379136016902692e-07,-9.473083225368836e-07,2.667619533005524e-08,4.6537166084808775e-07,-1.9152626467931235e-07,-7.024564885088483e-07,9.61552581555466e-07,1.468786897189195e-07,-8.196688413042285e-07
-3.104909522472294e-06,-5.2866043929973e-06,-6.692647317785412e-07,8.040737075239444e-08,-6.519976521192426e-08,9.210556341838802e-07,1.547941231046226e-07,1.6291699252936518e-07,2.1369068953235368e-07,2.3230685569878415e-07,-1.1434112221751156e-06,5.8643537020898255e-08,4.993032213299562e-07,-1.5555677127468822e-07,-6.855262544779028e-07,9.94514672367211e-07,1.488091668415719e-07,-8.373276055227854e-07
-1.7685689648354842e-06,-3.844640861106071e-06,-6.802523555449422e-07,5.8464418628578645e-08,-5.307954403619288e-08,8.686271281162773e-07,9.023618436023969e-08,1.6824334560438515e-07,2.1854898627381283e-07,2.5922964386841836e-07,-1.316535078859739e-06,8.991594665780217e-08,5.364248697713738e-07,-1.2492794561988603e-07,-6.732318246140531e-07,1.0199776324247639e-06,1.5360115485906415e-07,-8.510242572402291e-07
6.812811780551461e-07,-2.169041003102085e-06,-6.027488632828574e-07,5.6173363882668394e-08,-3.821721160550317e-08,8.429859830304797e-07,5.002526328975684e-08,1.671606746993802e-07,2.2229123823069708e-07,2.8098582792455497e-07,-1.4542192320626117e-06,1.1735580723665126e-07,5.723172346360301e-07,-1.0426738392946175e-07,-6.686631743963397e-07,1.0351832983676411e-06,1.6125143483669e-07,-8.620316584304336e-07
4.160011700565057e-06,-9.439500210241746e-07,-4.584006173531178e-07,7.553735870196188e-08,-2.3391094067627638e-08,8.388159677849621e-07,3.5780976915253577e-08,1.614824872634074e-07,2.2326610138196504e-07,3.0067597170086017e-07,-1.5455234657301972e-06,1.4128923061469187e-07,6.048375728896341e-07,-9.234656787281429e-08,-6.695549109824179e-07,1.043117201220422e-06,1.739281361238695e-07,-8.690576316719762e-07
8.008250443298084e-06,-6.571797920564183e-07,-2.810147990430524e-07,1.1744011342662631e-07,-9.087328566337828e-09,8.500967586808762e-07,4.6075496326828424e-08,1.561339778283205e-07,2.2239067040367022e-07,3.2205991198712633e-07,-1.5858990375349358e-06,1.6398098781765522e-07,6.34649878415872e-07,-8.438894632014036e-08,-6.701542147816802e-07,1.04886880711014e-06,1.9351700837636909e-07,-8.696072281715118e-07
1.1204775058844783e-05,-1.3962232163179127e-06,-1.0927676884166727e-07,1.788207193629537e-07,4.8824085510383175e-09,8.750607858134511e-07,7.653792587175515e-08,1.5508336862324051e-07,2.2120627729797362e-07,3.467844736591878e-07,-1.5802229228879716e-06,1.8692060622425609e-07,6.632136575572357e-07,-7.596196702197054e-08,-6.645301798744092e-07,1.0552541026625805e-06,2.1924504360293605e-07,-8.628420310047559e-07
1.2484660472425804e-05,-2.819591466999417e-06,2.305277685216771e-08,2.5182796933477573e-07,1.7714642699842095e-08,9.109304511683883e-07,1.1987172829881972e-07,1.5847518650297646e-07,2.1983698444009183e-07,3.7269167028796596e-07,-1.5407210125002711e-06,2.0927629293999074e-07,6.896394769491419e-07,-6.573398801409728e-08,-6.489870079948104e-07,1.0613987631709338e-06,2.4756735496736904e-07,-8.503015270677445e-07
1.0868452265701194e-05,-4.32292851506762e-06,9.603567390577101e-08,3.234378299731343e-07,2.8027637339733028e-08,9.533924987823492e-07,1.671832110845568e-07,1.6338176419707732e-07,2.1641751908939496e-07,3.944192583712304e-07,-1.4810889266757374e-06,2.2867279703833142e-07,7.097369672212988e-07,-5.524129047281994e-08,-6.228362328547583e-07,1.0649093773332e-06,2.7432245314546016e-07,-8.337551154929199e-07
6.449882005892741e-06,-5.310198264761319e-06,1.0879090601445754e-07,3.8202415903635987e-07,3.6344832796622124e-08,9.988074600839713e-07,2.1069195367922056e-07,1.6710740974585988e-07,2.0861589544767564e-07,4.0805706133131296e-07,-1.4120147765533023e-06,2.4331427337688346e-07,7.188367420086665e-07,-4.653920508638851e-08,-5.877816543939894e-07,1.0650897323177193e-06,2.970073156775916e-07,-8.152458309060624e-07
9.250956219992915e-07,-5.419605280193388e-06,8.00114040875967e-08,4.2143941992495014e-07,4.678553886224055e-08,1.0443628560869393e-06,2.458423611513587e-07,1.6954845768015395e-07,1.9542335425378415e-07,4.133948533357348e-07,-1.3412601418426651e-06,2.534102615746111e-07,7.159344591631661e-07,-4.056471484057894e-08,-5.470744505568211e-07,1.064203243913826e-06,3.1511575968376375e-07,-7.956913067127435e-07
-4.51649759137763e-06,-4.615884282096697e-06,4.0466384370096756e-08,4.41744295120261e-07,6.52393110705732e-08,1.0873448256225462e-06,2.7092530834493313e-07,1.7240137731875364e-07,1.7729988192735803e-07,4.133046757556821e-07,-1.2768735735863683e-06,2.6076783639555106e-07,7.05327027223984e-07,-3.7524732454055976e-08,-5.051428676838117e-07,1.0659400222299592e-06,3.2848754392680453e-07,-7.766722571002429e-07
-7.042060277128411e-06,-3.160927774305444e-06,2.0336283418962664e-08,4.4763607851722105e-07,9.480931566049288e-08,1.1220263502994176e-06,2.8466227034820755e-07,1.7629812347179166e-07,1.5488893775968348e-07,4.1051280780308793e-07,-1.2334462092283382e-06,2.671486829376476e-07,6.945130013151001e-07,-3.817483900044925e-08,-4.671799477758906e-07,1.072513164503477e-06,3.35733228958079e-07,-7.620050475124691e-07
-4.090809113631099e-06,-1.5177726096650271e-06,3.710250809566086e-08,4.436527640075021e-07,1.3214005470563096e-07,1.13900410954875e-06,2.842685134648843e-07,1.7889960874331424e-07,1.277881084570351e-07,4.0625665835695836e-07,-1.2199005376854725e-06,2.73050830553386e-07,6.904672513861101e-07,-4.391471274388116e-08,-4.3797375850024207e-07,1.0829083074178075e-06,3.347797994168025e-07,-7.559640308291034e-07
-2.9217446471574213e-06,-2.2375104178189828e-07,9.138568744252299e-08,4.3194921275299874e-07,1.6781040659121683e-07,1.1272992097793787e-06,2.6618976910268616e-07,1.7611539534043264e-07,9.493415086960056e-08,4.0179088551152064e-07,-1.2433501503328395e-06,2.7788089870836844e-07,6.975625995716058e-07,-5.4983645758908083e-08,-4.200449086991913e-07,1.0940810473333056e-06,3.2547151637653564e-07,-7.613305363679024e-07
-1.1794242378379176e-06,2.7306441825205463e-07,1.694826396395626e-07,4.1260306126527496e-07,1.9106596625966712e-07,1.080323660616873e-06,2.2900325495444413e-07,1.6560475140257181e-07,5.5797410431812485e-08,3.9876715594633016e-07,-1.3050361945789765e-06,2.8230148561458045e-07,7.182557951194039e-07,-6.834321874849982e-08,-4.1214160200143665e-07,1.1041661801451667e-06,3.118012423842129e-07,-7.759636754016756e-07
1.2060740890320478e-06,-1.989183521439111e-07,2.5088995741770513e-07,3.873013842205704e-07,1.9603794860702295e-07,1.0027839007035297e-06,1.7570796509179238e-07,1.492724449792805e-07,1.3156726518563075e-08,4.008509919238542e-07,-1.3966112139444454e-06,2.8890871637983124e-07,7.541485768190782e-07,-7.807990341584155e-08,-4.094888898720185e-07,1.1145068366896592e-06,3.0108927583290017e-07,-7.929428319726691e-07
5.28880548110511e-06,-1.4311977411507646e-06,3.1705122129541167e-07,3.5978923543527546e-07,1.8509881349613406e-07,9.078998731567289e-07,1.1338977264099716e-07,1.3217135365857265e-07,-2.8126953771951324e-08,4.1166106334122406e-07,-1.5068677479392216e-06,3.018874655957353e-07,8.048597299833661e-07,-7.912302262631423e-08,-4.053560681236065e-07,1.1282353341994124e-06,3.000158956140425e-07,-8.02996837835263e-07
1.0826199772505783e-05,-2.937288233646303e-06,3.5625483493847655e-07,3.340644563979859e-07,1.6662164840901118e-07,8.119895692505769e-07,5.065219115081591e-08,1.1842695916925054e-07,-6.378892108137715e-08,4.309767651837711e-07,-1.6237610124636506e-06,3.2256710346832545e-07,8.65645159985221e-07,-7.060755550278898e-08,-3.9677975435236803e-07,1.1465602644093952e-06,3.1035248841288647e-07,-8.00977728965347e-07
1.2333658975237085e-05,-4.1956541014399995e-06,3.6921943603738294e-07,3.120161286839039e-07,1.4912163542036334e-07,7.273527273548979e-07,-6.49217186954723e-09,1.0767645113118006e-07,-9.223630578885817e-08,4.5373553971399494e-07,-1.7373311968957377e-06,3.483194991158339e-07,9.268683644318774e-07,-5.7189881666340136e-08,-3.8374071832106607e-07,1.1665364423595638e-06,3.279574103329822e-07,-7.881519703968437e-07
1.1809852586215112e-05,-4.924014495684032e-06,3.685865449508298e-07,2.938469397869532e-07,1.3685613266510358e-07,6.58224109467044e-07,-5.331700375364199e-08,9.545563633705514e-08,-1.1521749768181366e-07,4.7154464681967624e-07,-1.8395539057345547e-06,3.736185591972026e-07,9.769345849139174e-07,-4.61428002434368e-08,-3.688184954303532e-07,1.182908070753088e-06,3.4582616553987676e-07,-7.703566621417769e-07
1.2400915460766527e-05,-5.17120054544773e-06,3.725308252112782e-07,2.781335185147478e-07,1.29425640900877e-07,6.040840737963488e-07,-8.756093833576554e-08,7.739057355429232e-08,-1.3614215913460166e-07,4.784839417571759e-07,-1.9262013541125405e-06,3.925840837288161e-07,1.0072005341780265e-06,-4.2270991335014516e-08,-3.5496305387915e-07,1.1924675582926241e-06,3.5865794363602154e-07,-7.54340106216424e-07
1.3511287884281489e-05,-5.1750677225041254e-06,3.973457194783152e-07,2.652291952427908e-07,1.2354957893897178e-07,5.628344953410034e-07,-1.0889131570492112e-07,5.322847057365107e-08,-1.5604711709808662e-07,4.740028628404306e-07,-1.9926735833432537e-06,4.026070077050466e-07,1.0155065322441522e-06,-4.524716730446732e-08,-3.434979487947312e-07,1.1966936729500303e-06,3.654083276778672e-07,-7.432717357356365e-07
1.0751560761795664e-05,-5.129149900339789e-06,4.4816472726751434e-07,2.5798232759131323e-07,1.1422723563243865e-07,5.340580382539319e-07,-1.1778989327938517e-07,2.6880214670700297e-08,-1.7374780917759898e-07,4.6252710477858493e-07,-2.0408519747070094e-06,4.0377773445853384e-07,1.0059313783205036e-06,-5.0763900458610873e-08,-3.327986446291071e-07,1.2001746377393117e-06,3.681701617423435e-07,-7.3655395507701e-07
6.44635974747675e-06,-5.03925107846315e-06,5.1277487429869e-07,2.5889975025858065e-07,9.4705231075526e-08,5.165984885440095e-07,-1.1724129946546071e-07,2.4847464006857234e-09,-1.8559120743670535e-07,4.4934532194539746e-07,-2.078448160278356e-06,3.9869485628483735e-07,9.851275347478073e-07,-5.4522010069841334e-08,-3.213111764098747e-07,1.206272688407083e-06,3.6867709797195685e-07,-7.325937514731648e-07
2.5400016290389954e-07,-4.782616628888234e-06,5.666390249955538e-07,2.6615109658348557e-07,5.7071475956020224e-08,5.057580310777691e-07,-1.1329548030817489e-07,-1.9839936244712375e-08,-1.9296104471381598e-07,4.3610968890649406e-07,-2.1170703334407653e-06,3.891902089656693e-07,9.578370858490744e-07,-5.653887918247428e-08,-3.102526240593224e-07,1.213785459644052e-06,3.655712433697141e-07,-7.321024253646662e-07
-3.8996778273606635e-06,-4.2864132264991706e-06,5.836142657470434e-07,2.71845005080656e-07,-6.446903779462929e-09,4.93337286196429e-07,-1.1420654432449337e-07,-4.4553164297618156e-08,-2.0030209387803404e-07,4.198196919419976e-07,-2.1710685915298445e-06,3.7524421052857195e-07,9.246860388730055e-07,-6.096535597489372e-08,-3.026376762561783e-07,1.2175568613381852e-06,3.5511155411682255e-07,-7.378506420511203e-07
-6.359522218986229e-06,-3.655185449826159e-06,5.485764932668517e-07,2.6347682257965375e-07,-9.591391512954749e-08,4.7448315167215796e-07,-1.260932176851295e-07,-7.688108918572388e-08,-2.1236806123147724e-07,3.9821658907278235e-07,-2.25079096792767e-06,3.5701879336862855e-07,8.836121583178332e-07,-7.198679285346135e-08,-3.024023272768683e-07,1.212708914284743e-06,3.348803714326497e-07,-7.544479310601443e-07
-7.33961325656172e-06,-3.1327125615089184e-06,4.708816206380311e-07,2.33760868593634e-07,-2.0173281952564954e-07,4.4182243159320184e-07,-1.5304059586379365e-07,-1.1868531459325701e-07,-2.3273604662157078e-07,3.700618192328174e-07,-2.3586155059248765e-06,3.361707812399684e-07,8.333974799234664e-07,-8.986878572680423e-08,-3.1103445870974926e-07,1.199081562360635e-06,3.0695301778192885e-07,-7.821034061902565e-07
-7.021859578520307e-06,-2.970012932728375e-06,3.7545982995347896e-07,1.8296722879323874e-07,-3.0781510858527404e-07,3.945541883481234e-07,-1.9317101576026946e-07,-1.6522800267757573e-07,-2.601164481201093e-07,3.391264786262182e-07,-2.4918344426449476e-06,3.163793979141568e-07,7.766549062093677e-07,-1.102911689876794e-07,-3.261980543025391e-07,1.1822594935265098e-06,2.7742456827748943e-07,-8.120889205943712e-07
-6.878431001433708e-06,-3.319354737402347e-06,2.9260327576757414e-07,1.256367345140886e-07,-3.953186515706141e-07,3.381801480089182e-07,-2.391777044436315e-07,-2.0866369277057093e-07,-2.9016075394820296e-07,3.110592741961248e-07,-2.6468762869833127e-06,3.023337567346755e-07,7.205862923389433e-07,-1.2695597562693247e-07,-3.4491580558605873e-07,1.1702148540570093e-06,2.5259949521665694e-07,-8.401521500869347e-07
-4.514488631308634e-06,-4.193423239292993e-06,2.2762435829743832e-07,7.040648653825208e-08,-4.5165411741496594e-07,2.7863617686062815e-07,-2.827341534632139e-07,-2.4229718921325025e-07,-3.1774284640992846e-07,2.8882859736496645e-07,-2.799603404436675e-06,2.9568756782061736e-07,6.750931549616141e-07,-1.3844415301806715e-07,-3.6265261054449975e-07,1.1680838482298303e-06,2.3498231145095745e-07,-8.633114802155013e-07
-1.220898733475674e-06,-5.474198895762904e-06,1.6940958562037663e-07,2.5783747640834896e-08,-4.734421765766453e-07,2.2208227052045348e-07,-3.1693585617487877e-07,-2.657876506555264e-07,-3.4007735230523705e-07,2.71969060929302e-07,-2.9354099134133853e-06,2.942378820433114e-07,6.491490381083033e-07,-1.4627381498395838e-07,-3.769753010798267e-07,1.1752437002173951e-06,2.2224168334927316e-07,-8.807573529598749e-07
2.945636755453265e-06,-6.943391120891766e-06,1.0680888221799156e-07,-2.736957344958836e-09,-4.6918155966518097e-07,1.6246613390722205e-07,-3.3870060347544245e-07,-2.828439253947144e-07,-3.553099226403457e-07,2.5446164311408056e-07,-3.0445194745028173e-06,2.935584374148012e-07,6.473842029116931e-07,-1.539512410910675e-07,-3.869621775527832e-07,1.1867174041813125e-06,2.0969836580891814e-07,-8.95147755924867e-07
7.596099306788035e-06,-8.367275813306381e-06,3.2697838806711017e-08,-1.7093996401394666e-08,-4.508941858150637e-07,1.0287736645756419e-07,-3.484203957391685e-07,-2.971461641487549e-07,-3.6389714658398395e-07,2.3451705349644412e-07,-3.1096386718641426e-06,2.896904440657283e-07,6.684192934561632e-07,-1.6448628948645615e-07,-3.946630350232246e-07,1.1970880299070268e-06,1.938720110005543e-07,-9.067694215267222e-07
9.971165920392087e-06,-9.530873831726745e-06,-4.657707284434039e-08,-1.6931484528589816e-08,-4.2824646704838653e-07,5.066097818727211e-08,-3.480538028306987e-07,-3.099349742589278e-07,-3.6686510139561893e-07,2.20697774252936e-07,-3.1286615822380967e-06,2.8225640715350564e-07,7.051317967638113e-07,-1.7710996885854218e-07,-4.028125049399704e-07,1.203665273139606e-06,1.740061365872119e-07,-9.128512510593048e-07
1.0244367877640882e-05,-1.0236056104717922e-05,-1.2158226755558455e-07,-4.444838510425898e-09,-4.06686752425275e-07,8.330762088144982e-09,-3.4022935627056807e-07,-3.1981733901078627e-07,-3.646392105138876e-07,2.0713451130910912e-07,-3.11065476573921e-06,2.728710364497362e-07,7.461039626244818e-07,-1.8844481391909078e-07,-4.1294438548353364e-07,1.2054932098413392e-06,1.508011694468287e-07,-9.136401088454877e-07
8.549831688635032e-06,-1.030107315391544e-05,-1.9656334527422836e-07,1.773653269870532e-08,-3.896192896431418e-07,-1.0309375466256645e-08,-3.290658067417412e-07,-3.2515263672942703e-07,-3.584318041790638e-07,1.9853502477966795e-07,-3.0717419317921146e-06,2.627459648505241e-07,7.776059127949784e-07,-1.9693919877245733e-07,-4.2688552742291927e-07,1.2042415452103048e-06,1.2421980893036527e-07,-9.11136279178986e-07
5.69293263143311e-06,-9.560203781159478e-06,-2.6938036025396295e-07,4.4294944198681023e-08,-3.801761294753297e-07,-2.6643651752641013e-08,-3.2106855191767554e-07,-3.290498979870455e-07,-3.5276889483087157e-07,1.9416167035383778e-07,-3.040648125642287e-06,2.511363399419699e-07,7.864951618753699e-07,-2.035800599328199e-07,-4.4519766558882135e-07,1.1991738876956353e-06,9.290861480215969e-08,-9.081747704472489e-07
2.8691047596214793e-06,-7.885786253490686e-06,-3.365109585906034e-07,6.301610882102412e-08,-3.80359432877577e-07,-5.869135925534556e-08,-3.240206657472332e-07,-3.3751393503740835e-07,-3.511326354915415e-07,1.8802829452096354e-07,-3.039659532059608e-06,2.3559915862934824e-07,7.645707973490171e-07,-2.1101742739748072e-07,-4.6566104328224946e-07,1.190171378611915e-06,5.601898170802383e-08,-9.092532882265861e-07
6.216589611889392e-07,-5.2252875547994705e-06,-3.8866118256070615e-07,7.23486682783658e-08,-3.9387838514361507e-07,-1.1165386556863626e-07,-3.434754748390385e-07,-3.543363936437329e-07,-3.5579423880754025e-07,1.7945225924611217e-07,-3.0780274911936778e-06,2.1800947252444198e-07,7.128108914320884e-07,-2.1991128600274224e-07,-4.856206338395616e-07,1.17523484475102e-06,1.563028677941013e-08,-9.204433916879958e-07
