0,1,2,3,4,5,6,7,8,9,10,11,12,13,14,15,16,17
-1.5218763659972806e-07,7.153311440041156e-08,8.232910944029553e-08,-1.0155818705394483e-08,3.8883471881261465e-07,-1.5895317194198496e-07,4.367551898438572e-09,-4.458906395580743e-08,-4.173863810120872e-08,-1.3999802032875323e-07,-9.7101399753463e-08,-1.7752891495656945e-07,-3.53975636468777e-08,-3.006743864585545e-07,-2.1931397198280087e-07,-7.371263407063436e-08,-2.3774884300424862e-07,-7.93465165576112e-08
-1.2098999344090172e-07,7.987884424238993e-08,1.0047223520604689e-07,-2.4196533258419047e-08,3.748843333139213e-07,-1.329274595805566e-07,2.2744194533234157e-08,-1.9623097955651606e-08,-2.2701406146460655e-08,-1.1359976548164311e-07,-7.229879912989802e-08,-1.6699510677742127e-07,-4.0649220773096566e-08,-2.7736332366258107e-07,-2.0295903242660824e-07,-8.80662043016446e-08,-2.09590100645175e-07,-7.823944403714164e-08
-8.55785824692303e-08,8.496608085058564e-08,1.0510099817073228e-07,-2.8662633525862686e-08,3.435219137964534e-07,-1.0278273729910719e-07,3.171235021686919e-08,-3.127552078741575e-09,-5.6329012986912595e-09,-8.704540562184271e-08,-5.225437265248884e-08,-1.486562994957383e-07,-3.871608685064248e-08,-2.347270161845235e-07,-1.781331664391415e-07,-9.737175161005063e-08,-1.773595641233471e-07,-7.797122325341748e-08
-5.1478895184571705e-08,8.268356500310682e-08,9.453621677537899e-08,-2.619999831847841e-08,2.899929326418403e-07,-7.372792216955153e-08,2.6245564018370413e-08,2.751075555498901e-10,4.52853985091283e-09,-6.333003666723993e-08,-3.864448936795626e-08,-1.2465490488666233e-07,-3.2463912369655465e-08,-1.8173547132114007e-07,-1.4772156299191905e-07,-1.0154823029115428e-07,-1.443729248405023e-07,-7.835997451653957e-08
-2.3223174246215158e-08,7.047876604587425e-08,7.01820292561586e-08,-2.0780026089375786e-08,2.153687341667247e-07,-4.960074290972065e-08,6.372110646121498e-09,-9.061184365053793e-09,5.792878518542094e-09,-4.409852871589561e-08,-3.0947106146733615e-08,-9.741157952820406e-08,-2.4205747798494843e-08,-1.2643600160452287e-07,-1.1403463981559216e-07,-9.946686450796315e-08,-1.123052856642521e-07,-7.707249335537969e-08
-2.7260744329231165e-09,4.908847463369033e-08,3.7016222488919226e-08,-1.5475096979657742e-08,1.2668601197076462e-07,-3.1235796000041244e-08,-2.2678345083385438e-08,-2.582152124785546e-08,-1.697358751285263e-10,-2.9150964403047998e-08,-2.66762927123551e-08,-6.888608604040397e-08,-1.5202531485979754e-08,-7.4562536730736e-08,-7.81242097711203e-08,-8.960012806587285e-08,-8.099057406025565e-08,-7.068392763480466e-08
1.0549603459852587e-08,2.220645573794838e-08,1.7514033904579222e-09,-1.1883110207810352e-08,3.4390779603910244e-08,-1.719150874419407e-08,-5.3222953357697475e-08,-4.3447712938580844e-08,-9.868259768475624e-09,-1.742065593595436e-08,-2.3242011482898967e-08,-4.113903225145358e-08,-6.844982151806006e-09,-2.927640590563814e-08,-4.118144998753985e-08,-7.155480569197127e-08,-5.037987396080633e-08,-5.761417619053165e-08
1.8106507886776133e-08,-5.803711315980798e-09,-2.992521687457736e-08,-1.0986244147254297e-08,-5.2370440099199304e-08,-5.842711004979222e-09,-7.86177069134283e-08,-5.7486855798439455e-08,-2.0278895859864102e-08,-8.081933406526873e-09,-1.9421698442054335e-08,-1.614821132847537e-08,-1.1026938428964666e-09,5.3957629864249914e-09,-5.444542834388055e-09,-4.749352417014974e-08,-2.144622546193004e-08,-3.9419165843175937e-08
2.1598978878832397e-08,-3.1393278911494455e-08,-5.4564979522195537e-08,-1.2847145662835395e-08,-1.2731598289678977e-07,4.01269153947874e-09,-9.417752268920241e-08,-6.488708537674285e-08,-2.892832115839731e-08,-1.8147923280897483e-10,-1.4601395598977141e-08,5.898657307422103e-09,1.041052530511974e-09,3.0886443562565874e-08,2.708359221803963e-08,-2.0615083689088818e-08,5.474784722715296e-09,-1.877556387296413e-08
2.3246847225778482e-08,-5.174243934647048e-08,-7.032991034903598e-08,-1.529671486980138e-08,-1.8583790487657274e-07,1.4167811613903144e-08,-9.593887429616781e-08,-6.200668146414323e-08,-3.277364368643749e-08,8.234485692656354e-09,-7.392945942433161e-09,2.7381949567874764e-08,8.848226291117654e-10,5.265620306951307e-08,5.61520903359538e-08,7.282524750003411e-09,3.210696282196684e-08,2.9426679698443453e-09
2.6000194031667184e-08,-6.501356302435882e-08,-7.678223211637335e-08,-1.440980264756728e-08,-2.2497943472694708e-07,2.7188807461209844e-08,-8.053552791742004e-08,-4.565818022845089e-08,-2.877730684586864e-08,1.9813767258228975e-08,3.936967202631804e-09,5.150315969644492e-08,1.1773934962644615e-09,7.772777061302268e-08,8.293623584196428e-08,3.588696416408223e-08,6.124188777018075e-08,2.578381134123227e-08
3.26173571569159e-08,-7.103470706597394e-08,-7.497285623128793e-08,-6.90235809918906e-09,-2.450273758702847e-07,4.51794663113069e-08,-4.708923151680693e-08,-1.569586742190992e-08,-1.568469244809654e-08,3.6732575953021554e-08,2.0493627653090482e-08,8.014169825284653e-08,4.677316028876244e-09,1.1162972939738071e-07,1.0886889612974161e-07,6.539920624241259e-08,9.514187426842285e-08,5.024440820273247e-08
4.4707207267558293e-08,-7.098377865268731e-08,-6.707091849719127e-08,8.532007132021002e-09,-2.4945099666348643e-07,6.911844205596303e-08,1.898709972425176e-09,2.50210881794556e-08,5.559832703073482e-09,6.011311502748579e-08,4.2683543427310913e-08,1.1342296277644563e-07,1.3853106015883958e-08,1.5546703475846844e-07,1.3525002774317447e-07,9.612832820682551e-08,1.352644976403197e-07,7.707336219776272e-08
6.260931141412853e-08,-6.592087034669334e-08,-5.503015281204239e-08,3.181384461442006e-08,-2.428267558267659e-07,9.939160320333755e-08,6.176889437591557e-08,7.261952849347214e-08,3.291329832237396e-08,9.001586084350339e-08,7.067260732771087e-08,1.5020567242197153e-07,3.071353364434767e-08,2.0769479566687074e-07,1.630528861731242e-07,1.2836382821482877e-07,1.8212940014884672e-07,1.0705938210980706e-07
8.549373952163509e-08,-5.6243084193573204e-08,-3.997876220957758e-08,6.177413046805755e-08,-2.2998144889777822e-07,1.358808517104235e-07,1.2672141919275375e-07,1.2277526688582872e-07,6.358019489920399e-08,1.251584411015603e-07,1.0396519989999458e-07,1.8819603764896644e-07,5.561387410065997e-08,2.6407533791586114e-07,1.921673577340973e-07,1.616370917976082e-07,2.3431912924022962e-07,1.3997840746417994e-07
1.1125460953042578e-07,-4.2699868056774636e-08,-2.2733186115707992e-08,9.567550029714726e-08,-2.158890844484053e-07,1.7732237575451274e-07,1.904293669199822e-07,1.7071381171707203e-07,9.417905689452236e-08,1.6283854391725706e-07,1.4082856571852e-07,2.2466999759295496e-07,8.662164047379247e-08,3.192420638975873e-07,2.2140149007301494e-07,1.947312830227701e-07,2.88514855147833e-07,1.744004459760077e-07
1.3701679846229097e-07,-2.6808653951263155e-08,-3.77041121220266e-09,1.313808271082371e-07,-2.0446401795767147e-07,2.2168399531846993e-07,2.477920818474181e-07,2.1358841519955256e-07,1.2228893311651056e-07,2.001130001031838e-07,1.7934663536714495e-07,2.5855298562535074e-07,1.2100762419966725e-07,3.719722168885103e-07,2.501492691169573e-07,2.2728626140501024e-07,3.4171738246114475e-07,2.0937153159713887e-07
1.6053361438281448e-07,-9.76026477764563e-09,1.777876328552417e-08,1.672787934319323e-07,-1.9600606385922237e-07,2.676020802276129e-07,2.974256403529141e-07,2.531418924598923e-07,1.4821084838992525e-07,2.3550610527373207e-07,2.1885223739739064e-07,2.9165673569262516e-07,1.571127126946948e-07,4.2179610544925366e-07,2.7978161092775916e-07,2.611557862839091e-07,3.9310415326792475e-07,2.4563819602502526e-07
1.8116962090414613e-07,8.284907381847486e-09,4.4712353275468317e-08,2.0388143753724414e-07,-1.870575186490223e-07,3.146128401953271e-07,3.4164499709923394e-07,2.941704474041819e-07,1.7438185976553845e-07,2.692000033015872e-07,2.5960492662175114e-07,3.2713884514173105e-07,1.9425845700922123e-07,4.735287086483323e-07,3.128279481723419e-07,2.9937486317078585e-07,4.4327563833476827e-07,2.844498056106624e-07
1.9777234624139252e-07,2.7299774476645517e-08,7.771105958568115e-08,2.421634876714616e-07,-1.7388519840039028e-07,3.616932445011941e-07,3.8344538040221e-07,3.400682894198826e-07,2.027543124895552e-07,3.01930193136288e-07,3.013551966985498e-07,3.669804967880307e-07,2.3160409822145962e-07,5.301555967707455e-07,3.511899593609759e-07,3.438895606535879e-07,4.92639685814547e-07,3.2573791876091386e-07
2.1152099870847662e-07,4.658855713873892e-08,1.1513316716144241e-07,2.812240492802845e-07,-1.55287307815434e-07,4.063975481298951e-07,4.237403991571641e-07,3.906696818046171e-07,2.3330384598991097e-07,3.3475166656950404e-07,3.431524920163762e-07,4.1122086783563323e-07,2.6800614649923516e-07,5.926598061429523e-07,3.9548218271260746e-07,3.9469896470150444e-07,5.41257904242584e-07,3.6796930688641003e-07
2.2368219597668195e-07,6.523562445306559e-08,1.5387440634608835e-07,3.195028180256904e-07,-1.3331287648807518e-07,4.456998339880778e-07,4.612967314571522e-07,4.4328673843940154e-07,2.64446319984815e-07,3.676384682612333e-07,3.8413738458468766e-07,4.586075191312025e-07,3.025135484248322e-07,6.603441998118159e-07,4.4515977840966853e-07,4.497889333582723e-07,5.89244993429906e-07,4.0892279607647036e-07
2.3474994424745963e-07,8.266680030835271e-08,1.9021322627770884e-07,3.5442311289449557e-07,-1.1046349891147022e-07,4.77083957916154e-07,4.938539733226031e-07,4.938103355116491e-07,2.9377199372501896e-07,4.005393154548429e-07,4.235778880862384e-07,5.069993357114585e-07,3.342302718948368e-07,7.2882289991222e-07,4.982715409429351e-07,5.06393356836668e-07,6.362335478014964e-07,4.465823520838815e-07
2.4521297603938275e-07,9.843183220574747e-08,2.2153355298626226e-07,3.84675266238772e-07,-9.02761474787627e-08,4.990593046782104e-07,5.190912521669215e-07,5.37455957163157e-07,3.1839852430502687e-07,4.327355782085618e-07,4.604430056271644e-07,5.537685182765963e-07,3.621191863995947e-07,7.928365839953253e-07,5.514479807080351e-07,5.605382284628847e-07,6.809687543414269e-07,4.787548216707934e-07
2.5607516848580224e-07,1.1224157843247934e-07,2.468739134229958e-07,4.0894853420009575e-07,-7.529035683982131e-08,5.119398078974373e-07,5.365778010632561e-07,5.706431270765488e-07,3.3590867533204354e-07,4.629010501293531e-07,4.936991218804807e-07,5.968212870479922e-07,3.855464607705588e-07,8.461466791276038e-07,6.008199745819521e-07,6.084589946628433e-07,7.220233598500157e-07,5.045573378082905e-07
2.663166233280297e-07,1.2455852114556717e-07,2.672105028452896e-07,4.2746709066111476e-07,-6.675693809984063e-08,5.186509019823311e-07,5.499544943901249e-07,5.923550249441964e-07,3.4535489844442843e-07,4.902531445699884e-07,5.226923203458388e-07,6.35190732554181e-07,4.045533968041263e-07,8.906248748135288e-07,6.426842759205357e-07,6.476004739310598e-07,7.581542959025485e-07,5.258775704604438e-07
2.75716864923295e-07,1.3655800608853362e-07,2.840815976003207e-07,4.4218288131621723e-07,-6.412599306817287e-08,5.241228671006858e-07,5.668610924131252e-07,6.027644365221761e-07,3.4673780074793756e-07,5.141128047025227e-07,5.465501523395866e-07,6.684985931099792e-07,4.1920409560852083e-07,9.249311698455352e-07,6.732101190203181e-07,6.755418794004573e-07,7.875974267036059e-07,5.445024046872433e-07
2.8528850364123555e-07,1.4925586767604118e-07,3.0357942602063553e-07,4.543454889062296e-07,-6.609428555912868e-08,5.336990730748485e-07,5.966835452485987e-07,6.016997164161231e-07,3.4026574334702514e-07,5.338398124420011e-07,5.63929488425883e-07,6.967210247631124e-07,4.295765645689066e-07,9.51942201892898e-07,6.889129833429427e-07,6.894251684026437e-07,8.084475171887095e-07,5.610756836573738e-07
2.950035385920029e-07,1.6340712794633751e-07,3.271855971055143e-07,4.669901987753705e-07,-7.118872777357987e-08,5.52523680797905e-07,6.486603553339408e-07,5.904690839226234e-07,3.2738021240689974e-07,5.495230691185592e-07,5.744125725172224e-07,7.213406545397606e-07,4.3734366182399197e-07,9.726104248849524e-07,6.890101134131755e-07,6.871782401622348e-07,8.2102424077004e-07,5.76328729380251e-07
3.0577621342715443e-07,1.80474103617017e-07,3.560971044838866e-07,4.832516005102809e-07,-7.540338320008405e-08,5.856941459680219e-07,7.302353296446543e-07,5.74593259372313e-07,3.123732545414852e-07,5.630743614499468e-07,5.802106435187716e-07,7.484427764864588e-07,4.4684827415149e-07,9.959178546173808e-07,6.774835813653768e-07,6.695977847810907e-07,8.293289313349984e-07,5.917173574063869e-07
3.2009566743142286e-07,2.0272377544332861e-07,3.9481702319611506e-07,5.079082274111018e-07,-7.329227723664538e-08,6.369967318204799e-07,8.415369127737913e-07,5.625633825826565e-07,3.011495468567566e-07,5.770080849448837e-07,5.85569182471994e-07,7.819771031252612e-07,4.6355733978895654e-07,1.0346435315507102e-06,6.623494907848274e-07,6.392973884735148e-07,8.393438600351631e-07,6.08562426600077e-07
3.3284337367330703e-07,2.3187726172420777e-07,4.436427176829782e-07,5.458308601473811e-07,-6.163315957146722e-08,7.064030833390476e-07,9.753233903383079e-07,5.616113175010637e-07,3.0050276641139284e-07,5.932741123907457e-07,5.94433358992137e-07,8.224592665908948e-07,4.912274652171003e-07,1.0935761645091472e-06,6.52843114098294e-07,6.008860951380545e-07,8.562362094228756e-07,6.271296583506745e-07
3.4064812525788373e-07,2.676089396351424e-07,4.991891282318202e-07,5.896489951656822e-07,-4.0382974094971065e-08,7.893511092920672e-07,1.110536210474075e-06,5.757095557631035e-07,3.1381919263420133e-07,6.112273857715932e-07,6.093066227477178e-07,8.720614021647067e-07,5.304735337305029e-07,1.1544349382030607e-06,6.567206891769079e-07,5.59468263395304e-07,8.832703087856956e-07,6.465333161211335e-07
3.384458588763951e-07,3.083678903984795e-07,5.63517666087934e-07,6.435284841765541e-07,-1.004479173407424e-08,8.78938134993016e-07,1.2231174606650483e-06,6.06658213852203e-07,3.4245139741652335e-07,6.287782864202283e-07,6.318157140824401e-07,9.305537714082192e-07,5.789467867308196e-07,1.2247325159548897e-06,6.781829864897604e-07,5.201962914292749e-07,9.217822653886801e-07,6.684420526158911e-07
3.174691914436621e-07,3.5262826161552894e-07,6.30182680245483e-07,7.157691518911909e-07,2.9059758934285062e-08,9.684365799671021e-07,1.3189031931637218e-06,6.545433199234108e-07,3.852266885325392e-07,6.434926475211855e-07,6.630420015970736e-07,9.978931789306347e-07,6.316873145115505e-07,1.3000173911779607e-06,7.161557288005162e-07,4.875042556115638e-07,9.704863111747754e-07,6.930422887337632e-07
2.8891179181069216e-07,3.989177682396908e-07,7.032293680935827e-07,8.112968886521158e-07,8.079159608366461e-08,1.051989557237993e-06,1.3510975273727876e-06,7.168803008334334e-07,4.394587344875852e-07,6.520918109683052e-07,7.031428481055743e-07,1.0696743518576905e-06,6.817764641728889e-07,1.3579315420110356e-06,7.641351519597792e-07,4.6306171068427676e-07,1.0250773076063448e-06,7.197894045654736e-07
2.4200966732627364e-07,4.459957852110284e-07,7.876161475111956e-07,9.146730086758416e-07,1.4848583015309638e-07,1.1244546460904995e-06,1.306016971037372e-06,7.893165252240128e-07,4.997311745045711e-07,6.500409660955119e-07,7.517349219965972e-07,1.1383721942239906e-06,7.222605563367645e-07,1.3814014961666003e-06,8.12671212757033e-07,4.477136686756959e-07,1.0796521848034575e-06,7.4851054141597e-07
1.738648743708523e-07,4.906608218619902e-07,8.81800141660794e-07,1.0112883394567245e-06,2.416729493127351e-07,1.1815996476298685e-06,1.2465083526243519e-06,8.673077901437731e-07,5.597364636144367e-07,6.419287046925509e-07,8.08692711344011e-07,1.1761674266777215e-06,7.482022968974796e-07,1.304878702968309e-06,8.527428785208486e-07,4.3868300130399344e-07,1.1284764357153899e-06,7.795698628214061e-07
8.462223130626336e-08,5.294238213910897e-07,9.665658378258815e-07,1.0682662797506696e-06,3.557310201471239e-07,1.2199991187116683e-06,1.1845945100958338e-06,9.451267429547326e-07,6.143235049991647e-07,6.300918322932406e-07,8.733759509035144e-07,1.1635798880869495e-06,7.567765572451424e-07,1.1777725430541474e-06,8.774094389471198e-07,4.3098625466493933e-07,1.1661080789887306e-06,8.04716836766232e-07
2.576694653579364e-08,5.572873857678358e-07,1.0070890430475603e-06,1.0255583428190286e-06,4.763560906170031e-07,1.2365669238135918e-06,1.1100257290890253e-06,1.0134760378168537e-06,6.578585761540759e-07,6.125036656668438e-07,9.426926489708633e-07,1.1051857225807316e-06,7.461409472212735e-07,1.0644749254384545e-06,8.820415578797471e-07,4.177586667465246e-07,1.18735143718044e-06,8.221635671428242e-07
3.1482932795733624e-08,5.681535968094656e-07,9.838352287470544e-07,9.940765224675214e-07,5.769385671894295e-07,1.2295132089846033e-06,1.0272486034776926e-06,1.0613071274653955e-06,6.864737404029981e-07,5.903639052739602e-07,1.0109969765224954e-06,1.0607579829124482e-06,7.157141282655171e-07,1.0366007196542598e-06,8.651690600734972e-07,3.918015986784634e-07,1.1893740485184632e-06,8.351203919362556e-07
1.3944221268223868e-07,5.589243190322625e-07,9.496843820458241e-07,9.664319133133317e-07,6.40631605540795e-07,1.2011215352747696e-06,9.450979011580808e-07,1.0818999003645285e-06,6.993915514036362e-07,5.652428173057901e-07,1.0725683134638296e-06,1.0692584576404766e-06,6.677711655929498e-07,1.0085188020544189e-06,8.296394332479539e-07,3.503783729635748e-07,1.1743592680080546e-06,8.399684731953843e-07
3.011604429983716e-07,5.319632564926374e-07,9.282612623684962e-07,9.332014878531945e-07,6.743618536267748e-07,1.1613574563388833e-06,8.666595129962445e-07,1.07641233354898e-06,7.029478787152041e-07,5.642724572242162e-07,1.1236133657537524e-06,1.0604532603889867e-06,6.075350752613967e-07,9.146877897824557e-07,7.828576726975424e-07,2.9566646777069426e-07,1.1471801720267487e-06,8.392484357148617e-07
4.052514548838148e-07,4.947272477586617e-07,8.99687295421526e-07,9.179432824267444e-07,6.640248949724824e-07,1.1223690065790267e-06,7.995866637424294e-07,1.0515934582648075e-06,7.035341895949639e-07,6.02391385016696e-07,1.162444335954278e-06,9.889591808232423e-07,5.411533998780168e-07,7.335499515595223e-07,7.320135918163358e-07,2.3301607449134058e-07,1.118548676067347e-06,8.384772627502078e-07
4.5875509247602844e-07,4.5602715877498316e-07,8.728811409853967e-07,8.474291092046091e-07,6.21337924553765e-07,1.0974070198539102e-06,7.513885843388943e-07,1.01605070997483e-06,7.072865007052878e-07,6.815077167164058e-07,1.1895135940315865e-06,8.98239976965121e-07,4.74130748642621e-07,5.387129801225929e-07,6.869446097950066e-07,1.6654104364673828e-07,1.0997480062854909e-06,8.415889563826281e-07
5.017988457513277e-07,4.221857822921599e-07,8.734747350683425e-07,7.8621178152232e-07,5.430634306804917e-07,1.094731322083761e-06,7.260355009339162e-07,9.789097928824372e-07,7.208337227016398e-07,7.824515242206706e-07,1.2081286918129665e-06,8.047616977919395e-07,4.113547941101935e-07,3.7006906314513133e-07,6.548482693342578e-07,9.961832869668503e-08,1.0983255291802032e-06,8.498784297024177e-07
5.914700185821593e-07,3.938405325416073e-07,8.14447127117552e-07,7.16810582450528e-07,4.133467263864452e-07,1.1150918305762623e-06,7.220368274556703e-07,9.488979522590859e-07,7.527660581052734e-07,8.82864119007993e-07,1.223905565471346e-06,7.134328240184054e-07,3.5692655125868353e-07,2.165078834774681e-07,6.36753627356055e-07,3.4711071680249664e-08,1.137954320195113e-06,8.902427209970973e-07
7.632748112125021e-07,3.675644338292394e-07,7.245768524027242e-07,6.712536032146901e-07,2.7758047674875193e-07,1.1824825718955498e-06,7.320773218309806e-07,9.319779523130856e-07,7.988475295463276e-07,9.692586039994028e-07,1.2420262609834477e-06,6.559514135036619e-07,3.130146390064801e-07,1.1908179926139542e-07,6.732568190154964e-07,-2.8049200931102343e-08,1.2002623549694214e-06,9.639265141368761e-07
9.608119866481969e-07,3.3675387418300636e-07,6.471030159066807e-07,6.465718320390927e-07,1.5508435092165156e-07,1.2684720545562415e-06,7.456797403598218e-07,9.298146091822505e-07,8.608315191268669e-07,1.0432683324410578e-06,1.2646029241532407e-06,6.174381346949461e-07,2.7929823451573615e-07,8.596600701872953e-09,7.33031579639758e-07,-8.810973675954536e-08,1.2532242871206457e-06,1.0663179307950483e-06
1.1423218371013271e-06,2.9200632447892777e-07,5.801647245460571e-07,6.054938500803268e-07,3.935557867660304e-08,1.3766222388402673e-06,7.548866432036541e-07,9.403943796607048e-07,9.419808261062211e-07,1.1175453028325035e-06,1.2899186723330924e-06,5.907805485074768e-07,2.5350654001435244e-07,-1.2310822175745201e-07,8.076959398814959e-07,-1.435662133047104e-07,1.3397624091198365e-06,1.1967573589981943e-06
1.3115835256730936e-06,2.2747874076093036e-07,4.984384152546934e-07,5.619104964655649e-07,-5.173044607069356e-08,1.4720351906916257e-06,7.588507384532057e-07,9.587476430711655e-07,1.0261814868219345e-06,1.1711984692795246e-06,1.3130405569725591e-06,5.696661681463263e-07,2.3180532208665145e-07,-2.794643264952908e-07,8.901263364929281e-07,-1.8698857243644158e-07,1.4682966839115365e-06,1.3285297493254117e-06
1.3937330650185414e-06,1.4203808073119144e-07,4.3124956411986004e-07,5.381479556123008e-07,-1.4054097535955728e-07,1.5083865543269663e-06,7.638559209937064e-07,9.777007183300185e-07,1.0910977658206285e-06,1.2019150318849136e-06,1.3275086599933231e-06,5.401011675002766e-07,2.0925572520890158e-07,-4.56179659041146e-07,9.842994574557688e-07,-2.0916807236713982e-07,1.5959630207927152e-06,1.4416657004945823e-06
1.4494255629141216e-06,3.540534055182262e-08,3.724470632637752e-07,5.27079475750248e-07,-2.3786971336093854e-07,1.4938372201967792e-06,7.797542083646683e-07,9.911786252544762e-07,1.1006782938742554e-06,1.2035278769879673e-06,1.328610636591814e-06,5.043828570401127e-07,1.817987394456042e-07,-6.421777148972678e-07,1.0080014672053871e-06,-2.0931090884281443e-07,1.6812329861384201e-06,1.519526624815295e-06
1.583704033857138e-06,-7.364755022312159e-08,3.145332763991519e-07,5.769195322362609e-07,-3.1177211339742477e-07,1.4597901444123187e-06,8.164541004240136e-07,9.984302056098707e-07,1.0938213848852882e-06,1.1990470351233694e-06,1.3165673775725167e-06,4.669803187797187e-07,1.4860436639170393e-07,-8.308192653403873e-07,9.640092482873124e-07,-1.881602399281402e-07,1.7020053426665597e-06,1.5132959121064678e-06
1.701252692530438e-06,-1.6431496461368016e-07,2.673761633819016e-07,6.473866526671654e-07,-3.456187383290535e-07,1.4382585129733134e-06,8.805538107768504e-07,1.0035479265801231e-06,1.0831154949537722e-06,1.1969827457737635e-06,1.2964846803250041e-06,4.3097225785716773e-07,1.1176596580512247e-07,-1.0016829096964828e-06,9.100731674415186e-07,-1.5172717521398696e-07,1.7323278063919831e-06,1.5038106185857075e-06
1.76689597363894e-06,-2.2216648033024234e-07,2.2519465540051944e-07,7.169169363229334e-07,-3.3608289681120446e-07,1.4224103846988218e-06,9.714032432256641e-07,1.010146549849874e-06,1.0967716602812818e-06,1.1908702528337167e-06,1.275199682199723e-06,3.98810008640252e-07,7.362701232587556e-08,-1.1443037198624149e-06,8.956459771492709e-07,-1.1144415751341959e-07,1.7399270926380387e-06,1.5078817100547432e-06
1.785178052284999e-06,-2.2766273143506801e-07,1.8697607025918666e-07,7.868954965621161e-07,-2.738884442130409e-07,1.3811694182223788e-06,1.0796246852239797e-06,1.017985268382537e-06,1.1046534289508098e-06,1.1864031220822955e-06,1.2585707244280072e-06,3.708395745497255e-07,3.5400754864923946e-08,-1.2397366597547494e-06,8.755887827900862e-07,-7.856869766627054e-08,1.7596207120968324e-06,1.5192252482653423e-06
1.7547072647091948e-06,-2.7095161986895524e-07,1.552465785073561e-07,8.169519350168143e-07,-1.753375908686664e-07,1.2978816606349192e-06,1.1905685720187717e-06,1.0247924362198773e-06,1.1156031317358918e-06,1.1947788176280412e-06,1.250864825127738e-06,3.4677439829024425e-07,-1.817638057822129e-09,-1.2848929790078548e-06,8.090919160678657e-07,-6.126200549816017e-08,1.7480820016867638e-06,1.5217795627412144e-06
1.6944993507098064e-06,-2.9876124251044415e-07,1.3979908298485137e-07,8.140304028396571e-07,-7.936831160203287e-08,1.180289805898082e-06,1.2898502152287864e-06,1.0285631634398529e-06,1.0798246718095257e-06,1.2060157442338528e-06,1.2542593193505996e-06,3.265690327175189e-07,-3.661523259284406e-08,-1.2898862285882573e-06,7.254696160645634e-07,-6.246365841944979e-08,1.7033464916663371e-06,1.5355747295785539e-06
1.614994858714678e-06,-3.1465999339908366e-07,1.3797492667619226e-07,7.944706027960749e-07,1.420985852988341e-08,1.0736478379803934e-06,1.3663700974488002e-06,1.0265986723314557e-06,1.0337963689787293e-06,1.2190383761978292e-06,1.267473200572811e-06,3.0940051390900544e-07,-6.88300054357915e-08,-1.27146127716e-06,6.379269917867016e-07,-8.099876144471771e-08,1.668813541532787e-06,1.4937186816714526e-06
1.5604455944564e-06,-2.8175439049731515e-07,1.411658066318319e-07,7.610557141740511e-07,8.44652661420696e-08,9.80675830695348e-07,1.412799329417375e-06,1.0144619634732974e-06,9.91396496349043e-07,1.2340054003739016e-06,1.2853922194544597e-06,2.9307193214250555e-07,-1.0055474062996093e-07,-1.2508210533569613e-06,5.557129757181324e-07,-1.1247634589917104e-07,1.6154286807026518e-06,1.453818709622216e-06
1.5283672059189981e-06,-2.55485537786154e-07,1.4392764712726848e-07,7.234406228160236e-07,1.2137700111115234e-07,9.192371566418031e-07,1.4258995144444385e-06,9.880109981388261e-07,9.419505627475026e-07,1.2419147031881768e-06,1.3012520522051809e-06,2.752509595798081e-07,-1.347734579286637e-07,-1.2385888281345876e-06,4.779803136991523e-07,-1.522924130618945e-07,1.540314461930598e-06,1.422089744653224e-06
1.5025860875357507e-06,-2.2660301499619106e-07,1.3993759555829628e-07,6.783882787540351e-07,1.4388285101331918e-07,8.852349170538505e-07,1.406490577736022e-06,9.46015294386102e-07,9.17385758180185e-07,1.241830323205984e-06,1.309490611632815e-06,2.547238783475093e-07,-1.7340755782850664e-07,-1.241193476700371e-06,4.2093036364143205e-07,-1.9638523599091436e-07,1.4730731545959954e-06,1.3645746059831854e-06
1.4817476244805223e-06,-1.929239494741785e-07,1.279231740536774e-07,6.286822428692983e-07,1.4416343626275053e-07,8.655358459408673e-07,1.3586187146739e-06,8.906106305272181e-07,8.911266439032999e-07,1.2327853234219364e-06,1.3072620214050867e-06,2.31482168748786e-07,-2.1645265700246202e-07,-1.2597941964040405e-06,3.7948770764636773e-07,-2.420550134410556e-07,1.4032568668702923e-06,1.3268351157135517e-06
1.4596805419489306e-06,-1.8108712526163163e-07,1.052757732521657e-07,5.795913950836065e-07,1.2844855842936177e-07,8.563861207481556e-07,1.288961184256191e-06,8.272497338591953e-07,8.572825883275908e-07,1.21467554225961e-06,1.295143813514329e-06,2.0698747773098354e-07,-2.614447191684002e-07,-1.2897895915788576e-06,3.4435244814186343e-07,-2.8677829971377106e-07,1.3368419972772672e-06,1.3032484713225572e-06
1.4352669277419886e-06,-1.7979967496642726e-07,7.724162757458628e-08,5.353024415826493e-07,1.0305221786429543e-07,8.504671430796881e-07,1.2074247355944877e-06,7.651590779538995e-07,8.244741036756753e-07,1.1919421623173204e-06,1.2773306033369266e-06,1.8483608276061482e-07,-3.0312432909512986e-07,-1.321731307524389e-06,3.1620672714828575e-07,-3.2551624399692384e-07,1.2800476887779966e-06,1.2658428934911161e-06
1.410270037590082e-06,-1.848920250486218e-07,4.865955435199808e-08,5.024124778853702e-07,7.114064383215502e-08,8.514382516606556e-07,1.1266380999926936e-06,7.153407404507835e-07,8.063784263051158e-07,1.1699614618269562e-06,1.2600588545193985e-06,1.6976711085252555e-07,-3.3509891666576865e-07,-1.3441310727454729e-06,2.9410593078655287e-07,-3.5201855262577273e-07,1.2325591892413196e-06,1.2354355613728442e-06
1.3863928782068143e-06,-1.9305200353388784e-07,2.396214043172485e-08,4.849165799596912e-07,4.5450302363008526e-08,8.620500786822233e-07,1.058073362998221e-06,6.853070627340046e-07,8.01967467101996e-07,1.1530157649619484e-06,1.2483767434231055e-06,1.6481374264770283e-07,-3.533810426339675e-07,-1.348831691654119e-06,2.829508339786776e-07,-3.616348928704731e-07,1.2010202788287545e-06,1.2114694272085568e-06
1.3632714569544466e-06,-2.0394998522642723e-07,7.770853959259195e-09,4.828777262279986e-07,3.160325284582628e-08,8.794584945017681e-07,1.0076838561460937e-06,6.754030221572674e-07,8.087254947672983e-07,1.1427862522438858e-06,1.2441072093215622e-06,1.6963090281276354e-07,-3.5847105144248663e-07,-1.3333610991721089e-06,2.836512675058786e-07,-3.533143015640267e-07,1.1861670582526402e-06,1.1936359189825035e-06
1.3412760371926494e-06,-2.0847018064548106e-07,-1.1182346088943447e-09,4.923914402274418e-07,3.015433122801246e-08,8.985119946497694e-07,9.749690877947117e-07,6.802144023693112e-07,8.239680586053683e-07,1.1385405637735256e-06,1.2465101296573582e-06,1.8141747183081616e-07,-3.542108917570469e-07,-1.3034665072960893e-06,2.9190727406398284e-07,-3.30825228487079e-07,1.1825979013757485e-06,1.1789921042700066e-06
1.3197894529165023e-06,-2.091435592481297e-07,-5.263994420738647e-09,5.071738338939428e-07,3.8318931891713063e-08,9.13538915985511e-07,9.551767243284917e-07,6.920664123855857e-07,8.365355032170241e-07,1.1383887415833496e-06,1.2537075181026537e-06,1.9632008830976112e-07,-3.456081158284591e-07,-1.2669617225328402e-06,3.022954383018149e-07,-3.0062075149702117e-07,1.1833173623345541e-06,1.1778754321094083e-06
1.2974593476891565e-06,-2.1079201931936796e-07,-7.609894988265354e-09,5.206553152172931e-07,5.097614249896835e-08,9.201595696029715e-07,9.416954442913104e-07,7.030779942254454e-07,8.481544435797092e-07,1.1398915001181314e-06,1.2631322756107888e-06,2.1004880115325886e-07,-3.375646297250474e-07,-1.233561514965168e-06,3.093498349487487e-07,-2.6977104998658317e-07,1.1811955573467784e-06,1.178493739810445e-06
1.273301663975424e-06,-2.1277710438055253e-07,-9.463936409130695e-09,5.275560682858437e-07,6.296243990970289e-08,9.162552348662312e-07,9.281804711093466e-07,7.070581600726657e-07,8.550697021761238e-07,1.1406657289561925e-06,1.272074793402515e-06,2.1910393498840187e-07,-3.3358395933459947e-07,-1.2084415805954097e-06,3.0926617827266205e-07,-2.4441351800748645e-07,1.1712036183544559e-06,1.169355474656613e-06
1.2470003312691791e-06,-2.1929514369248445e-07,-1.2719964602954209e-08,5.25874943288968e-07,7.239770034020841e-08,9.028522604089814e-07,9.11141814819265e-07,7.022442668532436e-07,8.541086823465323e-07,1.1394943863105363e-06,1.2791423904860182e-06,2.2258412190470387e-07,-3.342066457678915e-07,-1.1941129744163785e-06,3.015720847931717e-07,-2.2725076751990814e-07,1.1525637906370422e-06,1.1596057496388868e-06
1.2192769098023311e-06,-2.2973518581170674e-07,-1.7370255776834484e-08,5.177087426232362e-07,8.081724110683971e-08,8.839472204470476e-07,8.911484337163631e-07,6.915377261110252e-07,8.436949527207354e-07,1.13660678302073e-06,1.2849037606265677e-06,2.2213414045318944e-07,-3.372782537053799e-07,-1.1855122163392818e-06,2.8882521222915605e-07,-2.170363168768536e-07,1.1282440907496548e-06,1.1468907534645326e-06
1.1914664041580344e-06,-2.4117425648144137e-07,-2.3271511795250698e-08,5.070255534966263e-07,9.054692831769607e-08,8.642289874771829e-07,8.706962571689829e-07,6.786789820829405e-07,8.283538598146524e-07,1.1323463485513934e-06,1.2905091287666566e-06,2.195870853021261e-07,-3.404367749081393e-07,-1.1791583118700567e-06,2.7420221249911425e-07,-2.1167215257676783e-07,1.1018467473212062e-06,1.134668563328786e-06
1.1645468749795335e-06,-2.5072003755767446e-07,-2.9689614012493815e-08,4.964383301329488e-07,1.0237096640715846e-07,8.464472952616903e-07,8.507958771803722e-07,6.64847556648669e-07,8.108804951305375e-07,1.12590650476204e-06,1.2963565098674726e-06,2.15186875100106e-07,-3.429217066740732e-07,-1.1751559914912625e-06,2.597099033956204e-07,-2.106161214374511e-07,1.0754262139128216e-06,1.1278968386649228e-06
1.1387195623799229e-06,-2.5887734348462026e-07,-3.680651277797665e-08,4.86502159413534e-07,1.1554981660195357e-07,8.308585878108049e-07,8.300414374359167e-07,6.494204261607077e-07,7.917929527864266e-07,1.1156479773800466e-06,1.3023752796131998e-06,2.0868814041115093e-07,-3.4507991922693965e-07,-1.1766750568132887e-06,2.4650758571213456e-07,-2.1449475624227753e-07,1.0497961087218889e-06,1.1274849125614398e-06
1.1136591767845704e-06,-2.655317875069303e-07,-4.301346710483673e-08,4.771329248501136e-07,1.274425510419559e-07,8.162853779605208e-07,8.062634884789835e-07,6.316122578213105e-07,7.728773313567793e-07,1.1000572910982216e-06,1.3085449312218914e-06,1.987972423363317e-07,-3.474664717832909e-07,-1.1867987625866052e-06,2.355138320413882e-07,-2.2567653106568741e-07,1.0249723291494482e-06,1.1288395542995835e-06
1.0885551667476974e-06,-2.700367550071447e-07,-4.8174621330531494e-08,4.6814240452548303e-07,1.3672294821345137e-07,8.008422233911846e-07,7.780192221603211e-07,6.13155289222618e-07,7.535830291014794e-07,1.077977703884414e-06,1.3143099789467993e-06,1.8406640730073526e-07,-3.5099910959255397e-07,-1.204597784823814e-06,2.267685115275733e-07,-2.436735532476915e-07,9.991904443964251e-07,1.131283707755329e-06
1.0618923610883551e-06,-2.7282799361330475e-07,-5.166462702782935e-08,4.587268002226325e-07,1.44623840421121e-07,7.823812814127618e-07,7.455495698479033e-07,5.938822675560036e-07,7.329474139969071e-07,1.0489049043806996e-06,1.3180548016822164e-06,1.64052269505984e-07,-3.568647666774301e-07,-1.2270014940468938e-06,2.1881318411241932e-07,-2.655971009754315e-07,9.693764949292795e-07,1.1336677146960417e-06
1.0318147432617737e-06,-2.731631163083364e-07,-5.317828389126127e-08,4.481175963885225e-07,1.5276071728006737e-07,7.597768400705004e-07,7.123104142595116e-07,5.745103132540087e-07,7.100154132372043e-07,1.0137655978366093e-06,1.3178033911311008e-06,1.39181460161096e-07,-3.654000695526037e-07,-1.2457382221350994e-06,2.09242293709445e-07,-2.849823161855569e-07,9.324800732300241e-07,1.1310835029315234e-06
9.96943061508559e-07,-2.685038974397292e-07,-5.144050618838698e-08,4.3705260276161743e-07,1.6529277990822186e-07,7.340991821931115e-07,6.856718384048416e-07,5.581590894649006e-07,6.839315436040089e-07,9.75082331820786e-07,1.3117838023921684e-06,1.1130264563490388e-07,-3.756965958278121e-07,-1.247067766079594e-06,1.9524591581204385e-07,-2.9213844635977465e-07,8.863725955627328e-07,1.1203572184900415e-06
9.565183459422983e-07,-2.57593849232244e-07,-4.263998329963479e-08,4.275998448718862e-07,1.946971551676595e-07,7.077822512579817e-07,6.743334460639217e-07,5.464157499329369e-07,6.533591286296591e-07,9.357090729655745e-07,1.2977708255398997e-06,8.449385327596972e-08,-3.862215531616254e-07,-1.215672412626499e-06,1.7337843935310433e-07,-2.781790044136546e-07,8.293564965342988e-07,1.1050803654395932e-06
9.099088405595331e-07,-2.3740032359971368e-07,-2.6969691857599763e-08,4.216910646814997e-07,2.2955450482350914e-07,6.826073440074558e-07,6.840945495527095e-07,5.370513459512818e-07,6.156947198504247e-07,8.975807829124631e-07,1.272892443737335e-06,6.174334527038973e-08,-3.95356560552018e-07,-1.1434559401270723e-06,1.402664725951143e-07,-2.364213245611203e-07,7.602628037709956e-07,1.078703715516023e-06
8.569175103418274e-07,-2.0450271718922083e-07,-4.14928091588315e-09,4.2118473202124785e-07,2.715347278070484e-07,6.592677908381477e-07,7.162186503932974e-07,5.287423800900939e-07,5.6878729355998e-07,8.619996661913449e-07,1.2355331872030474e-06,4.5631421180659884e-08,-4.001086839903093e-07,-1.0270292122721438e-06,9.539281843319138e-08,-1.644583904938577e-07,6.809797609141266e-07,1.0128929790027845e-06
7.991726313752835e-07,-1.605604159722314e-07,2.5024670687294175e-08,4.2931076079754095e-07,3.243813905446538e-07,6.387283614864467e-07,7.689501321227195e-07,5.235845244565217e-07,5.139388893007694e-07,8.30757355231674e-07,1.1873699478022492e-06,4.0576332245501904e-08,-3.950879476531186e-07,-8.670520054747769e-07,4.362592978180228e-08,-6.538178581362939e-08,5.982517394505901e-07,9.484788820959272e-07
7.407668070955872e-07,-1.1608497442337032e-07,5.9173998864600586e-08,4.502713692077798e-07,3.848743207051969e-07,6.226172904971253e-07,8.384198498348532e-07,5.256962261245861e-07,4.5605738021637197e-07,8.058339912466754e-07,1.132607945058605e-06,5.095196812467352e-08,-3.7486521776073e-07,-6.704667708034987e-07,-5.6111679575944705e-09,5.218850315555804e-08,5.206700012376509e-07,8.877509349786002e-07
6.867510875622306e-07,-6.425496398254006e-08,1.0053417464641946e-07,4.865864610686387e-07,4.4994444897890603e-07,6.116530919589934e-07,9.172613041468865e-07,5.382261082013771e-07,4.005708491088946e-07,7.876722819998978e-07,1.0754297835130267e-06,7.882413676367345e-08,-3.370049782057689e-07,-4.4840791516166464e-07,-4.2155966699522986e-08,1.7158567798292335e-07,4.544234391571183e-07,8.24551957249357e-07
6.406268790247408e-07,-7.689080594517202e-09,1.4369458438407228e-07,5.376322213349029e-07,5.149461351245708e-07,6.046390856967301e-07,9.941722477296462e-07,5.594698340554755e-07,3.510197003905904e-07,7.745261123945854e-07,1.0191966882244806e-06,1.240001735049113e-07,-2.829107933749333e-07,-2.1718786794617386e-07,-5.8811706749655846e-08,2.7639022047864615e-07,4.0148674983253475e-07,7.606891637762058e-07
6.029696114789925e-07,4.8276871873655945e-08,1.8779982048244157e-07,6.008750543982879e-07,5.875987575279238e-07,5.997146649142652e-07,1.0569229189884158e-06,5.854525482020295e-07,3.0912990551533685e-07,7.637413946329306e-07,9.678076112834721e-07,1.8691462087130346e-07,-2.1631188252313597e-07,-3.584447051368387e-09,-5.32657226639023e-08,3.541724013411279e-07,3.6070460371930156e-07,7.002262424375857e-07
5.718438157172497e-07,1.087106747288883e-07,2.3439274546905357e-07,6.731036708166079e-07,6.561593501004799e-07,5.958974229528678e-07,1.098873466649734e-06,6.132456074183532e-07,2.755009526271866e-07,7.531947266416228e-07,9.261250418803201e-07,2.6404076589718703e-07,-1.4214536940421516e-07,1.849288550246705e-07,-2.8713740194782914e-08,4.0033142124332753e-07,3.296857134991177e-07,6.435093672947917e-07
5.443987609849272e-07,1.7593511741716277e-07,2.820243582998488e-07,7.497040968593634e-07,7.178056585308072e-07,5.928775502844823e-07,1.1172510714272775e-06,6.387530800531054e-07,2.494439287289466e-07,7.41818224131885e-07,9.000994443662756e-07,3.5029660613189984e-07,-6.670217847022764e-08,3.4283468406423004e-07,6.9116221670914974e-09,4.188772352943607e-07,3.059595452027631e-07,5.927944382473865e-07
5.190962306431203e-07,2.31077262827338e-07,3.3628468295744076e-07,8.239665944517434e-07,7.58193612656402e-07,5.90247332100808e-07,1.1160060932062158e-06,6.606078466122534e-07,2.295433778999548e-07,7.30117174347986e-07,8.917833339196085e-07,4.329690033897239e-07,3.1611303066891163e-09,4.6097393953675485e-07,4.3880656984659804e-08,4.196516600918515e-07,2.8845849773353284e-07,5.517815886449038e-07
4.97709228517626e-07,2.740223051593374e-07,3.8073248300189984e-07,8.886640420512887e-07,7.755620143502014e-07,5.879175305066358e-07,1.1045831022034007e-06,6.876571650196125e-07,2.1540947283502844e-07,7.207239819993449e-07,9.012514962689565e-07,5.059145924615338e-07,6.225527427510205e-08,5.35908101181273e-07,7.446026353330496e-08,4.2346933102545395e-07,2.786001150367391e-07,5.252719509734852e-07
4.855157920724038e-07,3.070578889721505e-07,4.120309666010738e-07,9.387326138949983e-07,7.792668267914632e-07,5.869413480379108e-07,1.1001788914445801e-06,7.140260388903254e-07,2.084917936548829e-07,7.177820848173935e-07,9.262630101187282e-07,5.698044031889162e-07,1.085369651909994e-07,5.694702872061237e-07,9.484258518881394e-08,4.4103880752741687e-07,2.79473264367974e-07,5.173085050548225e-07
4.891225321623133e-07,3.2857686460391083e-07,4.350869649882858e-07,9.728068718014004e-07,7.831530856436776e-07,5.894129687547153e-07,1.1192095764371436e-06,7.463069978322429e-07,2.1091436741900035e-07,7.250206259358448e-07,9.652246173351603e-07,6.197417053646134e-07,1.425112984462898e-07,5.703763553586293e-07,1.0482875181747064e-07,4.787135740177361e-07,2.934235348977139e-07,5.291072695712577e-07
5.135952256082669e-07,3.485500648937459e-07,4.5198105459134484e-07,9.935545106826303e-07,7.984684178031482e-07,5.980199153355133e-07,1.172971424327635e-06,7.94740114899498e-07,2.2426416272628468e-07,7.44367608623562e-07,1.0161127787231737e-06,6.616320111554859e-07,1.663617265430994e-07,5.254601421194829e-07,1.0718758656339796e-07,5.382580664658657e-07,3.213900500691204e-07,5.590487198034968e-07
5.609894972127163e-07,3.7448232910464667e-07,4.706623205285217e-07,1.0074049757967006e-06,8.043990737424177e-07,6.159522490684043e-07,1.2607645531781335e-06,8.574332101058237e-07,2.4958204405102637e-07,7.759655048073563e-07,1.0781899616607463e-06,6.911979355716315e-07,1.8345840369627665e-07,4.662514132073485e-07,1.0723062922162865e-07,6.141029273037696e-07,3.635848010543934e-07,6.042072305903659e-07
6.305531663901679e-07,3.917579708623584e-07,4.799464578595718e-07,1.0226690493428085e-06,7.791845813194606e-07,6.462018629851583e-07,1.3492129208237285e-06,9.168607142175531e-07,2.8684473746490644e-07,8.183460501250631e-07,1.1485774754417751e-06,7.024211123131338e-07,1.9668125616204269e-07,4.0888309857758876e-07,1.1141488765631364e-07,6.993256061495681e-07,4.190390158440731e-07,6.609922985058135e-07
7.196068244407797e-07,3.833296024645614e-07,4.916077902884726e-07,1.0457366503459494e-06,7.35535507143595e-07,6.898125543650662e-07,1.4187276690948295e-06,9.741899431835088e-07,3.3342067836764703e-07,8.680978666110232e-07,1.2063297729337007e-06,6.909959923625529e-07,2.0623739309973775e-07,3.067063874722296e-07,1.2532026247632523e-07,7.794308645316328e-07,4.845415803252547e-07,7.247950520473602e-07
8.245446898521206e-07,3.5801718241540483e-07,4.6788461377695493e-07,1.0780397901477262e-06,6.434922781663168e-07,7.448238863820882e-07,1.4340517992852707e-06,9.95094339767926e-07,3.838709274138078e-07,9.202025803799243e-07,1.2445196589882635e-06,6.465253262937296e-07,2.0933299245804258e-07,1.8371946969747158e-07,1.5284945560330938e-07,8.420209199677624e-07,5.550574101542801e-07,7.905643155763997e-07
9.416645550499715e-07,2.577108100669685e-07,4.055164397412507e-07,1.1161901617696512e-06,5.878708772099651e-07,8.0703324968708e-07,1.3451955893692653e-06,9.105114710760586e-07,4.3192492796126836e-07,9.694209949094657e-07,1.2403994618631182e-06,6.03076410910021e-07,2.0193000666084402e-07,1.3692996022947092e-07,1.9633568254649293e-07,8.75461207735227e-07,6.251630489344017e-07,8.540416889040486e-07
1.0668759751378545e-06,2.2203091826247553e-07,3.7802004852535197e-07,1.1537603240354686e-06,5.734320637096605e-07,8.709046561981794e-07,1.3055619280822492e-06,8.613392920761071e-07,4.719335044520491e-07,1.0112009774797137e-06,1.1909693082691332e-06,6.16073994722486e-07,1.8005515746563428e-07,9.202796558972688e-08,2.5521684557217295e-07,8.738035538890833e-07,6.88981519170342e-07,9.113219432748847e-07
1.193746030659873e-06,2.0090351187855224e-07,3.447753165273331e-07,1.182189152546717e-06,5.678027265822465e-07,9.291978081272989e-07,1.2683770572656182e-06,8.279880160504659e-07,4.982614636550988e-07,1.0413956496030804e-06,1.1820106273952484e-06,6.840559594527462e-07,1.3953937347622463e-07,1.7750797811044095e-08,3.234461327717706e-07,8.373132601890195e-07,7.3862374121902e-07,9.570015971666153e-07
1.3116021528874098e-06,1.8451750913861745e-07,3.1862445194435193e-07,1.191876629247556e-06,5.968360645973461e-07,9.731130845762836e-07,1.2399976097665634e-06,8.025385248581798e-07,5.051281607451059e-07,1.056383654158008e-06,1.2077822439721166e-06,7.3576210216734e-07,7.683274393314656e-08,-6.088823370204564e-08,3.8913421529103203e-07,7.690613765708401e-07,7.651456407675252e-07,9.842089584532227e-07
1.4067556502384886e-06,1.5616495158956945e-07,3.436946727001714e-07,1.1757899698896867e-06,5.271564840608164e-07,9.951097841658123e-07,1.0764664631937691e-06,8.109607427133274e-07,4.890684282216474e-07,1.0547622814488156e-06,1.2058669386441735e-06,6.70615918060064e-07,-8.229154299265518e-09,-2.754604131240388e-07,4.384063924509917e-07,6.778356257405029e-07,7.62909899316503e-07,9.87610460797494e-07
1.4676787078869018e-06,5.597352909778017e-08,2.8176478790860266e-07,1.133748542210104e-06,3.964475484917698e-07,9.92784794971718e-07,8.497945538728909e-07,7.546618414991417e-07,4.516785368177925e-07,1.0389781693502289e-06,1.150007918913351e-06,5.407879726774395e-07,-1.0988626914589492e-07,-5.016119518010365e-07,4.6116199290571783e-07,5.687796387427909e-07,7.329530230672215e-07,9.662589385257846e-07
1.4909226230508446e-06,-1.7500383706709966e-08,1.346929651804318e-07,1.0728243828758912e-06,2.879835918469413e-07,9.701597855780284e-07,7.304387385436606e-07,6.018963555790486e-07,3.992317188899728e-07,1.0146556718586058e-06,1.0480346161567798e-06,4.3900173998336746e-07,-2.2032000266890076e-07,-6.749840063324702e-07,4.5516121423165e-07,4.5822043176079876e-07,6.821392284819831e-07,9.235664376244105e-07
1.4833862972114802e-06,-8.686248614160537e-08,5.247639052453594e-08,1.0032530632981254e-06,1.4004605643554892e-07,9.357240386669346e-07,6.290747565619486e-07,4.478743490658311e-07,3.3983191680449364e-07,9.881540800515422e-07,9.389853822964596e-07,3.4447904026871796e-07,-3.2933737911239977e-07,-8.143643587598825e-07,4.2706626343200885e-07,3.5128704891452544e-07,6.200218648079578e-07,8.657144219541319e-07
1.4595651467938676e-06,-1.4389985781434586e-07,-3.7392001340380824e-08,9.342020747615385e-07,1.3497099943808599e-08,8.999032401016061e-07,5.403946297564282e-07,3.6680383448770957e-07,2.8148501343121397e-07,9.64860274845443e-07,8.538759083511754e-07,2.819344518547414e-07,-4.280096681243142e-07,-9.449632833219776e-07,3.91452518303455e-07,2.5449944982329757e-07,5.569433971269335e-07,8.009310918629302e-07
1.4357620585302647e-06,-1.9094859270135855e-07,-1.326907297074759e-07,8.723613580437272e-07,-1.2504216057022958e-07,8.733846257377152e-07,5.290793011347132e-07,3.020362148206914e-07,2.3205212504459358e-07,9.489952973628635e-07,8.05766195350162e-07,2.3719191219057576e-07,-5.215796637213261e-07,-1.084759578831231e-06,3.6419982575551934e-07,1.6509673294503156e-07,5.052047436191228e-07,7.391390906565185e-07
1.4240131673832554e-06,-2.4347147864446196e-07,-1.7844673884108083e-07,8.217971024355807e-07,-2.410834998065962e-07,8.649011490774958e-07,5.552653741293565e-07,2.6668360035255564e-07,1.9850650293757408e-07,9.433733191590888e-07,8.134643072626686e-07,2.232063159975807e-07,-5.866787772104117e-07,-1.2063870024679443e-06,3.526896276703866e-07,7.858580739522388e-08,4.7284271541791864e-07,6.900831447120175e-07
1.4280469507535523e-06,-2.79460606169342e-07,-2.0495937941533242e-07,7.833072503930179e-07,-3.4966478021369736e-07,8.779611800280149e-07,5.596688583765047e-07,2.590423826103027e-07,1.8474798848838865e-07,9.485594032268241e-07,8.455165532788464e-07,2.2178935179350492e-07,-6.131040176815379e-07,-1.2451755072989532e-06,3.8149316994538545e-07,3.08245327184951e-09,4.636910381025372e-07,6.606813529815993e-07
1.4430251086439945e-06,-2.9760066471695176e-07,-2.2409316754575677e-07,7.546216037613268e-07,-3.8919477159301793e-07,9.089922222730005e-07,5.47757974331018e-07,2.4195988886083603e-07,1.9055893064733158e-07,9.62735931902459e-07,8.600345599547157e-07,2.337727884051164e-07,-6.32074616378336e-07,-1.26160141801885e-06,4.239398014328831e-07,-5.6294264474252204e-08,4.780316642749951e-07,6.541790298574276e-07
1.4589933653384353e-06,-2.9016637883433624e-07,-2.5599875705799836e-07,7.327380346879594e-07,-4.0310855400869713e-07,9.490138134697542e-07,5.437805632192611e-07,2.1587014980461708e-07,2.1301601629467925e-07,9.828896620438072e-07,8.798415855279722e-07,2.2537405928925293e-07,-6.465800869845355e-07,-1.229203761426817e-06,4.831860891805575e-07,-9.122358624236003e-08,5.132568186157172e-07,6.711543145777351e-07
1.465560054518392e-06,-2.921695540559988e-07,-2.886172941935589e-07,7.162770657530677e-07,-3.7280882252117003e-07,9.873379982486023e-07,5.534287877636146e-07,2.2015423137329173e-07,2.4811275585649415e-07,1.0057581645922938e-06,9.065711209828335e-07,2.0145773955331925e-07,-6.501510447941264e-07,-1.1587923554383427e-06,5.450606965360728e-07,-8.990836415277318e-08,5.659431532064381e-07,7.097998235276605e-07
1.4551268551617466e-06,-2.957498967842906e-07,-3.0879119022764395e-07,7.052163279688532e-07,-2.8028747330300345e-07,1.01441620254264e-06,5.85481668967161e-07,2.4192953407845203e-07,2.905999981684846e-07,1.0277471459032551e-06,9.319953426365874e-07,1.8629683589041292e-07,-6.471539229551165e-07,-1.0798185789149613e-06,5.976532432506937e-07,-4.9454057179582693e-08,6.301731545165179e-07,7.648835958108908e-07
1.4243148937477537e-06,-3.164405144467981e-07,-3.180727805533459e-07,6.992001828460693e-07,-1.9087465162881862e-07,1.0235143484084164e-06,6.391666391619918e-07,2.948989630232814e-07,3.3380891555417033e-07,1.045084375906164e-06,9.77796658342768e-07,1.692512594121553e-07,-6.458199125642856e-07,-1.0072717897219712e-06,6.305547524149785e-07,2.1180355267827847e-08,6.953186525495207e-07,8.278507520754431e-07
1.3747259216418554e-06,-3.597523052701399e-07,-3.1999669101260064e-07,6.972663094530427e-07,-1.0509600257650572e-07,1.0123865545447442e-06,7.05177683799514e-07,3.7827823501312644e-07,3.7115943144421314e-07,1.0550925291002796e-06,1.0200231531548558e-06,1.5312063956894449e-07,-6.491771982164814e-07,-9.740064755900582e-07,6.375989179221845e-07,1.0799922733972185e-07,7.531208743698867e-07,8.890793369287124e-07
1.3129902947264516e-06,-3.954942509379033e-07,-3.1375029907456557e-07,6.98516426879169e-07,-2.7518672569395106e-08,9.840720921261628e-07,7.701795488640431e-07,4.366168350416788e-07,3.979022075927809e-07,1.057122631498866e-06,1.0565164351866596e-06,1.434990712724663e-07,-6.593731324417911e-07,-9.756859330096942e-07,6.180789144340311e-07,1.9582092866729485e-07,7.979040162644858e-07,9.400324951578352e-07
1.2488936223817912e-06,-4.201245512149493e-07,-3.1024468923475287e-07,7.014682394726807e-07,3.46528376708794e-08,9.45083409406206e-07,8.212434507616311e-07,4.6914494166997226e-07,4.1118852447443116e-07,1.051921981062939e-06,1.090405951670537e-06,1.343994811228956e-07,-6.776508439802627e-07,-1.0019872903605232e-06,5.751780901610988e-07,2.6548844301151133e-07,8.251160872417614e-07,9.739470034701467e-07
1.1918205794836452e-06,-4.2391017800205024e-07,-3.127312837734821e-07,7.030769774821277e-07,8.93305121288763e-08,9.021604230224067e-07,8.491547931371889e-07,4.6418571184805117e-07,4.0949567003735624e-07,1.0405756039060031e-06,1.1111150900615214e-06,1.198003990528778e-07,-7.046748094606976e-07,-1.0432284890298824e-06,5.138613866264411e-07,3.0890715682521485e-07,8.32737974327918e-07,9.867172103838704e-07
1.1476267259633419e-06,-4.1629789865672597e-07,-3.1987467822023793e-07,7.002579955392763e-07,1.25024702223116e-07,8.60554794700008e-07,8.517371453890334e-07,4.1914550664791e-07,3.9359365541991266e-07,1.0244803120073968e-06,1.1226770659397913e-06,1.02340973349578e-07,-7.392754447334962e-07,-1.1006814314958412e-06,4.4021168032371434e-07,3.491827052640908e-07,8.21686474166399e-07,9.78700630790956e-07
1.1173458228233637e-06,-4.059913746635195e-07,-3.3918741356800605e-07,6.928983702817626e-07,1.4109025610439673e-07,8.241995460230009e-07,8.353462596816799e-07,3.6046138305981834e-07,3.6771301544785245e-07,1.0056604910732907e-06,1.1266969828262696e-06,8.385803487076588e-08,-7.776297498036126e-07,-1.1648764216627075e-06,3.6112204312105005e-07,3.883419923892272e-07,7.966860467556708e-07,9.550239783000853e-07
1.0972920041619873e-06,-3.95546009856334e-07,-3.6480436879525737e-07,6.843455794767429e-07,1.4416912930771592e-07,7.95637860080315e-07,8.112536740246179e-07,2.9863767297126055e-07,3.3835723369008885e-07,9.860170002414321e-07,1.1246602290442308e-06,6.52738750067665e-08,-8.147231389609748e-07,-1.2141067198410896e-06,2.8305043990732273e-07,4.415804169584053e-07,7.642107311210341e-07,9.229010458031757e-07
1.0800027835720995e-06,-3.8927632532275583e-07,-3.8903041596171613e-07,6.78884682813686e-07,1.3729244357530827e-07,7.753289562497787e-07,7.887433659091472e-07,2.434194985052276e-07,3.115057095521592e-07,9.66213428099399e-07,1.1198021754572892e-06,4.8328771270623584e-08,-8.46418677606163e-07,-1.2477145723675668e-06,2.1016701187987828e-07,4.73270433076533e-07,7.30027895637945e-07,8.883452644747069e-07
1.0563324815129932e-06,-3.8169568815507417e-07,-4.0754975142395266e-07,6.798527163544291e-07,1.4238705486769182e-07,7.621895792834159e-07,7.711442861999145e-07,2.0177569904884136e-07,2.9143113811470103e-07,9.459233915336629e-07,1.11417169336316e-06,3.096485635369316e-08,-8.697138952705574e-07,-1.2597483090067494e-06,1.4784069398312338e-07,4.954761435073368e-07,6.932544815397889e-07,8.550197164843868e-07
1.0185333014681632e-06,-3.7778142207135713e-07,-4.1555620118860145e-07,6.898595152867659e-07,1.830395756510668e-07,7.554588055531152e-07,7.572992872303616e-07,1.7550607976153946e-07,2.813544779844505e-07,9.251935669125828e-07,1.109551536232947e-06,1.1270017716828025e-08,-8.817019838585148e-07,-1.2398732642747455e-06,1.0054582689279542e-07,5.244160353323359e-07,6.57068421213821e-07,8.246941493840828e-07
9.629691787067513e-07,-3.7592276564380795e-07,-4.028571933880759e-07,7.105945211686131e-07,2.542663484877712e-07,7.553900470662316e-07,7.448093718203859e-07,1.6517174056965555e-07,2.832643576239443e-07,9.050127697795455e-07,1.1074819160677514e-06,-9.377948874927876e-09,-8.79414089725737e-07,-1.1839674819603936e-06,7.219980350354849e-08,5.854282770939347e-07,6.240350139710447e-07,7.976219298268326e-07
8.912446643309569e-07,-3.707742667447105e-07,-3.7015975040556284e-07,7.410543017233367e-07,3.2415593892893706e-07,7.618293628446497e-07,7.319015997219282e-07,1.6952969798633754e-07,2.965866777459245e-07,8.866662101455975e-07,1.108316408196617e-06,-2.8979476788307826e-08,-8.605563540894902e-07,-1.090188879818693e-06,6.46451615979635e-08,6.789626766397376e-07,5.93718487896688e-07,7.731891068085593e-07
8.095986802602509e-07,-3.603341479365555e-07,-3.225319082331421e-07,7.765405824331794e-07,3.734578189070013e-07,7.727679997233362e-07,7.190446281625946e-07,1.8262679608952393e-07,3.179458859268804e-07,8.711421424790464e-07,1.1110588370584206e-06,-4.4620115662886216e-08,-8.237339438576652e-07,-9.568240943065957e-07,7.94485652064174e-08,7.561310641779889e-07,5.662816836403486e-07,7.516871321357663e-07
7.267407543194569e-07,-3.4192930624189277e-07,-2.6635538646601884e-07,8.098188891935247e-07,4.1324935416053277e-07,7.842204200670484e-07,7.110517003594567e-07,1.981377336772035e-07,3.424918223040581e-07,8.59031480212851e-07,1.1141216907435388e-06,-5.165995124420596e-08,-7.686620968192556e-07,-7.9241421248328e-07,1.0916391104904324e-07,8.700895736613672e-07,5.403839218880815e-07,7.358061776432769e-07
6.50370357140893e-07,-3.1790708707862026e-07,-2.1049958014185356e-07,8.327405935464087e-07,4.624440920767538e-07,7.903533238866771e-07,7.171230208869008e-07,2.160861550289014e-07,3.6476797518681684e-07,8.500924128892132e-07,1.1152899223943542e-06,-4.53939336436888e-08,-6.974466335655268e-07,-6.093719617885936e-07,1.463642781506907e-07,9.72515257654744e-07,5.140726249080626e-07,7.299927018183927e-07
5.837805156697364e-07,-2.939049691747555e-07,-1.6151860706398165e-07,8.3734491684686e-07,5.237516692604835e-07,7.836755224728584e-07,7.47615634636959e-07,2.3803436254952895e-07,3.7898144785224657e-07,8.428603520242811e-07,1.1112938115077149e-06,-2.222329130602048e-08,-6.154854455085354e-07,-4.1824890720771305e-07,1.9277965120009948e-07,1.0221330476512972e-06,4.895050589879463e-07,7.385651407570337e-07
5.249249010116729e-07,-2.7359036601326285e-07,-1.2189654749911583e-07,8.179075164495435e-07,6.283593695171146e-07,7.571941013943476e-07,8.104749165948739e-07,2.6787285175043635e-07,3.809474091173619e-07,8.357614825675081e-07,1.099206511143274e-06,2.1360878256848377e-08,-5.296305192439294e-07,-2.373562864505584e-07,1.8909016295345794e-07,1.0690805503020452e-06,4.65318864892573e-07,7.64573915800709e-07
4.687964143151284e-07,-2.640617320710948e-07,-9.306624538445328e-08,7.740080985369258e-07,8.294164055601833e-07,7.085832014643271e-07,9.096079555854716e-07,3.1369961767612547e-07,3.7129114083374056e-07,8.293417374452481e-07,1.0791819651046053e-06,8.879503344201851e-08,-4.4460884223005763e-07,-6.995690853712681e-08,1.595528641289431e-07,1.102289439036989e-06,4.4246491473248677e-07,8.089083848368308e-07
4.1113611920818944e-07,-2.6320298242200674e-07,-7.124684145043961e-08,7.116531220207842e-07,9.162146674599847e-07,6.427864014794555e-07,1.043589442549643e-06,3.8338661291630027e-07,3.559740440364938e-07,8.266438862882047e-07,1.0553343520915621e-06,1.8163890029109522e-07,-3.614565138408039e-07,8.216417216664715e-08,1.3955152020247326e-07,1.1419045504685382e-06,4.259779906570337e-07,8.681892417783518e-07
3.509093441279247e-07,-2.62307834860419e-07,-5.008285543733234e-08,6.408519547968728e-07,9.066100556314179e-07,5.702733506674097e-07,1.203766130285987e-06,4.786365964802678e-07,3.4265789557243674e-07,8.318514241393761e-07,1.0338962078063905e-06,2.9636466097314165e-07,-2.790351855683846e-07,2.418451720276606e-07,4.163799978099883e-08,1.1625836427763614e-06,4.184456412353667e-07,9.331170437767379e-07
2.909057849254514e-07,-2.5231623625706193e-07,-2.8075801542394145e-08,5.720447437223296e-07,9.422013671299484e-07,5.025478420088095e-07,1.3748411643624947e-06,5.916039932927481e-07,3.3639141476138283e-07,8.482676857558288e-07,1.0211058963828856e-06,4.2262982028150865e-07,-1.959601360062881e-07,4.120864435565011e-07,-6.238932671224466e-08,1.2501709787947747e-06,4.2001918962035734e-07,9.90636867405694e-07
2.370453232338715e-07,-2.2369136410246233e-07,-7.550723627193659e-10,5.139617748344214e-07,9.740752336683954e-07,4.482226677694762e-07,1.5400131361799948e-06,7.084326346971962e-07,3.382314428482442e-07,8.774942704056067e-07,1.022467379891286e-06,5.46638787448661e-07,-1.1094835479648645e-07,5.850692156472703e-07,-1.3910466274996974e-07,1.2951311738493259e-06,4.285285907852883e-07,1.029410960811908e-06
1.9645006784231918e-07,-1.7135863185826426e-07,3.361884803568945e-08,4.7234011675305915e-07,1.0841644336905599e-06,4.1089262996949745e-07,1.6870151984616672e-06,8.157556886645912e-07,3.4624102027309295e-07,9.192721505751816e-07,1.0418581936346892e-06,6.581196927549672e-07,-2.267354207711866e-08,7.619279345543988e-07,-1.648161337409352e-07,1.3120721512940602e-06,4.406490500777747e-07,1.0440972552743048e-06
1.7449621615409532e-07,-9.792654598511217e-08,7.337395105739258e-08,4.4837987391052575e-07,1.2289831610314175e-06,3.885888685571644e-07,1.8101850938129404e-06,9.043583815658382e-07,3.567744737775111e-07,9.70985121453102e-07,1.0796820679165666e-06,7.507647545846822e-07,6.957483047269979e-08,9.337229762004932e-07,-1.5320534611440968e-07,1.3649196185435373e-06,4.5211882807415327e-07,1.0359210870426268e-06
1.725638102180632e-07,-1.0222118668665969e-08,1.16373907622095e-07,4.383938263494922e-07,1.347821329151482e-06,3.752546853427689e-07,1.9089341925589037e-06,9.704827857590963e-07,3.658359030927332e-07,1.028284345935025e-06,1.132073160368185e-06,8.239728310123236e-07,1.6533629606257907e-07,1.0959443140224265e-06,-1.566027753546607e-07,1.4192595024341958e-06,4.647200627600073e-07,1.011151575334945e-06
1.8821619545827134e-07,8.352869270608648e-08,1.599177206556861e-07,4.362640133571714e-07,1.4661120285700515e-06,3.6419662336793525e-07,1.986020622662144e-06,1.016725616214887e-06,3.710226278084973e-07,1.0869120269203931e-06,1.1924859605657112e-06,8.855927711954999e-07,2.634031085619616e-07,1.2441045269616884e-06,-1.3077932028612845e-07,1.432018671431004e-06,4.791302580103099e-07,9.789508978379813e-07
2.1713192425172028e-07,1.733973252438106e-07,2.0017068751880697e-07,4.368596747140718e-07,1.550378516856803e-06,3.512038973416902e-07,2.0462418689468505e-06,1.050794311004091e-06,3.72575526576764e-07,1.144371588480984e-06,1.254018270668457e-06,9.461717548025016e-07,3.6220315992588883e-07,1.3754697004822065e-06,-7.322004989678299e-08,1.519001213826765e-06,4.975862096669273e-07,9.481090347144878e-07
2.5461940646420714e-07,2.52884763394543e-07,2.3671766205904043e-07,4.3730348463538797e-07,1.6193753868835883e-06,3.3508295057048057e-07,2.0942792659448077e-06,1.080993084590722e-06,3.7219182814802193e-07,1.1995512068375434e-06,1.3104919427294787e-06,1.0104221663612463e-06,4.605284425671866e-07,1.483787181084681e-06,6.9077201664523385e-09,1.6307519825505352e-06,5.23097273791326e-07,9.235724628220577e-07
2.960343234803488e-07,3.2026415343398984e-07,2.7113282360401177e-07,4.363177197763101e-07,1.6965162396082727e-06,3.1656288436805673e-07,2.1327781732333826e-06,1.1122038253443309e-06,3.713199654130023e-07,1.2515301703333784e-06,1.3568955451232822e-06,1.081830125010056e-06,5.553047353426281e-07,1.5682682800423622e-06,7.693706875407733e-08,1.708305076815193e-06,5.547930312842191e-07,9.05542185917519e-07
3.37246654540449e-07,3.7707489457766783e-07,3.042745235526812e-07,4.340939233612802e-07,1.7778024825343472e-06,2.9785530889724635e-07,2.1626534176905923e-06,1.1456478107055019e-06,3.7097107024083175e-07,1.2992178308202124e-06,1.3902834578194545e-06,1.158310744238207e-06,6.444461081886265e-07,1.6357345818837195e-06,1.39893067380385e-07,1.7786488946862681e-06,5.910420778517703e-07,8.913871258049987e-07
3.757049188808874e-07,4.2833935199932133e-07,3.38466669879728e-07,4.326562334215922e-07,1.8499537157031155e-06,2.826765088672183e-07,2.1844078796656977e-06,1.1799569242878463e-06,3.720503049075051e-07,1.3415189284917607e-06,1.4102392933704547e-06,1.2355122218030902e-06,7.283691773440646e-07,1.6927935429505202e-06,2.0110527006636437e-07,1.8122436421874233e-06,6.295308303007145e-07,8.773648044950653e-07
4.110841674339835e-07,4.804492913058599e-07,3.7425130120670443e-07,4.3471252759075377e-07,1.8929326524063088e-06,2.750876844455368e-07,2.197832598211692e-06,1.2105801778740362e-06,3.7447602609417893e-07,1.377176306165592e-06,1.4178697440841633e-06,1.3112674372988944e-06,8.078107085686812e-07,1.7489648922877043e-06,2.637557366512851e-07,1.8154442150478358e-06,6.633737204813426e-07,8.589315421405773e-07
4.447426174881301e-07,5.367762062128895e-07,4.119361901446259e-07,4.4159706717744174e-07,1.9631120526182112e-06,2.776977379807903e-07,2.200984429604608e-06,1.230150780555069e-06,3.765448449966618e-07,1.4047190490292695e-06,1.4147616390123693e-06,1.3822372966612437e-06,8.85971330770637e-07,1.8205906622029125e-06,3.3295497878170456e-07,1.8064001144328232e-06,6.891344652807126e-07,8.319068975830955e-07
4.786092065770632e-07,5.963895659767141e-07,4.510035105784498e-07,4.531085903261397e-07,2.0178350652374136e-06,2.912642686241257e-07,2.1915691791381786e-06,1.2330799885146434e-06,3.7666706287408e-07,1.4236072672770713e-06,1.4037655513140179e-06,1.4484660512614367e-06,9.668278576617048e-07,1.9120034155091564e-06,4.1263419457080494e-07,1.786165801753619e-06,7.065991583636801e-07,7.95410905852742e-07
5.141288778661736e-07,6.623829602716695e-07,4.903476743251973e-07,4.690325138203032e-07,2.0471504780500306e-06,3.1542117107987533e-07,2.1701614174842446e-06,1.2207471630609263e-06,3.757698928369398e-07,1.4356057991048492e-06,1.390332793898406e-06,1.512367868041918e-06,1.0540834870057468e-06,2.033975992279193e-06,5.039030999971085e-07,1.7589377622171697e-06,7.179945624513624e-07,7.53589992833492e-07
5.508565780390088e-07,7.244780926669626e-07,5.343147266418733e-07,4.889566835194351e-07,2.0555386474160136e-06,3.482628824348453e-07,2.1411087408053188e-06,1.2009930472656735e-06,3.768512639415455e-07,1.4441180326574721e-06,1.3815312593825353e-06,1.5768499568904178e-06,1.1490356149472536e-06,2.171333977465566e-06,6.02812177058573e-07,1.7329498151074744e-06,7.279029480744462e-07,7.13631473757752e-07
5.847960392265386e-07,7.80983318886428e-07,5.857008616195879e-07,5.098237281772987e-07,2.034944948441452e-06,3.8479090283022e-07,2.1099646039138416e-06,1.1827074329283428e-06,3.818559970004525e-07,1.4519515124381902e-06,1.3828690011374252e-06,1.6420483787306522e-06,1.2479683679525263e-06,2.3198254074754677e-06,6.996168550261425e-07,1.7144341943169824e-06,7.382217619041989e-07,6.81954835844002e-07
6.082697453671692e-07,8.311867619162863e-07,6.435458340504858e-07,5.250700899523497e-07,2.0153456080095387e-06,4.1713478268426933e-07,2.0810251537994307e-06,1.1721107532958774e-06,3.89834714867479e-07,1.4590652659945844e-06,1.396203275508286e-06,1.7070720272570825e-06,1.343045670054779e-06,2.4717883892139837e-06,7.819271388660939e-07,1.7129260188196233e-06,7.482502654632916e-07,6.607203678893584e-07
6.127253728318376e-07,8.723321683838032e-07,7.076089566731936e-07,5.275106385824453e-07,2.01548930824448e-06,4.377778304216434e-07,2.0571713258741334e-06,1.1729630712346235e-06,3.981665098165738e-07,1.4647498869465382e-06,1.4201203673400393e-06,1.7704842321763783e-06,1.4262419656813216e-06,2.6076541338515442e-06,8.400871773544809e-07,1.7415065282844779e-06,7.55614723588653e-07,6.502595025606342e-07
5.930253420688887e-07,9.073463055736271e-07,7.669328253132747e-07,5.129505705253234e-07,2.034841239069448e-06,4.430231458823799e-07,2.0397582184407902e-06,1.1865879954905091e-06,4.043501503502896e-07,1.467876413733118e-06,1.4508787016852339e-06,1.8270229605710593e-06,1.4927667003001392e-06,2.71741129275126e-06,8.705415983845016e-07,1.7890722149454342e-06,7.6259180514995e-07,6.476488856831276e-07
5.501561838032046e-07,9.335251655476663e-07,8.204250984313356e-07,4.811495654510378e-07,2.0436326863653325e-06,4.337775008460667e-07,2.0270725129798632e-06,1.2100063618414927e-06,4.0621589981241926e-07,1.466753497213965e-06,1.4827887479084633e-06,1.8778837944335457e-06,1.5406683745972484e-06,2.7869982300805455e-06,8.754958816100811e-07,1.8402394373488412e-06,7.675962822251001e-07,6.468378564776362e-07
4.910045638021815e-07,9.514968500970038e-07,8.748103207487011e-07,4.350907709834993e-07,2.064120285247732e-06,4.1427468161736256e-07,2.014309757110197e-06,1.236244891343757e-06,4.0201452271390947e-07,1.460025505340659e-06,1.5095522867048915e-06,1.9288640539917547e-06,1.570907307035869e-06,2.807921655384408e-06,8.61620354832243e-07,1.8771294950628576e-06,7.70103849294884e-07,6.418354741236728e-07
4.261759101208588e-07,9.607346818004454e-07,9.117514516593183e-07,3.808915603044537e-07,2.0851666088550365e-06,3.907639845935628e-07,1.997386225384985e-06,1.2587797728981836e-06,3.91822334186534e-07,1.4474187996442702e-06,1.5270676475284664e-06,1.9730188985021962e-06,1.5876426575836435e-06,2.7856624019962295e-06,8.383290593324678e-07,1.9023981652828304e-06,7.729489878221515e-07,6.320294124738034e-07
3.669799285162601e-07,9.641976196075517e-07,9.321410471413267e-07,3.274211589476069e-07,2.0932345511319895e-06,3.699700154150096e-07,1.977230792000594e-06,1.2753521497147635e-06,3.782468722862977e-07,1.4312275894040351e-06,1.5351181912651865e-06,2.0084825589445323e-06,1.5969026557579155e-06,2.7380328259970783e-06,8.153181423402938e-07,1.91807100348223e-06,7.788379271132479e-07,6.192664190814657e-07
3.220209048310314e-07,9.650335189544908e-07,9.413622535839207e-07,2.833810274719886e-07,2.1094447971406543e-06,3.56237346178398e-07,1.9596324587033233e-06,1.2868059719436121e-06,3.643620484748975e-07,1.4131921009736546e-06,1.536046242211288e-06,2.034216809379133e-06,1.604824612290899e-06,2.6758868937425797e-06,7.992342272551681e-07,1.916869507078926e-06,7.897273655893807e-07,6.065175254213538e-07
2.9451293977904757e-07,9.630218084303089e-07,9.476151300065561e-07,2.532247735435916e-07,2.120222838699555e-06,3.489061900834563e-07,1.9510904110815548e-06,1.2937630104519118e-06,3.508562609451289e-07,1.3940959997892792e-06,1.5322310763624606e-06,2.0467791829452796e-06,1.6150528558037036e-06,2.608925786043456e-06,7.917144472283992e-07,1.9072421069280506e-06,8.0289744753906e-07,5.955729341643986e-07
2.8210404746162627e-07,9.635222346045411e-07,9.560903056887588e-07,2.3582653356387792e-07,2.1235008197260214e-06,3.4285898148033004e-07,1.955413712531635e-06,1.2962716883242302e-06,3.359203414592421e-07,1.3734770044902198e-06,1.5252100051714928e-06,2.0472926783441145e-06,1.62882595250846e-06,2.5432790075898166e-06,7.90129273715277e-07,1.8925038990804558e-06,8.152246225748686e-07,5.856728209930726e-07
2.810435264377519e-07,9.635785973900089e-07,9.690868233346889e-07,2.266557842887942e-07,2.1320770611340256e-06,3.3200371104059657e-07,1.9731718754918845e-06,1.2957325189401803e-06,3.176334845922461e-07,1.3505667036986483e-06,1.5162964833779068e-06,2.038842819072359e-06,1.6466294193905672e-06,2.476781442402158e-06,7.900307249513467e-07,1.8785573128109017e-06,8.225241102027028e-07,5.749644357440026e-07
2.8564215282709176e-07,9.603901782222747e-07,9.825732937788152e-07,2.2032851098903914e-07,2.146905234025543e-06,3.1225534336955106e-07,2.0018073558636163e-06,1.2946089031403744e-06,2.9547629677199605e-07,1.326663561322397e-06,1.506618954740837e-06,2.0195923857586094e-06,1.66735451818388e-06,2.42131563321688e-06,7.864424744288686e-07,1.8750389169299502e-06,8.216039508948054e-07,5.615601325933074e-07
2.9159194680008117e-07,9.56743353001853e-07,9.881787664084638e-07,2.117603750820446e-07,2.1575864543859816e-06,2.822276610905815e-07,2.0352834257445218e-06,1.2938700030552762e-06,2.698715969841423e-07,1.30242130404096e-06,1.496425780777725e-06,1.9920074842178465e-06,1.6882161948550142e-06,2.381409984783702e-06,7.744882035798949e-07,1.8862081475013392e-06,8.117096968947033e-07,5.42632049214433e-07
2.971385298054633e-07,9.30795972475097e-07,9.968069748410017e-07,1.9746008978207492e-07,2.1677137340137436e-06,2.4313498038982367e-07,2.065289179291461e-06,1.2923368814643877e-06,2.4184208436356453e-07,1.277242190042448e-06,1.4852749143935875e-06,1.9630601168589482e-06,1.7058790222073587e-06,2.3474305339459794e-06,7.514219870857044e-07,1.9048014934006438e-06,7.922413154842886e-07,5.177198745270147e-07
3.0229611769990025e-07,9.033978886192127e-07,9.98807952148892e-07,1.7751850133293332e-07,2.1847361428439612e-06,1.9893775167671638e-07,2.084404020144899e-06,1.2883839515947003e-06,2.134379360919531e-07,1.2520842886173333e-06,1.4729835640697822e-06,1.9388451743791816e-06,1.7182558212646153e-06,2.317785045265602e-06,7.182888980200642e-07,1.934817740272306e-06,7.673017331846753e-07,4.893553122114372e-07
3.0533836233074757e-07,8.792404468957144e-07,9.821723105164373e-07,1.5571124913172865e-07,2.193493012126845e-06,1.5537604132456602e-07,2.0879127506592447e-06,1.2799947486636944e-06,1.8692817097563462e-07,1.2274200063135566e-06,1.4591956134390432e-06,1.9236812979050853e-06,1.7247810419940333e-06,2.292250659920134e-06,6.789047044043698e-07,1.9714298647034183e-06,7.429181800467908e-07,4.5873987309717745e-07
3.0953855197250827e-07,8.605275724368197e-07,9.518818649730331e-07,1.343639113876959e-07,2.195315550811543e-06,1.1734281122302165e-07,2.0724690955658225e-06,1.2627079476519728e-06,1.625476808873904e-07,1.2090312048316397e-06,1.4416271985268647e-06,1.9123441115316376e-06,1.7248600646132167e-06,2.268834597505032e-06,6.368087884524427e-07,2.0083118143275622e-06,7.226272700433087e-07,4.373101757705156e-07
3.193728015007235e-07,8.524058654409068e-07,9.071216927684192e-07,1.1500404984069696e-07,2.200186251539687e-06,8.706159815329053e-08,2.034790068599283e-06,1.2304573064423653e-06,1.380782539399856e-07,1.1912663428416139e-06,1.4159835205920244e-06,1.900466338193247e-06,1.7174633654003345e-06,2.2407499780630745e-06,5.937617281353533e-07,2.0412977550064796e-06,7.162249587268097e-07,4.220399123495448e-07
3.2807627260103614e-07,8.357866401928193e-07,8.777393322572314e-07,9.757002146386173e-08,2.169159675000847e-06,6.533382185013077e-08,1.973710596212996e-06,1.1813437125566669e-06,1.1201830834525616e-07,1.1679204623451047e-06,1.378919820228953e-06,1.8973689559520178e-06,1.7031414269156773e-06,2.2113774451140347e-06,5.511345229610009e-07,2.05648416746071e-06,7.045464330820271e-07,4.0840865914688165e-07
3.315349103459964e-07,8.098080061934851e-07,8.578620425474788e-07,7.802340427662129e-08,2.1288560545817754e-06,5.4195170981416734e-08,1.8934113414269517e-06,1.1224170439981505e-06,8.697695557198141e-08,1.1367621537542844e-06,1.3311642849137585e-06,1.907917145029122e-06,1.6860188782370315e-06,2.1897799142936875e-06,5.117927256285322e-07,2.047878843820237e-06,6.888788134304621e-07,3.9624156440695567e-07
3.2715814816633507e-07,7.413440255645183e-07,8.159983721978695e-07,5.3560953664628294e-08,2.0939687572199794e-06,5.7352604792957084e-08,1.8029618231446593e-06,1.066941353885502e-06,6.891680287619455e-08,1.096241207337476e-06,1.2772551069922265e-06,1.9153857308996917e-06,1.6719951281245326e-06,2.211917311904831e-06,4.795705492304509e-07,2.0148495298477095e-06,6.782213789019932e-07,4.059015991277089e-07
3.1364658760106036e-07,6.449678521841755e-07,7.697785744165956e-07,1.8713588323760218e-08,2.022564995699452e-06,7.78442579471633e-08,1.7119793729135837e-06,1.0262709087245873e-06,6.294921642185119e-08,1.0636487322004112e-06,1.2225011217904155e-06,1.9116814356285352e-06,1.6647826839725597e-06,2.2236043035802784e-06,4.574797160586621e-07,1.955756100792595e-06,6.944581009479717e-07,4.2939208068014187e-07
2.965224130743082e-07,5.762489638518303e-07,7.128432634868311e-07,-2.7371632995481775e-08,1.9946874475074867e-06,1.1598994573735148e-07,1.6274476764596757e-06,1.0045101829711298e-06,7.046144170083003e-08,1.0408671282658847e-06,1.1709128740038955e-06,1.8928068880035083e-06,1.6615565108620226e-06,2.249016850794916e-06,4.471328091250956e-07,1.8508389452506e-06,7.426557571107674e-07,4.676622035807793e-07
3.0930012206627584e-07,5.314609871937016e-07,6.663384932844085e-07,-8.140201233352507e-08,2.034013720807747e-06,1.696212852237995e-07,1.5573979933370777e-06,9.995145384549528e-07,8.984610340849998e-08,1.0610996511453276e-06,1.1257760111214402e-06,1.8370200479297403e-06,1.6588342267111692e-06,2.2499035423272014e-06,4.492897291799877e-07,1.7246984877142693e-06,8.204464516800971e-07,5.675937137055312e-07
3.5772640101361106e-07,5.008580447120442e-07,6.085043902611955e-07,-1.170829316825809e-07,2.041762494499211e-06,2.348938221674589e-07,1.5086190804712733e-06,1.006082932552931e-06,1.1829847254246738e-07,1.1118773413380913e-06,1.0907299592993155e-06,1.7277001515686984e-06,1.6514215249792655e-06,2.106236825800971e-06,4.6345581958048425e-07,1.590635222788877e-06,9.358427605840105e-07,6.745013393592645e-07
4.555826669650348e-07,4.6837074785574395e-07,5.212558341112457e-07,-9.803183517821697e-08,2.045148781250868e-06,3.0573975695496284e-07,1.4889798979526508e-06,1.017441722890712e-06,1.5220468808371233e-07,1.154532116295786e-06,1.0693878230369671e-06,1.6444646707976285e-06,1.6327514592337102e-06,2.070687278151717e-06,4.866031446161548e-07,1.4581675516054354e-06,9.958485139349761e-07,7.406926999058803e-07
5.933948134982097e-07,3.971762716849374e-07,3.968556289828561e-07,-2.8150415721573094e-08,2.035654960523507e-06,3.733552453703035e-07,1.5060644897409284e-06,1.0266972474852691e-06,1.8733718823822574e-07,1.1948873564974532e-06,1.0644005576305626e-06,1.5653406708165152e-06,1.6000825128954915e-06,2.08854220742189e-06,5.13374345630122e-07,1.345469614359362e-06,1.0150818483235798e-06,7.738002237848014e-07
6.728806481256503e-07,2.624098344153748e-07,2.4707618667175456e-07,2.775522546631797e-08,1.925786062151458e-06,4.2804343823002497e-07,1.561569718613945e-06,1.0300852706318572e-06,2.2040750375206273e-07,1.2272495912105456e-06,1.0771547678454077e-06,1.5093482303052727e-06,1.551073770423497e-06,2.0877838600302688e-06,5.384583415538059e-07,1.2591063673871183e-06,1.0585037449861341e-06,7.995376562726106e-07
7.128504427891874e-07,1.672352532145663e-07,1.209224431202086e-07,6.840981003914543e-08,1.7863914544094958e-06,4.624216136796758e-07,1.6572909986877124e-06,1.0288025388033899e-06,2.501461929030442e-07,1.2417448292367277e-06,1.1072009609079751e-06,1.465750770425133e-06,1.4886615472930797e-06,2.0457816008882133e-06,5.580356102186323e-07,1.1970484486475123e-06,1.1416424247533693e-06,8.233860642367994e-07
8.977029824538371e-07,9.915297789276996e-08,3.381646948046829e-08,1.2435281812776812e-07,1.6852859733603073e-06,4.730875716642303e-07,1.7922775116652318e-06,1.0262946337225167e-06,2.757827348223935e-07,1.2764220304213915e-06,1.1506976966939575e-06,1.3696679687491217e-06,1.4203461702408216e-06,1.900044683810444e-06,5.6844631101299e-07,1.1660025475664636e-06,1.2306592306068469e-06,9.188877003860353e-07
1.0419045426732187e-06,5.172494301267026e-08,-9.016525312602675e-09,2.5474327869551193e-07,1.5826966726016565e-06,4.604819233159523e-07,1.953530512631709e-06,1.024307139163118e-06,2.9499414004538175e-07,1.303827133130121e-06,1.1993403601564686e-06,1.253590729651526e-06,1.3543089646829726e-06,1.8009188852450053e-06,5.651512328635997e-07,1.1634636786223292e-06,1.2773506891266441e-06,9.789399411310316e-07
1.0659006144224642e-06,1.7282775639468173e-08,-2.9517560680723063e-09,3.8551230023779237e-07,1.5157623347681705e-06,4.2894299682052065e-07,2.1012816518051685e-06,1.0226913733947043e-06,3.0481128426885364e-07,1.3252436686514855e-06,1.2443533314315236e-06,1.1996254443795056e-06,1.2980164126837088e-06,1.7118929820875127e-06,5.447499988971399e-07,1.1724594216786952e-06,1.2968043515767776e-06,1.013441086478857e-06
1.0699141313546455e-06,-4.763101025029005e-08,9.212322366558848e-09,5.005486172174005e-07,1.4560640138537503e-06,3.8696322677259195e-07,2.2110783441766696e-06,1.0214117487337136e-06,3.044745780732522e-07,1.3249260596425389e-06,1.2826235774841565e-06,1.1589101678403208e-06,1.2575017600112285e-06,1.6075587843223156e-06,5.079446885952373e-07,1.185413136857329e-06,1.283548200631071e-06,1.0493131359515896e-06
1.0235558556373424e-06,-1.277391542059623e-07,-1.5001783885720407e-09,5.95728203695437e-07,1.3407620835654503e-06,3.455239010930182e-07,2.222235471755417e-06,1.0197852557661717e-06,2.9607311521525717e-07,1.3309307684295662e-06,1.2965464221743935e-06,1.1163681134556667e-06,1.2352449100084478e-06,1.5596953061965284e-06,4.596090704493221e-07,1.1915147713662764e-06,1.2942863789671672e-06,1.0701833965959083e-06
9.762261521352638e-07,-2.1364336673989602e-07,-4.741202984961187e-08,6.467179681918558e-07,1.2047709210809797e-06,3.1438208930301094e-07,2.1608408935052227e-06,1.0138992407646246e-06,2.8232957835309814e-07,1.3322440186969217e-06,1.2999198009971457e-06,1.0877520606270697e-06,1.2283930824096316e-06,1.459552495345847e-06,4.0620763375379397e-07,1.1733209805567964e-06,1.3068570779514846e-06,1.0953389716314272e-06
9.5410260067838e-07,-2.490412362261482e-07,-5.682996832110834e-08,6.658371855616301e-07,1.1738262700290597e-06,2.990998138977672e-07,2.1207617025877416e-06,9.978450482717982e-07,2.6517638743890163e-07,1.330785484618181e-06,1.2833764963824487e-06,1.0223704502580487e-06,1.2322547639933335e-06,1.3235096910288328e-06,3.5385555393653546e-07,1.1315636441426416e-06,1.3416783866731904e-06,1.1508017302598458e-06
9.484316657817228e-07,-2.4846048815167646e-07,-7.02670552081861e-08,6.597690645149288e-07,1.2260942827237772e-06,3.0059867751714326e-07,2.1082696621564974e-06,9.689941772419214e-07,2.467948621273044e-07,1.3549573124150066e-06,1.2506670335310053e-06,9.72046261433888e-07,1.2409358498171492e-06,1.3188300301284418e-06,3.0784346176167727e-07,1.0722012799536403e-06,1.3269931106229808e-06,1.1839177477124643e-06
8.854683608264636e-07,-2.4531940908893656e-07,-2.4897364983178867e-08,6.35764225499891e-07,1.23913619329837e-06,3.1592441983345895e-07,2.102293105054192e-06,9.308878914504415e-07,2.303932398474437e-07,1.3691871738737468e-06,1.206623668634342e-06,9.659605033137994e-07,1.249962570213965e-06,1.3046384400160444e-06,2.7194805426646484e-07,1.000133051723301e-06,1.2625806366122702e-06,1.1797761659151881e-06
7.98630482912801e-07,-2.4958089809729154e-07,1.0557910728263945e-08,6.089205994539941e-07,1.2556144811571746e-06,3.3876290788218297e-07,2.0089920571443827e-06,8.905241991848558e-07,2.1876675563305604e-07,1.3496262645435137e-06,1.1572785391733287e-06,1.016804630878237e-06,1.258937666241737e-06,1.2748587248540303e-06,2.469145115238415e-07,9.401899472941321e-07,1.1818223749875556e-06,1.1369085618820706e-06
6.740244515944527e-07,-2.720687879863434e-07,4.477099393516323e-08,5.807525583200287e-07,1.2136869293695628e-06,3.606906362497217e-07,1.8448541694651399e-06,8.542641413068951e-07,2.1274829639344395e-07,1.2892878458984584e-06,1.107965836832336e-06,1.069637467675578e-06,1.264679729856118e-06,1.3046646209218225e-06,2.3034288393642553e-07,8.862326161040047e-07,1.0992192376483785e-06,1.0829513098061047e-06
5.386044646737123e-07,-3.062517827717023e-07,9.153519583239391e-08,5.516475893116025e-07,1.1223647516480014e-06,3.742489720564674e-07,1.67482336992143e-06,8.264725027220499e-07,2.117093253851981e-07,1.233966729395046e-06,1.0627945325300051e-06,1.1114922953860365e-06,1.2661684379843304e-06,1.344339399491591e-06,2.1864986092397195e-07,8.364298630303134e-07,1.0316804439124884e-06,1.030448848721735e-06
4.231146473273463e-07,-3.35870924289498e-07,1.0559379057196918e-07,5.242829118242567e-07,1.0339640394513733e-06,3.7596265196905516e-07,1.5240713030229272e-06,8.093127721960011e-07,2.1466046091903955e-07,1.1721759440918037e-06,1.0244418193232192e-06,1.13863867022125e-06,1.2643021095421778e-06,1.3663712383126587e-06,2.087389310731435e-07,7.934829722177008e-07,9.800830869766309e-07,9.787574806951927e-07
3.124095142500533e-07,-3.539539459287148e-07,1.2413893451413523e-07,5.004820149805922e-07,9.746794313825546e-07,3.6657238351158534e-07,1.3888065074852308e-06,8.013801910246718e-07,2.199394923418002e-07,1.11067936786486e-06,9.9332075202035e-07,1.1315610170878706e-06,1.2580772584394874e-06,1.3892319074369508e-06,1.978518252477028e-07,7.578822466363596e-07,9.436030882845774e-07,9.458666536775973e-07
2.376549925867309e-07,-3.6007567941923644e-07,1.539923759101755e-07,4.80194284447269e-07,9.621781875755661e-07,3.4905670765179905e-07,1.315923609616279e-06,7.972687318191371e-07,2.2465041473257795e-07,1.0614656874413343e-06,9.67449392016196e-07,1.125744984205491e-06,1.2469335069094642e-06,1.4048576033292052e-06,1.8350584759210928e-07,7.302692688874147e-07,9.119505784033956e-07,9.214255418743757e-07
1.8514603039493053e-07,-3.5784935854582204e-07,1.7993131593647126e-07,4.6165715633988745e-07,9.530875613403829e-07,3.271634662610297e-07,1.2839680522405405e-06,7.903011300075407e-07,2.2572189858345317e-07,1.012057457520339e-06,9.440184346824728e-07,1.1166745754090568e-06,1.2306789011839706e-06,1.4230875654987725e-06,1.6458358685222388e-07,7.092515178837585e-07,8.742015631521596e-07,8.900403586154771e-07
1.3645396490588507e-07,-3.633414158229596e-07,1.9189893071180094e-07,4.431747693876588e-07,9.239539242683288e-07,3.048754906875615e-07,1.2692721129504043e-06,7.756069157072925e-07,2.2135753465784781e-07,9.642525037224736e-07,9.209417080670641e-07,1.1020726371762777e-06,1.2100837333757716e-06,1.4547976906625211e-06,1.4169848223426534e-07,6.904929604502296e-07,8.282799732702996e-07,8.561305031799323e-07
9.343713712341319e-08,-3.6926615645751463e-07,1.8734666232275532e-07,4.2362534844154547e-07,9.042527589572604e-07,2.852230345029935e-07,1.263285928382836e-06,7.500777123887886e-07,2.107783791455744e-07,9.171991638328692e-07,8.966718909910749e-07,1.0727021846948063e-06,1.1858483112703964e-06,1.4900893603228452e-06,1.1599469076770624e-07,6.655054138000464e-07,7.872022417818021e-07,8.110727606944727e-07
6.565776682893446e-08,-3.7234994249555586e-07,1.702977832688515e-07,4.0147497802439054e-07,8.833347360520559e-07,2.6885880980791655e-07,1.247256276945547e-06,7.113737961885433e-07,1.9341286247886954e-07,8.640681989075977e-07,8.697018834432187e-07,1.0366335840171723e-06,1.1588259580965092e-06,1.487422973237545e-06,8.828509861830341e-08,6.371371737968451e-07,7.444134921563773e-07,7.688041494996612e-07
4.097974961873621e-08,-3.814412614807161e-07,1.5043102310823541e-07,3.751444903945933e-07,8.614981716958843e-07,2.5461504181488677e-07,1.2186174825637211e-06,6.598795766312791e-07,1.6996824596204416e-07,8.004534062471498e-07,8.397122798896046e-07,9.996605486084498e-07,1.130242800290298e-06,1.4607571009238104e-06,5.968525165583808e-08,6.037008302981637e-07,6.937229442378706e-07,7.273957545791183e-07
1.1719195700864806e-08,-3.9398985684698504e-07,1.3120720583687514e-07,3.451500352817443e-07,8.377387381113335e-07,2.417786913415446e-07,1.1799311178270184e-06,6.01532114230141e-07,1.4425830793978935e-07,7.456534348248972e-07,8.090512754054406e-07,9.642183986159031e-07,1.1032565135999585e-06,1.4386528116832235e-06,3.3296281350703056e-08,5.676735267503148e-07,6.449372831503368e-07,6.871345225066276e-07
-1.5791920473746098e-08,-4.0918092429601745e-07,1.1301157679280312e-07,3.1482918504146796e-07,8.057988425666464e-07,2.3101708385907825e-07,1.1356617777724743e-06,5.462014444636545e-07,1.2236526867969803e-07,6.973434246500445e-07,7.817619843127374e-07,9.402964108565185e-07,1.0822158625323366e-06,1.4215958159302508e-06,1.2613097717961871e-08,5.3937633461417e-07,5.986858499743309e-07,6.546616546201832e-07
-4.67637074861052e-08,-4.2536355887445345e-07,9.711190370101152e-08,2.881879062904157e-07,7.669416446478496e-07,2.2289840111405297e-07,1.092387595377782e-06,5.021475454837613e-07,1.0915867536957193e-07,6.568909674017147e-07,7.60725352151518e-07,9.196007532302377e-07,1.0692512957131157e-06,1.4252564604482614e-06,-7.885851718868059e-10,5.222938660080465e-07,5.58871992212572e-07,6.292339947165142e-07
-7.851327249191019e-08,-4.3746675083886726e-07,8.228564966325358e-08,2.675205616343175e-07,7.376535822307731e-07,2.1666396485230474e-07,1.0544496837795601e-06,4.7264929509722257e-07,1.0602288281911333e-07,6.280373152807193e-07,7.463137209310422e-07,9.029585047738738e-07,1.0647649626523324e-06,1.4468055586483634e-06,-7.593199311275385e-09,5.181627738092203e-07,5.290962803003655e-07,6.125645188037537e-07
-1.0841757028720048e-07,-4.4167691253202064e-07,8.118004279458552e-08,2.5318493059528855e-07,7.235384061250792e-07,2.1114429638464639e-07,1.023689152044035e-06,4.571617840686548e-07,1.1162313052341026e-07,6.049284491128378e-07,7.374881089894011e-07,8.962263078784756e-07,1.068590633271112e-06,1.4790710312061788e-06,-9.969103787560069e-09,5.282324429337986e-07,5.075405785038618e-07,6.032421185119862e-07
-1.3882182485140122e-07,-4.4064723337104563e-07,9.388634160009999e-08,2.4435678302012225e-07,7.136227479113691e-07,2.0606820086174234e-07,1.0004354372841346e-06,4.531154825890681e-07,1.233244769032214e-07,5.878863589486303e-07,7.328539406832883e-07,9.008288807622035e-07,1.0812902786613877e-06,1.521593380961637e-06,-1.0561156412176047e-08,5.456981705743762e-07,4.890716892779276e-07,5.980701195435515e-07
-1.7597590331738963e-07,-4.3567956045787974e-07,1.1839785590266337e-07,2.390482990150822e-07,7.069854071946466e-07,2.0180693749681922e-07,9.832953266064728e-07,4.559570378669651e-07,1.3748092884945632e-07,5.75343812973368e-07,7.304481478622649e-07,9.163691582485666e-07,1.1007623234967428e-06,1.578419303138363e-06,-1.2853954709997743e-08,5.663348366981271e-07,4.728300785802132e-07,5.900920971013569e-07
-2.2014843373892195e-07,-4.273409359779129e-07,1.4923052862819984e-07,2.343592900695268e-07,6.968314937157055e-07,1.985559844433896e-07,9.691070021501924e-07,4.599554306599388e-07,1.5014336405009424e-07,5.655928717695774e-07,7.279958163461132e-07,9.384964537422094e-07,1.1232051410420258e-06,1.6371585309698865e-06,-1.9566114852322557e-08,5.84933725007641e-07,4.571065013936984e-07,5.786587583664503e-07
-2.6727250780210545e-07,-4.21096630851297e-07,1.8240559521547725e-07,2.2813139472494804e-07,6.78647367352247e-07,1.9643639171531976e-07,9.547022988745137e-07,4.6087332650391427e-07,1.5902384232432443e-07,5.522452152298252e-07,7.242611765674622e-07,9.626385026509558e-07,1.1482651307442671e-06,1.6859556376988352e-06,-3.1085706746971446e-08,5.961947928539247e-07,4.403556678672073e-07,5.653169836871151e-07
-3.1517044457920855e-07,-4.145973394520548e-07,2.1518165984150387e-07,2.2025606116405752e-07,6.542498330638106e-07,1.957054667608824e-07,9.385424967910321e-07,4.566796581956537e-07,1.6435103443862463e-07,5.356835444155748e-07,7.193783949625169e-07,9.862524525899865e-07,1.173641422471589e-06,1.724725926458039e-06,-4.5582180807670514e-08,5.965579500283372e-07,4.2372282625919676e-07,5.516150819482844e-07
-3.606516034391476e-07,-4.0620130641883635e-07,2.44802648177967e-07,2.1163527097682254e-07,6.290452885037332e-07,1.9612779115861976e-07,9.217145849128872e-07,4.4791916889792613e-07,1.6723534550698427e-07,5.169107266414716e-07,7.133368376565648e-07,1.0085555763129069e-06,1.1993972739090542e-06,1.7660170568948562e-06,-6.05738314005543e-08,5.822165619871116e-07,4.0681781841722774e-07,5.40248328372688e-07
-4.0345829619182104e-07,-3.966284100271781e-07,2.717646580615911e-07,2.0240072932913414e-07,6.004054115105928e-07,1.9564813120861297e-07,9.03272742108327e-07,4.3346577860884047e-07,1.6809461341063313e-07,4.945474895209838e-07,7.050121981098922e-07,1.0334958693321935e-06,1.2258143419716688e-06,1.8180791668858356e-06,-7.389543468449055e-08,5.584245332103623e-07,3.8807499497753247e-07,5.308467137739988e-07
-4.4665692360304925e-07,-3.88098079676355e-07,2.9174862644058487e-07,1.922737728273975e-07,5.698457489591822e-07,1.9457356990132295e-07,8.827236198143918e-07,4.1364061598596467e-07,1.67456432221429e-07,4.671055980635063e-07,6.933554692349402e-07,1.0617489517993005e-06,1.2530017593737167e-06,1.8586065430679134e-06,-8.248632830317306e-08,5.254651929707009e-07,3.6774389840891605e-07,5.239374063053254e-07
-4.92238474625641e-07,-3.8336984193681614e-07,3.0518648704706513e-07,1.8231832725892122e-07,5.378856344838841e-07,1.954222428156224e-07,8.631807788731297e-07,3.9266293238511906e-07,1.672248009357744e-07,4.3464527117683643e-07,6.787906714373356e-07,1.0979223103338254e-06,1.2841232700974173e-06,1.8989726702023106e-06,-8.178208598814633e-08,4.895800606217773e-07,3.485597253467538e-07,5.223806360103026e-07
-5.444922801787429e-07,-3.8274129318338785e-07,3.171578914730242e-07,1.7487106354328613e-07,5.055989585857865e-07,2.0268946952578914e-07,8.448491003695858e-07,3.7518309739359304e-07,1.6964142365296013e-07,3.994872079605692e-07,6.626511611544891e-07,1.13759409208695e-06,1.3221236436859926e-06,1.9522695194200013e-06,-6.711479805769566e-08,4.6186932709135545e-07,3.336362670787222e-07,5.289112378765106e-07
-6.066412374349829e-07,-3.871710349653078e-07,3.3363349606028856e-07,1.7141570987501546e-07,4.748562912541741e-07,2.1660834871490906e-07,8.306674744432947e-07,3.6232369823353514e-07,1.7512484468283804e-07,3.615133678433466e-07,6.457495194327588e-07,1.1826961179766158e-06,1.3673006297791459e-06,2.0230025083066456e-06,-3.5767089053963977e-08,4.3914421646714507e-07,3.2429059016482994e-07,5.442298108599283e-07
-6.723933472369449e-07,-3.9382599894845584e-07,3.578339156202736e-07,1.7141041766699263e-07,4.4454136550251967e-07,2.3500335596964766e-07,8.2118940577622e-07,3.530346919048768e-07,1.820110928588603e-07,3.212432952371899e-07,6.282873778390178e-07,1.2360309183914968e-06,1.421874995224552e-06,2.119043130780299e-06,1.21895108519905e-08,4.366590657557006e-07,3.2091341121943206e-07,5.685162265903588e-07
-7.58756577440975e-07,-4.0096169342143744e-07,3.9125564541449086e-07,1.730905134852696e-07,4.178320836226866e-07,2.545916738260968e-07,8.141921835142446e-07,3.4461744544046546e-07,1.8803949075320265e-07,2.800035161062365e-07,6.106743319455392e-07,1.2955688744747758e-06,1.4840868177741441e-06,2.2376097835892118e-06,7.41761240229275e-08,4.6953117680957866e-07,3.229745555907273e-07,6.010618654440099e-07
-8.604894447615375e-07,-4.0725700441697875e-07,4.301144328042836e-07,1.7407588504123805e-07,3.9394198853073867e-07,2.7102570701595853e-07,8.078848497339498e-07,3.33067377368245e-07,1.9116022123638705e-07,2.393878572628311e-07,5.93515785561204e-07,1.3603452082927024e-06,1.541532358764698e-06,2.3674313365626337e-06,1.4635338959757713e-07,5.420614979869e-07,3.284445206038985e-07,6.394051373469629e-07
-9.617751357400912e-07,-4.107349773628615e-07,4.7200942507481533e-07,1.710768655524564e-07,3.748227163591263e-07,2.8120627602658387e-07,7.976363112354303e-07,3.150013822301691e-07,1.895826619845976e-07,2.0181493410639389e-07,5.77231053146962e-07,1.4230495177210996e-06,1.5917699390466548e-06,2.495278733734094e-06,2.2156659884535544e-07,6.504509472173728e-07,3.344213943766045e-07,6.798058300432264e-07
-1.0596917443041512e-06,-4.101258451248768e-07,5.145048474520725e-07,1.6078412283554505e-07,3.5912872892890033e-07,2.8406910221524314e-07,7.805237235776296e-07,2.8777859316088e-07,1.8284199941035966e-07,1.702290396396152e-07,5.628174960164109e-07,1.475340144659161e-06,1.6375712201823175e-06,2.6153966171000595e-06,2.929592980216627e-07,7.871978867713182e-07,3.3852728667236126e-07,7.181534388946813e-07
-1.1440920637901453e-06,-4.037448588180837e-07,5.544349813809207e-07,1.4220604590906459e-07,3.4799898019637797e-07,2.8045502756795573e-07,7.562772806324924e-07,2.541556636155311e-07,1.7313899501046814e-07,1.4694888030215676e-07,5.528025130764416e-07,1.5226114197223339e-06,1.6661899760046905e-06,2.7151181633891536e-06,3.598904066756026e-07,9.39981474749104e-07,3.3998982384090504e-07,7.512693144719354e-07
-1.2122419109589016e-06,-3.899782834817533e-07,5.903507063405568e-07,1.1750380041685769e-07,3.4535128454015133e-07,2.738441451837905e-07,7.285315913200715e-07,2.2012007859304705e-07,1.6391066903381962e-07,1.3309190994931845e-07,5.501771692788252e-07,1.5512588328537555e-06,1.6919184709840828e-06,2.7712396737372702e-06,4.214973640195529e-07,1.0866329782616022e-06,3.397623345328833e-07,7.779835746139714e-07
-1.2408978476126917e-06,-3.6852010262561305e-07,6.2284821301186e-07,9.010983467251476e-08,3.5450447682695667e-07,2.6976095266200947e-07,7.047834837910813e-07,1.9188339465588665e-07,1.578656908151535e-07,1.2836935450747302e-07,5.560788319011018e-07,1.5577411758789965e-06,1.7215979200935392e-06,2.780228854874997e-06,4.763738297477402e-07,1.2156927443035444e-06,3.389649361506588e-07,7.987263617589007e-07
-1.2468071928375893e-06,-3.4265231464680795e-07,6.574142046779098e-07,6.280210212743066e-08,3.769946013269852e-07,2.6733256647368734e-07,6.885461687741784e-07,1.7165357783462533e-07,1.5611820862360885e-07,1.3032179968590677e-07,5.688085533906607e-07,1.5550333294452221e-06,1.7382265555133926e-06,2.743213858223424e-06,5.26555531197315e-07,1.319080027217553e-06,3.371516594927256e-07,8.137778381281952e-07
-1.2333429005022493e-06,-3.1578839347871554e-07,6.805337038727196e-07,3.776293038655426e-08,4.103934040779688e-07,2.660404316590243e-07,6.852580537278256e-07,1.6588995048785608e-07,1.5759506585622588e-07,1.3626071884628342e-07,5.869562716787816e-07,1.5423958339935208e-06,1.749172151421305e-06,2.6742459095978678e-06,5.722005258221318e-07,1.3898715141624125e-06,3.347581405203251e-07,8.251789026512578e-07
-1.2000121911715748e-06,-2.8988194618529435e-07,6.940600800880684e-07,1.7137290003440565e-08,4.4004549711544773e-07,2.688893636237377e-07,6.84229100040288e-07,1.6492179675813665e-07,1.6327905108999367e-07,1.447383598507531e-07,6.091802736140467e-07,1.5261744544401975e-06,1.7579378278072824e-06,2.5878211963931235e-06,6.120714792145122e-07,1.4269898482399865e-06,3.2876485332020674e-07,8.309590410340024e-07
-1.1618485040485886e-06,-2.657736679662378e-07,7.01143743663388e-07,2.471509654735679e-09,4.6663483653090173e-07,2.8793051324304665e-07,6.874219812997978e-07,1.7080391936060633e-07,1.7380128408535835e-07,1.567325274811548e-07,6.344789893390647e-07,1.507697500437789e-06,1.7655068907225228e-06,2.4797256750428127e-06,6.449411463948628e-07,1.4383250207627773e-06,3.1954040886320674e-07,8.328167057030433e-07
-1.1203483402376166e-06,-2.4338110425094604e-07,7.007453095509741e-07,-5.945599078772893e-09,4.937572457546936e-07,3.1696435383822144e-07,7.032564027476855e-07,1.8510124299248533e-07,1.8881726405810076e-07,1.739061495479201e-07,6.628433319424219e-07,1.4965738503181147e-06,1.775208471343334e-06,2.395163007897309e-06,6.689954964843521e-07,1.4077372818375234e-06,3.0904981784584816e-07,8.314122335576981e-07
-1.0882870726965863e-06,-2.2182151433348404e-07,7.017029587595998e-07,-8.760767259381245e-09,5.255955278467313e-07,3.4941994426899037e-07,7.293034468500933e-07,2.094713004111981e-07,2.0949069518464504e-07,1.9735731327950818e-07,6.953229494389902e-07,1.457612129263477e-06,1.7909442705563752e-06,2.318145754296815e-06,6.831190084911059e-07,1.353562481612156e-06,2.991463929050647e-07,8.286417049330489e-07
-1.0271921310710157e-06,-1.9967702947089846e-07,7.081739542293025e-07,-7.428567098433802e-09,5.681033227469038e-07,3.7168005070420374e-07,7.91057569679731e-07,2.480699454669634e-07,2.3656488899281096e-07,2.2669920885359107e-07,7.345598203168932e-07,1.4341516179714135e-06,1.7877511765012582e-06,2.2620799936393283e-06,6.853888915147342e-07,1.2835356488473508e-06,2.923078837553841e-07,8.257768726006645e-07
-9.742976744678417e-07,-1.755158649018983e-07,7.056501483691064e-07,-5.073139164346451e-09,5.855970411144354e-07,3.865526669153462e-07,8.445954726601813e-07,2.869450031820016e-07,2.695420596909357e-07,2.659953249175085e-07,7.831084143500706e-07,1.402315999506668e-06,1.748586409872634e-06,2.1968180450459947e-06,6.856223069839148e-07,1.2157320187996287e-06,2.8654374136487187e-07,8.185189066403381e-07
-8.944778384555691e-07,-1.4977622726493344e-07,6.883782192358596e-07,-6.433258266261417e-09,5.899141793491306e-07,4.306013347730043e-07,8.611895091953293e-07,3.1230539151735653e-07,3.0254220169106025e-07,3.1833818318186115e-07,8.422444511346557e-07,1.3095926432341794e-06,1.673274990609312e-06,2.074115102866671e-06,6.800747081559991e-07,1.1160564618705495e-06,2.8132419045704896e-07,8.049801180524427e-07
-7.166112977124921e-07,-1.249052387783562e-07,6.288712265359905e-07,-1.4251229951232264e-08,5.489606551517716e-07,5.17445734455116e-07,7.708128148393056e-07,2.898210188183028e-07,3.382727307566448e-07,3.8477116491932066e-07,9.118604952131047e-07,1.2403493050959127e-06,1.577973695175415e-06,1.9822202310323605e-06,6.66955281222219e-07,1.0626805056530428e-06,2.7355310742116e-07,7.789518424968579e-07
-5.99762277306827e-07,-1.0408647980242803e-07,5.264383956824758e-07,-2.912271742466155e-08,4.050407044341118e-07,6.609093907772507e-07,6.120160551045647e-07,1.9807844381014604e-07,3.7280126632848736e-07,4.665533857017795e-07,9.903060835061642e-07,1.1959153444658652e-06,1.520906812134741e-06,1.9012939301852843e-06,6.781879858487658e-07,1.0339599286313907e-06,2.7118043334930813e-07,7.480508961559306e-07
-5.236405291671615e-07,-9.425870188379343e-08,4.524421404458582e-07,-4.9535397390863126e-08,3.1659832778415196e-07,7.936161182798726e-07,5.165599201931514e-07,1.3177729960256386e-07,4.3128326912057936e-07,5.545203506560593e-07,1.0723565999118808e-06,1.144487686440115e-06,1.4978662781649768e-06,1.8083587082990925e-06,7.489359759365651e-07,1.0105650134699268e-06,3.1957440876426316e-07,7.632374925196597e-07
-4.3896440743399195e-07,-9.941018482516467e-08,4.2673469220508937e-07,-6.907469978942478e-08,2.6047802686046985e-07,8.625278671182231e-07,4.7054965782971474e-07,8.669803446074242e-08,5.138905474188783e-07,6.381536463040138e-07,1.1486030952655135e-06,1.1328206773651696e-06,1.5067246293391621e-06,1.7171908615080699e-06,7.999666517698558e-07,9.816413362603636e-07,4.0499170700964964e-07,8.262348987902326e-07
-2.640728487884638e-07,-1.2733460039795972e-07,4.1225294974758043e-07,-9.159176817712761e-08,1.9932312156338894e-07,9.080875881653994e-07,4.4464175311948236e-07,5.7304251365525454e-08,5.674932537117401e-07,7.043702731638954e-07,1.2088906521825228e-06,1.1121721894681157e-06,1.5057451265095969e-06,1.6617746111108908e-06,9.268747009470475e-07,9.189873672318216e-07,5.095640925812344e-07,9.333385157118318e-07
-8.07404131504972e-08,-1.8402477345970003e-07,3.666541656831889e-07,-1.170644350571605e-07,1.6745921090730346e-07,1.0528562736108863e-06,4.219473456944845e-07,4.569776480443405e-08,6.030676177081947e-07,7.131957807658647e-07,1.2467532366624548e-06,1.0607982780719516e-06,1.4262812158426268e-06,1.571851119650841e-06,1.081356971446239e-06,8.343540142055945e-07,6.010455606487589e-07,1.0836569248675152e-06
5.9383469053828286e-08,-2.679636567934844e-07,2.5452768913440584e-07,-8.875154635471267e-08,1.385038370204256e-07,1.1857724259264365e-06,2.590857644620618e-07,-2.861098523752092e-08,6.331084379871345e-07,7.111504736157643e-07,1.2613498425530137e-06,9.946765077102757e-07,1.304839062415543e-06,1.49782131530078e-06,1.1944391232879547e-06,7.539650541132417e-07,6.602642412734029e-07,1.229886565435449e-06
2.232938662914502e-07,-3.752884428954095e-07,1.2861206788902992e-07,-2.026297465647233e-08,5.121033171689494e-08,1.255754957073821e-06,1.7930454130040148e-07,-1.0354941059460657e-07,6.511446250380936e-07,7.222833925727753e-07,1.2601710853943909e-06,9.026826612419081e-07,1.1881612141387768e-06,1.3883124316396266e-06,1.2572629410317086e-06,7.151484916011556e-07,7.113387949538116e-07,1.3607279591368096e-06
3.4319844545651034e-07,-4.917144240270455e-07,5.054482686603606e-08,2.383674402236064e-08,-3.109002569354754e-08,1.303707321022158e-06,1.3269490074047275e-07,-1.3175548870859267e-07,6.628612513254554e-07,6.958717430825264e-07,1.2445153345690819e-06,8.213081520986192e-07,1.0663710414024298e-06,1.3044561438814985e-06,1.2598174327031772e-06,6.283327361164747e-07,7.68865951068641e-07,1.4680170468844885e-06
4.52009998335364e-07,-6.045437465069119e-07,-2.1338480860506088e-08,5.151494943627292e-08,-6.740923415300032e-08,1.3236361145233853e-06,9.479726382212324e-08,-1.3651165707480786e-07,6.691380485374141e-07,6.477648950624235e-07,1.2223209346333052e-06,7.268681230219511e-07,9.599582019189564e-07,1.192303533482979e-06,1.2025550900836586e-06,5.833884083339153e-07,8.094611973903947e-07,1.5062907221194557e-06
5.699647667336814e-07,-6.83544756937657e-07,-7.467720869171857e-08,6.902382412520197e-08,-1.1168955145845852e-07,1.338029875385842e-06,9.197984444773333e-08,-1.585027735099503e-07,6.750760463490627e-07,6.152878031328097e-07,1.202629599280933e-06,6.322842735924812e-07,8.771160562771037e-07,1.0868446678497522e-06,1.1544056541139612e-06,5.022030372334671e-07,8.464102801852547e-07,1.5792375401099253e-06
6.328243246342467e-07,-7.219924911852925e-07,-1.695339055552861e-07,6.522873700588437e-08,-1.2424131769729665e-07,1.3830826416926605e-06,8.049900243383841e-08,-1.5439112645822678e-07,6.776521392794345e-07,6.029665428114679e-07,1.1887313002368789e-06,5.527630271230589e-07,8.24128417604949e-07,9.78552848131265e-07,1.1116535417207749e-06,3.7396806116589893e-07,8.574091420835302e-07,1.6335369864648892e-06
6.751120033760113e-07,-7.249157037851647e-07,-2.1672339241941992e-07,3.716697523866487e-08,-1.330866412017303e-07,1.4600227500363302e-06,-2.774131296477699e-09,-1.8388880670623807e-07,6.894412353944415e-07,6.032894551829869e-07,1.182268349353366e-06,4.884894244403006e-07,7.808376331870476e-07,7.756340487423319e-07,1.102213611386572e-06,3.0964991674158945e-07,8.40855280257554e-07,1.6053338199694776e-06
6.797135711290045e-07,-7.683148295994662e-07,-2.494177058597134e-07,-5.7225058793239165e-09,-1.896104590008843e-07,1.498239487063727e-06,-9.960980922931784e-09,-2.1138279544448388e-07,7.039390260505006e-07,6.173114218085059e-07,1.1810395090454114e-06,4.738410136611446e-07,7.386691509819891e-07,6.392022566879734e-07,1.1125147883691384e-06,3.202984507113648e-07,8.308096167636535e-07,1.5320335008465005e-06
6.564769515008102e-07,-7.880281770420236e-07,-2.9237801659764064e-07,-5.102982864947592e-08,-2.3913994684912853e-07,1.5220058864250208e-06,4.7991633914806e-08,-1.8209659525326386e-07,7.184706369110949e-07,6.391009835506907e-07,1.1818230122725704e-06,4.749713441150325e-07,7.139220940686725e-07,4.924513344064187e-07,1.0478598329202786e-06,3.2966958036899113e-07,8.19208798039294e-07,1.489416712684208e-06
6.395886819024457e-07,-7.471575894141847e-07,-2.978436284928615e-07,-8.798377516519907e-08,-2.221210984480791e-07,1.4789573003417698e-06,1.839501843072703e-07,-1.3385312676762076e-07,7.413491725046132e-07,6.636048341464637e-07,1.1735548710066974e-06,4.838052121373589e-07,7.051734005044199e-07,3.6758835799443414e-07,9.699598413731415e-07,3.7727014336769105e-07,8.069718027065938e-07,1.4603324507711104e-06
6.163410390773509e-07,-6.878377350898873e-07,-2.683326207289592e-07,-1.118410183285434e-07,-1.2278266542171878e-07,1.4052628796617098e-06,3.6856057392738194e-07,-5.717173032141174e-08,7.575832228652606e-07,6.87475544654111e-07,1.1633869149814504e-06,5.085928365247856e-07,7.050380946463367e-07,2.682862825775778e-07,8.88741232555157e-07,4.331368670058007e-07,8.052763262979063e-07,1.4378465605198457e-06
6.229759233478268e-07,-6.340099776648965e-07,-2.2790240250230023e-07,-1.2293771495026353e-07,-7.132155721223005e-09,1.3426186193423584e-06,5.45848745485453e-07,3.2593432082906643e-08,7.716823042787735e-07,7.092111119086462e-07,1.149487619872402e-06,5.092596055371179e-07,6.961900190786255e-07,2.0198655008907468e-07,7.86526417778382e-07,4.25292643256366e-07,8.074605012848382e-07,1.421025566601929e-06
6.618626675388345e-07,-5.476429294855513e-07,-1.9261556662028143e-07,-1.2712707860499994e-07,9.399074595285692e-08,1.2875169795852708e-06,7.116005339295948e-07,1.0280668360817102e-07,7.814417232770858e-07,7.311743192540812e-07,1.1310883981109354e-06,4.878660845754623e-07,6.786807120698291e-07,1.5429873148931913e-07,6.90976735158751e-07,4.0320356328490866e-07,8.057515273792042e-07,1.3968887173887866e-06
7.115450655627716e-07,-4.7451030002399206e-07,-1.6805513880312464e-07,-1.2702553935068118e-07,1.9017117702748293e-07,1.2592519676266742e-06,8.26245575917026e-07,1.7318636791100165e-07,7.810716189083277e-07,7.568321585202819e-07,1.1133456062406182e-06,4.5820849006267567e-07,6.654267580538248e-07,6.959063697902721e-08,6.293063316279534e-07,3.587703357781411e-07,8.047391343495664e-07,1.3624615189043382e-06
7.810497628353325e-07,-4.1480665007596214e-07,-1.5101305935127373e-07,-1.2356984721720917e-07,2.546807452464139e-07,1.2430111353919963e-06,8.792728644550796e-07,2.10948764146575e-07,7.743971850116876e-07,7.871336248583089e-07,1.096537691306005e-06,4.201840727705091e-07,6.444743437744519e-07,1.190051423894837e-08,5.914420221435964e-07,2.9960138843454126e-07,8.00779794162084e-07,1.324145544876e-06
8.569524445635631e-07,-3.5681117641905315e-07,-1.4881578955451605e-07,-1.1777616686601845e-07,3.000404405459663e-07,1.2314018810319079e-06,8.895203402560785e-07,2.2726879610809651e-07,7.66541072410666e-07,8.204640182999924e-07,1.083500219563733e-06,3.912548502679818e-07,6.314847681502677e-07,-1.754148628926305e-08,5.727090392458119e-07,2.3680709243098466e-07,7.965983257546139e-07,1.2839926473138058e-06
9.319090541511775e-07,-3.098664457994543e-07,-1.5414927274412193e-07,-1.0616683269812461e-07,3.5194473103826024e-07,1.2217569720651344e-06,8.939253418916736e-07,2.388405471070845e-07,7.595171459103723e-07,8.555876397434491e-07,1.0795334166684779e-06,3.6092641582955115e-07,6.218549564957586e-07,-2.700331518705947e-08,5.713262917403253e-07,1.6955397726597648e-07,7.966624776718171e-07,1.2449011517353544e-06
1.0027312392260177e-06,-2.6099566323698453e-07,-1.6443642338908438e-07,-8.884390771803081e-08,4.0809640763067373e-07,1.2059886262924991e-06,9.072830471060185e-07,2.4904788615751433e-07,7.572874048564547e-07,8.911731872390128e-07,1.094449737192874e-06,3.4273432254788707e-07,6.104479876451791e-07,-4.3637290863780855e-09,5.765348528923739e-07,8.314504511330042e-08,8.03824893720151e-07,1.2153789777646686e-06
1.072685729405416e-06,-2.0890111816219008e-07,-1.7902247283531906e-07,-6.652787110290763e-08,4.830220406201471e-07,1.2152693508098605e-06,9.198609210169772e-07,2.603120434252467e-07,7.636359062662621e-07,9.253723492417509e-07,1.1205197356619933e-06,3.3807766195406764e-07,6.035891424237361e-07,4.8641061840993366e-08,5.84628229105158e-07,-2.304499884454521e-09,8.217123523111889e-07,1.1997736497555754e-06
1.139844968018864e-06,-1.5659564115980868e-07,-1.9012294127183822e-07,-4.1211951051680994e-08,5.556659887679799e-07,1.2270527792900395e-06,9.453097348668078e-07,2.809774254120139e-07,7.732820312856752e-07,9.5608528469122e-07,1.1544040289782234e-06,3.4023997287520467e-07,6.001934559437167e-07,8.951252300358523e-08,6.020272251803828e-07,-6.024967259436609e-08,8.492545401739051e-07,1.2000650040635417e-06
1.19903930587784e-06,-1.0466541040542431e-07,-1.9556692862204376e-07,-1.4220273038343238e-08,6.286782136750309e-07,1.2346237933522186e-06,9.67479401946044e-07,3.155672227242258e-07,7.882551645189831e-07,9.802634973368919e-07,1.1923691806527276e-06,3.499145200312102e-07,5.992471106380668e-07,1.2259145761705755e-07,6.18621620827434e-07,-9.443092722623017e-08,8.842958720155922e-07,1.2167524438406829e-06
1.249134477214019e-06,-5.5376047488175585e-08,-1.9137794843812205e-07,1.3387179021812607e-08,7.036697145896567e-07,1.2474309719142926e-06,9.928307981504377e-07,3.580926375729194e-07,8.099094469439141e-07,9.992192728845876e-07,1.2258909496918998e-06,3.612563145496909e-07,5.974767985416372e-07,1.6294291023669618e-07,6.26434042013211e-07,-9.876949830424217e-08,9.196521382195124e-07,1.2467828365418623e-06
1.2881376919932868e-06,-1.0464991756298145e-08,-1.756279016680146e-07,4.1027493630951986e-08,7.735337511893447e-07,1.2573359861326362e-06,1.0290292285326327e-06,4.086430971387899e-07,8.362868823185634e-07,1.0127559573432839e-06,1.2520562618991213e-06,3.719042267189605e-07,5.972556968090869e-07,1.8909475614114047e-07,6.323232674847659e-07,-8.28745897939149e-08,9.528077185333625e-07,1.2767552893688305e-06
1.316247905022646e-06,2.831123679161619e-08,-1.4626886761674308e-07,6.96079902041611e-08,8.398908619457673e-07,1.2688224133429805e-06,1.070024705758877e-06,4.616714591535472e-07,8.651193866212152e-07,1.0204407198198002e-06,1.2678625225959893e-06,3.860242122451664e-07,5.933997361498471e-07,2.089900432092576e-07,6.340058186046112e-07,-5.615104394099977e-08,9.839290155035868e-07,1.3053433591889153e-06
1.3356955418834757e-06,6.012399479083196e-08,-1.0917672415024464e-07,1.0176860987790171e-07,8.975790089335711e-07,1.2840266313933622e-06,1.1187074396224434e-06,5.13300586421588e-07,8.950248990953309e-07,1.025141705575025e-06,1.2726252072094898e-06,4.038727471239928e-07,5.863649510353687e-07,2.255831412090633e-07,6.376623308148745e-07,-2.2241496335051975e-08,1.0135438893221448e-06,1.332852794861101e-06
1.345772227364666e-06,8.619346231771331e-08,-6.787671121955801e-08,1.3813895581369507e-07,9.451861831803556e-07,1.3017449262193107e-06,1.1723257736894056e-06,5.650344697943807e-07,9.259420251899107e-07,1.0295177053129183e-06,1.2677732085481033e-06,4.2218387291772844e-07,5.780094711504978e-07,2.3664317020632054e-07,6.476099970880207e-07,1.875574338810558e-08,1.0443991034945888e-06,1.35789696266176e-06
1.356594585994415e-06,1.0810239795192999e-07,-2.4507257384056016e-08,1.80376681043886e-07,9.85159991666425e-07,1.315999967937129e-06,1.234192847131951e-06,6.201997436614855e-07,9.574642884989657e-07,1.0356444905149525e-06,1.260250010265826e-06,4.417055095986119e-07,5.673978269428205e-07,2.4659972309950747e-07,6.629720175691615e-07,5.9437449734470546e-08,1.076624670392295e-06,1.3820743367405397e-06
1.3714970130567868e-06,1.2649372755894043e-07,1.746283461647101e-08,2.1936801793470238e-07,1.0214741291581925e-06,1.3314658491643083e-06,1.2981761922802918e-06,6.743002201132082e-07,9.897712971224333e-07,1.0441801884280356e-06,1.2531864706830797e-06,4.625755367201364e-07,5.584349865620585e-07,2.6150886017399027e-07,6.833891465665347e-07,9.452685980581572e-08,1.1093060376011783e-06,1.4037234447004496e-06
1.3874902849540346e-06,1.415696664009947e-07,4.754104584474733e-08,2.687928947427767e-07,1.0497009267260068e-06,1.3483170977707546e-06,1.3580751829605385e-06,7.237212817403705e-07,1.0207163692423613e-06,1.054758809470897e-06,1.234225665606906e-06,4.84828635127543e-07,5.500677508637835e-07,2.774089228465381e-07,7.098522737424061e-07,1.2065283952078708e-07,1.141749703630406e-06,1.4217576276259017e-06
1.4073001402968191e-06,1.5390443255754245e-07,7.740592058973036e-08,3.234813396372144e-07,1.0681163787992996e-06,1.3650860347603876e-06,1.412094561218161e-06,7.676454323939741e-07,1.048771382640964e-06,1.0658142958269323e-06,1.2089706804213133e-06,5.08482482487433e-07,5.395200380821561e-07,2.885555598557043e-07,7.428944722451261e-07,1.370694191657823e-07,1.173767709019414e-06,1.4356966562152806e-06
1.429144420937246e-06,1.6359064432166913e-07,9.235474646130236e-08,3.745576021073826e-07,1.0770337765072683e-06,1.3839850711434158e-06,1.4573162224937209e-06,8.030814624614058e-07,1.0724028746181714e-06,1.0756703807095648e-06,1.180815123710213e-06,5.305910843483897e-07,5.304610466783004e-07,2.9220981918154714e-07,7.765292231371113e-07,1.406924394389487e-07,1.2016094648737057e-06,1.4450298679753717e-06
1.4503167692028234e-06,1.6979960390042777e-07,9.600366477853876e-08,4.0532570998225846e-07,1.0742288565586727e-06,1.4034196421055114e-06,1.4937774192775809e-06,8.272746903308693e-07,1.0873047866115194e-06,1.0821784018883003e-06,1.1574528681627371e-06,5.451578788878763e-07,5.169428679650831e-07,2.83132402815802e-07,8.075747365321414e-07,1.333390145034546e-07,1.2201828668096374e-06,1.44571571059569e-06
1.468564658827331e-06,1.7146811724752932e-07,9.741053255295904e-08,3.955219214044763e-07,1.0607095966568278e-06,1.4231652545211744e-06,1.5222560598919934e-06,8.388253407863641e-07,1.0910534080681986e-06,1.0830205931065069e-06,1.1376413112129792e-06,5.508713419680943e-07,4.982607269625897e-07,2.613546402157681e-07,8.282427988634084e-07,1.1560481165776728e-07,1.2241807622756253e-06,1.4353476942521971e-06
1.477177423546199e-06,1.685508017748216e-07,1.074769003668939e-07,3.91569312786021e-07,1.0382886282836136e-06,1.4446603448054034e-06,1.5442612024089876e-06,8.389259388700802e-07,1.0844890666481232e-06,1.075225379192823e-06,1.1147219699578232e-06,5.464403495019056e-07,4.773993831360939e-07,2.3170202557527744e-07,8.34531941520645e-07,8.85430885545026e-08,1.2112272104112948e-06,1.4146320268118755e-06
1.46915463385598e-06,1.6168940523471677e-07,1.2736083322163565e-07,3.9769234724315166e-07,1.0086664856667962e-06,1.4688860137100538e-06,1.5612562872593646e-06,8.296354616918337e-07,1.065739998869012e-06,1.057213876597025e-06,1.0652029399527657e-06,5.358849264830633e-07,4.5403585331077295e-07,1.9388500772787012e-07,8.242213508262144e-07,5.4609986538045426e-08,1.1799001584543411e-06,1.3846386797840519e-06
1.4379453395198979e-06,1.5095712901530603e-07,1.74672735083993e-07,4.834650220857192e-07,9.714872785169694e-07,1.495320592841108e-06,1.5721463177615037e-06,8.11415399228724e-07,1.0337835464698002e-06,1.0259992003443943e-06,9.863861496113927e-07,5.245905608584525e-07,4.284667442705082e-07,1.5125039579066374e-07,7.933438351247268e-07,9.490844413561565e-09,1.1300034797663833e-06,1.3472667353323375e-06
1.37607870975965e-06,1.3506972226196958e-07,3.0397084704897205e-07,6.368117438456705e-07,9.232652851441696e-07,1.5220078482972727e-06,1.5731599541057292e-06,7.840078651355347e-07,9.874632592555385e-07,9.793664211628746e-07,9.022257191687032e-07,5.17390938556826e-07,4.0095377466760514e-07,1.037471729075711e-07,7.386395248753071e-07,-3.398933872870031e-08,1.0601199191281315e-06,1.3054185936166695e-06
1.2921341437600704e-06,1.1247932464539998e-07,3.735863935762167e-07,7.524586226740624e-07,8.596729954415581e-07,1.546778076038913e-06,1.5595829065404493e-06,7.483137830215053e-07,9.286220272122551e-07,9.139602058964915e-07,7.915591145554835e-07,5.210455451675512e-07,3.7205693904593097e-07,4.900657462688792e-08,6.578340207849241e-07,-6.846786261095349e-08,9.668661730498504e-07,1.2632757937409849e-06
1.1813751639871932e-06,8.195203662443625e-08,4.361550947934477e-07,8.170418628409163e-07,7.768204730893592e-07,1.5677968128151976e-06,1.5272995438388831e-06,7.064422658475629e-07,8.635733127884655e-07,8.293992693735903e-07,7.543702780942529e-07,5.397749923549939e-07,3.409762528416561e-07,-1.2249020233266322e-08,5.569024831784272e-07,1.7843068559119267e-09,8.596663128613769e-07,1.2251221533780923e-06
1.0445479057845257e-06,4.294422206718798e-08,4.855821986182073e-07,8.714449161181222e-07,6.711000148955959e-07,1.583819463649471e-06,1.4744871635921622e-06,6.61359781134723e-07,8.096048437737262e-07,7.285777567520892e-07,7.428836268783952e-07,5.656288742646428e-07,3.101874923628788e-07,-8.017369864085854e-08,4.4487567080268253e-07,1.1515862002739517e-07,7.50103647150521e-07,1.193684463866259e-06
8.961962241444028e-07,-3.1472553253071263e-09,5.821005036424128e-07,9.291755696333463e-07,5.423834558822135e-07,1.597110632401143e-06,1.4044738308811396e-06,6.177080696154108e-07,7.835395530186313e-07,6.209540759144271e-07,6.477199609284372e-07,6.021096212586261e-07,2.832824812839285e-07,-1.4943684333962837e-07,3.523266489537684e-07,2.61398420792802e-07,6.644583789209937e-07,1.1696713294528105e-06
7.801996753661789e-07,-5.174213872152033e-08,6.867136723196797e-07,1.0280352780884114e-06,3.978527883915919e-07,1.6107225662659715e-06,1.3276413256000408e-06,5.816486681265329e-07,7.835934251819612e-07,5.348194732238248e-07,5.567682146089697e-07,6.384849983005986e-07,2.6459252500220135e-07,-2.043725927800966e-07,3.2422375151223415e-07,3.8371248372905105e-07,6.304647993037529e-07,1.1518262406690902e-06
7.430540209031955e-07,-9.566389836035537e-08,7.241435468101289e-07,1.061734749691916e-06,2.509701043776565e-07,1.6292547185889535e-06,1.2592127878054126e-06,5.582647806067674e-07,7.8593658632236e-07,4.781458838805203e-07,5.160445455600821e-07,6.73257895754577e-07,2.5710202698820643e-07,-2.4165224687149276e-07,3.2277402286669137e-07,4.861741151236996e-07,6.589554103477888e-07,1.1373160038600762e-06
8.123792535513383e-07,-1.281280925929256e-07,7.403230393374808e-07,1.0392207284157491e-06,1.1871200776180964e-07,1.6552078896039476e-06,1.2135487194040831e-06,5.493211285141028e-07,7.678602816619595e-07,4.81515741718719e-07,4.813221870907046e-07,6.652294851016843e-07,2.5905205886799705e-07,-2.626604048145252e-07,3.4311970389460713e-07,4.753188141848575e-07,6.537179483216832e-07,1.1233028464944877e-06
9.133779920265445e-07,-1.453227090514219e-07,7.269733767447406e-07,1.0334845309732819e-06,1.2265242868639476e-08,1.6935006328116144e-06,1.1987797665325857e-06,5.535348991394698e-07,7.713938652367398e-07,5.013122638441484e-07,4.5634584685169253e-07,6.127318335040157e-07,2.6623197555992937e-07,-2.1760647715395833e-07,3.218403796546909e-07,4.53842534200459e-07,6.192437743510848e-07,1.1088492706449123e-06
9.860360932869116e-07,-1.474668982374344e-07,7.200808462180665e-07,1.0385208010309445e-06,-6.663488634754201e-08,1.7487109743034073e-06,1.2143193810520094e-06,5.670342996896907e-07,8.139693321482527e-07,4.689128338248082e-07,4.2315755375787405e-07,5.542685386792941e-07,2.7368235465183787e-07,-1.408300174486503e-07,3.3189873515114235e-07,4.3720264792951145e-07,6.320728288066917e-07,1.094909326318611e-06
1.0404493373982734e-06,-1.387086595435682e-07,6.901989154849458e-07,1.0347669096434722e-06,-1.2564259060628673e-07,1.8173964200394593e-06,1.2515551146198388e-06,5.825084718190463e-07,8.668362294495268e-07,4.2524197681805424e-07,3.7386564856995866e-07,5.025475162974327e-07,2.7565271575424405e-07,-1.0613990944469363e-07,3.5532805673766065e-07,4.161410478276528e-07,6.779077799173037e-07,1.0825268475019584e-06
1.0812649125849443e-06,-1.260312036707505e-07,6.797766471328676e-07,1.0756869149492045e-06,-1.7847407984972234e-07,1.893032836395683e-06,1.297836414765779e-06,5.902146229516727e-07,9.148172726335807e-07,4.107938160001746e-07,3.304465152897845e-07,4.806102585770573e-07,2.658796936751003e-07,-1.1042182159133656e-07,4.085283935646193e-07,4.1468938379344493e-07,7.656101151884171e-07,1.071766056811509e-06
1.1022052674163258e-06,-1.1659043657062869e-07,6.946134156370448e-07,1.0571890239539517e-06,-2.362781631330701e-07,1.9505816959814852e-06,1.3426725615887776e-06,5.825010743721832e-07,9.576386148914573e-07,4.372701392135612e-07,3.33654601888157e-07,4.546977107804684e-07,2.391212297007507e-07,-1.4606993849227974e-07,4.719529499519651e-07,3.415365661336395e-07,8.567101394407795e-07,1.0621099498323451e-06
1.206512454905525e-06,-1.1496312207497688e-07,6.468748439448557e-07,9.735043644427236e-07,-3.0246483142304475e-07,1.957534604987681e-06,1.3818295839057077e-06,5.574891427236862e-07,9.655906960299983e-07,4.803421588475011e-07,3.6663466089188065e-07,4.1104527108842374e-07,1.926299453290443e-07,-2.1879037381162956e-07,5.310524760166036e-07,2.0319162434661445e-07,9.453152222014182e-07,1.0526036362707043e-06
1.3607265926169524e-06,-1.2263355743525685e-07,6.028937516871772e-07,9.222889635436151e-07,-3.7182791720996054e-07,1.907437706238002e-06,1.415630835275288e-06,5.181900853616326e-07,9.53677842186375e-07,5.28365064807017e-07,3.8199400855438055e-07,3.2432199970615674e-07,1.2643496278147482e-07,-3.2589317648275695e-07,5.918211788360193e-07,5.631961012157176e-08,1.0218407314697432e-06,1.0414719606284146e-06
