0,1,2,3,4,5,6,7,8,9,10,11,12,13,14,15,16,17
-7.527171486053699e-08,-3.6249081157308305e-07,1.2192757683630409e-07,-6.936229499299284e-07,8.608517860623832e-08,6.476089158410556e-08,-1.8201315398938687e-07,2.5108156936508737e-07,3.0548989656451984e-07,-9.327772108779975e-08,-3.748117382399315e-07,4.405001832418053e-08,-1.64990857254232e-07,9.812786760094175e-09,1.8234275782008203e-07,2.65997627162568e-07,1.2294372315898016e-07,1.6619919344873252e-07
-4.8037240453261034e-08,-2.6871457010353605e-07,1.1593581856099446e-07,-4.104579918025488e-07,4.567870843704438e-08,7.17960713864314e-11,-1.636162918610792e-07,1.6995276594313848e-07,1.803378285243171e-07,-6.975734758571269e-08,-3.7270901519856817e-07,2.2313102925375583e-08,-1.2494727743007742e-07,1.6464618597640083e-08,1.5064377303969597e-07,2.0795251972398281e-07,1.4879674142387603e-07,1.8495929551873835e-07
-2.480930604937378e-08,-1.597967043031356e-07,1.0369504090509993e-07,-1.7389612294930228e-07,4.452069541416053e-09,-5.4841287059112567e-08,-1.4912462918472059e-07,8.127612671868538e-08,4.475223558967367e-08,-5.059359781554712e-08,-3.8982431637570397e-07,1.5407549080173826e-08,-1.003549045676516e-07,2.9485284843610855e-08,1.2461741635652814e-07,1.492019957262738e-07,1.762484178348527e-07,1.9542592410390938e-07
-1.5227855516174188e-08,-5.4184783211600754e-08,8.382917143869122e-08,-1.600322456400428e-08,-3.249910046232225e-08,-9.370668005954169e-08,-1.5283680423304644e-07,-2.858536735837364e-09,-8.116549186207014e-08,-3.799345799050321e-08,-4.190873350931474e-07,2.439245463069877e-08,-9.571043844579842e-08,4.568857753372854e-08,1.048204607675103e-07,9.534338073210913e-08,1.9462376456496401e-07,1.9101885546132972e-07
-2.3723308988202382e-08,3.325650000971079e-08,5.631135926882069e-08,1.3498538998570857e-07,-6.025296866227028e-08,-1.1403148852133435e-07,-1.8270313000833807e-07,-6.959762041606135e-08,-1.3157620163517042e-07,-3.161517772810366e-08,-4.454004434490775e-07,4.541492804255925e-08,-1.0743090863432499e-07,6.149883974600212e-08,8.899384226480839e-08,5.0699697519396775e-08,1.904619042928049e-07,1.6805752656147247e-07
-4.789341605968365e-08,9.415886049170536e-08,2.3816274428876387e-08,-1.0256723141087695e-08,-7.477184050573593e-08,-1.1642708833232328e-07,-2.3800649439553001e-07,-1.0930078388992274e-07,-1.3965724358552013e-07,-2.8338795328102418e-08,-4.4844424119580807e-07,7.072504350937064e-08,-1.238529527711401e-07,7.177347683722046e-08,7.13978457035825e-08,1.6761691066155317e-08,1.716987368873846e-07,1.268207263024878e-07
-8.613134896863033e-08,1.1728117150388626e-07,-9.258541092071336e-09,-1.1879937248426534e-07,-7.401477866895759e-08,-1.0360972293858753e-07,-2.736911748635689e-07,-1.194840941849458e-07,-1.5537616023527118e-07,-2.4059948791938445e-08,-4.08832978330425e-07,9.03790796692463e-08,-1.3022858357360866e-07,7.307974306045468e-08,5.097048699005953e-08,-8.57783747568427e-09,9.257717941262705e-08,7.127158579609319e-08
-1.0855815473296065e-07,1.1046633899793744e-07,-3.899251875794137e-08,-1.7480971853859807e-07,-5.900434336685671e-08,-7.949328416109935e-08,-2.5149924136364813e-07,-1.0603891141711331e-07,-1.7903050083790595e-07,-1.6216850153503735e-08,-3.1475319757719704e-07,9.494111352236537e-08,-1.1553905075125246e-07,6.301520077731811e-08,2.0096656850548684e-08,-3.002722478841963e-08,2.774044410121168e-08,8.085914653333945e-09
-1.0954237626457511e-07,7.450721319261556e-08,-6.294709072316359e-08,-1.9908970771086177e-07,-3.381852282938915e-08,-4.815779645484613e-08,-1.779165122488892e-07,-8.010454348242645e-08,-1.106884865546302e-07,-4.038341085289566e-09,-1.6616122188729016e-07,7.883364335391316e-08,-7.592514782717473e-08,4.036850575085089e-08,-2.381251132553091e-08,-5.218511643816458e-08,-3.259621226877937e-08,-5.445539555393408e-08
-8.663751862047912e-08,2.7981602850576408e-08,-7.954121726944976e-08,-1.642152080854821e-07,-4.406794880875502e-09,-1.2982476176456534e-08,-8.204022916348069e-08,-5.242655350529307e-08,-2.1840665218754483e-08,1.177476594077806e-08,2.427473367679045e-08,4.269591608028543e-08,-1.653727323328703e-08,8.611339527816202e-09,-7.660333655520539e-08,-7.645414199173251e-08,-9.335882063309007e-08,-1.0802611271663262e-07
-4.5176599213847135e-08,2.7721524704439883e-08,-8.686308790698297e-08,-4.939700222167957e-08,2.260649935301135e-08,2.3269336126210023e-08,-2.545249614433638e-08,-2.9239206299699124e-08,3.2137617975135835e-08,2.947703622908238e-08,2.3289723304440512e-07,-6.695764245053282e-09,5.403698967719152e-08,-2.717113240503075e-08,-1.2105744088705746e-07,-9.987839684724755e-08,-1.3393832875182945e-07,-1.4632351411800814e-07
1.7466752113458615e-08,6.14620996687203e-08,-8.316925564739778e-08,1.1512481431228324e-07,4.092671725552918e-08,5.79201482035987e-08,1.5456728853700014e-07,-1.1850089833545551e-08,5.7506726137845214e-08,4.691433166344671e-08,4.2947919378489206e-07,-5.8771023945933224e-08,1.2334464735295806e-07,-5.880211724259455e-08,-1.3545278528673373e-07,-1.1697740384833796e-07,-1.5920089325644452e-07,-1.668327164852053e-07
8.861718175379167e-08,8.2083885081267e-08,-6.90213607455345e-08,2.887054431313632e-07,4.6524390564698455e-08,8.815241050845441e-08,3.5724136210711404e-07,1.337418455054076e-09,6.460421437011636e-08,6.143427832816965e-08,5.849090383563384e-07,-1.0230589867934379e-07,1.8033438634311992e-07,-8.555525934578213e-08,-1.317956366229502e-07,-1.2290158009349453e-07,-1.7182804758182114e-07,-1.7138366241059174e-07
1.5149057472746544e-07,8.220972294073178e-08,-4.794455281954703e-08,4.317300026320058e-07,4.032433353723512e-08,1.1203488375540067e-07,3.9429496368028056e-07,1.278990093094527e-08,5.6970873080415565e-08,7.011131001641632e-08,6.796908278574626e-07,-1.279033411344324e-07,2.1903720773102444e-07,-1.0051851801658607e-07,-1.0333805582633049e-07,-1.156198521963459e-07,-1.747284985785642e-07,-1.6510648452105333e-07
1.9585481069440598e-07,7.403303237543049e-08,-2.4695328556395345e-08,5.142746889313978e-07,2.915002481911657e-08,1.3036354807261313e-07,4.591960315422297e-07,2.489324088090095e-08,4.3702428476385326e-08,7.129539802704705e-08,7.087244953066594e-07,-1.2933316555565203e-07,2.384527433730685e-07,-9.298271360905636e-08,-9.754988218423572e-08,-9.604750027289526e-08,-1.7741492024660528e-07,-1.5445258975569683e-07
2.1757952043860274e-07,6.002491737433401e-08,-3.0822879203044566e-09,5.257276824350003e-07,2.302042726211754e-08,1.4667680938153313e-07,5.136005115894008e-07,3.956931747103325e-08,3.383292921091281e-08,6.488411736156034e-08,6.800489653206012e-07,-1.0414365557775432e-07,2.4031142001118515e-07,-5.476863281568658e-08,-1.0427359110477173e-07,-6.72878579781639e-08,-1.8202519035956802e-07,-1.4525854628497517e-07
2.1787123238882645e-07,4.090945457769335e-08,1.4350771733123332e-08,4.6890847563079624e-07,3.0191366804782824e-08,1.6580631099146814e-07,5.062026512776969e-07,5.7734110528503793e-08,3.4335131935867005e-08,5.1515390049517024e-08,6.091029921459661e-07,-5.3827369895230305e-08,2.2705991089433896e-07,4.841568386844717e-09,-1.0417349832135397e-07,-3.408514673133544e-08,-1.9140653578645463e-07,-1.4149008150838897e-07
1.999986589720627e-07,3.0554420381488034e-08,2.5472555951605868e-08,3.527358161921104e-07,5.317021197564393e-08,1.918419002726927e-07,4.678086907009339e-07,7.889327634846328e-08,4.7714006732948695e-08,3.2429846793616565e-08,5.12451892894533e-07,1.677994187606467e-08,2.00709751747364e-07,5.2604718524411647e-08,-1.0408948205270821e-07,-2.220489452572539e-09,-2.0677237502963382e-07,-1.4468058212370026e-07
1.6757953191732195e-07,2.7426583025664325e-08,2.8647171777020264e-08,1.9124444370267517e-07,8.801851473159853e-08,2.266920111693526e-07,4.0063233811485133e-07,1.017809115285859e-07,7.299285220890574e-08,9.610692059301717e-09,4.0469992340576325e-07,1.0091975455473338e-07,1.627555719609397e-07,9.747272446322815e-08,-7.980417706429925e-08,2.2805473130279762e-08,-2.264585561739738e-07,-1.5398520165837036e-07
1.250200424472184e-07,2.7759769977284685e-08,2.3849868005497233e-08,-1.165211162363294e-09,1.2692309896827228e-07,2.70506361680883e-07,3.457417774680496e-07,1.258954874615029e-07,1.0751535757541578e-07,-1.4096537662804113e-08,2.976012119518258e-07,1.912875239461255e-07,1.1700593032589605e-07,1.4195118664652525e-07,-3.510971814507595e-08,3.7260245879435405e-08,-2.475013361728388e-07,-1.6696710795497555e-07
7.812880144970924e-08,3.491949523699084e-08,1.3661614469980264e-08,-2.075089898416164e-07,1.6210537221053703e-07,3.2157247788144697e-07,3.336753111553978e-07,1.5219683262112558e-07,1.4813106075269817e-07,-3.5415888422767665e-08,2.002761183093805e-07,2.8051866227090257e-07,6.958831153884905e-08,1.6972685154630564e-07,1.0728214639178391e-08,3.9643608040870877e-08,-2.667634260824744e-07,-1.8103860928638536e-07
3.279637265022677e-08,5.02660503957825e-08,2.1301475827515577e-09,-4.0845972344463014e-07,1.8886434285076877e-07,3.7667433193129037e-07,3.0228478579220654e-07,1.8171619908965798e-07,1.9177698231626998e-07,-5.172837338416666e-08,1.1858868527344197e-07,3.6118978289022705e-07,2.6862342609197334e-08,1.9685766153604413e-07,5.661175116086851e-08,3.025129125369625e-08,-2.825545066455279e-07,-1.9471755442590157e-07
-7.159868071252534e-09,7.715681638148498e-08,-7.68111333987884e-09,-5.864867740254308e-07,2.0659677058156678e-07,4.3112909128792594e-07,2.855753947336153e-07,2.133648343104593e-07,2.3484821894981924e-07,-6.296911854008323e-08,5.4143508497497324e-08,4.265741115029503e-07,-6.56142736428771e-09,2.237611421300436e-07,9.549518524569586e-08,1.1051072505006477e-08,-2.9473072935016304e-07,-2.0776079633712857e-07
-4.033127333448511e-08,1.1435284422899897e-07,-1.5305448320892186e-08,-7.320741615176855e-07,2.178579563942129e-07,4.799103988422057e-07,2.8434734636649886e-07,2.432926782467483e-07,2.7306662651722313e-07,-7.118287564076619e-08,4.856185763578361e-09,4.7248504517158446e-07,-2.8717320639221038e-08,2.464210096585554e-07,1.2379952443455676e-07,-1.3975704291115632e-08,-3.0392552144289135e-07,-2.203454810682698e-07
-6.70432337292784e-08,1.5551690696272617e-07,-2.1310157809420725e-08,-8.423828367564595e-07,2.2638452815807838e-07,5.186365916262634e-07,2.783433137037869e-07,2.6632796206098684e-07,3.027862375640863e-07,-7.884448792845386e-08,-3.3027991421577447e-08,4.988624775748647e-07,-4.006743053087018e-08,2.683132977075864e-07,1.4659916574260653e-07,-3.912948783335134e-08,-3.1056668263815996e-07,-2.3231204218564812e-07
-8.736379261940309e-08,1.9240044277780814e-07,-2.6610775083425073e-08,-9.172929522169806e-07,2.352113508304512e-07,5.450496959814878e-07,2.7985865468590876e-07,2.7819313080446806e-07,3.2207650638362605e-07,-8.746560993194637e-08,-6.279536539926412e-08,5.094552499982996e-07,-4.2344842827348916e-08,2.849656789861579e-07,1.6435637201557423e-07,-5.8511763967857395e-08,-3.148043143864646e-07,-2.432303461189117e-07
-1.0096111456437982e-07,2.1671563175152858e-07,-3.183946749026714e-08,-9.623695437623206e-07,2.4543300153966224e-07,5.594791188170041e-07,2.783515766336008e-07,2.7712906082458824e-07,3.306685841233202e-07,-9.746626405410329e-08,-8.636337998989984e-08,5.095830070989689e-07,-3.8338017935883306e-08,2.949591670111931e-07,1.773132295612243e-07,-6.823754723344603e-08,-3.175286819553907e-07,-2.530762470777917e-07
-1.0878915379069259e-07,2.2252211395488173e-07,-3.7269731065920543e-08,-9.842852600581136e-07,2.557303973042755e-07,5.639465974967788e-07,2.705921281068888e-07,2.6429728024474777e-07,3.2963034163311905e-07,-1.0876771029690492e-07,-1.0422829028972706e-07,5.037084970546685e-07,-3.073096750935842e-08,2.967716478241118e-07,1.7199609504773452e-07,-6.807455084010147e-08,-3.2107571186151167e-07,-2.626260468824195e-07
-1.1379987988210984e-07,2.08056521599934e-07,-4.340181423032604e-08,-9.907957181900168e-07,2.628698875433757e-07,5.614819625364724e-07,2.5777774553655455e-07,2.431748696269792e-07,3.210362335260346e-07,-1.211502622689713e-07,-1.1589624526309392e-07,4.944828294503081e-07,-2.245434866647161e-08,2.8736442847332134e-07,1.5876576464830067e-07,-6.113859983333181e-08,-3.285540270728143e-07,-2.7314523273441345e-07
-1.1874504343954336e-07,1.7657087392653773e-07,-5.0393441404056426e-08,-9.897720633465451e-07,2.629351787618243e-07,5.547499772784472e-07,2.3937485603187273e-07,2.1855369177150106e-07,3.0751437116391523e-07,-1.3419636360758768e-07,-1.2050371442841929e-07,4.832452918484228e-07,-1.6441196571356365e-08,2.655575788788086e-07,1.421008252030986e-07,-5.228405579203226e-08,-3.423437965885734e-07,-2.8579832274464845e-07
-1.2632712111266778e-07,1.35773319650039e-07,-5.8108506371242645e-08,-9.901006678513143e-07,2.5259493801472417e-07,5.461900515684604e-07,2.1740442827467203e-07,1.9534115318281467e-07,2.9144253514561116e-07,-1.47304401489611e-07,-1.1780032729362321e-07,4.706718429361035e-07,-1.5184732996840962e-08,2.331182715332408e-07,1.202710321114992e-07,-4.660174082808872e-08,-3.632984880372192e-07,-3.013354942434586e-07
-1.3790436910057868e-07,9.512793610709256e-08,-6.637009129990318e-08,-9.932241341529049e-07,2.3024363810351096e-07,5.365305360335947e-07,1.9410755520545118e-07,1.7703142503025628e-07,2.7419336659594007e-07,-1.6054127900220746e-07,-1.0934377696484709e-07,4.5674730203609686e-07,-2.0482620636174084e-08,1.9405631554269259e-07,1.0017669011973372e-07,-4.871789256181177e-08,-3.9106252803206133e-07,-3.2013537995784214e-07
-1.5337961448001904e-07,6.191665402593848e-08,-7.770396059583096e-08,-1.001904144315628e-06,1.9721428895422284e-07,5.245839290568422e-07,1.6980529875062366e-07,1.6441012446121145e-07,2.559918282469518e-07,-1.7493532636453557e-07,-9.90808489266553e-08,4.406227084813768e-07,-3.308614666075575e-08,1.5272088875738023e-07,8.125140500313403e-08,-6.241683284203101e-08,-4.2479558631463274e-07,-3.422970783079773e-07
-1.70328957310238e-07,3.8847246276324405e-08,-9.557890447598578e-08,-1.0184305855558789e-06,1.583760686828954e-07,5.087974781331275e-07,1.4292381865301957e-07,1.5594116515285874e-07,2.3729255852393857e-07,-1.9189627452932436e-07,-9.221099981863972e-08,4.212829558297925e-07,-5.241267997214393e-08,1.1266803916586096e-07,6.32990032333849e-08,-8.959761987246044e-08,-4.632102612738418e-07,-3.6752950684235205e-07
-1.8901918242669778e-07,2.4724552164699966e-08,-1.2227898437916083e-07,-1.0407300538516028e-06,1.2097608779333088e-07,4.883436910085243e-07,1.118393022214578e-07,1.5003337499388846e-07,2.1967144835434694e-07,-2.1195822266911715e-07,-9.29045888942849e-08,3.987679246051141e-07,-7.521017340167492e-08,7.657796494069101e-08,4.777955305435067e-08,-1.28913575933867e-07,-5.043899312343302e-07,-3.949492033212616e-07
-2.0856196673264292e-07,1.6522153466063488e-08,-1.5707234421192107e-07,-1.0672989283229634e-06,9.173207405758995e-08,4.6439320669830167e-07,7.615487254380976e-08,1.4675427982335536e-07,2.0559955947925852e-07,-2.3373783030014916e-07,-1.0239634897685534e-07,3.7462971692009117e-07,-9.74261316991225e-08,4.587920636338557e-08,3.813307684559495e-08,-1.7553612005760142e-07,-5.456554005239621e-07,-4.231937313505063e-07
-2.2699343720213716e-07,1.0573637890998542e-08,-1.9604280394819965e-07,-1.0935625588696525e-06,7.371564634106675e-08,4.3969348254192604e-07,3.629862977429757e-08,1.4696326066381388e-07,1.9689514826388152e-07,-2.561442433967682e-07,-1.1893290620309245e-07,3.5100153143922343e-07,-1.1617628891655391e-07,1.98425725650451e-08,3.111834306187547e-08,-2.2283395753746644e-07,-5.842526395006806e-07,-4.5072013901850484e-07
-2.445579078483946e-07,2.6945904925054612e-09,-2.325702693693359e-07,-1.1159640722170438e-06,6.502079849863413e-08,4.162996584159732e-07,-7.50451127413193e-09,1.5023485786789897e-07,1.9288584506803685e-07,-2.7785642487707363e-07,-1.3912753480566902e-07,3.292553154811419e-07,-1.313788331640659e-07,-4.3964481821659685e-09,2.4750183293359878e-08,-2.646466621276201e-07,-6.183376013613362e-07,-4.76151824635518e-07
-2.6183468080262565e-07,-1.1405260269548124e-08,-2.615938666333836e-07,-1.131371099849013e-06,5.992741119337316e-08,3.948492978562459e-07,-5.5227633340173185e-08,1.5418734173835218e-07,1.9060705820513159e-07,-2.969775814860302e-07,-1.5904103173992254e-07,3.0955127700972446e-07,-1.4569095464914884e-07,-3.016696168767746e-08,1.7862175696080444e-08,-2.9643123827741653e-07,-6.468006664480859e-07,-4.984770153784915e-07
-2.797978937348059e-07,-3.5060994950678284e-08,-2.799737435501164e-07,-1.1379816616138425e-06,5.171242098395489e-08,3.7402463105232083e-07,-1.0584569233434153e-07,1.5533724016721458e-07,1.8697393693416736e-07,-3.148688437827711e-07,-1.7482702681382944e-07,2.912888586010902e-07,-1.623678778697488e-07,-5.924901909773584e-08,8.102177057576412e-09,-3.15200314268768e-07,-6.68883785900501e-07,-5.17069228044193e-07
-2.991546073988186e-07,-6.982256602007771e-08,-2.85891800306103e-07,-1.1362714618956892e-06,3.55770121554501e-08,3.5343500523758407e-07,-1.564496572727691e-07,1.512746300156019e-07,1.8059858911162886e-07,-3.320104224652668e-07,-1.836084076162348e-07,2.7345271168275556e-07,-1.834190191647159e-07,-9.129975754927564e-08,-4.049432180990431e-09,-3.196326744511697e-07,-6.841610683922388e-07,-5.317813487617274e-07
-3.2041597235610277e-07,-1.1502010717506363e-07,-2.7998289587919946e-07,-1.1277890839698988e-06,1.0133255961788972e-08,3.331016803361325e-07,-2.0295585708954416e-07,1.4074199898632127e-07,1.717706843262009e-07,-3.474869512625739e-07,-1.8471061963542438e-07,2.544038453849655e-07,-2.08551714113534e-07,-1.2490259348478167e-07,-1.7801674649429463e-08,-3.109334571788394e-07,-6.931090322844133e-07,-5.430461019806452e-07
-3.4344157846615666e-07,-1.672447174096197e-07,-2.6777424572359014e-07,-1.1147432678054854e-06,-2.3399708644929732e-08,3.1333144461407407e-07,-2.417111166935796e-07,1.2316836662555671e-07,1.6130800932277396e-07,-3.6218061748537306e-07,-1.8019781093524704e-07,2.3186267618787612e-07,-2.3657001648401518e-07,-1.5885917893623215e-07,-3.2326001872618184e-08,-2.933114052035407e-07,-6.974904497146195e-07,-5.517950608903176e-07
-3.685206254017779e-07,-2.2010717424110615e-07,-2.517973411775644e-07,-1.0986052810786071e-06,-6.311520020269838e-08,2.955106996412456e-07,-2.7064305401482277e-07,9.752086264063184e-08,1.498071197758046e-07,-3.75664371694734e-07,-1.7386939036825678e-07,2.0394140957431178e-07,-2.648067491742564e-07,-1.925471232177574e-07,-4.638168057430396e-08,-2.7270699165964263e-07,-6.996851496523772e-07,-5.58982626221821e-07
-3.946912915150015e-07,-2.64966365094214e-07,-2.3428215574014087e-07,-1.0842226599964731e-06,-1.0723274637367509e-07,2.822663305267631e-07,-2.891918453698081e-07,6.328610830243187e-08,1.3791806987813556e-07,-3.875639279713393e-07,-1.6921593575438335e-07,1.707355773026727e-07,-2.9009017400230564e-07,-2.2559788371543265e-07,-5.867940635089238e-08,-2.5434899988282164e-07,-7.016418310792904e-07,-5.650131590882297e-07
-4.206159187983494e-07,-2.9287139107428687e-07,-2.1873466015161981e-07,-1.0717391564142033e-06,-1.5340740396111028e-07,2.7553256712886466e-07,-2.979473780524602e-07,2.208665837445875e-08,1.2572426391932853e-07,-3.976668775767867e-07,-1.6787090639463568e-07,1.3485271463756069e-07,-3.1000853505625473e-07,-2.578096866104039e-07,-6.83615344180635e-08,-2.4128571886825413e-07,-7.045790326172425e-07,-5.695402114670456e-07
-4.43483131667123e-07,-2.9794568941388266e-07,-2.0548927325988276e-07,-1.0701152865123854e-06,-1.9813962032963182e-07,2.756605520307416e-07,-2.9895387320832106e-07,-2.2277280879811373e-08,1.1214594886345371e-07,-4.0562744049127984e-07,-1.695121864507616e-07,1.0007350763513144e-07,-3.2390567093627095e-07,-2.895362937961168e-07,-7.558416858074855e-08,-2.3417197047438846e-07,-7.095816428687853e-07,-5.718184857878129e-07
-4.608961303115681e-07,-2.810104066247792e-07,-1.9692570545004167e-07,-1.0799840032798566e-06,-2.3723753262800512e-07,2.806208999602173e-07,-2.9584117608794855e-07,-6.463645525823664e-08,9.503547126401029e-08,-4.111165612754027e-07,-1.7265899275130873e-07,6.932723845132852e-08,-3.332634795556401e-07,-3.21759508649407e-07,-8.136977456666019e-08,-2.3229475219790655e-07,-7.177381149648671e-07,-5.713504878052778e-07
-4.727623993525918e-07,-2.50273046692983e-07,-1.9537377915477884e-07,-1.0999466738298937e-06,-2.667333919005253e-07,2.858250940590863e-07,-2.9256000341536974e-07,-9.988405941104317e-08,7.286024681628605e-08,-4.1422327716419706e-07,-1.753387169122683e-07,4.3839646379634986e-08,-3.410622044629911e-07,-3.551566413745363e-07,-8.651070581420056e-08,-2.3349304881645538e-07,-7.292294155178682e-07,-5.682506052547846e-07
-4.80803904980585e-07,-2.1757272108042925e-07,-2.0075171921200984e-07,-1.132155154757852e-06,-2.8364205337414033e-07,2.8744364282833513e-07,-2.912409697660671e-07,-1.2370849586753338e-07,4.795183899328483e-08,-4.150356471829106e-07,-1.7547487762110444e-07,2.3799075996061368e-08,-3.500724369631583e-07,-3.887846091676008e-07,-9.043377978192374e-08,-2.3385026502362889e-07,-7.423545553377717e-07,-5.630972497167886e-07
-4.856535747421035e-07,-1.9274542332024658e-07,-2.104106606552456e-07,-1.1747638339424139e-06,-2.8660360910688397e-07,2.8481487583492204e-07,-2.9119978124298454e-07,-1.3374622472797874e-07,2.5884613422190254e-08,-4.12709600455542e-07,-1.7177160154791223e-07,9.181391577270917e-09,-3.614294067409379e-07,-4.197574160169989e-07,-9.12883330466053e-08,-2.2884321959975466e-07,-7.537594768324717e-07,-5.565667411169431e-07
-4.868978323484215e-07,-1.8015088515301175e-07,-2.2108354874099702e-07,-1.2261605655772106e-06,-2.764336338710156e-07,2.8031083415301894e-07,-2.899555062750512e-07,-1.3079960308130018e-07,1.169755575301944e-08,-4.0696511849005406e-07,-1.6485695508342766e-07,-3.435822139040016e-10,-3.7464016836322366e-07,-4.4438142050146354e-07,-8.740495460555786e-08,-2.1531287430096095e-07,-7.602562817500895e-07,-5.491992373637107e-07
-4.856533349644788e-07,-1.7916902425828887e-07,-2.2944188016502464e-07,-1.2834030955470623e-06,-2.5633086082104425e-07,2.7736224123264037e-07,-2.851230127529156e-07,-1.1913739614796003e-07,7.735619930558739e-09,-3.9808307207201564e-07,-1.576867129244286e-07,-5.861596187476132e-09,-3.879457355219219e-07,-4.597775940850352e-07,-7.879762305733267e-08,-1.9271364866868654e-07,-7.605322188720168e-07,-5.413249155451316e-07
-4.829686750587388e-07,-1.8697516348699307e-07,-2.343460223464202e-07,-1.3313628101932921e-06,-2.3155429621282444e-07,2.7896357962132674e-07,-2.7525270632427905e-07,-1.0476023696142218e-07,1.2523508298195013e-08,-3.874456257759942e-07,-1.5395367170470396e-07,-8.860809016593472e-09,-3.9897506822479216e-07,-4.647691736751788e-07,-6.729673171429134e-08,-1.6257864807460818e-07,-7.552143091241819e-07,-5.328929957491728e-07
-4.800692107639289e-07,-2.0071124410913378e-07,-2.3485904315321417e-07,-1.3594996910084332e-06,-2.0825389727035447e-07,2.868207804637848e-07,-2.591306833565234e-07,-9.255016462584208e-08,2.2378509263771946e-08,-3.77985784996315e-07,-1.5550319123066538e-07,-1.0143655972488599e-08,-4.054193399379097e-07,-4.5985367122780857e-07,-5.535819092577026e-08,-1.2704344399436792e-07,-7.457603536414189e-07,-5.232557244154258e-07
-4.771452644214987e-07,-2.1804448193384023e-07,-2.2979342992449114e-07,-1.3708198849450298e-06,-1.9151773586664308e-07,3.0045696415903814e-07,-2.350843422454812e-07,-8.451130320924146e-08,3.462640870332082e-08,-3.680496279895931e-07,-1.6146768239350028e-07,-9.282456620348358e-09,-4.057904555803277e-07,-4.47077977846419e-07,-4.4806124455814486e-08,-8.797363788551613e-08,-7.334564858101557e-07,-5.113780325650649e-07
-4.7255160726601e-07,-2.3678667095861536e-07,-2.1588927032645932e-07,-1.374277254886564e-06,-1.8386823002766473e-07,3.2089714508259523e-07,-2.017390274926078e-07,-8.02247814524193e-08,4.854595299578991e-08,-3.5612796849247595e-07,-1.6894470990156793e-07,-5.344900554140826e-09,-3.99019029600226e-07,-4.301528675915123e-07,-3.64310430542691e-08,-4.7551632553746734e-08,-7.1936154244027e-07,-4.965017040120345e-07
-4.673567820106955e-07,-2.542992054086643e-07,-1.9527289070513773e-07,-1.3662871776307297e-06,-1.851956240538615e-07,3.457607662286406e-07,-1.5959875163007874e-07,-7.783465525989581e-08,6.48589162986518e-08,-3.421675094324704e-07,-1.7476738813631396e-07,1.9227534867915362e-09,-3.870474548152801e-07,-4.139660944809831e-07,-3.0206703141054446e-08,-9.124342117467938e-09,-7.045575364815991e-07,-4.78768323053415e-07
-4.5992778006625186e-07,-2.67419793225786e-07,-1.7025135850403387e-07,-1.356536009444966e-06,-1.9342127002326047e-07,3.708208119918509e-07,-1.1166422528696678e-07,-7.588621361613005e-08,8.500337246589224e-08,-3.2665949664702413e-07,-1.765500740655441e-07,1.1778573913205115e-08,-3.7277147382580854e-07,-4.0291134363243593e-07,-2.541766794138091e-08,2.329179313382374e-08,-6.899001367602292e-07,-4.5924023170331143e-07
-4.4791841302843433e-07,-2.735891187332735e-07,-1.4300898029491693e-07,-1.3478713083390816e-06,-2.0506318687516585e-07,3.92794756551686e-07,-6.23068728639615e-08,-7.272756124556397e-08,1.1016829834561327e-07,-3.1112202305773506e-07,-1.730131298381313e-07,2.323018297660974e-08,-3.5879889585525396e-07,-3.9894835491672954e-07,-2.062232964325396e-08,4.690909849443534e-08,-6.754704720316879e-07,-4.393422171079449e-07
-4.304133031028924e-07,-2.728193112911605e-07,-1.1614311414733545e-07,-1.3374586140700948e-06,-2.1598486801448345e-07,4.0916639994158355e-07,-1.551308561109174e-08,-6.640195373449986e-08,1.3987169618901043e-07,-2.96515005802667e-07,-1.6426625376887607e-07,3.572985494214369e-08,-3.471693376825636e-07,-4.008692682271777e-07,-1.4053712695710593e-08,6.166501770994309e-08,-6.605433042328125e-07,-4.2037447997792907e-07
-4.0991818538513973e-07,-2.6890724497999975e-07,-8.910954749550541e-08,-1.3238935463033225e-06,-2.2255372081794212e-07,4.202180141480326e-07,2.5977238100302106e-08,-5.575293495278947e-08,1.7126469308510668e-07,-2.8261159445387167e-07,-1.5166252267304644e-07,4.8927695349683337e-08,-3.38568087498886e-07,-4.052761889107337e-07,-4.666959493539531e-09,6.95762466497949e-08,-6.440717951694533e-07,-4.031980225768212e-07
-3.858528285398887e-07,-2.681610066609389e-07,-6.106759612258575e-08,-1.309697831968851e-06,-2.2262237856310318e-07,4.2733267211587046e-07,6.037658267763594e-08,-4.090289636875258e-08,1.9920197746028163e-07,-2.700664283118631e-07,-1.3720865910687213e-07,6.199819996975333e-08,-3.3182564570440976e-07,-4.0826358810817127e-07,6.98847039710819e-09,7.278347788300517e-08,-6.260909028327819e-07,-3.883894905578953e-07
-3.5538321173464914e-07,-2.746745855209559e-07,-4.253103734238194e-08,-1.3039215841901414e-06,-2.1630860789780006e-07,4.3186026159407397e-07,8.752615185235412e-08,-2.321316498980328e-08,2.178056205000062e-07,-2.583753221379677e-07,-1.2255746035474786e-07,7.371808343223727e-08,-3.261171404796347e-07,-4.069771990000276e-07,1.903926485957222e-08,7.268987439312434e-08,-6.076391945866921e-07,-3.7609917517307536e-07
-3.2314583869082744e-07,-2.887818998428118e-07,-3.505180654681236e-08,-1.2983169756657334e-06,-2.0593452849464655e-07,4.346506285128273e-07,1.0478190197894597e-07,-3.906769427360321e-09,2.2353738428764618e-07,-2.473617899747611e-07,-1.0848390468495666e-07,8.36031319560674e-08,-3.210249303817031e-07,-3.995123453991015e-07,2.9482990366451126e-08,7.034521731374871e-08,-5.898812531987562e-07,-3.656878410290749e-07
-2.958621091860369e-07,-3.05565987264391e-07,-3.6136741678658244e-08,-1.2941041896389477e-06,-1.9470769160467677e-07,4.3647940238943865e-07,1.142788064376184e-07,1.7231654290353922e-08,2.1724846525945684e-07,-2.3515441472203792e-07,-9.479192250691399e-08,9.251383850181154e-08,-3.1584232758752225e-07,-3.8494445772528755e-07,3.711103690745045e-08,6.683841204740014e-08,-5.735401686980285e-07,-3.5586027776394834e-07
-2.7115553908763627e-07,-3.1757387999059174e-07,-4.473636056265799e-08,-1.2902758599964995e-06,-1.8501705324418462e-07,4.3622833908277147e-07,1.1971154654869762e-07,4.088931696014208e-08,2.0442284806700796e-07,-2.2054406076701213e-07,-8.07123459405641e-08,1.0227487306460095e-07,-3.0865091850523064e-07,-3.6397843124414833e-07,4.150678532839034e-08,6.282067506576593e-08,-5.592223611571067e-07,-3.4538206915066914e-07
-2.4781677176336784e-07,-3.196371691430424e-07,-5.531186839987757e-08,-1.2756148635239809e-06,-1.7751263032806366e-07,4.3336320390659184e-07,1.2555648173126209e-07,6.912390704562208e-08,1.9321764933463596e-07,-2.0393456326719698e-07,-6.44367296664022e-08,1.1420224934123671e-07,-2.985247175615516e-07,-3.39270429906504e-07,4.265181476177737e-08,5.790406559255687e-08,-5.477114976221628e-07,-3.338622363189323e-07
-2.250116871009129e-07,-3.1130502857560263e-07,-6.640721104109271e-08,-1.2743705280555677e-06,-1.7121178915314026e-07,4.25193156287879e-07,1.3178293464520097e-07,1.0147699614855707e-07,1.910733743469071e-07,-1.810976051395503e-07,-4.690766048606919e-08,1.280486026863575e-07,-2.847257129854043e-07,-3.147126368395745e-07,4.0901426524882945e-08,5.1260267161671365e-08,-5.396181962819074e-07,-3.2190509833875527e-07
-1.9981252631793945e-07,-2.936114047436073e-07,-8.075321037791654e-08,-1.2866919776520296e-06,-1.640365690244537e-07,4.145645623978302e-07,1.385170375468416e-07,1.3701455097023534e-07,2.0250142506774575e-07,-1.5372773263582549e-07,-2.7339104671764384e-08,1.4262718035051914e-07,-2.6620891025089043e-07,-2.934897930863764e-07,3.724327518929802e-08,4.308849209902831e-08,-5.349420964736657e-07,-3.105982758654132e-07
-1.7262206707276339e-07,-2.673787745233639e-07,-9.902291162102653e-08,-1.3071446614349799e-06,-1.5360658693796454e-07,4.047118180989111e-07,1.4713917057090236e-07,1.7373344359786984e-07,2.2807593817041233e-07,-1.2709192403561077e-07,-4.062963396533577e-09,1.5672123208297655e-07,-2.446669019179226e-07,-2.7657553309202537e-07,3.3162028288318685e-08,3.517620695395396e-08,-5.325987553984562e-07,-3.009164395088175e-07
-1.4593317082957578e-07,-2.32729812065892e-07,-1.1801677466621073e-07,-1.3447650010189954e-06,-1.3829055327511429e-07,4.056214761324249e-07,1.573735700033456e-07,2.1405684528340178e-07,2.640919423979238e-07,-9.960721809987765e-08,2.364283039777509e-08,1.6938748912421874e-07,-2.217499539536811e-07,-2.6284688804462327e-07,2.994296695681885e-08,2.968113099437996e-08,-5.312829321622325e-07,-2.936167763338521e-07
-1.1809733703096253e-07,-1.900975019017491e-07,-1.4079197574278998e-07,-1.3960831740473722e-06,-1.1807551000578082e-07,4.1589898555015164e-07,1.69154738741176e-07,2.552831284734212e-07,3.0344258181634713e-07,-7.167990453299041e-08,5.586309615400429e-08,1.796577282481512e-07,-1.999117409087111e-07,-2.5050502963774186e-07,2.8109692140215914e-08,2.7483113255717177e-08,-5.302856934169536e-07,-2.8939278451148774e-07
-8.783789131715738e-08,-1.437056621967067e-07,-1.6902846457014504e-07,-1.460834994466019e-06,-9.443216534063562e-08,4.3041593409839794e-07,1.7969284257696626e-07,2.9197314670244603e-07,3.377440741647239e-07,-4.8662221075212685e-08,9.054460253946323e-08,1.868025096974202e-07,-1.796211018798498e-07,-2.3794796707806575e-07,2.7626421190011702e-08,2.7860830257163192e-08,-5.293765198102032e-07,-2.8866170908172714e-07
-5.703568239159071e-08,-1.0145932567013242e-07,-1.9390180569631764e-07,-1.5424069423868919e-06,-6.916051111994539e-08,4.4913375538495807e-07,1.8606836974286625e-07,3.163625906758672e-07,3.6032817707504845e-07,-2.3663060156923227e-08,1.2463636150918509e-07,1.9147387546304738e-07,-1.6291325204288315e-07,-2.2371337289491152e-07,2.8532667563965433e-08,2.954591119520172e-08,-5.281544205403119e-07,-2.909685321190708e-07
-2.8136302823798772e-08,-7.204338308738944e-08,-2.189460472749432e-07,-1.6445843848264488e-06,-4.3332940992960024e-08,4.683551508234419e-07,1.9261876103625411e-07,3.2347318327197574e-07,3.68775786619319e-07,-9.963150486707206e-10,1.551159543109428e-07,1.9590790885465131e-07,-1.4771547097540405e-07,-2.0609840358015886e-07,3.1170315918418394e-08,3.1572102876144675e-08,-5.254788779767529e-07,-2.9463541703974633e-07
-1.1214753732582718e-08,-5.977354873532187e-08,-2.519490251666953e-07,-1.7292131457180684e-06,-1.6765864442822567e-08,4.783474938115922e-07,2.0198672858262342e-07,3.1286939435353736e-07,3.65183452008723e-07,1.5828281554972693e-08,1.8009612815409934e-07,2.0301503772894043e-07,-1.2882236907359266e-07,-1.84197524784185e-07,3.5767035775083494e-08,3.3050291922607124e-08,-5.197523565633763e-07,-2.971788525453886e-07
1.3547997790263236e-08,-6.546091609902683e-08,-2.8409679473288475e-07,-1.809240404807197e-06,9.175756773707466e-09,4.827444070774916e-07,2.150108666151728e-07,2.8737617265832614e-07,3.54321195491802e-07,2.901271830317933e-08,1.9740503058759524e-07,2.1488349319594026e-07,-1.0487124514250297e-07,-1.5895599122002385e-07,4.198454096751135e-08,3.2877122845547427e-08,-5.098768611831195e-07,-2.9642887014632043e-07
5.214354558573539e-08,-8.375571586631165e-08,-3.285398813747592e-07,-1.9143713903705833e-06,3.14831798698526e-08,4.893552897086661e-07,2.348282752704297e-07,2.5126498325413007e-07,3.413180393615491e-07,4.7060258386797233e-08,2.0521684119491187e-07,2.3201678289430004e-07,-8.731537964382123e-08,-1.3275866280553828e-07,4.904993672250678e-08,3.026898358104154e-08,-4.958055392375761e-07,-2.914203760984655e-07
8.7513287116154e-08,-1.1258798344424739e-07,-3.7048941008407867e-07,-1.9973780235446093e-06,4.6279032768638166e-08,4.954069092185828e-07,2.4917557050498896e-07,2.1086622520503322e-07,3.3050487018886695e-07,6.651704851443673e-08,2.0366150338373497e-07,2.537810175920985e-07,-7.163087288628641e-08,-1.0772477943021138e-07,5.632881820424975e-08,2.588060944105706e-08,-4.785470885312334e-07,-2.826068246876939e-07
1.195141534601767e-07,-1.405893107176383e-07,-4.04695917207923e-07,-2.0636136623340705e-06,4.9813601250852705e-08,5.041919842215603e-07,2.760932325623873e-07,1.7962264244471468e-07,3.247360756461658e-07,8.70468719680006e-08,1.9548918480212524e-07,2.787775673064162e-07,-5.746496127989408e-08,-8.444594501549056e-08,6.358449230435557e-08,2.1449032529609408e-08,-4.5997772042302954e-07,-2.7165695754486036e-07
1.5567791329855124e-07,-1.5661718861762016e-07,-4.334033617851547e-07,-2.111135028085345e-06,4.0181566523470275e-08,5.159129472939778e-07,3.072813938876746e-07,1.6062107317164156e-07,3.2477646137278847e-07,1.1074207577265927e-07,1.8596610792116858e-07,3.0455170874430957e-07,-4.825006446991426e-08,-6.264233953218368e-08,7.045912336174835e-08,1.765489123721487e-08,-4.4274281909929636e-07,-2.612928375435553e-07
1.6444176668325845e-07,-1.6030070443208208e-07,-4.670113763384693e-07,-2.0944554592111945e-06,1.955173510275749e-08,5.262958409369571e-07,3.230581366530267e-07,1.5672532927343579e-07,3.2901817200071416e-07,1.257477071943347e-07,1.809853304469157e-07,3.273353885781062e-07,-3.748028381196828e-08,-4.243376317277472e-08,7.575795364168497e-08,1.2347155696761009e-08,-4.2985435958753894e-07,-2.5508822953934587e-07
1.5218160416197763e-07,-1.5769663536113756e-07,-5.067472062274906e-07,-2.022525218603532e-06,-6.803072449008732e-09,5.259814811694799e-07,2.951145635350392e-07,1.471685950262745e-07,3.348144454043881e-07,1.3187936961680857e-07,1.848281474855538e-07,3.434378065506997e-07,-2.71808531286254e-08,-2.462858206936625e-08,7.753902143654981e-08,9.258083886722475e-10,-4.233948459036975e-07,-2.567022926359677e-07
1.5578277376688935e-07,-1.6476148192155017e-07,-5.579612101039111e-07,-1.979153142474532e-06,-3.321114299827574e-08,5.5002714837942e-07,2.597052389953488e-07,1.2610294809690554e-07,3.4053081801846166e-07,1.369193466734076e-07,1.9996060325290166e-07,3.5168820976108754e-07,-2.201646068830292e-08,-8.361275745386634e-09,7.412037800921577e-08,-2.151717929190494e-08,-4.2348867668814196e-07,-2.6860000743037515e-07
1.620175301646401e-07,-1.9761518231531332e-07,-6.309201345948486e-07,-1.9827539960781704e-06,-5.4902184499760745e-08,5.9327871508743e-07,2.3613774631200064e-07,9.424131211845917e-08,3.4689593360740985e-07,1.4017564759659444e-07,2.204171998627177e-07,3.5475863345884177e-07,-3.207830601879094e-08,7.810503748642222e-09,6.514467598004344e-08,-5.8194517939613444e-08,-4.280380073109741e-07,-2.9108729009965645e-07
2.2922146266324802e-07,-2.5927470457971616e-07,-6.669299338545018e-07,-2.171128355990422e-06,-6.962495210938989e-08,6.7473708452292e-07,2.672155785511346e-07,7.706696839049132e-08,3.5623045806912093e-07,1.6758953090301542e-07,2.400980075769785e-07,3.581753149721646e-07,-5.6316602273245576e-08,2.7714462430496886e-08,5.204064950716534e-08,-1.0983858939050589e-07,-4.3363682563911456e-07,-3.2233286758509666e-07
2.9280298562147326e-07,-3.297669329245047e-07,-7.051687676704191e-07,-2.496584349704501e-06,-7.800289803461057e-08,8.045487267384983e-07,4.266203370949605e-07,5.39178545573192e-08,3.698649746247037e-07,2.168829327857365e-07,2.505249525139232e-07,3.6771099743805587e-07,-1.2816382490338743e-07,5.352884202064284e-08,3.804772892895307e-08,-1.744715513193812e-07,-4.3654568628081376e-07,-3.5890295302654875e-07
3.3938905336926314e-07,-3.8543419964337485e-07,-7.580726840487227e-07,-2.7524375693420297e-06,-8.254316487413756e-08,9.088637834178197e-07,5.470320496002567e-07,2.5227087815010555e-08,3.8601173102097876e-07,2.7286052083730033e-07,2.3312538562619363e-07,3.871431091067937e-07,-1.8396481714209633e-07,8.951513988891298e-08,2.700943059326509e-08,-2.4671809894870063e-07,-4.327111594531904e-07,-3.958619013828124e-07
3.9142257080835446e-07,-4.195795103550373e-07,-8.01571604539834e-07,-2.8409396967174735e-06,-8.604467484038105e-08,1.004452612954596e-06,6.382260239646735e-07,-3.0734049829602096e-08,3.995223211076203e-07,3.189409173854831e-07,1.7195119236495162e-07,4.1712738395336334e-07,-2.231035053701953e-07,1.4067311922917068e-07,2.679604069344054e-08,-3.1729185698086475e-07,-4.1745967497118676e-07,-4.264807330963454e-07
4.334519042348965e-07,-4.175394617402757e-07,-8.572774308882829e-07,-2.9408397927245247e-06,-9.059176754769317e-08,1.0902126537941658e-06,7.346483452447454e-07,-1.6796554198140388e-07,4.035220675837227e-07,3.70197921987448e-07,5.4814228874841936e-08,4.5460297331848057e-07,-2.7478125300278205e-07,2.0816657654685888e-07,5.3542661118834646e-08,-3.7454463228445043e-07,-3.845474364876335e-07,-4.429673373532441e-07
4.5904292174246326e-07,-4.1918409842360633e-07,-9.029582615699009e-07,-2.908071088517298e-06,-9.706031996347111e-08,1.1448127647760903e-06,8.678869896720229e-07,-2.5568275476799917e-07,3.917107228288766e-07,3.982456456090953e-07,-1.0834484298509163e-07,4.927624567405899e-07,-3.1328572282117225e-07,2.89888467366508e-07,7.750034636449083e-08,-4.0888146086002436e-07,-3.341931774995548e-07,-4.393857523065526e-07
4.977250720215733e-07,-4.979322752601858e-07,-9.373763322122824e-07,-2.965834661906936e-06,-1.099637738065445e-07,1.2223612570311104e-06,1.0803926560203022e-06,-3.600685299571233e-07,3.6027933465629686e-07,4.276842133587034e-07,-2.958547062297022e-07,5.231815263183105e-07,-3.9026436806178625e-07,3.702561737033968e-07,1.3205794021808422e-07,-4.178488206404028e-07,-2.6934937421521923e-07,-4.15582435128805e-07
5.404814486352919e-07,-5.746370715191387e-07,-9.910116938577234e-07,-3.091299511543604e-06,-1.2286718892734025e-07,1.306717589839987e-06,1.2707850521816311e-06,-4.821250862420444e-07,3.089994123913764e-07,4.5601516702820135e-07,-4.3915747121105484e-07,5.356042345312058e-07,-4.784321357666866e-07,4.316597908718811e-07,1.8699068583093917e-07,-4.0776225408759365e-07,-1.9997802312550503e-07,-3.7902591018171256e-07
5.951492100787751e-07,-5.921854948461422e-07,-1.0340670711462935e-06,-3.274637284320872e-06,-1.3039116504332858e-07,1.365746268062526e-06,1.3662610715637168e-06,-6.168367029764058e-07,2.420187101812162e-07,5.073932917546209e-07,-4.458494591851779e-07,5.24380412148989e-07,-5.403856168454988e-07,4.297622951275106e-07,2.3372366069080595e-07,-3.899366439816906e-07,-1.550562440498145e-07,-3.422932174770057e-07
6.252282957611396e-07,-6.032875659967144e-07,-1.0772326168742396e-06,-3.4366448704283473e-06,-1.3663722658178858e-07,1.4386719001174822e-06,1.3793530207590558e-06,-7.660985319447988e-07,1.676004926989913e-07,5.494796846900135e-07,-3.9207042168964457e-07,4.890286124102173e-07,-6.08507199600534e-07,4.352228652625085e-07,2.5130075878586243e-07,-3.7460249608874267e-07,-1.4735588064037374e-07,-3.1765480207883075e-07
6.566278006112331e-07,-6.067248542437244e-07,-1.123469859009726e-06,-3.6509254110346225e-06,-1.4730889147563056e-07,1.5268321947462375e-06,1.4544791833412986e-06,-9.192971945800462e-07,9.552232372094294e-08,5.996200022647417e-07,-3.13903953363625e-07,4.3231935800474026e-07,-6.739738323421906e-07,4.355827114991482e-07,2.601903310327344e-07,-3.6716222422909566e-07,-1.3211932114888634e-07,-3.123220331538202e-07
6.936691197996811e-07,-6.62322159834347e-07,-1.1635985880717008e-06,-3.759555299215817e-06,-1.5917587503075232e-07,1.5818672070816792e-06,1.5366736144134404e-06,-1.0214182499243483e-06,3.276768195522436e-08,6.268834421032775e-07,-3.246481339675788e-07,3.5804594416924847e-07,-7.10134902867348e-07,4.416943643030453e-07,2.5580700934588e-07,-3.68279177809679e-07,-1.2055012166035347e-07,-3.2663233680122473e-07
7.270896251876066e-07,-7.094128832981905e-07,-1.207042217407217e-06,-3.951923333568605e-06,-1.65534787075592e-07,1.6566490166426082e-06,1.5838921876713898e-06,-1.0949698458460435e-06,-1.9670278826705076e-08,6.625080783921452e-07,-2.823707161712902e-07,2.7266476290079823e-07,-7.42521858768858e-07,4.5755457922239094e-07,2.2857556764648004e-07,-3.758318849951325e-07,-1.468623652197952e-07,-3.5497806856171853e-07
7.867829509414063e-07,-7.367892311851238e-07,-1.2507732738983562e-06,-4.182345737357533e-06,-1.573976615008483e-07,1.7144735774135745e-06,1.5971052913437558e-06,-1.1615315380145146e-06,-6.677896250350419e-08,6.73858003647538e-07,-1.7560321772964372e-07,1.8485499132622925e-07,-7.441263518086673e-07,4.2930535883199723e-07,2.0294339161861617e-07,-3.867177477279241e-07,-1.78009822086352e-07,-3.880817651917664e-07
8.361271645800616e-07,-7.428887500202506e-07,-1.2634899925595497e-06,-4.128363889952564e-06,-1.1675681300568346e-07,1.7352454579249322e-06,1.595079670029131e-06,-1.1963988822365664e-06,-1.1647077926738316e-07,6.911122267661652e-07,-1.5860339797443694e-07,9.68634821894541e-08,-7.458509451459284e-07,3.6561390446415916e-07,1.8340163779614522e-07,-3.9826008250826567e-07,-1.7649996852590435e-07,-4.158437587217944e-07
8.6722523763246e-07,-7.466116387277195e-07,-1.2931544194687748e-06,-4.315672441756918e-06,-5.593030853406698e-08,1.7418991978971834e-06,1.541020993001623e-06,-1.2005483182503522e-06,-1.757075352274818e-07,7.056754579076006e-07,-1.7161105843775985e-07,5.505373263834384e-08,-7.705873649658447e-07,3.560446281148597e-07,1.7688825762896653e-07,-4.095057019768661e-07,-1.4696848864025883e-07,-4.3130807137800026e-07
8.912322217509487e-07,-7.581661883382602e-07,-1.3127268170364257e-06,-4.526433431513035e-06,6.946387647716687e-09,1.7181224408377228e-06,1.4658869010830876e-06,-1.162656139132196e-06,-2.475941670927986e-07,7.211105309097532e-07,-2.1108225683328456e-07,4.7941895472966684e-08,-8.173984072699556e-07,3.295401317900715e-07,1.8581877909237474e-07,-4.219600749510721e-07,-8.881988117093142e-08,-4.2928650683666964e-07
9.168925528135764e-07,-7.703453435545187e-07,-1.3479163608037795e-06,-4.663352144120136e-06,6.878596538094322e-08,1.7008435229445163e-06,1.3747119242186798e-06,-1.1379205623469208e-06,-3.2986840715176826e-07,7.617700154236817e-07,-2.3551413951793675e-07,5.079319823529937e-08,-8.494868472618143e-07,3.311990236265547e-07,2.068482325525262e-07,-4.3898001168419586e-07,-5.473751518437325e-08,-4.1571908567858825e-07
9.402134166333951e-07,-7.949590012528335e-07,-1.4103793132436618e-06,-4.672129490581501e-06,1.327144731412021e-07,1.7077674210077998e-06,1.2731114210999888e-06,-1.1343721696648692e-06,-4.1463448180420426e-07,8.150729886086431e-07,-2.7847099323270185e-07,5.690190168157268e-08,-8.999817970672307e-07,3.813864019362536e-07,2.3227081580295777e-07,-4.6399520947755015e-07,8.50481935352425e-09,-3.995971274321908e-07
9.633295524009911e-07,-8.202389477009193e-07,-1.4678934557159038e-06,-4.4616492579728225e-06,1.9428666410304325e-07,1.7361348489318743e-06,1.2071440823740613e-06,-1.1280650877570604e-06,-4.905389249727288e-07,8.694653050197751e-07,-4.5688928079569025e-07,1.264362958894381e-07,-9.703007782772495e-07,4.4520829253984443e-07,2.5315331207385424e-07,-4.991750075723445e-07,6.377865437338562e-08,-3.856616308348636e-07
9.959028075412142e-07,-8.308126803997e-07,-1.528824044934946e-06,-4.439657694295783e-06,2.546518787050038e-07,1.784591171446804e-06,1.1778032492341277e-06,-1.1227492069489785e-06,-5.46068940291334e-07,9.074325704860129e-07,-6.372487533918515e-07,2.0201945444139182e-07,-1.0459352124819235e-06,5.115416157492548e-07,2.6209102254966164e-07,-5.457688289388692e-07,6.145751598730881e-08,-4.2006020907374304e-07
1.0421447990240637e-06,-8.241540148198266e-07,-1.5786710815331012e-06,-4.567064795350218e-06,3.1652738175138235e-07,1.8355956256637477e-06,1.150644494304822e-06,-1.0831713046493475e-06,-5.732197713327053e-07,9.193038223546128e-07,-6.987869606826604e-07,2.5528192220461196e-07,-1.1178434582397938e-06,5.234558514163254e-07,2.5462616793355854e-07,-6.050028792412355e-07,4.568582004470371e-08,-4.868885783133392e-07
1.0606692589835983e-06,-7.998267283842103e-07,-1.6126630479806068e-06,-4.606563669606643e-06,3.710210168817174e-07,1.8735157293255204e-06,1.1356373313506426e-06,-1.0097520939036237e-06,-5.699271763707621e-07,9.039838487049112e-07,-7.567498911533408e-07,2.6956094933332016e-07,-1.1918700001636836e-06,5.105732089598648e-07,2.2995109377470916e-07,-6.774967141151825e-07,2.7087626822903127e-08,-5.458278606186949e-07
1.055932880282518e-06,-7.622126418206715e-07,-1.5977264230651978e-06,-4.674321345945711e-06,4.270292197900876e-07,1.9049448833894353e-06,1.1707137002999985e-06,-9.286477943580257e-07,-5.397368408660644e-07,8.922953120362154e-07,-8.22216533791224e-07,2.638333271546397e-07,-1.2344422734632948e-06,5.069507504681278e-07,1.9130167588284713e-07,-7.611312816869684e-07,4.8414670538099485e-09,-6.391544430058917e-07
1.0536602239831075e-06,-7.191371329637304e-07,-1.5688062898467502e-06,-4.785977202135432e-06,4.896176600108014e-07,1.9401774863326895e-06,1.2256000542546924e-06,-8.335402039844094e-07,-4.904257940539075e-07,8.73788482468561e-07,-7.99078429445e-07,2.4080945098905614e-07,-1.3311190295358739e-06,4.731938335910489e-07,1.4541795768952854e-07,-8.4970539084724e-07,-2.2278179289179295e-08,-7.639021644033397e-07
1.043593471716189e-06,-6.801722285598489e-07,-1.535206582723949e-06,-4.8238593662490276e-06,5.490585200970004e-07,1.967909519286572e-06,1.2956647041154354e-06,-7.258890922302888e-07,-4.327952167614239e-07,8.586961538412649e-07,-7.215992733417497e-07,2.0549483743161966e-07,-1.4167417702941195e-06,4.2181097956180656e-07,1.0051353973713213e-07,-9.342139345518674e-07,-8.439835241117827e-08,-8.819539753931154e-07
1.042639837305585e-06,-6.539414473090761e-07,-1.4997742870463736e-06,-4.846920592324843e-06,5.945680807957877e-07,1.9868597800278816e-06,1.3754745765096783e-06,-6.280140081599115e-07,-3.795050735735688e-07,8.437490228893049e-07,-6.680092215456352e-07,1.7219586698688635e-07,-1.4360448889386638e-06,3.775515275538706e-07,6.3402051842921e-08,-1.0062700967470483e-06,-1.8769321108829067e-07,-9.895719170750028e-07
1.0504906405699635e-06,-6.475314953589062e-07,-1.477203407036435e-06,-4.823477402108899e-06,6.277633270076947e-07,1.994535413248215e-06,1.4398260291597276e-06,-5.518664107822091e-07,-3.4270309732755487e-07,8.353788844633553e-07,-6.623455817272559e-07,1.4303145651582598e-07,-1.4550242501527795e-06,3.4327760755853997e-07,3.740498114990127e-08,-1.0610169252818737e-06,-2.5248894129065113e-07,-1.0618673725805934e-06
1.0614997170998472e-06,-6.631907909824707e-07,-1.4551290212434762e-06,-4.748898132201908e-06,6.521391350251148e-07,1.99635636560262e-06,1.4824278739676295e-06,-5.005087126084502e-07,-3.2985867332191373e-07,8.451760279170499e-07,-6.80665862816758e-07,1.2048884946518345e-07,-1.4527147666935142e-06,3.181284377403657e-07,2.2191647933353315e-08,-1.0975082723163103e-06,-3.0612123875034904e-07,-1.085112197071683e-06
1.0669964134080663e-06,-6.969954005293171e-07,-1.4203919845704717e-06,-4.689630276602284e-06,6.728599635622385e-07,1.9981062622419952e-06,1.5129306098839876e-06,-4.7046782088340283e-07,-3.4010731556542784e-07,8.606911286743054e-07,-7.146913988986449e-07,1.0634017439444695e-07,-1.433401377240285e-06,3.0462642664007e-07,1.5123055078484283e-08,-1.117271654235586e-06,-3.7311951731735735e-07,-1.0954103805621754e-06
1.0777063322571666e-06,-7.408657799830608e-07,-1.3820436915621741e-06,-4.651265459948142e-06,6.98235465139424e-07,2.005951761083364e-06,1.5328401571069204e-06,-4.447089071316806e-07,-3.6440397845822416e-07,8.78608434451634e-07,-7.545052158121523e-07,9.946321651291205e-08,-1.4003715546844671e-06,3.01389486750709e-07,1.2733986586005374e-08,-1.122908658057641e-06,-4.0040785116943503e-07,-1.0992802794045516e-06
1.0849971789494307e-06,-7.868980022362299e-07,-1.3549556204528102e-06,-4.6350549027370914e-06,7.253251863130066e-07,2.0217857511769354e-06,1.5386514757072113e-06,-4.0357087916588205e-07,-3.894621066655606e-07,8.926307506831068e-07,-7.899318381694592e-07,9.796000817765414e-08,-1.3557220546922984e-06,3.0430130453089125e-07,1.1654893076215803e-08,-1.1178040655231006e-06,-3.899488663360297e-07,-1.0927591950464469e-06
1.0819552043715433e-06,-8.310980729844555e-07,-1.3259185947075753e-06,-4.645207954369618e-06,7.479613330066565e-07,2.0378386883918852e-06,1.5460907326744734e-06,-3.531699410971421e-07,-4.0360790490784114e-07,8.998215900483789e-07,-8.141016788955383e-07,9.827663237935619e-08,-1.336494803592664e-06,3.068949223989948e-07,9.33762839930073e-09,-1.105934368227975e-06,-3.7004185645886136e-07,-1.0826714537708122e-06
1.0785932456591345e-06,-8.730599255891552e-07,-1.3071026964295929e-06,-4.658966651665644e-06,7.625681384773852e-07,2.054433971200373e-06,1.557694610903208e-06,-2.9434909333862114e-07,-4.0121366752165857e-07,9.009817478021671e-07,-8.244524462976936e-07,9.58259569817591e-08,-1.3308140602795215e-06,3.02930363514611e-07,4.8721687947318056e-09,-1.0909127819249599e-06,-3.4924089072252336e-07,-1.0757591913700304e-06
1.070203461466912e-06,-9.122845803837679e-07,-1.295892946332507e-06,-4.675635732504149e-06,7.670349200997318e-07,2.069676972306409e-06,1.5724356874381722e-06,-2.2836399923304824e-07,-3.831825255410904e-07,8.984383504556422e-07,-8.231074984215814e-07,8.795136331958554e-08,-1.3343596101985493e-06,2.892280142209435e-07,-6.559833187314775e-10,-1.0747466030166374e-06,-3.2813775599677607e-07,-1.068735348821744e-06
1.0573783425966035e-06,-9.451493325557901e-07,-1.2897334511286942e-06,-4.704798779437948e-06,7.591268852100378e-07,2.0796769257658493e-06,1.5924111805842392e-06,-1.7147222015721084e-07,-3.543864636482238e-07,8.910335155550331e-07,-8.17397776486876e-07,7.542755104352068e-08,-1.3433350021065072e-06,2.675010982943163e-07,-5.066142518575632e-09,-1.057582137772505e-06,-3.040142514293468e-07,-1.0558048621723447e-06
1.0441574236941707e-06,-9.65860724454862e-07,-1.294780137487383e-06,-4.745216270313306e-06,7.395493411340917e-07,2.0860101804470764e-06,1.6126681168386954e-06,-1.2819757072878317e-07,-3.207098449071977e-07,8.764402126337629e-07,-8.174283013374916e-07,6.185382811707973e-08,-1.3330154291611825e-06,2.4304604629138203e-07,-6.781990078381998e-09,-1.0387462749910483e-06,-2.7180693845242725e-07,-1.0310950387966605e-06
1.031900427664214e-06,-9.706490599514086e-07,-1.3121243557336079e-06,-4.80128993597866e-06,7.10971697703707e-07,2.0907056573353702e-06,1.6279737227000457e-06,-1.0376554444671593e-07,-2.867940031136046e-07,8.584298155388035e-07,-8.279712519868305e-07,4.934657127082483e-08,-1.3250543280850427e-06,2.2026264592241983e-07,-7.2062800413401064e-09,-1.0179174768463448e-06,-2.3147524330124648e-07,-9.921395755335955e-07
1.0116211095443904e-06,-9.612789673813502e-07,-1.340283622426509e-06,-4.891410341688262e-06,6.762529360662822e-07,2.0984857834403145e-06,1.6340935641635124e-06,-1.0142691832959952e-07,-2.5464141786411926e-07,8.366590009966414e-07,-8.517730610045093e-07,3.993439261706553e-08,-1.3214377000749702e-06,2.0185109604962843e-07,-5.851362119058733e-09,-9.952475289023968e-07,-2.05821690529861e-07,-9.417864115486929e-07
9.830341243826976e-07,-9.451265521764124e-07,-1.373652624054677e-06,-5.012729901137541e-06,6.388278351394091e-07,2.101343305884939e-06,1.629591829557894e-06,-1.158255989587172e-07,-2.2347392543492614e-07,8.050331434039609e-07,-8.830879724452168e-07,3.2459738871899674e-08,-1.2981094484050845e-06,1.8831457222189535e-07,-6.401385736611018e-09,-9.711439739994382e-07,-1.9561690287389012e-07,-8.883883808577071e-07
9.503397852103455e-07,-9.32173094127165e-07,-1.3989675213213557e-06,-5.1331007695371e-06,6.01398118988158e-07,2.101384458464189e-06,1.6178298824339153e-06,-1.370708420491392e-07,-1.9067502754565012e-07,7.774259965589421e-07,-9.027482936485377e-07,2.3495492410145732e-08,-1.2786737089345476e-06,1.7317680774221704e-07,-1.2710604699289351e-08,-9.466510041618287e-07,-2.3457148632211277e-07,-8.430499965348438e-07
9.163930930380414e-07,-9.307703904881572e-07,-1.4071056518488667e-06,-5.223927545553779e-06,5.661554274981273e-07,2.102866107209015e-06,1.6047898835118266e-06,-1.5727438989016047e-07,-1.5350642009747971e-07,7.509090579918256e-07,-8.896974056221483e-07,5.586824945765873e-09,-1.214815103833527e-06,1.4983236790799075e-07,-2.7244215948304883e-08,-9.242453394096878e-07,-2.8982765833431996e-07,-8.167806729428785e-07
8.893836300069238e-07,-9.440799397098593e-07,-1.396355601100961e-06,-5.254146031663263e-06,5.350523076784348e-07,2.099777866364213e-06,1.59544703266811e-06,-1.7726821613391965e-07,-1.1065768771635004e-07,7.350679446406386e-07,-8.255008031937424e-07,-3.147571281355705e-08,-1.1268735213570127e-06,1.1123827986671597e-07,-5.391189136982995e-08,-9.076694019119342e-07,-3.3458051485724105e-07,-8.173689148468916e-07
8.802558911853676e-07,-9.684286976328002e-07,-1.3662812030669432e-06,-5.194888827741896e-06,5.092435929828745e-07,2.0909846297963474e-06,1.5917641590581686e-06,-1.9660523343656566e-07,-6.265609259871742e-08,7.278164011530606e-07,-7.06283683748691e-07,-9.264572448332854e-08,-1.0769675263676048e-06,5.617082354574547e-08,-9.235751350417875e-08,-8.99887831583429e-07,-3.701964974902213e-07,-8.463499811574831e-07
8.840328943177929e-07,-9.940476009619533e-07,-1.3223734125949095e-06,-5.050159929924846e-06,4.887354814932005e-07,2.0744152976174408e-06,1.5931027217855435e-06,-2.1457853959629412e-07,-1.1732844031989212e-08,7.195500167772309e-07,-5.485276028946331e-07,-1.7480765347601213e-07,-1.0293810604381928e-06,-1.0009400037238866e-08,-1.3798199523333818e-07,-9.004413548479185e-07,-4.1202630540857794e-07,-8.978134928438936e-07
8.934320730008101e-07,-1.0082525126473147e-06,-1.2831261126714728e-06,-4.8426738359229e-06,4.7220750191981595e-07,2.0476660737846316e-06,1.5973987342933186e-06,-2.2789326246559052e-07,3.776459757922219e-08,7.161584860967469e-07,-4.173718376709488e-07,-2.495201263896242e-07,-9.749561593262067e-07,-6.649475315312245e-08,-1.7026801561726287e-07,-9.045009224772369e-07,-5.182960247459742e-07,-9.594924893360453e-07
9.049857086690007e-07,-1.0002657196676062e-06,-1.2499641209213194e-06,-4.607832673028578e-06,4.567860801450437e-07,2.0006665237772162e-06,1.6016059645400778e-06,-2.3278626055446472e-07,7.873928603188442e-08,7.10351080863065e-07,-3.5080760079873156e-07,-2.8629270448195054e-07,-9.77616469752126e-07,-8.619776978819817e-08,-1.923511938178273e-07,-9.046503650533826e-07,-5.996518712974645e-07,-1.0164584698029147e-06
9.105658675590799e-07,-9.65688220959432e-07,-1.2258410887491707e-06,-4.41048545182678e-06,4.385706446490686e-07,1.946545992188194e-06,1.601875718119765e-06,-2.3230370695775885e-07,1.0215395413808987e-07,6.834753127366004e-07,-3.731544131225371e-07,-2.566533939645193e-07,-1.0007168055404255e-06,-7.831299003033226e-08,-1.8323061291420724e-07,-8.938620764184606e-07,-6.508757832602899e-07,-1.0556469957193936e-06
9.045969155645088e-07,-9.083619038425933e-07,-1.2213512499843848e-06,-4.300671397381365e-06,4.1436199076279386e-07,1.9080123238544048e-06,1.5948271580114381e-06,-2.35249009990225e-07,1.0070391402994723e-07,6.343379436457508e-07,-4.13580710963647e-07,-2.2081942994529712e-07,-1.0204442797280403e-06,-7.913709944481492e-08,-1.7056346273647093e-07,-8.676806805100644e-07,-6.997952891987271e-07,-1.0695342683761666e-06
8.853128466831535e-07,-8.384713321390784e-07,-1.2356128026819229e-06,-4.3003767063253195e-06,3.832676123071873e-07,1.8821784145297177e-06,1.5796403467605415e-06,-2.5308606067897266e-07,7.366975986557145e-08,6.153227271018177e-07,-4.1739322905750826e-07,-1.9016915536913417e-07,-1.033931849602227e-06,-8.703053352468371e-08,-1.836100524182677e-07,-8.249021176230718e-07,-7.337100073512457e-07,-1.0575880870517812e-06
8.52515669590211e-07,-7.680710186721666e-07,-1.2682426952388878e-06,-4.407957683968822e-06,3.467136417081123e-07,1.8682147463741722e-06,1.5588665242799498e-06,-2.922378267282857e-07,2.8829722431677714e-08,5.567695135225981e-07,-4.1378201006890754e-07,-1.6377578528398022e-07,-1.0301420880466638e-06,-8.527546487876716e-08,-1.5568328945691355e-07,-7.673119128037713e-07,-7.772141812903562e-07,-1.0249708480942833e-06
8.096741708584646e-07,-7.070030034711311e-07,-1.3113297586289685e-06,-4.588084949214595e-06,3.0770681236699325e-07,1.8461904638045411e-06,1.5367046383941153e-06,-3.5223701337224843e-07,-2.0374135214805895e-08,4.7579829758399886e-07,-5.824653154468665e-07,-1.0810524146928323e-07,-1.0341309189632523e-06,-2.3264820892821086e-08,-1.0942555042046673e-07,-6.989327495536088e-07,-7.459698690454137e-07,-9.803172709445922e-07
7.647945084126037e-07,-6.614469651000729e-07,-1.3535036910129623e-06,-4.7837738289590134e-06,2.6619055081117017e-07,1.7999335655900338e-06,1.5159653702787504e-06,-4.3054093040651814e-07,-6.082584604533507e-08,4.216049352369374e-07,-7.389447777462461e-07,-1.6931137079464338e-08,-1.054596005370897e-06,3.604596710279866e-08,-7.02723245143504e-08,-6.246608497407402e-07,-7.040424012618973e-07,-9.324373442074637e-07
7.286893940274561e-07,-6.348828990440444e-07,-1.3676342264827968e-06,-4.924192082179012e-06,2.2184119776087798e-07,1.698154957265664e-06,1.495840386251405e-06,-5.225939301950518e-07,-8.476826244295544e-08,4.188174345927125e-07,-7.876954809969064e-07,6.655589417474064e-08,-1.058953217759484e-06,8.037172934831313e-08,-2.8854468534660595e-08,-5.487056455113597e-07,-7.03402490507005e-07,-8.872376961968429e-07
7.102513197478608e-07,-6.29058983292912e-07,-1.3367800973390594e-06,-4.9805817017271395e-06,1.7493308695221024e-07,1.5943836016616238e-06,1.4716694649633842e-06,-6.235013414552182e-07,-9.118521452561382e-08,4.335761103377306e-07,-7.963565207345036e-07,1.0769681201197993e-07,-1.028756005279762e-06,1.1436709646134559e-07,-1.6225234143610522e-08,-4.73963024027425e-07,-7.091876734828746e-07,-8.471770923474612e-07
7.19498983976086e-07,-6.427861093041618e-07,-1.2658536158613743e-06,-4.92307807574653e-06,1.271789248943487e-07,1.531653178191059e-06,1.4367104287968033e-06,-7.286969227183079e-07,-8.408216836493745e-08,4.5805292129024654e-07,-7.359886199329667e-07,1.5300293871345807e-07,-9.890787987649162e-07,1.3650514213635293e-07,-1.589819718917012e-08,-4.0259836039785476e-07,-7.382760978760269e-07,-8.122226487313541e-07
7.466790264469369e-07,-6.695305638092921e-07,-1.2015655209636121e-06,-4.739250585541014e-06,8.284551541889997e-08,1.479452050423442e-06,1.3851453057451512e-06,-8.3315107854911e-07,-6.969579350478254e-08,4.552173470784774e-07,-7.444945618769406e-07,1.9131516418223832e-07,-9.55127549914349e-07,1.0276676520191114e-07,-1.7267010143271006e-08,-3.367498226682249e-07,-7.843088524328031e-07,-7.823176393344673e-07
7.673964997928501e-07,-6.972081612087021e-07,-1.1755073761290259e-06,-4.436438278861618e-06,4.633540843443229e-08,1.426659767449107e-06,1.3152506662237813e-06,-9.334630655171241e-07,-5.431972180466258e-08,4.461656590111873e-07,-7.20389031802678e-07,1.8982808617861436e-07,-9.321418350483111e-07,6.539869323614316e-08,-2.5369923901810416e-08,-2.7826013580486025e-07,-8.299284529994712e-07,-7.587744993357323e-07
7.674270927461336e-07,-7.11823384646647e-07,-1.1382983236640502e-06,-4.061013056942755e-06,2.1025919073692703e-08,1.3294206337305137e-06,1.2317113736377166e-06,-1.0252390642439726e-06,-4.366647697715314e-08,4.6419267909158994e-07,-5.874366273685239e-07,1.3447399678207582e-07,-9.095176802627208e-07,3.8524409863685095e-08,-2.6907553551462347e-08,-2.2783048964688983e-07,-8.761105025344773e-07,-7.438925342351163e-07
7.592661816522151e-07,-7.02911909037273e-07,-1.055895453706451e-06,-3.6794911819391573e-06,1.4367768912840623e-09,1.2582099107370828e-06,1.1458333474720306e-06,-1.1040684412638325e-06,-3.93967645152438e-08,5.050439757476401e-07,-4.2265089188020513e-07,6.009574901103705e-08,-8.900280745968134e-07,3.100825430424855e-08,-2.1855783880956737e-08,-1.852030891085303e-07,-9.103989348386055e-07,-7.39618984752808e-07
7.421676545037557e-07,-6.677424812948729e-07,-9.619191958148054e-07,-3.3899115342116236e-06,-1.6135894859693991e-09,1.2394393152302373e-06,1.072543065704088e-06,-1.1644154319962029e-06,-3.9959274087623555e-08,5.601952497952582e-07,-2.7455391025490215e-07,1.789469855267404e-08,-8.352525745073099e-07,2.6029611581604526e-08,-1.1036846418572652e-08,-1.5066383591918341e-07,-9.30453766423743e-07,-7.462289978559158e-07
7.273801913503754e-07,-6.127123792151711e-07,-8.683359244952844e-07,-3.298174964984074e-06,1.1003737438410207e-08,1.2274736848600247e-06,1.0250006304510784e-06,-1.1999965164174621e-06,-4.2019097345359164e-08,6.030807388921659e-07,-1.2766807388171567e-07,-2.190899769992398e-08,-8.040988467411106e-07,2.7816766974502368e-08,5.725956562298885e-09,-1.2585907463591773e-07,-9.389868150781042e-07,-7.619007830559074e-07
7.035740220794978e-07,-5.512309496021085e-07,-7.817358728066453e-07,-3.3622965298088677e-06,3.273875222276976e-08,1.2088738733149344e-06,1.0098509151321403e-06,-1.2071460905959264e-06,-4.149273922826603e-08,6.460870765446384e-07,-4.698329131911793e-08,-2.1518770106005778e-08,-7.880190615842147e-07,3.951952838761568e-08,2.624202628062279e-08,-1.1230696024454982e-07,-9.378670337430963e-07,-7.828620091702054e-07
6.704889933416063e-07,-4.983381825058605e-07,-7.314705591262943e-07,-3.3153680886180477e-06,7.359100865335009e-08,1.1681720154747238e-06,1.0258346533658405e-06,-1.1866370702108583e-06,-3.529473050807064e-08,6.636265229833832e-07,-2.2956606476973754e-08,4.672868353304188e-09,-7.537453380567805e-07,5.84946730141725e-08,4.856181948391866e-08,-1.0930771376414044e-07,-9.283298450113149e-07,-8.04260798334693e-07
6.283968293720627e-07,-4.6468634838947406e-07,-7.076743619871416e-07,-3.133205251807147e-06,1.0728327626850517e-07,1.1281534020408065e-06,1.065937167468902e-06,-1.1447946960668909e-06,-2.1160050669758727e-08,6.561610901744932e-07,-4.3519832223034556e-08,4.59842973426719e-08,-7.196875599747155e-07,8.192899630529196e-08,7.135272361233684e-08,-1.1291691218311655e-07,-9.122518231458124e-07,-8.21406363396407e-07
5.745860152789254e-07,-4.5350472929943836e-07,-6.981427339937347e-07,-3.223229034290527e-06,1.3052808075560116e-07,1.135807498047627e-06,1.121039989021301e-06,-1.0922600103196473e-06,2.5255523472679657e-09,6.386482487234951e-07,-9.940350920297548e-08,1.0603058957292189e-07,-6.983591760673372e-07,1.0568177773411416e-07,9.339651266832333e-08,-1.1892441746191068e-07,-8.921364276268241e-07,-8.313112899787086e-07
5.277471698794773e-07,-4.61804146596196e-07,-6.970926082931464e-07,-3.4332570138277206e-06,1.485837069102138e-07,1.1508299400780147e-06,1.1828783689928285e-06,-1.0416768040877904e-06,3.6309559719061754e-08,6.137598477771363e-07,-1.5044952904975798e-07,1.6248786707732528e-07,-7.00927858742841e-07,1.245715328717695e-07,1.1282848211018477e-07,-1.258113117210023e-07,-8.717922764277122e-07,-8.341363855513942e-07
4.86490991164988e-07,-4.835963338088748e-07,-6.902240008013395e-07,-3.5964464357064174e-06,1.502180535621367e-07,1.1735755877797073e-06,1.2455578919774246e-06,-1.002696234738802e-06,7.932401847387588e-08,5.923133263563339e-07,-1.8088669839132503e-07,2.0793213625944847e-07,-7.424938100378557e-07,1.3381933495366353e-07,1.274118529659608e-07,-1.34793468791379e-07,-8.543403172366811e-07,-8.33144873712898e-07
4.472927031395827e-07,-5.119025783540547e-07,-6.73999424987697e-07,-3.7815361494173626e-06,1.5393101921504797e-07,1.2080182653497706e-06,1.3061786546224724e-06,-9.775362092263186e-07,1.3037973322938236e-07,5.759876333573858e-07,-1.8171252097486744e-07,2.351746630230279e-07,-7.655386647578733e-07,1.3154171120943682e-07,1.3549393486003896e-07,-1.4779619461083828e-07,-8.42127026053134e-07,-8.33108561356413e-07
4.198391343572825e-07,-5.390665618158096e-07,-6.515446000905663e-07,-3.990534888458721e-06,1.640191812066103e-07,1.2388517802605566e-06,1.364959224230546e-06,-9.60253052644291e-07,1.8898591451407023e-07,5.647106839579242e-07,-1.4733532008495959e-07,2.391521560303045e-07,-7.718169022172709e-07,1.191747818786223e-07,1.367641905869522e-07,-1.653399836109033e-07,-8.360333591167868e-07,-8.383372612534249e-07
4.060699035816458e-07,-5.576700447665723e-07,-6.219182523192843e-07,-4.112384442428005e-06,1.8095381920370218e-07,1.2637909465670166e-06,1.42435209956679e-06,-9.405136969550404e-07,2.5534026318893087e-07,5.565772987974078e-07,-8.236596954546008e-08,2.221978299258479e-07,-7.495901948865501e-07,1.0298373412983536e-07,1.3216720313878303e-07,-1.8677917919742874e-07,-8.358632838216803e-07,-8.50970870181264e-07
3.989564143961863e-07,-5.631618872792264e-07,-5.869143756973121e-07,-4.185665344959127e-06,2.1172071894249348e-07,1.2899283746973806e-06,1.4867926126643192e-06,-9.100157159971993e-07,3.291069034286473e-07,5.488325465495614e-07,-2.9164048525040464e-09,1.9035230415067567e-07,-7.010282750526783e-07,8.812438081440839e-08,1.2303839794919452e-07,-2.115292850711541e-07,-8.411705986236523e-07,-8.704593650440502e-07
3.949282348259534e-07,-5.561379576608056e-07,-5.564681882761555e-07,-4.224822324324449e-06,2.5118299212952505e-07,1.3136298393120219e-06,1.5519795646456192e-06,-8.662790845653406e-07,4.0819184616256106e-07,5.379042555365114e-07,7.463019283822818e-08,1.5155835463076085e-07,-6.503969231761748e-07,7.873283119138785e-08,1.1075361427118923e-07,-2.392543181214021e-07,-8.507237604659114e-07,-8.940180612091015e-07
3.9285553656746945e-07,-5.415358524104995e-07,-5.359897925999982e-07,-4.238552263065825e-06,2.9353749499190256e-07,1.3389062876130639e-06,1.6153619962427728e-06,-8.118118468246369e-07,4.851677962918525e-07,5.209298032097382e-07,1.344160605712716e-07,1.1507701955941553e-07,-6.136808388895867e-07,7.716150120306098e-08,9.706817527142028e-08,-2.6842491333152705e-07,-8.612133696704869e-07,-9.171724302895352e-07
3.9066148573721414e-07,-5.246862323542968e-07,-5.280650465729286e-07,-4.2511449715423175e-06,3.311248982241388e-07,1.3660550115969292e-06,1.6688254140814211e-06,-7.51062759073071e-07,5.544618093530086e-07,4.981938377456756e-07,1.6295262728300865e-07,8.741664765489317e-08,-6.017960885731665e-07,8.282348743133829e-08,8.430843129061812e-08,-2.9573982877282713e-07,-8.692823569525333e-07,-9.350539898447089e-07
3.9059907176030824e-07,-5.073176862085124e-07,-5.326376359874456e-07,-4.245170177967219e-06,3.554620022903128e-07,1.3901762936334376e-06,1.7031470959647232e-06,-6.882869097783852e-07,6.096138882256531e-07,4.726116493236187e-07,1.617721956309806e-07,7.298963814172045e-08,-6.049839037912477e-07,9.533358108423045e-08,7.464059488001929e-08,-3.1774909115310945e-07,-8.726534673979089e-07,-9.438089387943217e-07
3.9637077680652307e-07,-4.869374757867169e-07,-5.448789823623614e-07,-4.202121001645734e-06,3.6202643786208807e-07,1.3960877955320518e-06,1.7111092476428368e-06,-6.273329734777644e-07,6.455628464258589e-07,4.489883588511136e-07,1.4151524588071878e-07,7.101169057414348e-08,-6.176150705907826e-07,1.0865998851622426e-07,6.892864033145918e-08,-3.3329223320495136e-07,-8.701285078624788e-07,-9.432679914757184e-07
4.088765961339004e-07,-4.5985389126033786e-07,-5.599403382763104e-07,-4.118833404382377e-06,3.5156676788213917e-07,1.3882499839659977e-06,1.6904416657808473e-06,-5.721655562599208e-07,6.615066194080615e-07,4.296874944103784e-07,1.1388254108457713e-07,7.651350216026145e-08,-6.360479424627733e-07,1.1235286385709912e-07,6.641583510550032e-08,-3.447243005839827e-07,-8.637509884446538e-07,-9.359255153887753e-07
4.252708161221628e-07,-4.246829869808123e-07,-5.733282046689938e-07,-4.003078853421453e-06,3.2944484166761136e-07,1.372359317226248e-06,1.645763616352722e-06,-5.263114683405845e-07,6.587959001915561e-07,4.143064615696841e-07,8.828642281319022e-08,8.395434423799634e-08,-6.54794801608812e-07,1.0517377693937004e-07,6.553883902198879e-08,-3.568519014073756e-07,-8.565956573999917e-07,-9.256907514998603e-07
4.4326818172653027e-07,-3.833569777547571e-07,-5.810769489115588e-07,-3.867197797829843e-06,3.035885501477448e-07,1.346918333083989e-06,1.5881002477986727e-06,-4.909634143325415e-07,6.418916847986986e-07,4.020994054927125e-07,7.094700568345687e-08,8.891962288786061e-08,-6.73936886750739e-07,8.755742253343127e-08,6.49494819519657e-08,-3.74570343054514e-07,-8.495585370412126e-07,-9.167518761825159e-07
4.613044035816495e-07,-3.3971887391986557e-07,-5.786557941603923e-07,-3.728877458539128e-06,2.8217169277793125e-07,1.3220360715195976e-06,1.5311985838876921e-06,-4.6364011844849674e-07,6.170171414633641e-07,3.9130393301278844e-07,6.26606657946736e-08,9.084677226937033e-08,-6.900722150011797e-07,6.097380215377054e-08,6.364831296537847e-08,-4.0105322934909613e-07,-8.432250738529084e-07,-9.122135714433704e-07
4.778411457413314e-07,-2.9792049520293195e-07,-5.663719626273657e-07,-3.603891449587819e-06,2.7151564153712546e-07,1.3040833206062386e-06,1.4863791443540704e-06,-4.3889713717243424e-07,5.912721274713333e-07,3.8096610591538343e-07,6.394073283629033e-08,8.856293577145161e-08,-7.011598977975975e-07,3.69064195351603e-08,6.067338081701133e-08,-4.368694684415976e-07,-8.379282342244622e-07,-9.139987214761938e-07
4.921576463085475e-07,-2.6205879670494267e-07,-5.470335722144353e-07,-3.5012683226416223e-06,2.745763993522226e-07,1.293747256951203e-06,1.4591652421718023e-06,-4.10304189491182e-07,5.717277616140281e-07,3.7070097729071955e-07,7.377785154939412e-08,7.99650621516811e-08,-7.080294040335716e-07,1.3688370720566616e-08,5.5273681263416444e-08,-4.793555766669696e-07,-8.333463698196793e-07,-9.223396355991544e-07
5.02446579031574e-07,-2.360842551330222e-07,-5.248552740065953e-07,-3.422784068675291e-06,2.905074415301908e-07,1.292401643930991e-06,1.4492476220136052e-06,-3.7251612872035164e-07,5.618184288400402e-07,3.604415337867418e-07,8.942667429811704e-08,6.697829305551349e-08,-7.101292986759746e-07,-5.516548634252114e-09,4.77303220800851e-08,-5.229336578670656e-07,-8.295600532903581e-07,-9.357130657282205e-07
5.081621984107995e-07,-2.2270228824916445e-07,-5.016761980319009e-07,-3.361870319543894e-06,3.153335860393817e-07,1.301440353688958e-06,1.452466105115747e-06,-3.2347707071022934e-07,5.612230724633848e-07,3.5106618716154154e-07,1.0196246358454221e-07,5.160911979244612e-08,-7.085488678386819e-07,-1.68807333969074e-08,3.957266461423599e-08,-5.609652180018196e-07,-8.257790311579587e-07,-9.506630131265737e-07
5.108673855885779e-07,-2.2232065618895256e-07,-4.770300995776579e-07,-3.3214943583140023e-06,3.4324104297323955e-07,1.31583580202177e-06,1.4626267892766232e-06,-2.664091682184651e-07,5.701762916361558e-07,3.430135519076777e-07,1.0738618316086722e-07,3.8066610359424615e-08,-6.952640152366856e-07,-1.5994634448156187e-08,3.281536589613609e-08,-5.886865192481914e-07,-8.204776926084822e-07,-9.633974736523594e-07
5.109169098829509e-07,-2.3348509685846528e-07,-4.5113689510632954e-07,-3.28647747335859e-06,3.680924758665915e-07,1.3309143954891728e-06,1.472508194006147e-06,-2.0983275666096198e-07,5.84673777576581e-07,3.360547902337001e-07,9.556311162848844e-08,2.8729208177430862e-08,-6.727349605699042e-07,-1.4266440939885319e-08,2.8703941498817307e-08,-6.055346458046755e-07,-8.128552397799025e-07,-9.71415745749272e-07
5.101138508324294e-07,-2.538131945811777e-07,-4.246241793645418e-07,-3.2490577140033526e-06,3.8498006846815864e-07,1.341955758648492e-06,1.4751026537761544e-06,-1.6443785129206582e-07,5.993549726753171e-07,3.288531020151856e-07,8.475628084329108e-08,2.1647044227291116e-08,-6.508320268437017e-07,-9.072308557471739e-09,2.717275609931737e-08,-6.152001924347579e-07,-8.027228812093241e-07,-9.743918497837826e-07
5.092873911617787e-07,-2.7971482766828993e-07,-4.084613331314659e-07,-3.2132663492407005e-06,3.917156195259357e-07,1.3461421962606489e-06,1.465915676418681e-06,-1.3810656113084653e-07,6.018940899477722e-07,3.2047359680635364e-07,7.222510320758422e-08,1.9640640256596437e-08,-6.321885519702899e-07,-4.129097026473252e-09,2.734905727391485e-08,-6.23727353597052e-07,-7.887783505488928e-07,-9.733462418365445e-07
5.098544326157645e-07,-3.0526714122639643e-07,-4.060138028643995e-07,-3.1857012483952765e-06,3.898527432751515e-07,1.345264690981583e-06,1.4452544402718845e-06,-1.3211229928803894e-07,6.036632332398682e-07,3.116725107177869e-07,4.562311908575666e-08,1.6248084264153704e-08,-6.252824964555255e-07,-4.324366233664557e-09,2.822880761097157e-08,-6.369887572013859e-07,-7.71049641554747e-07,-9.700685774011424e-07
5.138363831425751e-07,-3.2214145848417567e-07,-4.254432500036098e-07,-3.1794850008871912e-06,3.841587322880444e-07,1.342913971538903e-06,1.4184261908483545e-06,-1.4081443563760571e-07,5.901261718249497e-07,3.044302208641774e-07,8.504438517920686e-09,1.5438813977710716e-08,-6.161253649783492e-07,-6.987327513011358e-09,2.8572212207847963e-08,-6.592703453493462e-07,-7.504704497931249e-07,-9.67307012144509e-07
5.221264273839019e-07,-3.2185152052994245e-07,-4.6981910156644087e-07,-3.2074791296459962e-06,3.800623231023758e-07,1.344019979092105e-06,1.3934708954141308e-06,-1.5459757694119026e-07,5.658213017853464e-07,3.0149702244309335e-07,-4.123394504140204e-08,2.4791157831958905e-08,-5.980710833436212e-07,-3.7136182502988805e-08,2.654532142002882e-08,-6.924832289632116e-07,-7.302084281265337e-07,-9.682884175911171e-07
5.341902114117308e-07,-2.9961591507557835e-07,-5.005534802588571e-07,-3.2777106686571838e-06,3.805757473373834e-07,1.35298515086606e-06,1.378458682419293e-06,-1.6362337204664492e-07,5.571342784477535e-07,3.0536961779683473e-07,-7.748415234413292e-08,3.6687878598962505e-08,-5.719188672451872e-07,-7.772688345470845e-08,2.02044683504694e-08,-7.351799945643681e-07,-7.168205211540608e-07,-9.75948279894151e-07
5.525491437946735e-07,-2.5723092866830615e-07,-5.245101829876906e-07,-3.3897956182557422e-06,3.8473825120496736e-07,1.3721427713396282e-06,1.380123160020197e-06,-1.603831202954787e-07,5.692708936682965e-07,3.15804355837116e-07,-4.956264333384857e-08,2.6109943612925334e-08,-5.042684124824712e-07,-1.3968699132039905e-07,8.672155547012467e-09,-7.818636152464846e-07,-7.174320155120486e-07,-9.916805862793911e-07
5.758181153204805e-07,-2.0283027880670547e-07,-5.422859708688743e-07,-3.5287231572458706e-06,3.8810035671782883e-07,1.4010744970580198e-06,1.4032216001596297e-06,-1.4135911985866154e-07,6.564039624735801e-07,3.297466328872534e-07,9.61750700151296e-08,-8.505061073337011e-09,-4.3261752743685374e-07,-2.189580742948181e-07,-7.331559837351418e-09,-8.234448510066007e-07,-7.353893908260153e-07,-1.013711536103001e-06
6.072938921853679e-07,-1.4803917492963826e-07,-5.92517252311596e-07,-3.66345126002523e-06,3.8457700651174206e-07,1.437229190596494e-06,1.4491260348152485e-06,-1.08836950652643e-07,7.672852578039973e-07,3.433628438493002e-07,2.534123264307423e-07,-7.768870105279954e-08,-3.533461408200267e-07,-2.5573059764951415e-07,-2.5721303749641903e-08,-8.498524590552112e-07,-7.722128138852275e-07,-1.036898605939633e-06
6.519447439902397e-07,-1.0439272509907046e-07,-6.211584686611403e-07,-3.749343635335102e-06,3.688842107074159e-07,1.4741206440262137e-06,1.5139992454165974e-06,-7.175454823034185e-08,8.567059926862537e-07,3.524049434191172e-07,3.5937917480602083e-07,-1.8224136806965118e-07,-2.982889212595559e-07,-2.711361966934236e-07,-4.453697216229784e-08,-8.527516764568453e-07,-8.271508694515164e-07,-1.0561466281167733e-06
6.706255965385084e-07,-8.027359580073657e-08,-6.12161998570378e-07,-3.746491169930609e-06,3.387216054294853e-07,1.504455183593211e-06,1.588740292534321e-06,-4.2888138080196257e-08,9.266657758325569e-07,3.540365975444375e-07,4.2300417512476543e-07,-2.447559801490116e-07,-2.4426555588438617e-07,-3.022321582784366e-07,-6.243350833665854e-08,-8.271347708560375e-07,-8.940061670934733e-07,-1.0632468319904356e-06
6.645117505831349e-07,-7.89708022812471e-08,-6.174475579833498e-07,-3.6337896752820643e-06,2.960223272369401e-07,1.5207673318057035e-06,1.661793530175708e-06,-3.2268807260147155e-08,9.947719553313517e-07,3.487924423880501e-07,4.6496178855890736e-07,-2.661582859098624e-07,-1.9713383526292176e-07,-3.225979739169535e-07,-7.794435878810185e-08,-7.701831452223269e-07,-9.577775156998608e-07,-1.0549002023578595e-06
6.387485011808008e-07,-9.829873250571528e-08,-6.214364302009184e-07,-3.4120900286074104e-06,2.468581937170786e-07,1.5186327355808467e-06,1.7230277811409975e-06,-4.1216471229446877e-08,1.1301188704673788e-06,3.4196950378240897e-07,5.387209185421713e-07,-3.8829225906516127e-07,-1.6420827735517628e-07,-3.7348318730255165e-07,-8.996861310703585e-08,-6.869431611988206e-07,-1.0128139959499846e-06,-1.0326650064970427e-06
6.173343159332525e-07,-1.320193742757812e-07,-6.127735463163317e-07,-3.1117015206412753e-06,1.9950446699812203e-07,1.4995508387293006e-06,1.7660217999492701e-06,-6.194387833526564e-08,1.2318571707521927e-06,3.4076972193638756e-07,6.463834097235383e-07,-5.232418663168718e-07,-1.2723072787928343e-07,-4.579771743892632e-07,-9.836790353282874e-08,-5.907290882409121e-07,-1.0543021649539946e-06,-1.0015480240161792e-06
6.153052936687467e-07,-1.72565837563632e-07,-5.827337425804066e-07,-2.7722178016152403e-06,1.6095767315731602e-07,1.4683401133735476e-06,1.788329879106848e-06,-8.312860496686876e-08,1.2986866302725339e-06,3.508168413264265e-07,6.686430266629717e-07,-6.453285088033994e-07,-5.8143581224761446e-08,-5.052000596214272e-07,-1.0495639426770662e-07,-4.949768898793803e-07,-1.081223012344163e-06,-9.707583075256356e-07
6.226021425203942e-07,-2.1348522981897746e-07,-5.158716043092613e-07,-2.440607508312834e-06,1.3405764438048884e-07,1.4319223836131762e-06,1.7914981508796778e-06,-9.683635780664505e-08,1.3235532590596384e-06,3.742952416272883e-07,6.754923584927861e-07,-7.467043405073786e-07,2.2104750847348935e-09,-5.624964603826128e-07,-1.1314511313716567e-07,-4.3815300921530397e-07,-1.0977546763054507e-06,-9.500240706613323e-07
6.478717768914577e-07,-2.5012636409551564e-07,-4.607193853982939e-07,-2.15308498200218e-06,1.1750093404766081e-07,1.3958610127554995e-06,1.7817298119417794e-06,-1.0172162788726202e-07,1.353874560240829e-06,4.08674658931799e-07,6.817701388677818e-07,-7.844595041112561e-07,3.6769727726092544e-08,-6.06771747136406e-07,-1.2584452424524208e-07,-4.4487081698923033e-07,-1.1072363723409513e-06,-9.452940751722777e-07
6.934894257677501e-07,-2.789396403987411e-07,-4.0807108763188483e-07,-1.93440630821381e-06,1.0821003885885019e-07,1.3675317901767757e-06,1.7694948125074447e-06,-1.0173149603363552e-07,1.3731685277353209e-06,4.485009795466437e-07,6.815974318830669e-07,-7.876330664256474e-07,5.0914147102897753e-08,-6.220783132092843e-07,-1.4297264896445272e-07,-4.104727108723482e-07,-1.11150285881945e-06,-9.571516567683636e-07
7.297411301389409e-07,-2.9725271007944886e-07,-3.876992491911787e-07,-1.7885292205293092e-06,1.0347460869244112e-07,1.3534450886049422e-06,1.766240431785159e-06,-1.0309909554289702e-07,1.3731115727418421e-06,4.86626806438795e-07,7.029010573049867e-07,-7.857222741088794e-07,1.1420462208219982e-07,-6.588417861103505e-07,-1.6063983712529982e-07,-4.045401074437624e-07,-1.1181008260351232e-06,-9.820090167562661e-07
7.507406750820201e-07,-3.0441549276977304e-07,-3.89613687271769e-07,-1.7097174763446511e-06,1.0144949207326391e-07,1.3570259874041023e-06,1.779596086152978e-06,-1.1158256278377086e-07,1.3835990822438356e-06,5.169982561679335e-07,7.385910824922235e-07,-7.949065746735573e-07,1.6840426437004483e-07,-7.023717916037309e-07,-1.7271948556377143e-07,-4.5066047936566055e-07,-1.1205665714870123e-06,-1.012115612302059e-06
7.575785455289349e-07,-3.027048872026499e-07,-4.042064050084961e-07,-1.6961574296211369e-06,1.0124279333179646e-07,1.3793758597842924e-06,1.8108122218009858e-06,-1.3002560259019992e-07,1.353349615591431e-06,5.348832226523009e-07,7.809832570792936e-07,-7.983363287345035e-07,2.0134421076238932e-07,-7.417860034813836e-07,-1.7277588277526727e-07,-5.234614139071452e-07,-1.1184114917476949e-06,-1.0397493030002859e-06
7.528584526561371e-07,-2.9589665418003784e-07,-4.2048862201507497e-07,-1.7382376710786962e-06,1.0391686018976602e-07,1.4183221484259287e-06,1.8562516952898362e-06,-1.56621936571229e-07,1.3094118774277469e-06,5.398819302633879e-07,8.307029316301495e-07,-7.87853531859547e-07,2.1397553211136853e-07,-7.368728127203403e-07,-1.5929329375921922e-07,-5.743481386331805e-07,-1.1063954556892962e-06,-1.061358380235182e-06
7.36362156695358e-07,-2.8628190754246015e-07,-4.3366425135919946e-07,-1.821030754049338e-06,1.1335178801963371e-07,1.4690556269913697e-06,1.9097101519561903e-06,-1.8501221222066896e-07,1.2613185229623003e-06,5.377649644741256e-07,7.999881089389929e-07,-7.297503065917876e-07,2.0024620717397905e-07,-7.29363050443658e-07,-1.3290290196042797e-07,-6.075455571111848e-07,-1.0735569414742118e-06,-1.0747248936967405e-06
7.10386985070785e-07,-2.732852493359876e-07,-4.346797198458909e-07,-1.925298838500662e-06,1.3499556943359373e-07,1.5271721538453804e-06,1.9707879410256757e-06,-2.0664342265503588e-07,1.2032457005721654e-06,5.369395602454568e-07,7.00033943247535e-07,-6.333817469651116e-07,1.909364141175487e-07,-7.028391590038554e-07,-9.779193837671745e-08,-6.321223947759854e-07,-1.0303470433350432e-06,-1.0816068057156985e-06
6.832253090127158e-07,-2.552133237641088e-07,-4.2326654287784256e-07,-2.0191921237685884e-06,1.7249399486952494e-07,1.5881317752900625e-06,2.0357358086289606e-06,-2.1436421694432568e-07,1.1712046123152209e-06,5.451182269280296e-07,5.867092729214867e-07,-5.341896543158413e-07,2.111788510559185e-07,-6.581118488749294e-07,-6.349653229288485e-08,-6.528160049394992e-07,-9.791302881261472e-07,-1.0888391386416261e-06
6.630555473894096e-07,-2.3202054095899817e-07,-4.039206626283893e-07,-2.0731038457786664e-06,2.2477986381811089e-07,1.644920587547487e-06,2.1008047295829433e-06,-2.0510379446079188e-07,1.160788014289215e-06,5.656515306558437e-07,4.955222915690956e-07,-4.5363258842617604e-07,1.910369390375294e-07,-6.24699271938065e-07,-3.878078654098803e-08,-6.788214485929811e-07,-9.252133453061254e-07,-1.0867380087465282e-06
6.536212872438562e-07,-2.060320745669311e-07,-3.8424707718532186e-07,-2.0712079972041683e-06,2.861642171502679e-07,1.6923727301310073e-06,2.1640731768880347e-06,-1.7972127782593603e-07,1.1527320011858754e-06,5.971394281875845e-07,4.770088873002254e-07,-4.1922161859498655e-07,1.4636547992038406e-07,-5.95918405512813e-07,-2.937634491765203e-08,-7.163941518415031e-07,-8.799902119490048e-07,-1.1006591281127245e-06
6.542778115124072e-07,-1.805010360430019e-07,-3.7252672494606586e-07,-2.023611269544955e-06,3.491899046350413e-07,1.7307123105427162e-06,2.228512177125113e-06,-1.4051512999430517e-07,1.1311422298063646e-06,6.339115019962252e-07,5.05675756267467e-07,-4.259827480752579e-07,1.4945414603240177e-07,-5.918114740397089e-07,-3.325931516544279e-08,-7.645413011069185e-07,-8.623963863603125e-07,-1.1339934700149682e-06
6.61141288203699e-07,-1.580659799665547e-07,-3.727939330333948e-07,-1.957926287801951e-06,4.075939074188712e-07,1.7647758563268883e-06,2.302607967049075e-06,-8.94084339306854e-08,1.1095195767612848e-06,6.731275345170959e-07,5.479560224386345e-07,-4.4950556377740997e-07,1.7140822484417155e-07,-5.832201840678882e-07,-4.8609538183512045e-08,-8.161487208588264e-07,-8.533232086047572e-07,-1.1752232258863542e-06
6.6881577022274e-07,-1.398345486896215e-07,-3.8131626163969137e-07,-1.9058124606366993e-06,4.5727919972483466e-07,1.801304242112934e-06,2.3898736827404108e-06,-2.8837813880408838e-08,1.1097733054143672e-06,7.107526204284016e-07,5.714656309408589e-07,-4.480421858945161e-07,1.4233047300863974e-07,-5.615378991642459e-07,-5.1145155426961124e-08,-8.615711274876124e-07,-8.446644729736426e-07,-1.2050853569818937e-06
6.717486034361948e-07,-1.2479912789651663e-07,-3.929394491791388e-07,-1.891254875848377e-06,4.957102358134771e-07,1.8436110215177826e-06,2.4969255456524275e-06,3.6351942504273615e-08,1.1264667343270216e-06,7.289430549713759e-07,5.056527349560682e-07,-4.0868941433458636e-07,8.313834204531537e-08,-5.11707967256274e-07,-2.2956386722500504e-08,-8.936175233932278e-07,-8.078489267566133e-07,-1.206660650312527e-06
6.675420412794014e-07,-1.1009634854977814e-07,-4.0152080329828817e-07,-1.9179629173323738e-06,5.217807542124696e-07,1.8886451631300526e-06,2.5770144585612345e-06,9.910183156431067e-08,1.1511793588882406e-06,7.278893304554502e-07,3.992896972419265e-07,-3.7156115753547675e-07,1.4096521330343174e-08,-4.4440313569751763e-07,1.8880377975370005e-08,-9.087180978367127e-07,-7.413376389395607e-07,-1.1420166260940302e-06
6.554964135049854e-07,-9.234338387176068e-08,-4.01996777085905e-07,-1.978211845704438e-06,5.369477616153673e-07,1.9291898251525933e-06,2.5990480786051095e-06,1.5272495038945317e-07,1.1671569629082156e-06,6.873770865933234e-07,3.1498600179409655e-07,-3.5521742916290394e-07,-4.968556481784479e-10,-4.0406855694043807e-07,8.243310916555135e-08,-9.056192131097689e-07,-6.708093808601066e-07,-1.0243674561007764e-06
6.372358567328391e-07,-6.95171221831125e-08,-3.9363759656956754e-07,-2.056427795750102e-06,5.458263946159318e-07,1.957867606687705e-06,2.543492481693179e-06,1.9322854837930547e-07,1.157492426431254e-06,6.499143589547777e-07,2.961338874915001e-07,-3.7069686526092036e-07,-1.3388564707840997e-08,-3.9539122143746084e-07,1.318432500553656e-07,-8.845034439788061e-07,-6.200670221727615e-07,-9.532346888042945e-07
6.171682694288961e-07,-4.30580910396039e-08,-3.781504977091267e-07,-2.1493046454860323e-06,5.545935917049742e-07,1.9702035059082426e-06,2.464579649468579e-06,2.194588187113615e-07,1.1175384082201526e-06,6.295897479902546e-07,2.9871436717211277e-07,-3.5383813175828453e-07,-4.2076436874825785e-08,-3.9102166024143176e-07,1.7900788200986408e-07,-8.469670691575513e-07,-5.617564816465323e-07,-8.919092750417733e-07
5.969844508901904e-07,-1.90481880658783e-08,-3.6125709688716256e-07,-2.2481991817108307e-06,5.681840826829526e-07,1.9651982674478996e-06,2.42192494089344e-06,2.3207824039406706e-07,1.055890915845134e-06,6.138242409015151e-07,3.484669788332821e-07,-3.336969006703422e-07,-9.157644476644903e-08,-3.885725032774498e-07,2.6034815288554255e-07,-7.966768081526616e-07,-5.189973562572714e-07,-8.232636329541723e-07
5.775367579320252e-07,-6.117251871132767e-09,-3.465681392877728e-07,-2.3451693515824625e-06,5.882242248095993e-07,1.9447088749568342e-06,2.3884745204552954e-06,2.3335707441207348e-07,9.773277198812618e-07,6.137915564186858e-07,3.3232278517790163e-07,-2.494027791687061e-07,-1.6750345816361988e-07,-3.4877503819545214e-07,3.2060438379496e-07,-7.389762391472509e-07,-4.7372816559576455e-07,-7.178708456752766e-07
5.584424515389317e-07,-1.0282628827399187e-08,-3.358275884456126e-07,-2.4378007722780077e-06,6.126291231496728e-07,1.913277763165539e-06,2.287204238335627e-06,2.2789786780253194e-07,8.921243574355828e-07,6.299067381059974e-07,3.29757832500521e-07,-1.9187015476650337e-07,-2.024617374813112e-07,-3.165623549670831e-07,3.486916194903466e-07,-6.798282086586526e-07,-4.126242250014215e-07,-5.822673708023038e-07
5.410059858649661e-07,-3.099359506180138e-08,-3.291964257942063e-07,-2.519736123143687e-06,6.36818898513358e-07,1.8778195423727904e-06,2.167948192401877e-06,2.226205343524383e-07,8.190933372643903e-07,6.443730002782683e-07,3.2910988753804584e-07,-1.581090511014335e-07,-2.2834494289956913e-07,-3.080090218385094e-07,3.8061385890084435e-07,-6.245469984872393e-07,-3.641104030473175e-07,-5.121150628268362e-07
5.27868982179816e-07,-6.157508058837436e-08,-3.257046712799603e-07,-2.5861553792111064e-06,6.560099943990605e-07,1.844988124423756e-06,2.0287786423380002e-06,2.2507675283255922e-07,7.710896440298018e-07,6.745300820089666e-07,2.967723084704114e-07,-9.819122662762135e-08,-2.764878312756688e-07,-2.715031457930052e-07,4.092859625752919e-07,-5.770425397309827e-07,-2.985549990736221e-07,-4.5842332569780474e-07
5.202133906475838e-07,-9.264173672560393e-08,-3.249218266455446e-07,-2.6378275686957813e-06,6.677599869798556e-07,1.8187424916337578e-06,1.9095688044216066e-06,2.412503894901534e-07,7.549306139893931e-07,7.005078178912785e-07,2.4334065673337765e-07,-5.189832993328769e-08,-3.043537012685628e-07,-1.9544800235965117e-07,4.43584131063583e-07,-5.405581404933503e-07,-2.2527504193506333e-07,-3.793680865466576e-07
5.175032317887302e-07,-1.1541142213658832e-07,-3.2701431902475926e-07,-2.6682650476622352e-06,6.735845653264262e-07,1.8023223549442383e-06,1.8197940842183425e-06,2.7434107557252936e-07,7.695550790154757e-07,7.287415881265359e-07,1.7296920243817314e-07,-2.1233477872428364e-08,-3.3504439499706e-07,-1.209362231959708e-07,4.5971694276993195e-07,-5.147773867742975e-07,-1.568788664837816e-07,-2.8525520824963086e-07
5.168230028360288e-07,-1.2361526234380242e-07,-3.306105821602819e-07,-2.680396253730276e-06,6.783461824813501e-07,1.7955365945610363e-06,1.767510060635937e-06,3.2448968647598634e-07,8.073347511495581e-07,7.568929587763408e-07,8.39640074914884e-08,-1.9592334030366517e-08,-3.7122743777651893e-07,-5.94350576089696e-08,4.4896703353390203e-07,-4.965309532892378e-07,-8.5611452318253e-08,-2.388533104901834e-07
5.170876275196075e-07,-1.1465496239086133e-07,-3.31578008284819e-07,-2.679814989151655e-06,6.873245284104254e-07,1.7973004253634753e-06,1.769210593728986e-06,3.887510941168536e-07,8.599607508017931e-07,7.813537109365823e-07,5.812621643461604e-08,-2.820634727862694e-08,-3.4043979936100026e-07,-2.7456906709302593e-08,4.2340194245988457e-07,-4.803117831715866e-07,-3.9440761888690394e-08,-2.0298868236426395e-07
5.191875910928587e-07,-9.077085023966636e-08,-3.2310312749294484e-07,-2.6773339643391657e-06,7.029099844473186e-07,1.8071962738519603e-06,1.8059177935602763e-06,4.613815954972257e-07,9.207226675061254e-07,7.9873015824242e-07,9.90144884971482e-08,1.4411435617974432e-09,-3.1137952192392865e-07,-2.0081887223741815e-08,4.0862634869905207e-07,-4.606828947202909e-07,-2.4481743881902423e-09,-2.1870419207353589e-07
5.221217212392289e-07,-5.923512067917328e-08,-3.039456911782391e-07,-2.690220379118198e-06,7.232772883694746e-07,1.8235441149122836e-06,1.8675750992426196e-06,5.349453078326758e-07,9.847697499770167e-07,8.065643830427918e-07,1.1555771969760736e-07,2.659510684048651e-08,-3.0919851562594846e-07,-6.447383370945206e-09,4.0352340769825137e-07,-4.337543942908548e-07,1.0226908376011226e-08,-2.4134867587089284e-07
5.249970442982309e-07,-2.8804473810140923e-08,-2.7417657848502055e-07,-2.725855416419757e-06,7.437318475557228e-07,1.8430655900745e-06,1.9379679935621997e-06,6.022625210454228e-07,1.0483847373250087e-06,8.046237670689236e-07,1.3561328696902905e-07,8.144599958594412e-08,-2.794342620335767e-07,1.0209726144464165e-08,4.166232496661666e-07,-3.9835222315073537e-07,3.615480677679002e-08,-2.513738070151609e-07
5.224845624466573e-07,-6.802549907670623e-09,-2.3555047827527467e-07,-2.7871415124874334e-06,7.595832819355146e-07,1.8636428290888128e-06,2.010504400898267e-06,6.582445111166454e-07,1.1082441039352724e-06,7.942878795791345e-07,1.6565804108174305e-07,1.4597963655669021e-07,-2.899415157027954e-07,4.2631319453015957e-08,4.427113373962849e-07,-3.5705245182045303e-07,5.6032058803858044e-08,-2.644469089255641e-07
5.15626950563869e-07,5.277095196142869e-09,-1.9083863455849578e-07,-2.8671565662412367e-06,7.68543535818526e-07,1.8836211477192218e-06,2.0798398113807465e-06,7.004184585513783e-07,1.1606222153837976e-06,7.757600782481745e-07,1.2193986626536344e-07,2.014177834992982e-07,-3.4804497725231776e-07,8.017123556810726e-08,4.7216374751968547e-07,-3.133697507224676e-07,7.573715681251225e-08,-2.436776622792319e-07
5.078699590100802e-07,1.09996004214727e-08,-1.4299196253781437e-07,-2.9445739104135123e-06,7.711644092243084e-07,1.9010795781280542e-06,2.139209729782971e-06,7.284666201534672e-07,1.2010197089074708e-06,7.52110347354058e-07,6.580256813990221e-08,2.5656927172785084e-07,-4.1245265166213936e-07,1.1812394273704366e-07,5.003523606260487e-07,-2.7308318589320293e-07,1.3722107920216602e-07,-2.089273806347281e-07
4.98797655579653e-07,1.3806767326904545e-08,-9.767765468098196e-08,-3.029243242712413e-06,7.69627559052647e-07,1.9154406936243374e-06,2.185710269080733e-06,7.443440277214769e-07,1.2255455624942235e-06,7.309214061410946e-07,1.3403441691761249e-08,2.9536728989914765e-07,-4.5413623290205897e-07,1.562695324872873e-07,5.202717313522109e-07,-2.427390868957665e-07,1.9212907245857097e-07,-1.689875185614781e-07
4.958197560978124e-07,1.4534775006243554e-08,-5.94363603319e-08,-3.104504989866296e-06,7.665572602215747e-07,1.9277535857304123e-06,2.2178431375752974e-06,7.53097761208298e-07,1.229561826794779e-06,7.114509340714453e-07,-3.940011443705451e-08,3.2144422023106853e-07,-4.782420077656229e-07,1.8425146777761547e-07,5.315387956649568e-07,-2.2673225141066596e-07,2.3472288441147723e-07,-1.2520141426914343e-07
4.99704687165039e-07,1.1877818670891755e-08,-3.177955785110815e-08,-3.157161217133246e-06,7.64560053072811e-07,1.9369878734449432e-06,2.2319554017569293e-06,7.624946925899769e-07,1.215129898664252e-06,6.940597461351214e-07,-7.537810060042716e-08,3.354794494332613e-07,-4.920490350425922e-07,2.0710938111234424e-07,5.350911751497807e-07,-2.2588586299052588e-07,2.6572139848018294e-07,-9.563619598232551e-08
5.114976485856152e-07,7.911937901880721e-09,-1.3826796376944891e-08,-3.184563566677468e-06,7.656852294733498e-07,1.939356173424029e-06,2.2250678800956974e-06,7.803838292957797e-07,1.1867625410015649e-06,6.809405965256912e-07,-8.050385897958291e-08,3.3793877588589897e-07,-4.956287586696106e-07,2.2560395178901457e-07,5.329996435557742e-07,-2.387547818893287e-07,2.7176605188542956e-07,-7.444134044424005e-08
5.34510895727949e-07,6.904558615193312e-09,-3.0922351795960957e-09,-3.1828784795280387e-06,7.704306350548173e-07,1.9429589935842025e-06,2.201895102749427e-06,8.112917694127263e-07,1.1503500911556448e-06,6.72644481944617e-07,-9.017259791460872e-08,3.401321510139379e-07,-4.878132434604781e-07,2.492333281747358e-07,5.278179076326308e-07,-2.629980105390156e-07,2.6218443634988504e-07,-6.031765835331378e-08
5.698595494371883e-07,1.2448454567254986e-08,4.285117947251943e-09,-3.1534938481072717e-06,7.770855154530373e-07,1.9452122963032507e-06,2.165231544429878e-06,8.547409905516954e-07,1.1152714700366801e-06,6.662381154918635e-07,-9.607093789704619e-08,3.2997913685565234e-07,-4.6528844908653754e-07,2.56429183070569e-07,5.087008705961076e-07,-2.950399816608483e-07,2.556882650745149e-07,-5.774045355936112e-08
6.140892566589789e-07,2.4681451385753524e-08,3.6683590878819005e-09,-3.0727809383712123e-06,7.822714058574979e-07,1.9353191268745323e-06,2.125479989197437e-06,9.063190138721594e-07,1.0872830250261237e-06,6.646698584894284e-07,-8.331362969697061e-08,3.000092356579037e-07,-4.284012855535217e-07,2.4613464173578914e-07,4.787184180183657e-07,-3.26046915527143e-07,2.262956347641765e-07,-6.241406072930188e-08
6.559018612175295e-07,3.9068138078513615e-08,-4.313527511996264e-09,-3.0068945320822605e-06,7.825125526121292e-07,1.9186475182050594e-06,2.0987121044773037e-06,9.60163492902791e-07,1.071698237456485e-06,6.674401191356204e-07,-7.519649928091728e-08,2.6714887425359605e-07,-3.853852691230957e-07,2.2364299844672764e-07,4.418286809876013e-07,-3.5648896131891476e-07,1.8124423430755195e-07,-7.385819134059285e-08
6.929703338946963e-07,4.8087899463682516e-08,-1.724141793533255e-08,-2.952428689831941e-06,7.758947777752105e-07,1.8983750919948538e-06,2.0894838168275938e-06,1.0107847547530158e-06,1.0722242323613018e-06,6.696898991115476e-07,-7.19994572978217e-08,2.3105834059095807e-07,-3.37763177566324e-07,1.9910123818474262e-07,4.0971170043094994e-07,-3.841848482234926e-07,1.3955573192732875e-07,-9.35675132766301e-08
7.202406713936507e-07,4.752494712949444e-08,-3.247859473641036e-08,-2.9204838644618356e-06,7.629506565490092e-07,1.8764787926444537e-06,2.1004633377824974e-06,1.053814462697922e-06,1.091497695884524e-06,6.695743948808252e-07,-6.042669104184873e-08,2.113063702569528e-07,-3.025753685892517e-07,1.7084360765191946e-07,3.874692884127052e-07,-4.101238055983175e-07,1.0668903097741068e-07,-1.2595211084624943e-07
7.281841384000101e-07,3.484145603252718e-08,-4.997336662788916e-08,-2.9540980528350105e-06,7.464997086325212e-07,1.8546222830528642e-06,2.133597833057838e-06,1.0867299555276164e-06,1.1331529348013132e-06,6.62611722331907e-07,-6.765589509107568e-08,2.123933664675499e-07,-2.950271382488041e-07,1.4804308236701996e-07,3.737987431592756e-07,-4.2753687425713085e-07,9.106673646116899e-08,-1.4975111720891324e-07
7.1517682504522e-07,1.2656479679572887e-08,-6.47064125754527e-08,-3.0429620383571193e-06,7.30607745201246e-07,1.8333350849871272e-06,2.1769138451178655e-06,1.1077091674435241e-06,1.19178637245526e-06,6.532337033005982e-07,-1.0476836271552549e-07,2.072055027266484e-07,-2.906753634828323e-07,1.3668927029874126e-07,3.6075000413465956e-07,-4.2695054118919476e-07,1.008322284461669e-07,-1.5736773309113642e-07
6.859185239161849e-07,-1.6805999963028043e-08,-8.490609825850256e-08,-3.1522114666300104e-06,7.190296877540794e-07,1.8211231388398716e-06,2.214358340572835e-06,1.1200472720743054e-06,1.2597678196187957e-06,6.432035259680529e-07,-1.6068824798934344e-07,1.8944465570038495e-07,-3.148959677466981e-07,1.2993471117258232e-07,3.4060156341569844e-07,-4.3351815865343046e-07,1.2933351143645515e-07,-1.44535650988547e-07
6.594717577938035e-07,-3.8345441451965665e-08,-1.0736572084396317e-07,-3.2539582490850224e-06,7.139228153534771e-07,1.8185882399345836e-06,2.2784632828888496e-06,1.1277291975855881e-06,1.3095321673241695e-06,6.357183945642727e-07,-2.378008617937973e-07,1.643888352253361e-07,-3.0807737817061494e-07,1.399696828220132e-07,3.20833764198323e-07,-4.336348715359474e-07,1.683801885950763e-07,-1.1596675572708253e-07
6.456949881538797e-07,-3.71970873078283e-08,-1.3734149454543994e-07,-3.2650789783780415e-06,7.155431666422839e-07,1.8231572807866808e-06,2.358189769548437e-06,1.1316643328923032e-06,1.3034218764258645e-06,6.376048954206548e-07,-2.930396368323154e-07,1.04847587820204e-07,-2.532589629856906e-07,1.3437612490378462e-07,2.8415338779663927e-07,-4.577155431441042e-07,2.1875783531906753e-07,-8.382117144572375e-08
6.589406466664169e-07,-1.184681376947027e-09,-2.2560881007540956e-07,-3.13390010787682e-06,7.226510290123381e-07,1.8491105377732037e-06,2.4718495130426508e-06,1.1253012657926692e-06,1.220100598622835e-06,6.44593623904142e-07,-2.826112915984072e-07,9.878288234139707e-08,-2.146401410141679e-07,1.1297719710534712e-07,2.686452651259332e-07,-5.665985434382509e-07,2.650724536084686e-07,-5.189208857490723e-08
7.304964041114431e-07,7.19395542170475e-08,-3.0172312034797667e-07,-2.9926800168810956e-06,7.327876534071975e-07,1.898601931511969e-06,2.68341192555685e-06,1.0952392358435028e-06,1.1531641951754216e-06,6.402732673227346e-07,-2.2226603886056863e-07,1.1263275755452067e-07,-1.9201960940301754e-07,9.119436826768446e-08,2.469971519400666e-07,-6.34688903181666e-07,3.0971679761018943e-07,-1.3528658159561306e-08
7.989089178239359e-07,1.537280324146526e-07,-3.77157400243953e-07,-2.9858752997732686e-06,7.421592620563426e-07,1.929536889185681e-06,2.849774454721679e-06,1.0326998298266762e-06,1.09109805804943e-06,6.320363699897072e-07,-1.3645730290224507e-07,1.137332304348283e-07,-1.9652348919583618e-07,9.834771713219326e-08,2.2652693287699144e-07,-6.626242321965028e-07,3.3363373752360417e-07,3.7248777176072e-08
8.258084989450116e-07,2.3087484665606223e-07,-4.498592588368846e-07,-3.000521205150909e-06,7.456727809322488e-07,2.0152905212125233e-06,2.901653202628102e-06,9.400307998952296e-07,1.008837066145857e-06,6.193048697010643e-07,-6.604030341071165e-08,1.2366167827576982e-07,-2.1083846093940107e-07,1.2473515415689812e-07,2.1263217548130802e-07,-6.726972614268492e-07,3.7089589604412423e-07,9.91244129999762e-08
8.824774745387231e-07,2.4137319091500197e-07,-5.170345285248908e-07,-2.901897718504813e-06,7.361233924150376e-07,2.1446212718301587e-06,3.080177498706389e-06,8.45656961606634e-07,9.482947295877004e-07,5.970396717510083e-07,-1.1210224759895378e-07,9.698814754951186e-08,-2.5868361698762795e-07,1.2034576463476191e-07,1.8515964120117993e-07,-7.00917035849412e-07,4.1633280319129035e-07,1.9525593353791508e-07
9.582295962877835e-07,1.9772400943908487e-07,-5.836094955047538e-07,-3.001606476074323e-06,7.127064136784654e-07,2.2360623048993983e-06,3.1601925917082057e-06,7.895868252897218e-07,8.502405018459798e-07,5.72567923956349e-07,-1.568064908695367e-07,1.1269994272894792e-07,-2.6565347044164545e-07,1.334217282293723e-07,1.9611519937569219e-07,-6.883837827064714e-07,4.4524842564317827e-07,2.540144267723077e-07
9.857541799052614e-07,1.5410078425374833e-07,-6.514044599284862e-07,-3.107420831938401e-06,6.769960182657533e-07,2.295586539091544e-06,3.158475340344828e-06,8.129804816172041e-07,7.85288881261104e-07,5.597624162086383e-07,-1.8737638609920214e-07,1.272718191524259e-07,-2.7843266684177125e-07,1.423539236878465e-07,2.1464242342195028e-07,-6.329719270158483e-07,4.569502284524669e-07,3.1481049662382584e-07
9.720514027615333e-07,1.17150756224419e-07,-7.010093265599065e-07,-3.1682798768326652e-06,6.365779913865959e-07,2.3380330085639704e-06,3.1729726157591713e-06,8.523940935252326e-07,7.581589869826084e-07,5.738584145998243e-07,-2.3279778542025567e-07,1.1791694032053636e-07,-2.9905920560445304e-07,1.3001407981290807e-07,2.23955004481772e-07,-5.524456726339329e-07,4.7266825734656426e-07,3.8244885358318256e-07
9.529106542179484e-07,6.731047698616681e-08,-7.482880723125784e-07,-3.3398920940577574e-06,6.284603078829158e-07,2.371212692399875e-06,3.152722219949533e-06,9.008966543100222e-07,7.51527129755583e-07,5.887249952635267e-07,-2.321609567657759e-07,1.0409291120376791e-07,-3.1242979472332034e-07,1.2268554255762045e-07,2.3672354400460612e-07,-4.3826372369223986e-07,4.821386230258341e-07,4.127226549469936e-07
9.532860174879187e-07,1.0792245851358159e-08,-7.996571205037559e-07,-3.499353340252165e-06,6.366848048475828e-07,2.4118061693938332e-06,3.113591506876267e-06,9.583031438293662e-07,7.781817885299896e-07,5.939459614283538e-07,-2.3991349889701336e-07,7.405251229697214e-08,-3.366230083108544e-07,1.1493220433488171e-07,2.636846745103416e-07,-2.934777009340866e-07,4.792549491385762e-07,4.484725812191695e-07
1.0086767856011841e-06,-1.0048638164581701e-07,-8.442991062824063e-07,-3.603226408167329e-06,6.160646344771222e-07,2.5551331072653583e-06,3.0894790067118034e-06,1.000880369195851e-06,8.090534646622424e-07,5.640524235157644e-07,-2.435033630232052e-07,6.241135446337263e-08,-3.4840224637056544e-07,1.133870754680863e-07,2.9308887602625457e-07,-1.6360520656064988e-07,4.698749972171354e-07,4.786912672681687e-07
1.0611320311732434e-06,-2.3190212056552855e-07,-8.732608839697526e-07,-3.7175199342369796e-06,6.448548617812189e-07,2.7279421152088243e-06,3.0011359853365537e-06,1.0759334520019538e-06,8.527635877293663e-07,5.773477926359446e-07,-2.5593878838258143e-07,6.630974018384879e-08,-3.5247285077986127e-07,1.146834713830083e-07,3.1612625652755826e-07,-2.327898415597896e-08,4.788162584776003e-07,5.066569197595133e-07
1.115127871720147e-06,-2.9070948152274417e-07,-9.067999006750258e-07,-3.756488651964628e-06,7.087253059083231e-07,2.8626227071527554e-06,2.9345665974687706e-06,1.1279518049687392e-06,9.180340097873388e-07,5.663012215292368e-07,-2.834137910183789e-07,7.13933559279702e-08,-3.753922678138095e-07,9.692255472965308e-08,3.491120739204132e-07,1.0149671091143136e-07,4.826884936629271e-07,5.602862091024813e-07
1.2123666990884608e-06,-3.3250649470799455e-07,-9.039460606978198e-07,-3.837078557630976e-06,7.733407885669295e-07,2.917865660486761e-06,2.8668912234944204e-06,1.191372664643803e-06,9.744396888545255e-07,5.360796911028398e-07,-2.8912382668654555e-07,6.993332301079266e-08,-3.959724466309017e-07,9.692213873683589e-08,3.6493427100711593e-07,2.0760163037874228e-07,4.839461108191528e-07,5.696257864779017e-07
1.2811012107701963e-06,-3.797359619897689e-07,-8.950848571336998e-07,-3.8776102130621684e-06,8.311904061511362e-07,2.938069812953163e-06,2.772702792704703e-06,1.2142029455712538e-06,1.0143298085638274e-06,5.021561522972204e-07,-2.7879376828476235e-07,7.663581527415306e-08,-3.952000777917856e-07,9.391827044892075e-08,3.8121086365558303e-07,3.3150584217928886e-07,4.780931079238267e-07,5.39077835310657e-07
1.2732052212035987e-06,-4.0706997039321043e-07,-8.670925410129215e-07,-3.864929886147935e-06,8.853449334820474e-07,2.9656754738093532e-06,2.7652543822461405e-06,1.2226784231448335e-06,1.0213424414482684e-06,4.489195557984998e-07,-2.353290508385074e-07,9.616243820206115e-08,-3.597098076205962e-07,8.45793402181839e-08,3.899571399239101e-07,3.969277512933386e-07,4.66394041431591e-07,5.245481861148078e-07
1.2063514608055397e-06,-4.0346552748018057e-07,-8.504608735910195e-07,-3.7777909324669733e-06,9.314722485959434e-07,3.0216066709774547e-06,2.8656691238050907e-06,1.2216224111680939e-06,1.0625965900885047e-06,4.322401885286297e-07,-1.6406724656429197e-07,1.0426873573184929e-07,-3.3034458334710196e-07,6.913875887098968e-08,3.7359956040474273e-07,4.536624100409738e-07,4.4987093668531323e-07,4.914148841555536e-07
1.1484451351073147e-06,-4.0592939725707177e-07,-8.111484833369851e-07,-3.8068032765616813e-06,9.695900410578564e-07,3.0451943920320653e-06,2.975208402481392e-06,1.1784434780627458e-06,1.0578426143696656e-06,4.5079435099281677e-07,-1.5508418990870066e-07,9.748640224665904e-08,-3.152411820447559e-07,5.5725056635653436e-08,3.6416045588229404e-07,4.973478909951873e-07,4.4328082841660465e-07,4.788004042445255e-07
1.1012549390046064e-06,-3.793856416393223e-07,-7.668023168557228e-07,-3.7573437106535892e-06,1.0001768003877646e-06,3.0629529156080897e-06,3.0293148514414652e-06,1.1144487996213916e-06,1.036923142756003e-06,4.507745701854158e-07,-1.3692970207758975e-07,8.351629694139483e-08,-2.834890120815866e-07,2.175645469993901e-08,3.396485278358081e-07,5.215905012084738e-07,4.4771947928139187e-07,4.905126449765762e-07
1.0863957213736933e-06,-3.5669031608674923e-07,-7.502685517815641e-07,-3.667530615682182e-06,1.0228104648333648e-06,3.010073305267921e-06,3.051880234725911e-06,1.0662282309772981e-06,1.0030634440313251e-06,4.6559841033036454e-07,-1.0623208085999747e-07,4.375554464641803e-08,-2.7984278193063883e-07,-1.7072016365488828e-08,3.171266090986811e-07,5.879045338601756e-07,4.5299720647004015e-07,4.942159246807761e-07
1.0898746132663045e-06,-3.4659655346482625e-07,-7.390149009521816e-07,-3.654314305110855e-06,1.0368649614391104e-06,2.9382336358898177e-06,3.081448918793264e-06,1.0238440055721444e-06,9.441416537213992e-07,4.838961035783277e-07,-1.076019668498633e-07,2.073583291510303e-08,-2.805136034110335e-07,-3.692465139069527e-08,2.9644061819216413e-07,6.378378762287605e-07,4.580635040740013e-07,4.954596865339652e-07
1.0661394652442849e-06,-3.3236681932277456e-07,-6.970735857879793e-07,-3.6646881135153363e-06,1.0431865447644749e-06,2.873404521294792e-06,3.129323791015131e-06,9.993127363342093e-07,8.864894302818022e-07,5.030648782376589e-07,-1.0873389568501001e-07,1.3603464860841333e-08,-2.415317454987663e-07,-5.3955728276445775e-08,2.5442068760123397e-07,6.58483277504017e-07,4.231058978426785e-07,4.658026255545157e-07
9.97072269873083e-07,-3.3733021065164705e-07,-6.379679731904795e-07,-3.6682735478041527e-06,1.0444170811553024e-06,2.8015015391048186e-06,3.2046031280289254e-06,9.838951657563828e-07,8.242351370620256e-07,5.257700520236232e-07,-2.307657663842259e-08,-3.5971093594991185e-08,-1.7979470532229365e-07,-1.0640368408905506e-07,2.0053590011419317e-07,6.757590189146625e-07,4.0684059510710567e-07,4.522829488951688e-07
9.444970335727603e-07,-3.4842218241431184e-07,-5.727984473918216e-07,-3.621584277455612e-06,1.0433973737407768e-06,2.7395896679779502e-06,3.3670600668705806e-06,9.717913377546108e-07,7.84114006203866e-07,5.309009570170114e-07,-7.442631739027836e-09,-8.813969299669963e-08,-1.2910042496610414e-07,-1.3595179592374565e-07,1.69274151059218e-07,6.64524048759302e-07,4.0572988401443987e-07,4.542850512357558e-07
9.270121547164062e-07,-3.3333364120609927e-07,-4.990734633609353e-07,-3.457000357209472e-06,1.0415621603510546e-06,2.6874321617629615e-06,3.470109149849115e-06,9.594688500016297e-07,7.783005046029885e-07,5.168507283755183e-07,-1.0887319817502245e-08,-1.1227357198299176e-07,-9.29771424343251e-08,-1.5177501690343875e-07,1.6590456323327976e-07,6.284536825551559e-07,3.873301039205926e-07,4.5405909539504317e-07
9.400059338839208e-07,-2.825651822569568e-07,-4.544374391461259e-07,-3.36925953208568e-06,1.0388253219416357e-06,2.620373534458433e-06,3.5212880783864984e-06,9.340425157892532e-07,8.053487342692066e-07,4.889740887713252e-07,-1.6876646381220756e-08,-1.163874716464722e-07,-7.538397259597954e-08,-1.700153361752223e-07,1.5345656468054158e-07,5.663795245288372e-07,3.723140516538307e-07,4.5534300456204383e-07
9.75185934256673e-07,-1.971029212893999e-07,-4.515625765552672e-07,-3.2768493996228524e-06,1.0342648738548406e-06,2.5742847693662683e-06,3.5934374943217692e-06,8.938480201327083e-07,8.522910229525524e-07,4.425449299450152e-07,2.920827055833367e-08,-1.1821556238125949e-07,-6.55392492956269e-08,-1.8513314549538747e-07,1.378838385354384e-07,4.4273483180434365e-07,3.5790412182099686e-07,3.770055845488022e-07
9.817030627249371e-07,-8.890782978904518e-08,-4.590237996062707e-07,-3.227726865141589e-06,1.0264599783236696e-06,2.5671473842877086e-06,3.622848335165091e-06,8.347150488842142e-07,9.075292981639852e-07,3.912052484577648e-07,7.262306412849803e-08,-1.467218900777107e-07,-2.5756191457495717e-08,-1.89985558871217e-07,1.1236252162867756e-07,3.173148797314656e-07,3.3544724192620856e-07,3.3040051723257583e-07
9.155155947021852e-07,2.8438702041982564e-08,-4.765083070086061e-07,-3.234222642173742e-06,1.01340225496296e-06,2.5763547637805162e-06,3.699966717337018e-06,7.489878585320438e-07,9.658704086036988e-07,3.4638636988296205e-07,1.1199475547956966e-07,-1.6937935940441292e-07,-1.7135903964508338e-08,-2.1200721446987592e-07,3.828235309937055e-08,2.085222479794272e-07,2.878688622928584e-07,2.9117200594944707e-07
8.768456892338093e-07,1.3822860353912848e-07,-5.153504954163138e-07,-3.214823486345124e-06,9.926827789725065e-07,2.5779584487334075e-06,3.7822871315349735e-06,6.370160366487035e-07,1.019857269218809e-06,3.1632557261828424e-07,1.4108131763162898e-07,-2.1801978693345935e-07,2.2565058126473708e-08,-2.540733936225311e-07,-2.019135953854506e-08,1.258893040615991e-07,2.5498005485218466e-07,2.6556993801829845e-07
8.368739892441409e-07,2.2302172305483204e-07,-5.349557419072718e-07,-3.03552180204775e-06,9.62625104876012e-07,2.5799365729881213e-06,3.814329078720591e-06,5.051454119142518e-07,1.0835504131452434e-06,3.1071190606063945e-07,1.2854590982426264e-07,-2.766601515339148e-07,5.596559600654659e-08,-2.8257320983627083e-07,-5.05844100158901e-08,6.935364455872755e-08,2.4887711572186557e-07,2.415155372913097e-07
7.795717740539939e-07,2.706386043838041e-07,-4.696011967362381e-07,-2.9077177997707437e-06,9.238482175326895e-07,2.5717560192633835e-06,3.7863294848159277e-06,3.911302749925476e-07,1.1608988215853803e-06,3.3091976435830287e-07,1.2265411591446032e-07,-2.831012331947682e-07,6.461001312280992e-08,-3.1611864478018755e-07,-9.117837835372497e-08,9.575359051279662e-09,2.3793419289809233e-07,1.913855448138767e-07
7.543071773521365e-07,2.6713361202187575e-07,-3.817754389046665e-07,-2.8152758520379242e-06,8.79532896027833e-07,2.5467092892136884e-06,3.768782508815935e-06,3.352897965435956e-07,1.257050323652766e-06,3.2219706575316625e-07,1.387103621316503e-07,-2.943491898766414e-07,6.976014033888763e-08,-3.5482361848355734e-07,-1.0594994235222366e-07,-4.765388725826785e-08,2.043576508919077e-07,1.0899617613840972e-07
7.305202040700846e-07,2.211969471202395e-07,-3.316680135639282e-07,-2.7508930392729526e-06,8.33855870448682e-07,2.5614754424284577e-06,3.7505910685774845e-06,3.661821691175737e-07,1.3543784060013831e-06,2.80920314904146e-07,1.3239965056319183e-07,-3.4336925484267515e-07,1.0752283346034484e-07,-3.9649538513757543e-07,-1.1865210073269807e-07,-8.498179699641396e-08,1.5518738817769682e-07,2.5459924682919632e-08
7.18336263953889e-07,1.5123638950783177e-07,-2.769260499804031e-07,-2.7270560348850347e-06,7.904203168586677e-07,2.5642294843152065e-06,3.756542769059644e-06,3.8402865815768596e-07,1.4580488472761509e-06,2.47298130425225e-07,1.7933903823601395e-07,-3.613527458874773e-07,1.6615355702542145e-07,-4.3333020396214893e-07,-1.4095186344319118e-07,-1.4655803191898433e-07,1.0914615417763072e-07,-8.622457744703002e-09
6.981247446425084e-07,7.268430976083099e-08,-2.2956047334203275e-07,-2.672104567666405e-06,7.522533320297098e-07,2.5250593417307476e-06,3.7800369341070173e-06,3.7060266349751557e-07,1.5687553586985135e-06,1.9827202067124172e-07,2.3917442933377414e-07,-4.2988540515275747e-07,2.2093560982076923e-07,-4.6651873824421643e-07,-1.422993395173197e-07,-1.7687088927765323e-07,6.61720795610619e-08,-3.1530524353967723e-08
6.650664900277681e-07,1.0341234088172002e-09,-1.5878575934196846e-07,-2.5631429136397142e-06,7.223095615106875e-07,2.475181997138873e-06,3.7214613864323343e-06,3.3006034003832707e-07,1.6645080575809107e-06,1.2589931172855445e-07,2.7301642316530095e-07,-4.589162378356396e-07,2.696407822960687e-07,-5.149624060706668e-07,-1.492716957057178e-07,-1.6973522494267866e-07,7.863413912559936e-08,-6.35514774188522e-08
6.442767014346799e-07,-5.565296934781597e-08,-5.278942485550234e-08,-2.342586461184292e-06,7.026638790706703e-07,2.401309157945466e-06,3.677977246319484e-06,3.230249624813071e-07,1.7461754191667336e-06,8.051205533211963e-08,3.064153059196412e-07,-4.6341195006318784e-07,3.1267096318664647e-07,-5.326350188710418e-07,-1.5739930354189746e-07,-1.3682653248009362e-07,5.632754972371287e-08,-8.733407607794473e-08
6.245651923629048e-07,-9.437248559684983e-08,2.2108780153702333e-08,-2.2796425993414756e-06,6.928388222065279e-07,2.3325578041368163e-06,3.6207071711482585e-06,3.748268045969888e-07,1.771404341163033e-06,9.08178321726956e-08,2.9753706841151625e-07,-4.827708256693313e-07,3.645590142056517e-07,-5.602698610213274e-07,-1.694372803513534e-07,-8.578047773446623e-08,9.503192697853356e-09,-1.483657761814417e-07
6.113844240322754e-07,-1.1321183827140152e-07,7.739025328682351e-08,-2.273318824583916e-06,6.892900715443182e-07,2.2777111337769967e-06,3.5852813989797866e-06,4.682935993071232e-07,1.727430868031604e-06,7.628862219196295e-08,3.421005473587057e-07,-5.01321628398761e-07,4.0079974624242937e-07,-6.280969170765721e-07,-1.7874750739906982e-07,-2.0870297828489602e-08,-3.1950149866466824e-08,-2.637280688878483e-07
6.077327154017668e-07,-1.0776264910566964e-07,1.0936087116005329e-07,-2.3012198708297505e-06,6.868873476893521e-07,2.2142323323131806e-06,3.517316269348294e-06,5.121114201070096e-07,1.6782260188347182e-06,5.299532907028704e-08,4.0322834602866913e-07,-5.457995783834379e-07,4.289449078294099e-07,-6.923522873789337e-07,-2.1921587666888116e-07,3.0306430923665624e-08,-5.605930354502081e-08,-3.433583675364211e-07
5.685686155725145e-07,-7.891181935962567e-08,1.2130316628451403e-07,-2.0677139276217018e-06,6.81465177285737e-07,2.1394132853673887e-06,3.4823430782718496e-06,5.631820290314188e-07,1.6814922489640528e-06,7.1462970776792e-08,4.528574569612551e-07,-5.896864107446621e-07,4.5220209850977384e-07,-7.437664628546165e-07,-2.6701770148154696e-07,6.727828012477924e-08,-8.219075795416643e-08,-3.70648858873995e-07
5.116086464659444e-07,-3.20066411701573e-08,1.4981450676964514e-07,-1.800406178880974e-06,6.71831293421344e-07,2.0558304538033884e-06,3.443207868375807e-06,5.377408353771502e-07,1.7075939119363788e-06,9.969459550100274e-08,5.191341872378033e-07,-6.176956498700344e-07,4.836545877793597e-07,-7.823952771564017e-07,-2.618475468021647e-07,1.3315216984734998e-07,-1.1955494328834944e-07,-3.6594029336332886e-07
5.023684757693211e-07,2.1473703669918125e-08,1.617101697104913e-07,-1.5144761171568054e-06,6.598587659698073e-07,1.98722794111466e-06,3.321835311622266e-06,4.888306013939051e-07,1.7173261435830633e-06,1.0973057677932742e-07,5.591748242041073e-07,-6.477406194661233e-07,5.309653721191466e-07,-7.93764243569756e-07,-2.407273226712104e-07,2.195605859447922e-07,-1.502003406263561e-07,-3.268530623369424e-07
4.984219757759152e-07,6.373198099217896e-08,1.8765936049058278e-07,-1.1964991924713293e-06,6.486480992150349e-07,1.938362305195261e-06,3.1442084846541747e-06,4.351996366902437e-07,1.7023032747902777e-06,1.083532218093392e-07,5.618080470954327e-07,-6.713280882522636e-07,5.564763979186545e-07,-8.034673849855252e-07,-1.770265055036132e-07,3.106017236208488e-07,-1.9940005160782864e-07,-2.672343902573397e-07
5.124464498330103e-07,7.880662388679403e-08,1.9189020429487187e-07,-1.0097442534526431e-06,6.402046975363572e-07,1.9057590626044783e-06,2.9532543376931203e-06,3.869441811297027e-07,1.6511426841562289e-06,1.0231823610208428e-07,5.422299923917709e-07,-6.548825728276153e-07,5.643956653753815e-07,-8.112721152312713e-07,-1.054113878994493e-07,3.757085240492247e-07,-2.474721285175734e-07,-1.947806175938106e-07
5.16607504458749e-07,5.707974463696084e-08,1.7391399172718946e-07,-9.77357275754114e-07,6.339898447334636e-07,1.8933765612164925e-06,2.7566536202044662e-06,3.5807091770867924e-07,1.5852551215260498e-06,9.049856629846962e-08,4.825822090345512e-07,-6.22987853563389e-07,5.671478318989903e-07,-8.130327672109168e-07,-3.842149502900481e-08,4.095172882682803e-07,-2.5167111076181146e-07,-1.137447765855057e-07
5.006337715808659e-07,-3.238747747722439e-09,1.2948810620130478e-07,-1.037573224239515e-06,6.268500422407358e-07,1.8892138637533842e-06,2.582397958850707e-06,3.4614753036545745e-07,1.5214527779644079e-06,7.48719805528851e-08,4.0230627310594914e-07,-5.806677876393954e-07,5.606625065656101e-07,-8.119758737570188e-07,-1.0197030772558619e-08,4.165374892390378e-07,-2.3919254800684693e-07,-3.411282426165187e-08
4.7241128185074504e-07,-9.667582379326931e-08,5.7195744539332906e-08,-1.1297463876046642e-06,6.144306751879257e-07,1.8892107100704413e-06,2.46266950343768e-06,3.47778175597186e-07,1.4719834376325236e-06,5.995840692689458e-08,3.273736421598736e-07,-5.356286172004301e-07,5.424165152303016e-07,-8.106272892545272e-07,1.3045460867901308e-08,4.0893743433662616e-07,-2.4278539225401785e-07,1.8947332182589814e-08
4.19349158123597e-07,-2.1143917489717567e-07,-2.4415462832713226e-08,-1.1965239704522375e-06,5.937310863960515e-07,1.8897314702389161e-06,2.3979180833946064e-06,3.5935047903741915e-07,1.4399127421997325e-06,4.8259524304921224e-08,2.736575935756754e-07,-4.965325227858809e-07,5.159153994993586e-07,-8.153767047988421e-07,5.093287803081174e-08,3.97621572404887e-07,-2.5294805398805343e-07,4.375885848524284e-08
3.780503071393978e-07,-3.3037911491030704e-07,-9.882971747372009e-08,-1.2887250731763792e-06,5.655457975905213e-07,1.8834888286788617e-06,2.370170674885062e-06,3.7562655897297e-07,1.4238372001383267e-06,3.302961823558034e-08,2.5113731804630647e-07,-4.6993116371951993e-07,4.7633189479704293e-07,-8.300266500558197e-07,4.4397197267899975e-08,3.7734898499659487e-07,-2.601884243212298e-07,4.413855388917407e-08
3.5437912041450067e-07,-4.342842968514585e-07,-1.4863481632133526e-07,-1.337551297104537e-06,5.349529268865149e-07,1.8672274975621527e-06,2.369476478381438e-06,3.9315773951780867e-07,1.415167641602701e-06,1.763367821433452e-08,2.4689304698649967e-07,-4.5520587532120567e-07,4.31419366626759e-07,-8.43244596027169e-07,9.94982043521097e-09,3.5622653451473153e-07,-3.06046164982595e-07,1.8252068377687364e-08
