0,1,2,3,4,5,6,7,8,9,10,11,12,13,14,15,16,17
5.0937850639494775e-08,1.6625510048473342e-07,1.7874189216104042e-07,7.050002086775515e-08,2.113080666065466e-07,1.584218078817748e-08,-1.6612129136029108e-07,4.805650061996192e-08,-2.135806560115875e-07,2.5938996139607124e-07,-2.8666307717840625e-08,-3.2705277573687474e-08,-5.4144566076486784e-08,1.7080709024731383e-07,-1.4125396477527465e-07,-3.0852021493496846e-07,5.323359404121818e-08,-8.446286644836363e-08
7.298940451447884e-08,1.5309714564569756e-07,1.6619196084096845e-07,5.6953621925025355e-08,1.9358938792489177e-07,-6.7542152825086435e-09,-1.1143799479955659e-07,3.624763641619141e-08,-1.6775977319300798e-07,2.0757075049783823e-07,-7.224672869726399e-08,-1.0969736162595485e-08,-8.112563039761163e-08,2.2486749824821475e-07,-1.6821187505157416e-07,-3.4008420484640425e-07,2.6770348100456638e-08,-9.440660101362337e-08
9.262978013517652e-08,1.2668105058850932e-07,1.502668675587307e-07,4.308615324007711e-08,1.3166742102413284e-07,-3.015172492265414e-08,-1.2427545262251786e-07,3.667701970318549e-08,-1.3753543695601775e-07,1.8971696856442188e-07,-1.0909531267960956e-07,-3.401171208926874e-08,-1.8451826316735228e-08,2.4752269988259714e-07,-1.9611045569538497e-07,-3.6688747895947523e-07,3.791904386198883e-09,-6.754967211086822e-08
1.0431118639474352e-07,8.940578012455429e-08,1.268160182620714e-07,2.8156677671166962e-08,6.483326890763368e-08,-5.3307649683973004e-08,-1.025176398397117e-07,6.961990985917307e-08,-1.1813613231841474e-07,1.7297943226112936e-07,-1.3058552780288197e-07,-5.8251549528455005e-08,8.397153477935494e-08,2.355042236784919e-07,-2.309366258212163e-07,-3.650555011928973e-07,-1.564028722961595e-08,-1.462026245556127e-08
1.0117378182386386e-07,4.6642096419314217e-08,1.141840135630727e-07,1.264402147625223e-08,-3.376609653177495e-09,-7.465812533782234e-08,-2.310884015125973e-09,7.362613302883608e-08,-8.790240805164284e-08,1.2710062584275496e-07,-1.274561591871866e-07,-1.0643272905942273e-07,1.2152970121500775e-07,1.9187800542931712e-07,-2.5926713086645677e-07,-3.0986487918373983e-07,-2.4788558515815122e-08,4.344864053865432e-08
8.250096324441026e-08,4.5854949304670455e-09,1.0235950447626876e-07,-2.3452588606333533e-09,-6.26635967310801e-08,-9.189543061724446e-08,1.1878409987647322e-07,4.5725376948734375e-08,-3.0589633923179466e-08,9.955588620192273e-08,-9.392301627809396e-08,-7.981908343893919e-08,4.85651441610103e-08,1.3076917264814798e-07,-2.7930036457625257e-07,-2.343418895679331e-07,-2.9026139859524155e-08,7.015245010625507e-08
5.307586392234341e-08,-3.198547323040784e-08,4.239980471548398e-08,-1.573948507862445e-08,-9.994074589215935e-08,-1.0317620791716596e-07,1.340250178532176e-07,1.4711725310539234e-08,-3.1200316036683617e-09,2.656450877250579e-08,-4.010322084343568e-08,-3.847741366255515e-08,-6.430573521582136e-09,6.286705603668796e-08,-2.797893288413663e-07,-1.0549785959200282e-07,-2.6006989678986152e-08,1.0576299718538463e-07
1.4445979613115825e-08,-5.938701324088968e-08,-5.589100244359056e-09,-2.7282481606629026e-08,-1.042052883136904e-07,-1.0730136243318713e-07,1.1543896454231592e-07,-1.0625003401190977e-08,-9.384384950165948e-09,-3.986553948965637e-08,2.5046216887367082e-08,-1.2211139488325854e-08,-1.8003751346022412e-08,-5.680939980591514e-09,-2.3145254317594996e-07,-2.246008701602666e-08,6.471757153369184e-10,1.0619656636923963e-07
-2.6798388738517933e-08,-7.771876585785554e-08,-2.4637129829830504e-08,-3.943379497904915e-08,-9.76759389971546e-08,-1.0193902048404377e-07,6.646903908937968e-08,-3.690836199409984e-08,8.975139492924908e-09,-5.7295879972189e-08,8.945681184791247e-08,4.3418746629449564e-08,-9.772887818939516e-10,-7.091342613038757e-08,-1.5107727612171542e-07,-3.4725735045610535e-08,2.5064268089840667e-08,8.774647097620948e-08
-6.46675410783187e-08,-8.876179842450699e-08,-5.333478652948084e-08,-5.147312980500655e-08,-8.317894584006141e-08,-8.849055320493905e-08,8.161036528491356e-08,-4.5748448609023615e-08,5.0877332134885285e-08,-1.001195489982894e-07,9.832367562841542e-08,7.082213233624587e-08,3.729129383557727e-08,-1.3287723516169016e-07,-3.3903412072626294e-08,5.110072457736318e-08,3.130520229918495e-08,6.752712918294338e-08
-9.480108902633536e-08,-9.366174188461984e-08,-9.966073952511804e-08,-6.364916206161926e-08,-8.219296285590013e-08,-6.314909360676583e-08,7.517959917405282e-08,-3.6094045672330096e-08,1.0229205141612264e-07,-1.365238029017023e-07,6.775325642300006e-08,7.084153436771704e-08,6.19929574545891e-08,-1.8954264323739008e-07,1.1609429843865634e-07,1.2559623806184846e-07,2.1297964442741036e-08,2.3892477721157627e-08
-9.241529349778053e-08,-9.173361225316493e-08,-1.2430836492400508e-07,-6.94092335521621e-08,-8.974232934591977e-08,-2.0177664144135582e-08,1.109801149078984e-08,-2.84824079724425e-08,1.6064703351357612e-07,-1.7669283949063452e-07,3.14109322107656e-08,6.276261350049331e-08,5.3256448131260746e-08,-2.331586132220912e-07,1.976813445995653e-07,1.2205033336275245e-07,1.1673061628099373e-08,-1.6667307372802257e-08
-9.001924874693199e-08,-8.026366061124936e-08,-1.4606776380466115e-07,-4.0323303405163914e-08,-8.019683255237426e-08,4.334457951284547e-08,-3.1602039142146955e-08,-2.0528047595232428e-08,1.6471553677734507e-07,-1.804801673912737e-07,2.282214902766177e-08,4.152795633322099e-08,1.8925216612735834e-08,-2.388167267776804e-07,2.791732426097747e-07,2.7011974157150234e-07,5.4643339049371175e-09,-4.506766403319111e-08
-9.29867914120747e-08,-5.703961808372643e-08,-1.5318188727132494e-07,-1.2388567971757818e-08,-2.4780772872547362e-08,1.2990397576383264e-07,-4.1606075740770536e-08,-2.4520605485184146e-08,1.2408786395258238e-07,-1.5399386642457972e-07,4.240116698664452e-08,2.6888273713763993e-08,-6.564809991897436e-08,-2.2585286710718e-07,3.828090588686668e-07,4.051372742470999e-07,-2.4395148243719816e-08,-6.968167064191581e-08
-7.460157524223313e-08,-2.3061066001421426e-08,-1.3749159279378242e-07,1.7820255029013905e-08,3.3856093764271875e-08,2.2863340490756083e-07,-3.496462496180677e-08,-4.4375657185934e-08,9.932429889360064e-08,-1.3481850091346516e-07,8.199351688795608e-08,2.3598950361172178e-08,-1.0689720745835379e-07,-1.3691500356284775e-07,4.6232731748258013e-07,5.074780165440468e-07,-2.8220593090014884e-08,-6.838303136897487e-08
-3.5774882545434634e-08,1.6946081394566186e-08,-1.3668869665507476e-07,9.288366711135374e-08,9.269978482658879e-08,3.2327690666202265e-07,1.2230905170784843e-08,-7.738172397118418e-08,5.708920082664772e-08,-1.030879879548548e-07,1.4286854730659065e-07,3.3018433761187e-08,-7.385335237187703e-08,-3.045829099091268e-08,5.332177149985739e-07,6.059555219744459e-07,-3.117013599033784e-08,-4.388765663454364e-08
-1.4431689080757488e-09,5.59015628610511e-08,-1.5455715987132473e-07,1.7453246423539554e-07,1.314398046335187e-07,3.7853161095512346e-07,6.814209692861067e-08,-9.859160613908638e-08,2.9818002597101414e-08,-7.853844071432392e-08,2.509183147997697e-07,6.178007050213458e-08,8.281149420927755e-08,9.123916890828133e-09,6.080469239284733e-07,6.784099395837949e-07,-4.5905125020043516e-08,-3.4398662609179274e-08
1.3232281062245138e-08,8.646727126455968e-08,-1.6233856415030059e-07,2.395647573400461e-07,1.1804064297995864e-07,3.6225516307488803e-07,1.1581403371479903e-07,-1.0539757554293247e-07,1.604684901138332e-08,-8.56698341808512e-08,3.7147155269139646e-07,1.138247328002725e-07,2.2708096556108908e-07,1.25675447441449e-07,6.702904528196116e-07,7.662392310701985e-07,-3.3271600961255936e-08,8.353859636759891e-10
1.711675397707446e-08,1.0339768742254589e-07,-1.7604974240243537e-07,2.7141098508018415e-07,1.3036232608101714e-07,3.2515131365453404e-07,1.465058405731076e-07,-1.0379612317916327e-07,3.827296322294435e-09,-1.0998903321469843e-07,4.849074777810551e-07,1.8606581433229535e-07,2.910597026694055e-07,2.614413316765182e-07,7.698837569953564e-07,8.540107942732592e-07,-1.5389871392169785e-08,4.6061236152648744e-08
1.988855023171601e-10,1.0511744747534015e-07,-1.9427702287447566e-07,2.9593248629803203e-07,1.40150693523844e-07,3.1710291062904687e-07,1.484765298266131e-07,-1.0696419639206116e-07,-1.1676085515795944e-08,-1.2486305766875082e-07,5.645854174523855e-07,2.6649318985710213e-07,4.3802390376734914e-07,2.845677743362656e-07,8.744606100998515e-07,9.504646007686999e-07,-1.3800091584039743e-08,8.648927020817494e-08
-3.429869776983887e-08,9.377043214438603e-08,-2.30004468037514e-07,3.213925373392249e-07,1.111480152248353e-07,3.3154844894969827e-07,1.3501563064365322e-07,-1.1447493411174871e-07,-3.394306839502018e-08,-1.4385102084770062e-07,6.247858939349441e-07,3.3812937604332736e-07,5.685628510121581e-07,3.021924829719178e-07,9.420991684826317e-07,1.0378584848529186e-06,-1.1402833680630323e-08,1.5951826321352153e-07
-4.786295350941828e-08,7.53673488826e-08,-2.59962518865519e-07,3.244089143490559e-07,6.37017957935233e-08,2.7924685286033277e-07,1.2109906191705271e-07,-1.2626625488455063e-07,-4.916268932195554e-08,-1.603885586707695e-07,6.740489540180513e-07,3.8531143540314344e-07,5.690172282742737e-07,3.1601440841937807e-07,1.0037995872574056e-06,1.1245614699422508e-06,3.4201822664742213e-09,2.1729653627147327e-07
-3.5133409273510316e-08,5.8392606184886976e-08,-2.760641294588862e-07,3.1801897004832297e-07,3.6749099924257175e-08,2.2350685491686948e-07,1.150673387621723e-07,-1.4414963033342368e-07,-5.12537792507886e-08,-1.7275050154915938e-07,7.164536640373254e-07,3.99052702550694e-07,5.525975470731802e-07,4.0543258017303145e-07,1.0764704409058447e-06,1.2038368911084991e-06,2.169255861132977e-08,2.6027291936145843e-07
-6.207794617103367e-08,5.122308751621362e-08,-2.766229841121056e-07,3.2615200327168053e-07,2.67912600478714e-08,2.581246854118496e-07,1.195906267352636e-07,-1.6724633206652814e-07,-4.0364916278001366e-08,-1.8003614916043854e-07,7.653188388394159e-07,3.79246896173326e-07,5.760524027365568e-07,4.72160191497969e-07,1.1090889641000273e-06,1.2324385202072349e-06,4.3754413265102173e-08,2.916314718317936e-07
-1.0713003681196564e-07,5.8857600862644044e-08,-2.918908416086584e-07,3.5467401620286963e-07,2.3047028060147442e-08,2.990627659878713e-07,1.307740072839758e-07,-1.9373490982935666e-07,-1.7272816442240183e-08,-1.791716839213745e-07,8.201443265161794e-07,3.3280118791332035e-07,6.217948202964412e-07,4.5547929734373157e-07,1.1772407492800632e-06,1.3042738765836875e-06,4.172185246169418e-08,3.056497630962903e-07
-1.5808953459276934e-07,8.082746906893217e-08,-3.042772864911437e-07,3.9837201905200995e-07,5.682389121950571e-08,3.196579718121731e-07,1.4005314353135e-07,-2.218771580734687e-07,3.3324719619217244e-09,-1.711823654644393e-07,8.710036573735369e-07,2.691893374375104e-07,6.903976062286591e-07,4.2241336259486367e-07,1.2834821550774133e-06,1.391160410273823e-06,2.488833449328303e-08,3.1374735763668386e-07
-2.0322193844630963e-07,1.1140368965215067e-07,-2.9375602540771225e-07,4.511951017427091e-07,9.511565484086308e-08,3.638117335344555e-07,1.3741684154656548e-07,-2.504030708323755e-07,1.4395939405938008e-08,-1.589257926056176e-07,9.047381318751597e-07,1.970576465708863e-07,7.817957227012678e-07,3.803056029972704e-07,1.3361004775091866e-06,1.444857127094035e-06,-2.242206064886172e-09,3.1241945723890816e-07
-2.4205030223037455e-07,1.4263071469712254e-07,-2.8945016604710706e-07,5.033849945663522e-07,1.2515840243777454e-07,4.500712062597432e-07,1.1524991594828032e-07,-2.7804448339554647e-07,1.2978069042654552e-08,-1.451276456374696e-07,9.064193566627559e-07,1.219131735964177e-07,8.784316357318358e-07,3.1844211694308986e-07,1.3953194428116573e-06,1.4963311398674015e-06,-2.530135798656902e-08,3.2008229370895943e-07
-2.6575316997100836e-07,1.6824639064476706e-07,-2.4655016332513064e-07,5.468449589709809e-07,1.5564077677938804e-07,5.601757213687512e-07,7.104934321877296e-08,-3.02897741658489e-07,4.2713243490238e-09,-1.3086018702261958e-07,8.362231903383649e-07,4.836391661084184e-08,9.789231987789782e-07,2.759351328823313e-07,1.4236317440007138e-06,1.5395558746734508e-06,-3.8425736104057096e-08,3.1890262023346447e-07
-2.7363155183111864e-07,1.857454272471106e-07,-2.075479187462681e-07,5.76640176852439e-07,1.8401406468824084e-07,6.312869475772387e-07,7.586490125029637e-09,-3.2267863741809367e-07,-7.98689415058204e-09,-1.1590053912322452e-07,8.122594373018638e-07,-1.987827539260621e-08,1.067932196104046e-06,2.412683504713611e-07,1.4623498645669988e-06,1.5864087485250674e-06,-6.8449414716575e-08,3.1130530443244204e-07
-2.728975374094825e-07,1.9599957814489363e-07,-1.5552105361029286e-07,5.913080719290403e-07,2.0623709089035382e-07,6.720495491591062e-07,-6.792234020623734e-08,-3.3595781626252925e-07,-2.020417560868702e-08,-9.992542542911578e-08,8.331379704567428e-07,-8.121730917627673e-08,1.1292305533660033e-06,2.1311252453380104e-07,1.508138806611639e-06,1.6211935799763265e-06,-8.159565123527228e-08,2.9736478388969217e-07
-2.6764073346062974e-07,2.012117811632152e-07,-9.417403745174579e-08,5.91542512306998e-07,2.233690724914635e-07,6.958336700122946e-07,-1.4417549772064452e-07,-3.431950956839875e-07,-2.992302362718221e-08,-8.340787904947192e-08,8.49244272318672e-07,-1.3513426161974951e-07,1.1575630083391992e-06,1.8690575258552864e-07,1.5494250163066882e-06,1.6436941845563157e-06,-8.220672825452163e-08,2.595392413310358e-07
-2.6413793608604315e-07,2.033767257339626e-07,-5.909806170609805e-08,5.794670095292292e-07,2.3250238392284167e-07,7.024723038828636e-07,-2.0656427677459058e-07,-3.4647853963263637e-07,-3.5596235378320465e-08,-6.79329483438868e-08,8.628897937707887e-07,-1.8146776998625155e-07,1.153262066852576e-06,1.440395586413445e-07,1.5913061115248548e-06,1.6797882038583786e-06,-7.124158351155969e-08,2.491354561668825e-07
-2.648470774864771e-07,2.0390315603022622e-07,-3.357877290923937e-08,5.592083796486869e-07,2.322610728007027e-07,6.973760738690612e-07,-2.3988928736902644e-07,-3.4821606999552964e-07,-3.5110640799458356e-08,-5.6488208371588705e-08,7.967742755728947e-07,-2.2102153803712087e-07,1.1137455087781793e-06,8.712090828587914e-08,1.6223807478552103e-06,1.6758069935534803e-06,-5.7316479303125695e-08,2.200013157923715e-07
-2.694706675341997e-07,2.045046246222759e-07,-1.0940509933295217e-08,5.363875589104624e-07,2.233917036162282e-07,6.875403151010082e-07,-2.32851646314591e-07,-3.5005940562501657e-07,-2.905549622756876e-08,-5.097321418195353e-08,7.204987175986879e-07,-2.561529338738311e-07,1.0459176387645527e-06,2.5264570155301383e-08,1.6478650776666183e-06,1.65243242421946e-06,-1.0277313638148978e-07,1.7408417465268032e-07
-2.757933730928272e-07,2.0688236116188917e-07,5.8412837053459346e-09,5.171663904870441e-07,2.0836584259147184e-07,6.791624179755936e-07,-1.825184162478754e-07,-3.5297743696938695e-07,-2.0421784902113627e-08,-5.180126743295e-08,6.62294739123533e-07,-2.89276647760808e-07,9.633706458173534e-07,-3.1217284468250645e-08,1.6679661996624893e-06,1.6173054655326306e-06,-1.5683872805576601e-07,1.1922526895406983e-07
-2.805250955762283e-07,2.114797528164158e-07,2.414234209208151e-08,5.052378614120549e-07,1.9029377124169366e-07,6.764734278595437e-07,-9.664411321382612e-08,-3.58096476163773e-07,-1.242391131493982e-08,-5.8533999583442153e-08,6.111972708493942e-07,-3.2086244521642243e-07,8.778336750821767e-07,-7.19246637758448e-08,1.6884875701458642e-06,1.5909506713710426e-06,-2.1456689905655186e-07,6.551499226981876e-08
-2.814321300385204e-07,2.167247252412227e-07,3.768384109827757e-08,4.993574214104092e-07,1.7146485749978561e-07,6.799388572023892e-07,8.238431677318844e-09,-3.670168106488979e-07,-7.874656230609199e-09,-6.990905066505593e-08,5.876643380519277e-07,-3.483412743278961e-07,8.004691506890849e-07,-9.168647466240048e-08,1.7018860505013073e-06,1.6009291232501516e-06,-2.7542848786255444e-07,2.347590936277175e-08
-2.7865047933121324e-07,2.1865925017875842e-07,2.8862109949431828e-08,4.956621669787865e-07,1.5192385830876232e-07,6.864470687850297e-07,1.1271513628220123e-07,-3.8080675464691036e-07,-6.42784251547338e-09,-8.470187632353677e-08,5.772989769506698e-07,-3.671660423030092e-07,7.379027886250144e-07,-9.29021668264327e-08,1.6895200048136442e-06,1.62248687719195e-06,-3.275375019930966e-07,-1.9741809937779228e-08
-2.7415331999081274e-07,2.1288593812092693e-07,7.0312784965096515e-09,4.881901196126755e-07,1.306410713683347e-07,6.900291234506197e-07,2.008869400666842e-07,-3.984801949651355e-07,-4.363364260408098e-09,-1.0124417962415988e-07,5.633496910795091e-07,-3.7291406881096465e-07,6.909103448870858e-07,-8.475331847878112e-08,1.6561663133886225e-06,1.673419686733512e-06,-3.728563905710736e-07,-5.578329136164465e-08
-2.6984376384739535e-07,1.9692172573831103e-07,-2.648783813941142e-08,4.7224081549595954e-07,1.070366254080708e-07,6.837023659217215e-07,2.6339688058457746e-07,-4.166875441979083e-07,2.822672519379824e-09,-1.1716752242089908e-07,5.392615099169032e-07,-3.6237867392412994e-07,6.580040512427146e-07,-7.98490538571547e-08,1.6331770808887285e-06,1.7250456884910588e-06,-4.151961205419052e-07,-9.092540877628897e-08
-2.662429160429491e-07,1.711207291455905e-07,-7.107420401407045e-08,4.4613656251480727e-07,8.135558940397476e-08,6.615973833689439e-07,2.963780370302112e-07,-4.313093066973874e-07,2.0380334631278378e-08,-1.3031081423145662e-07,5.112352697736149e-07,-3.3448499894420164e-07,6.350916252671156e-07,-8.973726007932095e-08,1.6219465186665252e-06,1.7925393190716772e-06,-4.510348113560133e-07,-1.255470666046736e-07
-2.626301743456686e-07,1.3821742166507764e-07,-1.2120234850508616e-07,4.1029248917041803e-07,5.4161120581515425e-08,6.20643804822348e-07,2.9942769017324324e-07,-4.398650262814572e-07,4.897898963977038e-08,-1.3973489934558444e-07,4.743194734238793e-07,-2.914896718904981e-07,6.161837834686454e-07,-1.2142637762278678e-07,1.6201621329204851e-06,1.8590042671452482e-06,-4.908242500543802e-07,-1.5257097390229325e-07
-2.585568606037875e-07,1.0207509644190002e-07,-1.7536885636139952e-07,3.6629140112680176e-07,2.5708240134273944e-08,5.595812115452387e-07,2.754671056156885e-07,-4.4307189500170153e-07,8.27527113188834e-08,-1.4597354196629371e-07,4.2419120719936665e-07,-2.394326096839372e-07,5.973364589225451e-07,-1.7572175913117223e-07,1.6377895721166954e-06,1.912033732916331e-06,-5.379590108817186e-07,-1.7300345821234038e-07
-2.5521378093748365e-07,6.637507543103338e-08,-2.3053731237143585e-07,3.1661619760292785e-07,-4.034281204149692e-09,4.858514437434669e-07,2.3184472949838076e-07,-4.4456510752216696e-07,1.1232193470735199e-07,-1.5125660103674858e-07,3.650323460910517e-07,-1.8873603990339374e-07,5.761631249118034e-07,-2.4757234721144836e-07,1.6561092972615746e-06,1.922684758020987e-06,-5.790737978875065e-07,-1.9226430551784138e-07
-2.553202667850686e-07,3.415698772756256e-08,-2.824378726867461e-07,2.654200702231073e-07,-3.391465949040871e-08,4.1222296767777796e-07,1.8035095133353545e-07,-4.4884923264100184e-07,1.2694023801208866e-07,-1.5804802419435652e-07,3.0730889386797835e-07,-1.5246480001434802e-07,5.539585058929419e-07,-3.284380259685431e-07,1.653230074421219e-06,1.8803528663355755e-06,-6.184306017828316e-07,-2.1225184064705817e-07
-2.612339271952173e-07,8.372042611543452e-09,-3.2270370714115566e-07,2.1825394886087507e-07,-6.0068974944539e-08,3.524054038532003e-07,1.336566437289397e-07,-4.5863900636323587e-07,1.2008354034275027e-07,-1.6722899125299444e-07,2.6208080334016285e-07,-1.4220846003597526e-07,5.351050858485136e-07,-4.084947390659472e-07,1.6346780113183029e-06,1.8077507373530327e-06,-6.558954663110058e-07,-2.358250227534111e-07
-2.72945298729686e-07,-8.48393329767126e-09,-3.4927567523078037e-07,1.816444663920613e-07,-7.789049947822821e-08,3.5802948657562763e-07,1.0059622186401783e-07,-4.733586972234629e-07,9.311882644335881e-08,-1.780127301655863e-07,2.3773913236920232e-07,-1.608710105176105e-07,5.244838243361921e-07,-4.778463898800478e-07,1.6005808307250171e-06,1.710309625482943e-06,-6.890807679461453e-07,-2.606288713514793e-07
-2.87725492614278e-07,-1.5987097496357738e-08,-3.596123674370848e-07,1.6059349861870115e-07,-8.405103533913993e-08,3.8798801132508617e-07,8.360831271761593e-08,-4.898799485790634e-07,5.121688521669356e-08,-1.8905599984971208e-07,2.3728710700094673e-07,-2.0149426939379045e-07,5.243797552588915e-07,-5.27968618796171e-07,1.5482925057369766e-06,1.6144660040115975e-06,-7.20927712269352e-07,-2.8373493015203416e-07
-3.0163647872754686e-07,-1.58511620310525e-08,-3.538729663810592e-07,1.560975300866932e-07,-7.728704443830238e-08,3.835957633618612e-07,8.005402331620342e-08,-5.047974739612086e-07,2.753129605502736e-09,-1.9943473739903707e-07,2.516321231295552e-07,-2.5021682131717983e-07,5.328738918490132e-07,-5.537062931803789e-07,1.4934975279569327e-06,1.5259751952365494e-06,-7.516883033749864e-07,-3.040828166333153e-07
-3.1170365580788043e-07,-1.1556337198026436e-08,-3.374325358265507e-07,1.649916398791289e-07,-6.082573291077427e-08,3.8746534012461226e-07,8.499646919053187e-08,-5.163013367702593e-07,-4.325631916963028e-08,-2.088427772440721e-07,2.775429713435117e-07,-2.922215153314217e-07,5.461292477183227e-07,-5.551196276577656e-07,1.4367646531536394e-06,1.450702591748765e-06,-7.799172464911871e-07,-3.233381366045959e-07
-3.1701231880088865e-07,-7.104051274333995e-09,-3.157942592139008e-07,1.8144337916593724e-07,-3.897769327740863e-08,4.360263753140255e-07,9.314505900713602e-08,-5.243831040754465e-07,-8.021142740724861e-08,-2.1659914717453627e-07,3.1048454982086174e-07,-3.1846248388889624e-07,5.605462039200909e-07,-5.377652200779946e-07,1.3836104931117154e-06,1.3977159547734553e-06,-8.0627410353265e-07,-3.4141338955602863e-07
-3.180700289262377e-07,-4.926134889704016e-09,-2.943311859470872e-07,1.9990942241001568e-07,-1.6323238390695505e-08,5.052481491391784e-07,9.97572881622378e-08,-5.299132934232918e-07,-1.0306151257217346e-07,-2.2232104695886848e-07,3.452431433902772e-07,-3.27494565555309e-07,5.74586226550572e-07,-5.10424348876096e-07,1.3304099837873018e-06,1.3607101472153052e-06,-8.34972631920539e-07,-3.5688048633398866e-07
-3.153599318468618e-07,-5.174031450359421e-09,-2.759004668657232e-07,2.175808494785189e-07,4.635379374550703e-09,5.520727516225685e-07,1.0077865232212167e-07,-5.33870490552622e-07,-1.1107390518453823e-07,-2.245361823902718e-07,3.8272037659601533e-07,-3.2388914185565583e-07,5.913205350351001e-07,-4.814836770084001e-07,1.2848619918389953e-06,1.3338406220128722e-06,-8.576727407986252e-07,-3.677750351484717e-07
-3.085733584598082e-07,-5.945596177298431e-09,-2.6035463189637885e-07,2.339849160003381e-07,2.3601845723387308e-08,5.894488532982349e-07,9.391668170813435e-08,-5.371969614253467e-07,-1.0959260011542944e-07,-2.2144668325233085e-07,4.2339206600684515e-07,-3.151452687882394e-07,6.175698023274695e-07,-4.554349579961875e-07,1.2634706449711276e-06,1.3329605665517078e-06,-8.754582317534172e-07,-3.7077895174791283e-07
-2.9714474861194895e-07,-4.741366815480024e-09,-2.4645516807400817e-07,2.4980905873684376e-07,4.095462274203553e-08,6.290605822541109e-07,8.086132818336513e-08,-5.409244242188778e-07,-1.0524554480837077e-07,-2.126217250366612e-07,4.6806042962133863e-07,-3.0914153788215447e-07,6.57914515340241e-07,-4.3153755453451726e-07,1.252986968800373e-06,1.339281481691422e-06,-8.900765392744232e-07,-3.6570223007246143e-07
-2.81325311356556e-07,-2.0036134093372695e-10,-2.3388148528730607e-07,2.659852519637538e-07,5.662047566237946e-08,6.696026244380597e-07,6.855642507802566e-08,-5.460865523734193e-07,-1.0449851513794061e-07,-1.990231941600168e-07,5.16290543483524e-07,-3.111247184239266e-07,7.111727000415272e-07,-4.0607396986758915e-07,1.2485429545286546e-06,1.3526628844355761e-06,-9.009330718112338e-07,-3.5366702900200645e-07
-2.625058858826915e-07,7.333084406225266e-09,-2.2407231954680033e-07,2.813541541359381e-07,6.889668730323932e-08,7.063941530182252e-07,6.687846853597566e-08,-5.531123839896443e-07,-1.1011740710349859e-07,-1.831176710931544e-07,5.649407766061721e-07,-3.217880045827278e-07,7.701495549524638e-07,-3.75782038477814e-07,1.2460458399256486e-06,1.380723148228519e-06,-9.11156260574327e-07,-3.365431488262798e-07
-2.424139580807097e-07,1.606104208967201e-08,-2.1942569196526259e-07,2.926322625667276e-07,7.599557252256842e-08,7.305405246676298e-07,8.332634451487437e-08,-5.60884806904388e-07,-1.2334982704071027e-07,-1.6719230652442997e-07,6.087509342970646e-07,-3.3720915844450055e-07,8.238177295521922e-07,-3.397615207437935e-07,1.2531768741761743e-06,1.4196239752036045e-06,-9.198155430018981e-07,-3.168547120450177e-07
-2.22151294487135e-07,2.370033070222643e-08,-2.2181345342789402e-07,2.9788789382395846e-07,7.647837712695139e-08,7.334177498755114e-07,1.1828534215571097e-07,-5.663433343143499e-07,-1.406609040555015e-07,-1.5231855331576083e-07,6.423592203919688e-07,-3.488105613861127e-07,8.646199669373457e-07,-2.998285298915596e-07,1.26264221409578e-06,1.4699812969788836e-06,-9.267125203257021e-07,-2.9555782520956535e-07
-2.0224951353548542e-07,2.8533514974063954e-08,-2.316411050404381e-07,2.959282354805866e-07,7.006418488510418e-08,7.105650405647607e-07,1.638025455853118e-07,-5.655749006260303e-07,-1.5658429105005487e-07,-1.3800725173021634e-07,6.628148745567437e-07,-3.490618262521118e-07,8.864152430291285e-07,-2.604354264075e-07,1.2714248931755906e-06,1.543647075780865e-06,-9.31483572503784e-07,-2.7272802957948444e-07
-1.8380821641879547e-07,2.9629422140913303e-08,-2.47789935149914e-07,2.856259631846083e-07,5.761282401194848e-08,6.631450441104118e-07,2.0652322889080937e-07,-5.562917888396132e-07,-1.6712606067589464e-07,-1.2319863029724742e-07,6.697287321296359e-07,-3.340520874560279e-07,8.903464323710985e-07,-2.2813724483033463e-07,1.2723055722820948e-06,1.6374873398825077e-06,-9.348354549466111e-07,-2.483182069146948e-07
-1.695103649223204e-07,2.6724222643946455e-08,-2.6779057167652103e-07,2.7048953241859143e-07,4.037598256522602e-08,5.980693469466445e-07,2.3331576614472807e-07,-5.401466321170791e-07,-1.6894479221970033e-07,-1.0682500374643936e-07,6.669873352978573e-07,-3.0461291283758954e-07,8.8577790984324e-07,-2.098756486597662e-07,1.2637383423910552e-06,1.7411297565097318e-06,-9.364817805707835e-07,-2.22346507932605e-07
-1.6310997246857194e-07,2.0605253733333765e-08,-2.877030934798943e-07,2.549492906410976e-07,2.1511982754110232e-08,5.273157666046408e-07,2.3681469006836716e-07,-5.227887617648447e-07,-1.6169024142832205e-07,-8.747761965864142e-08,6.630561484911658e-07,-2.67305214717861e-07,8.860806261445405e-07,-2.0989362845068973e-07,1.2772688700781307e-06,1.8512691255544276e-06,-9.351478719068893e-07,-1.9565054848238819e-07
-1.6723114462591522e-07,1.4192202349284614e-08,-3.023981935667993e-07,2.4371552321390777e-07,4.6380936693992705e-09,4.6607209084089794e-07,2.1778880751303677e-07,-5.109035753400948e-07,-1.4775493970096196e-07,-6.318160296818264e-08,6.690426081293405e-07,-2.3131140519620913e-07,9.004172529880195e-07,-2.269668437122105e-07,1.3448360253202472e-06,1.9543136213638437e-06,-9.295306305394749e-07,-1.6889721936921558e-07
-1.8101632774712216e-07,1.1900512886371538e-08,-3.0648624305907935e-07,2.40466495227383e-07,-5.244431527178052e-09,4.283521817727419e-07,1.8388489247825604e-07,-5.081484876192562e-07,-1.319068738605e-07,-3.152587906830664e-08,6.945652356810093e-07,-2.067759203598363e-07,9.394936908914632e-07,-2.548485880959652e-07,1.4301161272487213e-06,2.040512310865439e-06,-9.180540125394222e-07,-1.422710290661458e-07
-1.9965528844682924e-07,1.8873027863912863e-08,-2.967132462240334e-07,2.489561083272627e-07,-4.6793269987056345e-09,4.227189546310224e-07,1.4596667228684162e-07,-5.131345343256229e-07,-1.202746211443117e-07,8.5624937196896e-09,7.420925005976175e-07,-2.0100708078853973e-07,1.0061503293308844e-06,-2.8575273769155185e-07,1.4855745308034124e-06,2.104645549841267e-06,-9.016384231275676e-07,-1.1572544348734653e-07
-2.1646147922517734e-07,3.8241466435972227e-08,-2.7389163236299916e-07,2.70204948953838e-07,6.170428758631638e-09,4.500412911707571e-07,1.1357476150973907e-07,-5.207431363561433e-07,-1.1833070087761007e-07,5.501295545444587e-08,8.075085610242197e-07,-2.2050683405968264e-07,1.0907158976526433e-06,-3.14120141401475e-07,1.4651734140679973e-06,2.1437635160413703e-06,-8.834650754988029e-07,-8.985548337769576e-08
-2.2604972499653018e-07,7.043149624922717e-08,-2.4300790301364683e-07,2.992992337076487e-07,2.3812294078494023e-08,5.036848431850059e-07,9.157584164515747e-08,-5.254641262622475e-07,-1.2851731323500697e-07,1.0281002479508573e-07,8.821085270390102e-07,-2.702146796766641e-07,1.1829826740027617e-06,-3.3634727868118987e-07,1.4486332013569787e-06,2.153748834708628e-06,-8.666687312342346e-07,-6.628535374075977e-08
-2.263146428697597e-07,1.1232591395896835e-07,-2.114986403335082e-07,3.36041809088866e-07,4.426394580116719e-08,5.717076370694567e-07,7.996928913891773e-08,-5.244768352740176e-07,-1.5016916442813456e-07,1.4560610190065737e-07,9.57164102642134e-07,-3.495383184570796e-07,1.2695056857557294e-06,-3.502921667012077e-07,1.4544427036954543e-06,2.1403364711978427e-06,-8.55369262347976e-07,-4.508112324511167e-08
-2.1817325799043436e-07,1.5878274488128997e-07,-1.862547480570638e-07,3.7081608650887815e-07,6.192070102985629e-08,6.397798182580141e-07,7.680486475042946e-08,-5.185834298586139e-07,-1.8137989715925204e-07,1.7770557250631977e-07,1.0274402095303953e-06,-4.490211432263096e-07,1.3406829743560927e-06,-3.54414093187287e-07,1.4801735891887236e-06,2.1088464737488326e-06,-8.496957292773002e-07,-2.6486629295887424e-08
-2.039773859816316e-07,2.0555789559038557e-07,-1.7116439459658676e-07,3.9923733403670134e-07,7.302612221614309e-08,6.94524872316967e-07,8.110498141502504e-08,-5.106321047914476e-07,-2.1937329244458177e-07,1.9679124273942605e-07,1.0914745026194372e-06,-5.494027376826127e-07,1.3918981323855569e-06,-3.4807810345361773e-07,1.5140545082855333e-06,2.0748523029359306e-06,-8.48068947480699e-07,-9.412908650510918e-09
-1.8615193007608343e-07,2.4940272172735547e-07,-1.6635986283390218e-07,4.215761641290215e-07,7.710868768461145e-08,7.26600326248409e-07,9.283311187762616e-08,-5.031667574290073e-07,-2.5696485677602324e-07,2.0351485362634553e-07,1.148134068878533e-06,-6.285779898002283e-07,1.4227260690245097e-06,-3.322449761510614e-07,1.5492175412885159e-06,2.042022115260658e-06,-8.491256580270304e-07,7.1463855141375874e-09
-1.667815168393474e-07,2.880429053636751e-07,-1.6924460909899453e-07,4.369059496388748e-07,7.499751569408443e-08,7.314270734570102e-07,1.102262205409438e-07,-4.973491784403153e-07,-2.858176509885154e-07,2.014762368193411e-07,1.19558059081435e-06,-6.647080468803363e-07,1.4329548813416734e-06,-3.1095224979137586e-07,1.569155804380753e-06,2.0142602913739417e-06,-8.515840634114048e-07,2.2540881847322376e-08
-1.4775658390654515e-07,3.1798638087940194e-07,-1.7600455741209604e-07,4.4881345861102824e-07,6.73624036038135e-08,7.1021518174394e-07,1.2757792759042257e-07,-4.933385672337257e-07,-2.9670177914806776e-07,1.951135680203949e-07,1.2288706020084984e-06,-6.489330379606621e-07,1.4220430401523477e-06,-2.913758497633618e-07,1.5546129312592636e-06,1.9928945468509906e-06,-8.551395042496478e-07,3.567614375009315e-08
-1.3070438697091644e-07,3.387212669104468e-07,-1.8276985362159337e-07,4.542243095369939e-07,5.618272566751247e-08,6.684196107824634e-07,1.3649578847896093e-07,-4.909716670114323e-07,-2.8318808276196825e-07,1.8771375907314665e-07,1.2472081856103116e-06,-5.969874815868233e-07,1.3954221512507135e-06,-2.8115664542737737e-07,1.5256161494907648e-06,1.968544050160004e-06,-8.595837790816457e-07,4.5469435989232214e-08
-1.1644657050832869e-07,3.498105701935329e-07,-1.8619987213610678e-07,4.5877057279868154e-07,4.429865565971006e-08,6.145177852156582e-07,1.3055784308483248e-07,-4.899518465672261e-07,-2.484060992845931e-07,1.813444622775026e-07,1.251751525898799e-06,-5.188523366989738e-07,1.3629845874034562e-06,-2.844004308176089e-07,1.491487623651853e-06,1.9541857730475023e-06,-8.639317767843375e-07,5.171699598072264e-08
-1.0451172133235035e-07,3.521056378688973e-07,-1.8401105540742113e-07,4.628382071460638e-07,3.435734959546185e-08,5.595461664255361e-07,1.0972144380714024e-07,-4.896407939116309e-07,-1.9793619785137289e-07,1.763720805435877e-07,1.2447678117270263e-06,-4.3378439647350954e-07,1.333971163187712e-06,-2.9947589301794737e-07,1.4537028824789694e-06,1.936190426428973e-06,-8.662586607529769e-07,5.515669668422173e-08
-9.337340646208496e-08,3.4866761804815107e-07,-1.7549743774339732e-07,4.6613774272527877e-07,2.935427688114967e-08,5.160106883940207e-07,8.128905185199164e-08,-4.89019460897486e-07,-1.403863378249751e-07,1.718720065757051e-07,1.2307208783957836e-06,-3.6454642908719e-07,1.3118767953456613e-06,-3.2039571813755594e-07,1.4228765888011561e-06,1.8887197554964083e-06,-8.661137373533088e-07,5.551707165220735e-08
-8.134986285031021e-08,3.413116529201718e-07,-1.619449093682671e-07,4.692913231684295e-07,3.051022450820663e-08,4.918082071668354e-07,5.6913841620215757e-08,-4.870545336667035e-07,-8.365090693756414e-08,1.6602983660697936e-07,1.2133971461901353e-06,-3.240436670972431e-07,1.2970862236769e-06,-3.3857798938800744e-07,1.3879946803041076e-06,1.826559319889173e-06,-8.637365673094891e-07,5.245790561825528e-08
-6.729784555550314e-08,3.310184288817677e-07,-1.4577201525669674e-07,4.778399000200135e-07,3.768876049569402e-08,4.88277718021019e-07,4.837433800348836e-08,-4.829240752829716e-07,-3.9332842942902315e-08,1.5721199652117784e-07,1.1976118556077448e-06,-3.2213589253875004e-07,1.2839452578881243e-06,-3.5074262855520493e-07,1.3630341207267225e-06,1.797424279678938e-06,-8.592196180715875e-07,4.62958557818979e-08
-5.042058065263033e-08,3.1963391198878704e-07,-1.2919818522434335e-07,4.970201467575449e-07,5.010242099288688e-08,4.995167917505509e-07,6.32183007651602e-08,-4.755278384128749e-07,-1.2139840867154695e-08,1.4453285917698566e-07,1.189573216421377e-06,-3.6554825369787357e-07,1.2560801175633092e-06,-3.5513306082929694e-07,1.3721117509944675e-06,1.846308079035623e-06,-8.513944483159673e-07,3.8831404140902126e-08
-2.9630955684251576e-08,3.1033488280223796e-07,-1.1276741949495569e-07,5.32264250337717e-07,6.86410470752962e-08,5.172249253660444e-07,1.0370035379996602e-07,-4.6266857881457144e-07,-1.882820062699417e-09,1.2965315963136737e-07,1.1954976447303442e-06,-4.3833527412180265e-07,1.2149827285338148e-06,-3.4879889234563566e-07,1.4315063004977286e-06,2.0096332505555197e-06,-8.384731927600875e-07,3.3766539997196016e-08
-3.5968382993678177e-09,3.070369727440311e-07,-9.508415995332428e-08,6.007727635482292e-07,9.538912771546461e-08,5.350058636362337e-07,1.675905534293263e-07,-4.41025511541324e-07,-6.918805174886116e-09,1.1712157064889183e-07,1.2194088199086267e-06,-4.815046433636541e-07,1.1623952168753826e-06,-3.281932447073134e-07,1.512534861784846e-06,2.1590051681328454e-06,-8.184336559582492e-07,3.492176248446641e-08
2.808548472833082e-08,3.138971895216649e-07,-7.415731863350646e-08,6.573608741877404e-07,1.3131325770516863e-07,5.507902549503124e-07,2.493502211369437e-07,-4.0750921642140904e-07,-2.1417462073798772e-08,1.1364707264981523e-07,1.2620046888338514e-06,-4.73150411947415e-07,1.1450462788196867e-06,-2.896985759924126e-07,1.5923237632602182e-06,2.2138035948979913e-06,-7.901713715461594e-07,4.410838032175408e-08
6.349895816832783e-08,3.332619666631332e-07,-4.915816190718335e-08,6.986041841746492e-07,1.753607986099383e-07,5.674632691619791e-07,3.4156213078821423e-07,-3.611849973212639e-07,-4.111421696234441e-08,1.2624695347560658e-07,1.3238420932445546e-06,-3.5191960352504156e-07,1.1757367833357496e-06,-2.3321169867562326e-07,1.62640348845036e-06,2.1837599801397433e-06,-7.570456685421111e-07,5.992526766287498e-08
9.833563385771891e-08,3.648804940438196e-07,-2.1041423711709966e-08,7.4017185251074e-07,2.250318279466541e-07,5.898886077984053e-07,4.3591029528317794e-07,-3.0421429507402106e-07,-6.239285687053986e-08,1.6009364062831662e-07,1.3992989545787366e-06,-2.474016584843667e-07,1.23930528542462e-06,-1.6633323806537165e-07,1.6427691324119342e-06,2.1948294611763596e-06,-7.250946070935279e-07,7.887743789690529e-08
1.278008336744602e-07,4.0655769560079196e-07,8.66224455563748e-09,7.697382801606754e-07,2.785411370844037e-07,6.229461002203278e-07,5.248983186959551e-07,-2.410974720447931e-07,-8.299193057751055e-08,2.1619338902964657e-07,1.4827347488299244e-06,-1.9806163678206565e-07,1.2842829083643182e-06,-9.791914328631835e-08,1.708819800555991e-06,2.2659950916668323e-06,-6.945697902169091e-07,9.639392390508617e-08
1.4928559357160204e-07,4.551639867166626e-07,3.888538234977821e-08,8.20312176578996e-07,3.3541641750687854e-07,6.678748620313397e-07,6.045474044358626e-07,-1.7698843975418173e-07,-1.0021739143334898e-07,2.9068743298203567e-07,1.5708126729581847e-06,-3.281387637608037e-08,1.3442252221820517e-06,-3.663337853618303e-08,1.8146908159718316e-06,2.3988387112551925e-06,-6.667355446217448e-07,1.0829430485792512e-07
1.6365010030415977e-07,5.068514410553656e-07,6.91600453637535e-08,8.864684063362145e-07,3.9462755401770167e-07,7.209342006057926e-07,6.772176101448771e-07,-1.1634213590191463e-07,-1.1256106434226817e-07,3.741196677173663e-07,1.6593065131246125e-06,1.3815658079515297e-07,1.3960893551335806e-06,9.427405686013105e-09,1.862754177898803e-06,2.518319935934944e-06,-6.425985418308775e-07,1.1160949717102189e-07
1.742227567909326e-07,5.5781501751995e-07,9.877226751935854e-08,9.732786054757827e-07,4.5503846918756743e-07,7.736951846469595e-07,7.511475186863246e-07,-6.23792335688803e-08,-1.204475824079864e-07,4.549152034278983e-07,1.7456567352477948e-06,2.2059022415251692e-07,1.4547985289382145e-06,3.419051075109843e-08,1.8568046624195912e-06,2.608557514776899e-06,-6.469826924270688e-07,1.0461260763025934e-07
1.8479322030960545e-07,6.041770749430316e-07,1.266399200618105e-07,1.0292179104319915e-06,5.146860701879193e-07,8.168754456211561e-07,8.350565098356577e-07,-1.708454159155635e-08,-1.2617492921942268e-07,5.226235421529109e-07,1.8263335904366267e-06,2.402752973854787e-07,1.5312703962491114e-06,3.252026595292883e-08,1.883162901504296e-06,2.642674164658315e-06,-6.818492843659035e-07,8.684057565655469e-08
1.9844689270506295e-07,6.434793882113739e-07,1.5202408383297924e-07,1.0994935447985171e-06,5.692956419994143e-07,8.440186904369764e-07,9.314817506525158e-07,1.8605221342037603e-08,-1.334555668716834e-07,5.703236380258193e-07,1.8982345071894468e-06,2.961838272333209e-07,1.5453949077745707e-06,2.0823336296837854e-09,1.953045836489208e-06,2.6632003472020045e-06,-7.193246497005563e-07,5.903239097726194e-08
2.1763100888624022e-07,6.756852546693604e-07,1.7588861795179563e-07,1.1763641877927785e-06,6.217678192243141e-07,8.549016738607207e-07,1.0346834552238651e-06,4.462730771747097e-08,-1.4989564736896916e-07,5.964704614961053e-07,1.959674855376877e-06,3.58469471811403e-07,1.558784070822072e-06,-5.525762433623983e-08,2.020854613519938e-06,2.673793394595231e-06,-7.533651505360117e-07,2.362663058903117e-08
2.443637648111175e-07,7.02453343982002e-07,2.008998256319924e-07,1.203121175591856e-06,6.748103761840813e-07,8.541285045562589e-07,1.135065549939865e-06,6.172212597632822e-08,-1.7841325783350115e-07,6.051552561392463e-07,2.0110847612829228e-06,4.2160978930570356e-07,1.5606484546545614e-06,-1.3291864538086456e-07,2.042307490248478e-06,2.6461432451947854e-06,-7.901656370441414e-07,-1.6364371417551134e-08
2.796400743009435e-07,7.263563407550691e-07,2.3003947939724615e-07,1.2016483881569876e-06,7.245867675766721e-07,8.488372178574077e-07,1.22559097239027e-06,7.139666654594862e-08,-2.149012916919835e-07,6.028486457555512e-07,2.051310934985012e-06,3.946267803272162e-07,1.5667300503856652e-06,-2.2288618961652458e-07,2.051972685925624e-06,2.607841028331456e-06,-8.207530105918589e-07,-5.746555693760086e-08
3.223958010590742e-07,7.455360471592141e-07,2.6470551111531153e-07,1.1877107587550879e-06,7.757463531745664e-07,8.456736396468198e-07,1.3045396224305747e-06,7.586750621316006e-08,-2.495445300514409e-07,5.955712931189787e-07,2.0792597239930392e-06,2.8714425580468865e-07,1.5614009955300219e-06,-3.1391587807275047e-07,2.0151423946854125e-06,2.554367920697103e-06,-8.439916484162402e-07,-9.713527854612392e-08
3.6927020201145084e-07,7.61893056840568e-07,3.0379191146029607e-07,1.1759019549545175e-06,8.258312484798127e-07,8.482665667261845e-07,1.3735756019570466e-06,7.799501629830815e-08,-2.720745071858573e-07,5.872373022684159e-07,2.0936349456307183e-06,2.2329686100602578e-07,1.5392735295688606e-06,-3.9312633263572164e-07,1.9623480752866718e-06,2.4850316319163207e-06,-8.721250912122155e-07,-1.3379908444739672e-07
4.1585875504149906e-07,7.750453139596377e-07,3.446532909326157e-07,1.176090095773069e-06,8.711368471122344e-07,8.544760376003226e-07,1.433759927904915e-06,8.113164788964448e-08,-2.780765500028999e-07,5.802076129175074e-07,2.0938899494138834e-06,1.8075432516805758e-07,1.5308130773879459e-06,-4.503536215555674e-07,1.9217319081306983e-06,2.4207550686566045e-06,-9.05949453528105e-07,-1.688660468093897e-07
4.5872397257710867e-07,7.877942495340026e-07,3.847018820189633e-07,1.1786900811552065e-06,9.12015267340874e-07,8.602216528468566e-07,1.4834599937124255e-06,8.875022282683421e-08,-2.688185606722348e-07,5.752906469995969e-07,2.0821901358764682e-06,1.3061481655257494e-07,1.5156172927519819e-06,-4.7551587059516507e-07,1.8710082747741387e-06,2.3720900514843387e-06,-9.39673222672267e-07,-2.0109912637236762e-07
4.966449618534492e-07,8.019717123965489e-07,4.221346018394931e-07,1.179489464347184e-06,9.466534002160676e-07,8.622519037114481e-07,1.5184947068239085e-06,1.0368585329477746e-07,-2.5093360748380367e-07,5.719647785798183e-07,2.061617582017519e-06,1.3483717048556657e-07,1.4923144533797792e-06,-4.7313395639841593e-07,1.8297102084222942e-06,2.3243362598138414e-06,-9.75013886621143e-07,-2.2401837362300178e-07
5.302218449327889e-07,8.11076913768016e-07,4.555465938644491e-07,1.1895409313960332e-06,9.738938381871333e-07,8.585023348386678e-07,1.5338671229476107e-06,1.2699309524107358e-07,-2.3126152492806953e-07,5.686247405532039e-07,2.0332944530720137e-06,1.2590925147494612e-07,1.4655079314624765e-06,-4.5291784939828324e-07,1.7917035655546402e-06,2.2893473489187293e-06,-1.0108384241192823e-06,-2.398310892464993e-07
5.605638827714859e-07,8.159454655928565e-07,4.834102572108301e-07,1.1886670524774827e-06,9.931953605734512e-07,8.493270690532658e-07,1.5247864271794198e-06,1.570453692808562e-07,-2.1659898865159317e-07,5.631321239679705e-07,1.9986948852558543e-06,9.049772150732563e-08,1.427366437577808e-06,-4.2503266508855853e-07,1.7586205685156153e-06,2.2730441942360597e-06,-1.0453573041523727e-06,-2.505916981088336e-07
5.87222762591752e-07,8.142758145670984e-07,5.042092680876041e-07,1.167536630606795e-06,1.0047915447853828e-06,8.368896004518116e-07,1.4882979987768892e-06,1.8976315822570648e-07,-2.1465546496787448e-07,5.53900511926727e-07,1.957961284803535e-06,3.8218397410805304e-08,1.381129377121367e-06,-4.005112405029704e-07,1.7070631295923243e-06,2.261846853571244e-06,-1.078997246422103e-06,-2.578775758891875e-07
6.098194353881161e-07,8.05530459244996e-07,5.175593773755969e-07,1.1440431363267186e-06,1.0079963885891512e-06,8.227753762529681e-07,1.42603077912284e-06,2.2009326804394857e-07,-2.269310038046466e-07,5.407495856521958e-07,1.9138383734693765e-06,-2.810995023669508e-08,1.3259038811452082e-06,-3.8536228910897634e-07,1.6331474813556482e-06,2.2559700586428215e-06,-1.1088159699104013e-06,-2.6428770171028553e-07
6.283818073521989e-07,7.930316729468892e-07,5.249799077853146e-07,1.1231547047244515e-06,1.0058335316233512e-06,8.111074293837615e-07,1.3457648523581176e-06,2.4392129711042474e-07,-2.491680607536827e-07,5.262757760552062e-07,1.871739393317437e-06,-9.151882849946483e-08,1.2695704809357676e-06,-3.815736110516409e-07,1.5745238826061875e-06,2.2484434262288316e-06,-1.1324300897531285e-06,-2.6886965926622355e-07
6.432674144493528e-07,7.812635300590402e-07,5.292931867940081e-07,1.095377337259179e-06,1.0027093117183735e-06,8.053925143602396e-07,1.260064605744484e-06,2.5935112942552645e-07,-2.7299853375319683e-07,5.116737169405825e-07,1.8417566172337597e-06,-1.406951739305369e-07,1.2204100246179655e-06,-3.8964880204679883e-07,1.5253471623554106e-06,2.2268929880300957e-06,-1.1467315240868492e-06,-2.6966237612380385e-07
6.560388352553779e-07,7.691331381327833e-07,5.32887185697898e-07,1.0734813286120533e-06,1.000917191105682e-06,8.071585076903363e-07,1.1811285424313263e-06,2.66760639061652e-07,-2.9053823368374813e-07,4.970362377751276e-07,1.8227820135125242e-06,-1.690332706359376e-07,1.1824693119384734e-06,-4.1170653673545606e-07,1.4803897243654596e-06,2.2041344700529126e-06,-1.1543978200530794e-06,-2.6673806561585207e-07
6.666653305457592e-07,7.566402268971192e-07,5.364704185912624e-07,1.0572463728054742e-06,1.0018800342298645e-06,8.132757158414345e-07,1.1152407854278757e-06,2.679575266619647e-07,-2.917215527392931e-07,4.816347625307134e-07,1.8096226313675226e-06,-1.9271946869170603e-07,1.1458385170976768e-06,-4.531849185123825e-07,1.4434492517732185e-06,2.177028183310896e-06,-1.1581952887941057e-06,-2.6507039933608065e-07
6.742285099980491e-07,7.44508854258359e-07,5.392211179524175e-07,1.0394952002358158e-06,1.0028017212814178e-06,8.187840950870457e-07,1.0610303352060631e-06,2.653187762496623e-07,-2.7473522147524807e-07,4.66124181920541e-07,1.7954808853167291e-06,-2.0973628379900638e-07,1.1060657197432508e-06,-5.14358738368894e-07,1.4040705583022095e-06,2.14202847232032e-06,-1.1601145345420275e-06,-2.7107100060879633e-07
6.782362859628465e-07,7.275612341618377e-07,5.400936013844261e-07,1.0261174927370196e-06,9.9782599173759e-07,8.179228773443304e-07,1.012571076782558e-06,2.613514538485413e-07,-2.430869651207896e-07,4.503025445270422e-07,1.7768790184931403e-06,-2.202002409294816e-07,1.0902659421403947e-06,-5.929940121243366e-07,1.3741261257191135e-06,2.1022894753498265e-06,-1.154430489712936e-06,-2.7490138671612184e-07
6.794199936889676e-07,7.050216812637755e-07,5.389385776358234e-07,1.0224026603867593e-06,9.945260074800478e-07,8.076261019441138e-07,9.640566191844673e-07,2.5841352473921965e-07,-2.055712903448204e-07,4.376289878128386e-07,1.7516688498122958e-06,-2.2660622884514186e-07,1.0776947104716715e-06,-6.870066843243933e-07,1.3509097739360149e-06,2.0520664937682357e-06,-1.1444837191183997e-06,-2.7503390303484055e-07
6.798136852630752e-07,6.889252966315558e-07,5.361949963541342e-07,1.0216867497322771e-06,9.845657365457057e-07,7.886682067215599e-07,9.126884738363222e-07,2.5832381365969765e-07,-1.6318200527665952e-07,4.284043221458701e-07,1.7182391339594688e-06,-2.2571606538459897e-07,1.0604480332752428e-06,-7.831118479372047e-07,1.3366368950365437e-06,2.0020554815107207e-06,-1.1301932411300561e-06,-2.7283396352715034e-07
6.814415063693143e-07,6.728365686921106e-07,5.318501284401995e-07,1.0221249779894982e-06,9.685957195007576e-07,7.634496622960741e-07,8.595444217423633e-07,2.619350725002916e-07,-1.3820782380633382e-07,4.244825273249528e-07,1.678259484995337e-06,-2.1191356002974504e-07,1.049567095076879e-06,-8.693574421772525e-07,1.3298298604838878e-06,1.9591473140156073e-06,-1.1131029716299798e-06,-2.677509811441385e-07
6.848296261834601e-07,6.549159871473261e-07,5.24707203745722e-07,1.0264687961998855e-06,9.508370444499825e-07,7.356221496648789e-07,8.118378433478018e-07,2.6888686415892093e-07,-1.3802217363427234e-07,4.2772867503362085e-07,1.623713473390448e-06,-1.8125844167110694e-07,1.040960737594628e-06,-9.304681874384134e-07,1.333754589386603e-06,1.9269467109680493e-06,-1.0940182164990663e-06,-2.602241943951599e-07
6.883105935583776e-07,6.285617508027028e-07,5.130020198483285e-07,1.0277784080366712e-06,9.26947374132504e-07,7.084358152647078e-07,7.758449951517905e-07,2.7770004923305664e-07,-1.575964700569325e-07,4.3581374986306683e-07,1.5595229895384706e-06,-1.3571544302396938e-07,1.0442750904280843e-06,-9.809391279434003e-07,1.349660683925197e-06,1.9089201810940993e-06,-1.0807477359803163e-06,-2.605633541370613e-07
6.897955666564517e-07,5.932640995760915e-07,4.960155581900928e-07,1.026764218570617e-06,9.033179407597205e-07,6.86677047242835e-07,7.570843569301478e-07,2.8617017338124277e-07,-1.915068766628815e-07,4.452010391372165e-07,1.4975062978167125e-06,-7.905813421320749e-08,1.0680083861987297e-06,-1.0216963302272711e-06,1.3600306832509436e-06,1.8850118898089838e-06,-1.0711846698449126e-06,-2.6275781247997673e-07
6.884266645590313e-07,5.652422065625607e-07,4.7508419103191017e-07,1.0254270580926195e-06,8.825899211144653e-07,6.738339173293441e-07,7.656762118250876e-07,2.9176361707309e-07,-2.2597700012193668e-07,4.3285921966136804e-07,1.4650485585203441e-06,-2.4729947236235957e-08,1.1009993013117774e-06,-1.0566619188181435e-06,1.3611155610033843e-06,1.8557298517034586e-06,-1.045228077396562e-06,-2.4947604742947423e-07
6.852417287018318e-07,5.50373471448329e-07,4.5284763041082815e-07,1.0352526689942129e-06,8.688195099331507e-07,6.677541650916501e-07,8.086027769775204e-07,2.9175235168893457e-07,-2.494634752333966e-07,3.959835992637836e-07,1.4933012324122232e-06,1.5512620771063766e-08,1.1113143203167125e-06,-1.09271225763949e-06,1.322343893120257e-06,1.828256832622535e-06,-9.93596222787825e-07,-2.2041948689140921e-07
6.8258750415807e-07,5.582513544428424e-07,4.310903751874047e-07,1.0510845491796321e-06,8.624882112949194e-07,6.62050652989625e-07,8.902227626971146e-07,2.83251948194231e-07,-2.722458953807204e-07,3.052000534988213e-07,1.5516649465807809e-06,3.722478080127267e-08,1.0683696216790687e-06,-1.129825489449743e-06,1.2495566521149815e-06,1.8181497629937292e-06,-9.511175079918801e-07,-1.7015207138431893e-07
6.816293635064662e-07,5.862419870910545e-07,4.089594137516312e-07,1.070273779826356e-06,8.628465961826827e-07,6.448760068036765e-07,1.0020465348744488e-06,2.6369890835436197e-07,-2.9890596894852195e-07,1.940224074514506e-07,1.5918195560590307e-06,4.051357227148017e-08,1.0080908598917801e-06,-1.1707314416253378e-06,1.1993401667454126e-06,1.81563747148297e-06,-9.075339376353108e-07,-1.2259388987010312e-07
6.813182867773692e-07,6.25073239094405e-07,3.829429027082472e-07,1.0941573861125455e-06,8.671686829470125e-07,6.02263406174609e-07,1.1226006147152363e-06,2.3206641344411118e-07,-3.4103241912140996e-07,1.256465530216578e-07,1.6147466567243242e-06,3.005808279268511e-08,9.760694537501088e-07,-1.2136837058432592e-06,1.148722968245399e-06,1.8235863202202253e-06,-8.652921709847214e-07,-7.90687400429268e-08
6.791971868978298e-07,6.595330855242655e-07,3.4878224253709074e-07,1.1176634027901036e-06,8.694683574410507e-07,5.261168803181047e-07,1.200032632451583e-06,1.9017562076833625e-07,-3.9607420159033995e-07,9.077314704956714e-08,1.6880707069812096e-06,1.1620531106202964e-08,9.86554938750667e-07,-1.272459030636038e-06,1.1090138377557258e-06,1.8021362006165973e-06,-8.258160647210585e-07,-4.245827172378854e-08
6.730412940900682e-07,6.734448587585541e-07,3.0368569284425143e-07,1.1392470382131327e-06,8.656184564747847e-07,4.1527334211014466e-07,1.1637664752611358e-06,1.42717263652373e-07,-4.1717679627962115e-07,-2.9469926770397914e-10,1.7855311884670264e-06,-1.0955467908524265e-08,9.955848523177457e-07,-1.3240710210680692e-06,1.0658357526318706e-06,1.6423666956761556e-06,-7.770082598590935e-07,-2.9205670269150434e-08
6.629924009831089e-07,6.532766727451921e-07,2.474047338432519e-07,1.1482501265862167e-06,8.557710387945577e-07,2.766825316203218e-07,1.072559433994536e-06,9.551976538029563e-08,-4.0405835544100256e-07,-1.264523537270587e-07,1.7950770358331905e-06,-3.554648492413473e-08,9.83122360745844e-07,-1.364095008658768e-06,1.0236686777136954e-06,1.497445890778848e-06,-7.276238808566865e-07,-7.116830017882416e-09
6.500538064824183e-07,6.367600042317399e-07,1.8193774549929868e-07,1.1177653071710763e-06,8.319818502030535e-07,1.2311548518543e-07,9.787751650654816e-07,5.3414168476832623e-08,-3.7918904536421196e-07,-2.604850449223409e-07,1.7649753991028368e-06,-6.141579337984829e-08,9.056969979875148e-07,-1.408460111502989e-06,9.90739419674646e-07,1.3977153692701077e-06,-6.849073962881035e-07,4.26586629160223e-08
6.356645141847466e-07,6.263506106153248e-07,1.110045616502281e-07,1.0837051117205223e-06,7.963972614109455e-07,-2.944287363902492e-08,9.38481446167598e-07,1.9156431036975044e-08,-3.7415765033221094e-07,-3.852239049497879e-07,1.7417833044534036e-06,-8.702646874996049e-08,8.477613959903534e-07,-1.4623165943410426e-06,9.44121643653374e-07,1.2783297091416817e-06,-6.444580593624958e-07,1.0165407224836638e-07
6.182920264867416e-07,6.144867150163844e-07,3.989117370389522e-08,1.0393660532589667e-06,7.477060759435982e-07,-1.6713950895031862e-07,8.239219485639049e-07,-6.532004376796422e-09,-3.918688772445461e-07,-4.970395083206756e-07,1.7456640658158597e-06,-1.0698439153834599e-07,8.029713904893544e-07,-1.5312318068547202e-06,8.712208069660308e-07,1.1936210435105816e-06,-6.001037508481282e-07,1.4737521930368435e-07
5.94131222730311e-07,5.863088978270554e-07,-2.5704348984519386e-08,9.750360238080109e-07,6.983575145578014e-07,-2.801389778738076e-07,6.601431409891343e-07,-2.437825734265814e-08,-4.406355126192057e-07,-5.735489804687734e-07,1.729645058987081e-06,-1.114573222576852e-07,7.858779426270646e-07,-1.610988577602672e-06,8.308166128108226e-07,9.84188032082327e-07,-5.478121525976288e-07,2.0296205951481992e-07
5.604907269312637e-07,5.167316872667006e-07,-7.662002843717001e-08,8.947011512442116e-07,6.579233329192691e-07,-3.646590688561159e-07,5.329634370422186e-07,-3.571059521545717e-08,-4.794922984520893e-07,-6.119470537461433e-07,1.6488390348291656e-06,-8.988007794822154e-08,7.319154923078533e-07,-1.6869848600402273e-06,7.854423088256482e-07,6.713168094856561e-07,-4.93476884943199e-07,2.535371591536707e-07
5.175986730004649e-07,4.5408625535774334e-07,-9.644274646305718e-08,8.052068625479176e-07,6.312151794852225e-07,-4.214973491383771e-07,4.112514498445806e-07,-4.1621480347239866e-08,-4.822258121187764e-07,-6.26102106722083e-07,1.5396298064643237e-06,-3.454142257135227e-08,5.935388321087212e-07,-1.7373134859001038e-06,7.536369875606125e-07,4.6181593640101247e-07,-4.4548617482857773e-07,2.9556309569085356e-07
4.6939003753162956e-07,4.0304439731873617e-07,-1.1821249108240051e-07,7.395679226619432e-07,6.233142458343745e-07,-4.554537784293082e-07,2.903789479663985e-07,-4.2702354573656645e-08,-4.982846428242094e-07,-6.213614428650962e-07,1.4327072653706134e-06,5.131210733619587e-08,4.65739803639009e-07,-1.7618724240745124e-06,7.430725528178919e-07,3.0444090273119244e-07,-3.8887684628255385e-07,3.480692896884853e-07
4.2123937894072834e-07,3.473433272656223e-07,-1.0787372160465e-07,6.938365803440525e-07,6.258669558144905e-07,-4.7674164855589064e-07,2.152392330370353e-07,-3.951659736572101e-08,-5.151751590124149e-07,-6.077334902549768e-07,1.3296444539142452e-06,1.4972506288577866e-07,3.56017139064313e-07,-1.7593959863805123e-06,6.608625045738493e-07,1.9816260985462115e-07,-3.284726603610528e-07,3.9880896747524967e-07
3.774318920521442e-07,3.1448791934006507e-07,-9.752953496119706e-08,6.540942145408848e-07,6.317637889416988e-07,-4.976697166691894e-07,1.648866982338331e-07,-3.297571362929979e-08,-5.373342035223546e-07,-5.90038203752132e-07,1.2198369005191412e-06,2.3190892169917638e-07,3.6322913020336274e-07,-1.7420212083798844e-06,5.866181234829903e-07,1.0007089885075375e-07,-2.648871556374575e-07,4.4344709416074786e-07
3.381440100407672e-07,2.8975927151579894e-07,-9.286344657409787e-08,6.048427669354667e-07,6.329512748135907e-07,-5.26252677503633e-07,1.3304817568871038e-07,-2.395066202457079e-08,-5.504478879130575e-07,-5.7223123072817e-07,1.1204027783788059e-06,2.7048646520232104e-07,3.956470869412858e-07,-1.7294017867202065e-06,5.416891536798729e-07,7.223850656849108e-08,-2.004053348419481e-07,4.711463910768469e-07
3.077892831638785e-07,2.6254494225925937e-07,-9.973195228415874e-08,5.532605374320817e-07,6.255992861409352e-07,-5.649787455854418e-07,1.1565151509842996e-07,-1.2999982612247364e-08,-5.880229315659194e-07,-5.578833210671446e-07,1.0284581972874443e-06,2.478469541070415e-07,4.257721693577388e-07,-1.733272040586147e-06,5.409701060070717e-07,5.7041203548077866e-08,-1.5478034644769752e-07,4.955144315356614e-07
2.839809170653635e-07,2.2423578737649393e-07,-1.1794959015559028e-07,5.145351661907887e-07,6.092658182494194e-07,-6.094803803733495e-07,9.811109590090567e-08,-2.536521209132859e-09,-6.122157354731348e-07,-5.480821902366017e-07,9.519533467661947e-07,1.6525065163876624e-07,4.931450296140807e-07,-1.7578250227797047e-06,5.433443750277948e-07,5.2297873976092736e-08,-1.1747282652454589e-07,5.030604135252623e-07
2.628914716523374e-07,1.7958644130395382e-07,-1.4292748809282392e-07,4.889805346609978e-07,5.87243732109218e-07,-6.457373610965464e-07,8.431249465558705e-08,4.2343386919744e-09,-6.356094942576708e-07,-5.540685983279231e-07,9.003117102665098e-07,4.72617258547163e-08,5.12703975160604e-07,-1.8027497841912421e-06,5.353498871341908e-07,1.5307761798082464e-08,-9.023756078209933e-08,5.104048944841005e-07
2.4529517990815314e-07,1.3682255380631536e-07,-1.6902200560064761e-07,5.00252393190655e-07,5.655453910784375e-07,-6.662448526619181e-07,7.808068323948902e-08,2.013064582421575e-09,-6.615822282435551e-07,-5.715619079213205e-07,8.599107702041975e-07,-7.337671152107637e-08,4.904983837974728e-07,-1.8630761146516463e-06,5.117837228686505e-07,-6.938798774384577e-08,-5.999149162920403e-08,5.25879440925141e-07
2.2272888847067077e-07,1.0281660069357966e-07,-1.9210604792802846e-07,5.341360551685206e-07,5.471870470615555e-07,-6.6970181627022e-07,7.862688564435309e-08,-1.401132708250911e-08,-6.548763094075836e-07,-5.887526169615941e-07,8.395083145636804e-07,-1.6702646512580178e-07,4.585377780997233e-07,-1.926230783295522e-06,4.6774183408998477e-07,-6.992765279622081e-08,-3.649650865094998e-08,5.390871282154544e-07
1.944075902506112e-07,8.166146494288428e-08,-2.099662420745365e-07,5.330850443339497e-07,5.33180263058292e-07,-6.593198093541347e-07,8.482779083510397e-08,-4.7405902762209635e-08,-6.494861500149387e-07,-6.080288433055597e-07,8.393445094683151e-07,-2.1580103195492837e-07,4.217756868298528e-07,-1.991669641288912e-06,4.0811364130032304e-07,-3.76656529138649e-08,-2.322526200632606e-08,5.427555757993465e-07
1.6876581666158653e-07,7.479486741986637e-08,-2.2092489430684437e-07,4.983167552218809e-07,5.261468731989417e-07,-6.43291128005992e-07,9.53663239519615e-08,-9.751587784313035e-08,-6.412424117420266e-07,-6.245944682856185e-07,8.510497134804722e-07,-2.1919743950969845e-07,3.6563638896167897e-07,-2.050256014589993e-06,3.4903814158653997e-07,1.3278335956155797e-08,-1.1208683337191104e-08,5.29174601784199e-07
1.416404744676425e-07,7.876221914483713e-08,-2.2256905748618826e-07,5.0248449205636e-07,5.25849031015438e-07,-6.256200592493191e-07,1.0876937439721961e-07,-1.5962521763758501e-07,-6.304780293077874e-07,-6.271790976484733e-07,8.709488095256298e-07,-1.9021131049085098e-07,3.176683314645517e-07,-2.09449527821738e-06,3.0921075985157675e-07,8.256038634766143e-08,1.5264238103972196e-09,5.097702786731764e-07
1.1390644866491548e-07,9.158622595865321e-08,-2.118791953081363e-07,5.311314860300747e-07,5.333229591503899e-07,-6.065108725195415e-07,1.2182481559293237e-07,-2.236120371982145e-07,-6.124955390399993e-07,-5.903587935763006e-07,8.877003532692844e-07,-1.484857349156358e-07,2.86511954626872e-07,-2.1183672455964027e-06,3.191931081585411e-07,1.206895254080888e-07,1.9244103443454954e-08,4.915301319807684e-07
8.834381142246582e-08,1.1512918192541091e-07,-1.868054134019518e-07,5.597481064899488e-07,5.448928781815386e-07,-5.828348604173854e-07,1.2617280127591176e-07,-2.697817139619137e-07,-5.878921047847589e-07,-5.063110896738369e-07,8.901312196997924e-07,-1.1254256750822043e-07,2.5221485097565683e-07,-2.11827644421641e-06,3.7313483909076046e-07,1.3230579571301427e-07,4.678798534180835e-08,4.871239602400256e-07
7.24758409550919e-08,1.3892825614128807e-07,-1.478712029149456e-07,5.735934477663625e-07,5.562865468509574e-07,-5.530538918059105e-07,1.154547355544271e-07,-2.9360578625477566e-07,-5.800172920528743e-07,-4.4403309658937844e-07,8.724224765813591e-07,-9.573032341864866e-08,2.2333597762431554e-07,-2.093202384498649e-06,3.675782163207169e-07,1.5714114885276071e-07,8.974115397316569e-08,4.837449240521882e-07
6.874539777645513e-08,1.571378498768451e-07,-9.873474065783408e-08,5.732860622808996e-07,5.627959804416937e-07,-5.167247878550724e-07,8.675169918935919e-08,-2.846108682185841e-07,-5.950858008267824e-07,-3.946519957733588e-07,8.374548609283995e-07,-1.0373284966544888e-07,2.2325954081402717e-07,-2.0334838032257604e-06,4.017217369389846e-07,1.8474958016603177e-07,1.395914917053576e-07,4.77248779512595e-07
8.736322473889722e-08,1.6404832599294443e-07,-4.537467881504577e-08,5.614346671999458e-07,5.610389015950435e-07,-4.775424692046992e-07,4.389258813923596e-08,-2.656848103551677e-07,-6.458669575742571e-07,-4.0402485209562315e-07,7.872924359802087e-07,-1.3481480803227672e-07,2.3038837150462e-07,-1.944832426455634e-06,4.6562291995149197e-07,1.7039818902469354e-07,1.8014637381128758e-07,4.699752229757831e-07
1.365897929678214e-07,1.5809624068058196e-07,5.528549061586973e-09,5.596175572969421e-07,5.508178822857e-07,-4.4333195939305156e-07,-1.6870962891930207e-09,-2.742217303518356e-07,-7.172425583171419e-07,-4.225262194245005e-07,7.253215164144535e-07,-1.8314612258435237e-07,2.265452102057665e-07,-1.8379714009013344e-06,5.185780069508618e-07,1.4791999734451996e-07,2.023832088672357e-07,4.5048613980028936e-07
1.5774005729173242e-07,1.4327489477750568e-07,4.822579448595288e-08,5.503430032774625e-07,5.334970311257925e-07,-4.192897510125831e-07,-3.892948129692405e-08,-2.7792481616376656e-07,-7.837682055273036e-07,-4.568269721035645e-07,6.614026202200936e-07,-2.4095971734738895e-07,2.27101929079773e-07,-1.7050411491795846e-06,5.447611392477516e-07,1.2911867016408714e-07,2.0977966700622214e-07,4.3018041534345e-07
1.6554193196918272e-07,1.2204569323015003e-07,7.916149612980502e-08,5.005317706179714e-07,5.122255388223162e-07,-4.070085669770279e-07,-6.177041413927646e-08,-2.6394367378002364e-07,-8.228580145405982e-07,-4.297659026017165e-07,5.979303410152488e-07,-3.0033291248914783e-07,2.2117627918421127e-07,-1.5614895362643051e-06,5.530827541356894e-07,1.2343466051276252e-07,2.1249053956013242e-07,4.0403211494208586e-07
1.6407697445716402e-07,9.875648581525992e-08,9.773483348657815e-08,4.398784010341268e-07,4.91957845865818e-07,-4.022373052456706e-07,-7.134723710515572e-08,-2.3670393386448913e-07,-8.557241192088559e-07,-3.88191503722347e-07,5.38978255450828e-07,-3.512494935225935e-07,2.1113993826650622e-07,-1.4217349170673292e-06,5.343459071805683e-07,1.4814240367225245e-07,2.2983865883496183e-07,3.711317853878847e-07
1.6889827950447227e-07,7.498235000287176e-08,1.066918852029332e-07,3.8520603992450123e-07,4.795791724406997e-07,-3.9598015531792964e-07,-7.174956297594211e-08,-1.9301814604054632e-07,-8.502454403577346e-07,-3.6626997830659356e-07,4.946558675745056e-07,-3.814089756318001e-07,2.0606861062361253e-07,-1.3032315612398597e-06,4.891060935606193e-07,1.987751991144613e-07,2.0904432012634558e-07,3.314574375869859e-07
1.8650011353737853e-07,5.358016675470096e-08,1.1154050623946658e-07,3.4713698149874055e-07,4.790630867623975e-07,-3.7982662687046444e-07,-6.604806434562621e-08,-1.416069941287458e-07,-8.226893303062869e-07,-3.26829904992457e-07,4.7354226698613143e-07,-3.82996207919462e-07,2.2402336684063695e-07,-1.218526111287621e-06,4.20345240425442e-07,2.598705594836309e-07,1.7524667843247915e-07,2.8875344168864306e-07
1.9364377209766327e-07,4.1285564393151795e-08,1.1868274732201677e-07,3.420564087988832e-07,4.92553820046842e-07,-3.478281658440314e-07,-5.292206027786038e-08,-8.940305428900539e-08,-7.762515739150906e-07,-3.123637525275335e-07,4.837641777593037e-07,-3.586414798673618e-07,2.388060119168889e-07,-1.170738965610221e-06,3.738438681919033e-07,3.273141460077384e-07,1.4760218495596173e-07,2.4553132899793923e-07
2.0216270691140737e-07,3.894456088317206e-08,1.3267955519687644e-07,3.4113270122874775e-07,5.197246397354791e-07,-3.003815756044614e-07,-2.7453956296585597e-08,-5.3013688433006876e-08,-7.21017551639807e-07,-3.036049661063302e-07,5.242379611553591e-07,-3.1471972387681717e-07,2.8169161230326035e-07,-1.1546884498944459e-06,3.523921352161655e-07,3.9604330442546514e-07,1.1531140137811026e-07,2.0129684295772958e-07
2.1733668059533138e-07,4.4382561984656164e-08,1.5434344228042348e-07,3.4081512631152866e-07,5.529588495835406e-07,-2.4413095914838084e-07,1.3808438113948604e-08,-3.122534554579379e-08,-6.530460219145918e-07,-2.8060967401014635e-07,5.860829035130969e-07,-2.5817178374897443e-07,3.413681527715443e-07,-1.1549139403618054e-06,3.533995501007672e-07,4.6338392795021195e-07,8.940382424182642e-08,1.6470294378549258e-07
2.4186809450475943e-07,5.282331765211577e-08,1.8090175929589864e-07,3.735136333775446e-07,5.915934499647682e-07,-1.91525517008394e-07,6.890028009904968e-08,-1.7995837915361483e-08,-5.788652077554255e-07,-2.508695057202515e-07,6.546304010367889e-07,-2.0792337058179434e-07,4.0080798850487e-07,-1.1631911497305641e-06,3.7873990910851265e-07,5.097040140987053e-07,7.017231870234595e-08,1.3454731163075307e-07
2.8558613867062613e-07,5.866282009554535e-08,2.082086508713718e-07,4.092345494472654e-07,6.317300934171352e-07,-1.5476628918232843e-07,1.289977255722233e-07,-1.2252821138947056e-08,-4.953998851658161e-07,-2.233831400490055e-07,7.164073897409129e-07,-1.7301647440655095e-07,4.6045662669099447e-07,-1.1715629931060916e-06,4.1646795750034826e-07,5.405570752185975e-07,5.3512689980213547e-08,1.099922929752659e-07
3.38397658116291e-07,5.805971868578452e-08,2.3312086513934703e-07,4.3117292446765725e-07,6.694864940433577e-07,-1.3942610041813555e-07,1.814953742732728e-07,-7.618888711293271e-09,-4.1077861141278946e-07,-1.9482298011670394e-07,7.612993576008815e-07,-1.5470452921225502e-07,5.077287874349384e-07,-1.176061139336769e-06,4.611239585139427e-07,5.598024521300764e-07,4.1870965267655844e-08,9.214910581980494e-08
3.988541185327151e-07,4.876289245371021e-08,2.545008462501297e-07,4.3975875190595524e-07,7.048920125058422e-07,-1.474904656514793e-07,2.1506772033836642e-07,-2.5957547664670245e-09,-3.3728705126259405e-07,-1.6397762723437135e-07,7.874237207064883e-07,-1.553461250120509e-07,5.561436044873681e-07,-1.1734287435427809e-06,5.123071012109938e-07,5.673099250684559e-07,3.1332127940304605e-08,8.023912931930114e-08
4.606181087360486e-07,3.485409679559005e-08,2.7289539194865734e-07,4.399982740015457e-07,7.367499212789053e-07,-1.72835718423454e-07,2.2169062190897024e-07,4.505608908539856e-09,-2.8572134981639525e-07,-1.249640633179003e-07,7.996399547759451e-07,-1.759617200446047e-07,6.033235297436082e-07,-1.1632053759801845e-06,5.688691141735557e-07,5.744306848134233e-07,1.948636197365956e-08,7.486463862404402e-08
4.988060295827392e-07,2.0414961823397875e-08,2.8983353386178906e-07,4.3432622006400864e-07,7.645909221596674e-07,-2.0373021644338747e-07,1.9975597903183286e-07,1.636702826572056e-08,-2.6271779836864067e-07,-7.61530551672515e-08,8.015986341075437e-07,-2.1993179622794264e-07,6.581745017682442e-07,-1.152779159053497e-06,6.235223595825639e-07,5.884507711808422e-07,7.851932518786532e-09,7.55429513210246e-08
5.109301707017148e-07,8.317052449997434e-09,3.0743185176969046e-07,4.2671838974585754e-07,7.878863705055907e-07,-2.320484385290774e-07,1.5785104266517926e-07,3.4423200665340913e-08,-2.6523781417477775e-07,-2.699615155024989e-08,8.011617133405382e-07,-2.935605515504243e-07,7.089473091998264e-07,-1.1432964035997632e-06,6.644798023764084e-07,6.150840200530714e-07,-4.227189419037469e-09,7.665287875894565e-08
5.31449658566194e-07,5.942191997999437e-09,3.2812171779771613e-07,4.221281166403132e-07,8.085296279047406e-07,-2.5048498577616465e-07,1.1252576494187171e-07,5.9068449446670964e-08,-2.8844963108804114e-07,2.49920731360622e-08,8.027449778483306e-07,-3.894202729265093e-07,7.529837686898702e-07,-1.1270659402830626e-06,6.856115254483033e-07,6.598621367357674e-07,-1.7333788131465112e-08,7.722764138441783e-08
5.602012946963054e-07,1.2996704366205674e-08,3.53350757547191e-07,4.2825405600757293e-07,8.263278281614712e-07,-2.5231160561608424e-07,7.983780626555437e-08,8.926822848640767e-08,-3.216110051415211e-07,7.208904927868866e-08,8.087822245211746e-07,-4.864651223915662e-07,7.817173423752687e-07,-1.1129036322524518e-06,6.922499390907127e-07,7.092787607033471e-07,-3.010327853848618e-08,7.834606880409488e-08
5.694175006365488e-07,2.891234202219013e-08,3.8414658866613315e-07,4.4468676902549206e-07,8.405029717532035e-07,-2.3375629475264817e-07,7.137889361867824e-08,1.2104930334486534e-07,-3.526145347448115e-07,1.1694909030253304e-07,8.323340839809443e-07,-5.636859274437554e-07,8.044303936855669e-07,-1.1009171804183826e-06,6.930973485178475e-07,7.65348518010653e-07,-4.0282515271686246e-08,8.130698371930032e-08
5.73634356865571e-07,5.204243749678602e-08,4.197965214004191e-07,4.710795377729039e-07,8.528350538834857e-07,-1.8935572987726558e-07,8.53731453000145e-08,1.489162562248855e-07,-3.7214380323794794e-07,1.5963194738935603e-07,8.654854769312428e-07,-6.070505096231992e-07,8.22486790993369e-07,-1.0846149540932456e-06,6.925104292543045e-07,8.20212850558688e-07,-4.424872186460407e-08,8.098281118159635e-08
5.547529803275766e-07,7.790397632212562e-08,4.5760284645209645e-07,5.068360185693358e-07,8.641507500740529e-07,-1.1680612254851039e-07,1.1377880818635741e-07,1.6647806792821107e-07,-3.7249161659418224e-07,1.9582192418024512e-07,9.049752881774691e-07,-6.147243468179202e-07,8.452185922741467e-07,-1.0709539659851978e-06,6.89943941152942e-07,8.638724655651591e-07,-4.298090488271212e-08,7.463326035178146e-08
5.327230888161658e-07,1.025149297460073e-07,4.941843994927406e-07,5.476713725283105e-07,8.758582943685941e-07,-3.232326374729047e-08,1.4697803157930647e-07,1.690791984274658e-07,-3.6429116369555643e-07,2.112187905895278e-07,9.481388989275918e-07,-5.975645330751881e-07,8.75160031647637e-07,-1.0677499895490492e-06,6.855964320478953e-07,9.059113330953061e-07,-4.1412535131339005e-08,6.051865383679184e-08
5.18800598352305e-07,1.216687907354655e-07,5.270483457320837e-07,5.917251945394714e-07,8.901126322139332e-07,5.56192205666788e-08,1.7441867771676382e-07,1.5717979467338434e-07,-3.545582215792777e-07,2.081833980098315e-07,9.88447800888056e-07,-5.688437802502031e-07,9.116257425526769e-07,-1.0757576744164187e-06,6.735568161343357e-07,9.264178867081976e-07,-4.023344479068512e-08,4.024387798737416e-08
4.928811842274708e-07,1.3441639622612782e-07,5.538238915855078e-07,6.373664081448751e-07,9.067315132089933e-07,1.3480880839327638e-07,1.9038865517524134e-07,1.365203281670326e-07,-3.450033969126627e-07,2.0646685175507342e-07,1.0217700474483006e-06,-5.454447874673954e-07,9.288548727730731e-07,-1.0939534647711674e-06,6.489739501393191e-07,9.295436789522846e-07,-4.143238311523998e-08,2.0755359405646654e-08
4.752776333418387e-07,1.4396826190779631e-07,5.730276466006821e-07,6.77876711614237e-07,9.152925641175277e-07,1.9300757749489875e-07,1.9497989051528885e-07,1.1637723227406884e-07,-3.444103225522344e-07,2.0678604470597016e-07,1.0438693053728861e-06,-5.429652503694172e-07,9.2977504609973e-07,-1.1165315885833516e-06,6.161018055658859e-07,9.239490295186127e-07,-4.566934030011955e-08,5.1004309221581364e-09
4.7048757763715827e-07,1.5009918105231193e-07,5.829830360907343e-07,6.988676628444899e-07,9.075880121561769e-07,2.203487932531928e-07,1.9007713721340115e-07,1.0429993127787325e-07,-3.539828094122096e-07,2.103468988306258e-07,1.0490178542551566e-06,-5.665935592550338e-07,9.1187006142574e-07,-1.1278512912238766e-06,5.808258967275143e-07,9.17921962608868e-07,-5.3378634505125015e-08,-3.7104991594169294e-09
4.754948824139112e-07,1.544518421586818e-07,5.795431732193575e-07,7.024358005771004e-07,8.711206725226763e-07,2.0497806025354823e-07,1.7631109290701705e-07,1.0411632683726133e-07,-3.714085871426756e-07,2.2065313712041654e-07,1.0445603536207659e-06,-6.149528421332553e-07,8.58057913627925e-07,-1.1229621879078927e-06,5.48438819788168e-07,9.035026497268892e-07,-6.537391507018274e-08,-5.464283348785956e-09
4.7671064085342114e-07,1.4807358605577422e-07,5.60128256285489e-07,6.714909411543892e-07,8.171200923469021e-07,1.4568052673395783e-07,1.526027393504821e-07,1.15443739323639e-07,-3.87654281103162e-07,2.3041215388769957e-07,1.0072323362842516e-06,-6.80451598773577e-07,7.72904676928431e-07,-1.106116937820277e-06,5.272065483969478e-07,8.767497830846299e-07,-8.275307764850337e-08,3.565307740609128e-09
4.816097703509892e-07,1.087297196416393e-07,5.236432281011265e-07,6.545922018692274e-07,7.67920770896998e-07,4.92203320170801e-08,1.2119023330011882e-07,1.333879623522535e-07,-3.9217052142825005e-07,2.432166345621527e-07,9.287352524319136e-07,-7.575749514092622e-07,6.489302002830119e-07,-1.0802564828868492e-06,5.17738380522997e-07,8.331079364940084e-07,-1.0471218353240364e-07,2.114113248816639e-08
4.813801206000755e-07,4.0045470100593656e-08,4.7423560718082527e-07,6.652195201906974e-07,7.556334964721743e-07,-6.00290485716786e-08,7.937441010461284e-08,1.5207614787666435e-07,-3.781678450493211e-07,2.621223428223233e-07,8.456716035824679e-07,-8.418455238889992e-07,5.296884358532796e-07,-1.0550150795879826e-06,5.184348486527646e-07,7.725164544797197e-07,-1.2670996555762877e-07,4.2239570348948684e-08
4.699490613211828e-07,-1.4392394050246961e-08,4.2051572134422365e-07,6.124513618578594e-07,6.904319331832546e-07,-1.604427657488315e-07,2.928802952792365e-08,1.6766561889005931e-07,-3.412187134001536e-07,2.842949928975264e-07,7.841612264016706e-07,-9.31034959385934e-07,4.518482921146832e-07,-1.047802411070881e-06,5.277506531704897e-07,7.239810140142617e-07,-1.3947907626268166e-07,6.170043985723555e-08
4.530092135249138e-07,-5.865155398023728e-08,3.745497940722115e-07,5.476459901119623e-07,6.355573036159842e-07,-2.275611151717935e-07,-2.7102269503422303e-08,1.7600343835717618e-07,-2.884470318807191e-07,3.0564915346661e-07,7.703850494071694e-07,-1.0211254139515363e-06,4.0880593706580456e-07,-1.0342286310628079e-06,5.537319427230486e-07,6.964219954192549e-07,-1.3887306395799148e-07,7.450981496302586e-08
4.2452723269437434e-07,-7.772110239542247e-08,3.459636166965917e-07,5.396408208283041e-07,6.061075999670179e-07,-2.2723040794640352e-07,-8.027028093149044e-08,1.751003006261366e-07,-2.3546700954495213e-07,3.065927059573111e-07,7.909489684914682e-07,-1.105953450106188e-06,4.0655085177857803e-07,-1.0068056418508567e-06,5.919078363990898e-07,6.908637544491573e-07,-1.2567067601110365e-07,8.770621862919098e-08
3.955272752823583e-07,-8.38118741990001e-08,3.43404150444793e-07,5.321331587985206e-07,5.77744797036223e-07,-1.6365199383866536e-07,-1.1889669905203281e-07,1.649493394931208e-07,-2.0025582251906397e-07,3.00612166762427e-07,8.188365128324724e-07,-1.1785011908617301e-06,4.4182237333941844e-07,-9.62678288073105e-07,6.283515423688883e-07,7.255596097659634e-07,-1.0166868734941018e-07,9.774935307071605e-08
3.7222301484425606e-07,-9.31921161443062e-08,3.6165678759140535e-07,5.151856983061465e-07,5.554351539699205e-07,-4.8231439319188095e-08,-1.4722366485502258e-07,1.5113079986394564e-07,-1.9279255700496619e-07,2.9854776655556624e-07,8.513187134339534e-07,-1.2298809223060996e-06,4.85403932219579e-07,-8.726834511178743e-07,6.45222742185638e-07,7.679453198025218e-07,-7.37395580915692e-08,1.231941084088276e-07
3.5746482570273496e-07,-8.716774228389788e-08,3.8958721427453634e-07,5.033704190050702e-07,5.66054093910147e-07,7.67697616795789e-08,-1.6764871372099943e-07,1.3201962986899113e-07,-2.223313406743426e-07,3.0085583137429425e-07,9.488799885877661e-07,-1.2530598853389915e-06,5.39923201114059e-07,-7.810000911070643e-07,6.302252477103359e-07,8.094693280096586e-07,-5.076758878393144e-08,1.705111105587794e-07
3.5023397566904406e-07,-7.32007077028733e-08,4.1285687287588674e-07,5.195570031954156e-07,5.916120627477404e-07,1.6441863690986314e-07,-1.796202696984342e-07,1.0722397473448455e-07,-2.6867516374680277e-07,3.0629837395924354e-07,1.053984574309793e-06,-1.2446311083367501e-06,6.02772459035584e-07,-7.008729475530899e-07,6.019932100497625e-07,8.845025538612133e-07,-2.211373915197808e-08,2.1577701396024113e-07
3.4587089406604827e-07,-6.159916374052544e-08,4.1937835350560106e-07,5.61800342456466e-07,5.996389705167913e-07,2.017559787745458e-07,-1.98980183976234e-07,7.663216643155981e-08,-3.1597886794813233e-07,3.146904057162753e-07,1.1359366375733727e-06,-1.2056830203135182e-06,6.24336973282169e-07,-6.043972993102342e-07,5.765860229190446e-07,9.445618495162714e-07,1.360937392994342e-08,2.4345972439167845e-07
3.4010271891433416e-07,-5.583464178046012e-08,4.0766785788097494e-07,6.103880497561228e-07,5.889693956136152e-07,1.8915115977648415e-07,-2.2936477643191552e-07,4.075438324236411e-08,-3.6587843886613205e-07,3.382745885530818e-07,1.1822556315601884e-06,-1.144882064338435e-06,6.490604294324326e-07,-5.113402542848152e-07,6.094512241291882e-07,9.882361002345534e-07,5.02481133425325e-08,2.605446770859811e-07
3.3252201918310743e-07,-5.081249952485886e-08,3.875469540876498e-07,6.574571521137318e-07,5.623588543850907e-07,1.4885833630749294e-07,-2.473192500348827e-07,1.8393954038446658e-08,-4.104826536285209e-07,3.655644420272656e-07,1.2206753698587226e-06,-1.0850570569303072e-06,7.198071021345099e-07,-4.300044203529082e-07,6.657583937541329e-07,1.0752223729424946e-06,1.0994097165144411e-07,2.605443007448284e-07
3.3275568229388563e-07,-4.5326085265783516e-08,3.8562410004788804e-07,7.129752713303392e-07,5.154787084913646e-07,1.7774859227431902e-07,-2.5168059594596277e-07,1.2991525674068143e-08,-4.30850173179116e-07,3.850181281685503e-07,1.2582178300855782e-06,-1.0542009740051495e-06,7.789456980320826e-07,-2.3120572294285737e-07,7.3657269552192e-07,1.1074359549580112e-06,1.7607418048891786e-07,2.599032670356525e-07
3.3620277715888344e-07,-3.4069572142307804e-08,4.238802542031039e-07,7.748674271656757e-07,4.926226767034298e-07,2.716516552528072e-07,-2.2556563479633452e-07,5.35943506076113e-08,-4.2386830669801475e-07,4.422529280181561e-07,1.3262196710199984e-06,-1.0750085398269716e-06,7.797284926660056e-07,-7.152206899177879e-08,7.863531869907967e-07,1.155660399523418e-06,2.3078152479059e-07,2.911267344090982e-07
3.6800251473954423e-07,-8.749077565679846e-09,4.680390604893998e-07,8.252618045338317e-07,5.084074507127799e-07,3.44524120492436e-07,-1.5273852525191996e-07,1.2542072781829207e-07,-3.8178440347759503e-07,5.456693445264904e-07,1.3937187587371225e-06,-1.0760669821673435e-06,7.998833572498311e-07,5.3807744679293794e-08,8.359238968597613e-07,1.2056698847233653e-06,2.714259618874903e-07,3.078211529031547e-07
3.913392631720409e-07,3.382685263753729e-08,4.979120804255771e-07,8.822624375821704e-07,5.241903329331041e-07,3.9739933643688284e-07,-3.192456665609543e-08,1.6368316235603704e-07,-2.7094046942342025e-07,5.862844886160149e-07,1.4479690963992791e-06,-1.0961394628375934e-06,8.088759537144879e-07,2.0059472133266218e-07,8.846477395758186e-07,1.2570292644377585e-06,3.097320108994874e-07,3.266574571489481e-07
3.9704118804413733e-07,8.54298128694753e-08,5.281279424872352e-07,9.371773504588453e-07,5.553604815045477e-07,4.6780004640694237e-07,9.815362555166738e-08,1.8047399326772309e-07,-2.3189695537899187e-07,6.075715197691464e-07,1.482522895495953e-06,-1.0713752027087587e-06,8.327604043689995e-07,3.391393156813484e-07,9.104929686008592e-07,1.3467269355900683e-06,3.474023248721124e-07,3.4424498986327127e-07
4.019904153397316e-07,1.3482131651393332e-07,5.535415830623925e-07,9.3863411857843e-07,5.748980698014928e-07,4.771703027007715e-07,2.2798458019487684e-07,2.030841967827636e-07,-2.4230935022233887e-07,6.327530566219643e-07,1.4961108713663605e-06,-1.039042076296115e-06,9.077637482360313e-07,4.395014480294697e-07,9.480625546278247e-07,1.3685600438646334e-06,3.8293059782729644e-07,3.666825955067486e-07
3.914765498227546e-07,1.4816326531011955e-07,5.980198264706796e-07,9.555781324582701e-07,6.354198304313838e-07,5.302209184457168e-07,3.659841106913353e-07,2.1116089460726524e-07,-2.3250619702896316e-07,6.46828379558368e-07,1.4937174929151656e-06,-1.0924825872696476e-06,9.990251665586706e-07,5.115918610945296e-07,9.867837443553895e-07,1.419919822220821e-06,4.281696676762702e-07,3.816464063921797e-07
3.905401145629474e-07,1.5696202123499041e-07,6.816455053184157e-07,9.82143228290995e-07,6.713608780663728e-07,5.679457562629763e-07,4.863518743205521e-07,2.2893989365257718e-07,-2.0843495180793987e-07,6.563730195460587e-07,1.5537458785074316e-06,-1.034082193927343e-06,1.0444223659551785e-06,6.1590667269406e-07,1.0074706113977966e-06,1.4761763447248382e-06,4.870450414815548e-07,3.991877271815852e-07
3.8531719768235366e-07,1.5390557151457985e-07,7.206606820609983e-07,9.933059900852878e-07,6.568786297267055e-07,6.409306978032798e-07,6.14492873515958e-07,2.6449082574244633e-07,-1.6017465636291054e-07,6.907335143394589e-07,1.6109796843093344e-06,-9.523635393267861e-07,1.1802835609142937e-06,6.979223792915006e-07,1.0183730674398455e-06,1.5842616206856549e-06,5.383591996986481e-07,4.1484437785986176e-07
3.8272473827307734e-07,1.3422893065841953e-07,7.496060167715799e-07,9.836152137802575e-07,6.373988569256458e-07,7.25456819698107e-07,7.499304765705057e-07,2.7471134507461795e-07,-1.1775312409517454e-07,7.093293513176782e-07,1.639122231767221e-06,-8.73012635352321e-07,1.3177784588782782e-06,8.472753198458146e-07,1.0359766112697259e-06,1.6530570899062647e-06,5.732412889743988e-07,4.2226315943739193e-07
3.7085313794059373e-07,1.2079826580026463e-07,7.785186168516773e-07,9.981997963274688e-07,6.394847472283138e-07,7.521429892944945e-07,8.999972792374736e-07,2.685741300607205e-07,-1.1169090704465724e-07,7.198436343989295e-07,1.6453675063561602e-06,-8.311424809241247e-07,1.45284356649821e-06,9.63129704816635e-07,1.0824486781739113e-06,1.6506114263640214e-06,6.190477380099121e-07,4.6656516733263595e-07
3.466247460820572e-07,1.5264961995125424e-07,7.935107059998278e-07,1.0168590633856274e-06,6.365679365951963e-07,7.922444191697633e-07,1.0542604125603127e-06,2.7807845666142635e-07,-1.1023592730321869e-07,7.479786640476377e-07,1.6997175713354614e-06,-7.68311168961967e-07,1.5562446056406124e-06,1.0432005185798508e-06,1.1598777075059445e-06,1.6889284994134327e-06,6.838322874414975e-07,5.457063268085334e-07
3.1946987288694853e-07,2.127579955938569e-07,8.005972994506368e-07,1.030729700767385e-06,5.931464374203026e-07,8.608685007384134e-07,1.192291325493565e-06,2.7779931986326853e-07,-1.303719710338498e-07,7.568852015491998e-07,1.7404665827327312e-06,-7.030795055545831e-07,1.5568333514048799e-06,1.1030691000108558e-06,1.2192360577988746e-06,1.697920251649543e-06,7.503754115462738e-07,6.40713798136901e-07
2.9588385824256106e-07,2.7146275605903445e-07,7.968047052287685e-07,1.0562867158773802e-06,5.548090448262779e-07,9.28297209755982e-07,1.3041481627610531e-06,2.697695182937625e-07,-1.3791549326772098e-07,7.759103597349004e-07,1.7999376421983407e-06,-6.586753000242107e-07,1.566986052610919e-06,1.1338080600050539e-06,1.2198739745190984e-06,1.673432382613591e-06,7.981482914038397e-07,7.165978007309487e-07
2.8059512682215507e-07,3.1781530656907203e-07,7.771161359005649e-07,1.0832540672742949e-06,5.535485691181982e-07,1.026800385924307e-06,1.3552181042936962e-06,2.6338872908952236e-07,-1.441206118730534e-07,8.216464080674817e-07,1.8664571338296464e-06,-6.039162066503318e-07,1.6042863543481573e-06,1.1872862243607884e-06,1.1190911232372845e-06,1.6537440046018054e-06,8.468936547018333e-07,7.993637154839338e-07
2.5020120751525855e-07,3.457279173488775e-07,7.648692605657625e-07,1.1127312382171055e-06,5.499959668639954e-07,1.1008850974614455e-06,1.4183499349167485e-06,2.4260911015691574e-07,-1.5158319593452518e-07,8.302541583720201e-07,1.908418789628691e-06,-5.721688490192979e-07,1.5946562987531843e-06,1.2328456265585456e-06,1.0621493434394578e-06,1.7092494701468973e-06,8.906453208760158e-07,8.461393899273318e-07
2.2272344702327698e-07,3.893430009947426e-07,7.786634844854767e-07,1.1515745240625026e-06,5.659893081521944e-07,1.1493301196321852e-06,1.4811655253554215e-06,2.3563913896181767e-07,-1.5580426179757546e-07,8.361749072887009e-07,1.960656205717435e-06,-5.111098843689675e-07,1.6249648825016728e-06,1.3398193716745043e-06,1.0984400277969193e-06,1.8221305206496053e-06,9.1966027636771e-07,8.709752801989479e-07
2.0057845164864344e-07,4.61067269411289e-07,7.655198598226378e-07,1.195589996729766e-06,5.730819023839361e-07,1.2005463622712657e-06,1.4796356988555294e-06,2.1166416155725052e-07,-1.625593215459111e-07,8.787077282447473e-07,2.0023133789674704e-06,-4.5609910636745295e-07,1.7102646637512687e-06,1.3972167585314568e-06,1.202232951467593e-06,2.013582397082214e-06,9.338308372575517e-07,9.062169597825819e-07
1.8082773575885608e-07,5.378005402051007e-07,7.643763513495943e-07,1.218589848624576e-06,5.962514082217558e-07,1.2414043736695545e-06,1.5035441211953016e-06,2.0348841117111504e-07,-1.945245695780499e-07,8.96804329260307e-07,2.0683932384194475e-06,-4.2680315202724787e-07,1.8276200780859917e-06,1.4304148304048437e-06,1.346647020995923e-06,2.1278742065936378e-06,9.578485413970939e-07,9.53952229507788e-07
1.8064819696202787e-07,5.788707362797462e-07,7.759447175054235e-07,1.25997394853326e-06,6.374847741997194e-07,1.255801999850361e-06,1.5250166179761973e-06,1.5751351507550968e-07,-2.2236532531740538e-07,9.182895815353007e-07,2.08505374025007e-06,-3.599616636286974e-07,1.9649235828778554e-06,1.4588866995502913e-06,1.4021966257492852e-06,2.1782793305570565e-06,9.95689185929055e-07,1.0088923456392291e-06
1.8508648367255917e-07,6.240592698935656e-07,7.953602783627433e-07,1.3085710964987146e-06,6.8428459009192e-07,1.3111372054257548e-06,1.4994625069878079e-06,7.732252935754608e-08,-2.0699577254747295e-07,9.508151947090326e-07,2.079892630811402e-06,-2.9726354680542944e-07,2.0282233735770076e-06,1.514660193417303e-06,1.3904722732766073e-06,2.2557281898906813e-06,1.0435630287366662e-06,1.0637208714409273e-06
1.7777598987124295e-07,6.569771067011336e-07,8.087811026286753e-07,1.348621725278208e-06,7.083915169075594e-07,1.349064459486609e-06,1.4869521602719937e-06,1.795714437985436e-08,-1.0564921984454057e-07,9.746680916079542e-07,2.0998688984788693e-06,-2.3854405745327885e-07,2.010607415172559e-06,1.536821185576156e-06,1.4101426868365832e-06,2.299482554206238e-06,1.0831982509575958e-06,1.1055526240837103e-06
1.932764247455703e-07,6.953088161504163e-07,8.245472086373062e-07,1.3677752548969186e-06,7.150357459459924e-07,1.3605518360306178e-06,1.4671015506560095e-06,-4.360354678455723e-08,-7.998543316758374e-09,9.839509478902798e-07,2.1648006347050685e-06,-1.9130248580511603e-07,2.0183044114703043e-06,1.549607004867102e-06,1.4808288114832517e-06,2.3416147691024294e-06,1.1297264682808637e-06,1.1275459666686312e-06
2.0748996129814525e-07,7.486785794625099e-07,8.228149247667807e-07,1.3520880623714382e-06,7.188966536654346e-07,1.3716972540174166e-06,1.4285242232242156e-06,-1.0598371126394232e-07,4.066899941703458e-08,9.98713191608174e-07,2.262080673876621e-06,-1.362565756941075e-07,2.019993998943197e-06,1.5097570453724707e-06,1.559169170224404e-06,2.391024314402292e-06,1.171010244983464e-06,1.1474522191715047e-06
2.0560985715306596e-07,7.74103767120419e-07,8.219984576091666e-07,1.3676629960564421e-06,7.262173333381008e-07,1.3686097476230971e-06,1.3823906346193964e-06,-1.6285593943518126e-07,7.602058212960981e-08,1.0203527433802625e-06,2.3299738511485508e-06,-1.1275217400375082e-07,1.9984606248787597e-06,1.4999242235009062e-06,1.6343278767134364e-06,2.407413699111809e-06,1.1943188808598344e-06,1.1769654165922317e-06
2.2348875471963255e-07,7.780555580602338e-07,7.819678600176324e-07,1.3990203783630272e-06,6.770759936050087e-07,1.3604239200930517e-06,1.3138443593947806e-06,-2.0926004417770083e-07,7.479183632850477e-08,1.0298800848862358e-06,2.385872746863817e-06,-1.0818367977735523e-07,1.9666721827804293e-06,1.4742274106462327e-06,1.651906398509883e-06,2.5622424662239838e-06,1.1973191067424803e-06,1.208590027133799e-06
2.522780248101606e-07,7.701612898689828e-07,7.287717529694135e-07,1.4079794791731552e-06,6.323074581916234e-07,1.3589927099606334e-06,1.2112595688574949e-06,-2.938942714456497e-07,5.6927483263377426e-08,1.034550321104211e-06,2.454849604109178e-06,-8.99031099743217e-08,1.956885088331101e-06,1.4616014365639391e-06,1.6481677251597532e-06,2.672414677534675e-06,1.2028925655529272e-06,1.239048594293149e-06
2.7178195329970154e-07,7.611667635788664e-07,7.101259758982749e-07,1.4546994503585644e-06,6.311345785477e-07,1.3784659511856286e-06,1.0950044097243876e-06,-3.86740365333203e-07,5.4311572461361746e-08,1.0782853088345926e-06,2.5044106441362255e-06,-3.61443513211084e-08,1.995470547062167e-06,1.428773668667196e-06,1.6887724422965598e-06,2.7471242813284936e-06,1.2199759543452695e-06,1.2656311365465409e-06
3.0399322335671374e-07,7.566589403323723e-07,7.039928872041956e-07,1.5313670895324197e-06,6.405107235197118e-07,1.4096301503550346e-06,9.860054889001385e-07,-4.4496473442843223e-07,5.343989247170779e-08,1.1194076048084346e-06,2.5681595433671512e-06,2.559869960148451e-08,2.031942315577687e-06,1.3810287308329557e-06,1.8113107783395296e-06,2.7421589117380574e-06,1.2310649245240751e-06,1.2841218312573991e-06
3.309518315147882e-07,7.737980250813825e-07,7.288054475449796e-07,1.610182734077042e-06,6.58918536918781e-07,1.447386005820679e-06,8.935343062202424e-07,-4.499300326366845e-07,3.852129629710252e-08,1.1141767613035062e-06,2.628328606390591e-06,6.685930281390455e-08,2.063834703114856e-06,1.30444979382817e-06,1.9070481304740526e-06,2.7326164916183913e-06,1.2145024744868358e-06,1.3011579518918609e-06
3.697985280632224e-07,8.087212381580404e-07,7.439467974434597e-07,1.6437949346740594e-06,7.013708858356275e-07,1.4820886932837219e-06,8.201804737603464e-07,-4.469707986928164e-07,2.0102885259167952e-08,1.0707727169765433e-06,2.6595380223045174e-06,1.0271159319977791e-07,2.103037585234166e-06,1.2434870109830734e-06,1.9412176763510417e-06,2.7463907842653264e-06,1.1987731206812866e-06,1.323033702650969e-06
4.142421388040592e-07,8.473924439468604e-07,8.042057513870823e-07,1.6247796801902217e-06,7.58840922375848e-07,1.4902203607890547e-06,7.555653165687044e-07,-4.3693414108372494e-07,2.602874223453349e-08,9.825724444732296e-07,2.6731588808455417e-06,1.2546785775605757e-07,2.1543081275874773e-06,1.1719924104198854e-06,1.9906920318910683e-06,2.7657268084271874e-06,1.2192458984260084e-06,1.3589871308382824e-06
4.489368277016562e-07,8.743068374972731e-07,8.818187677355814e-07,1.6120069725762177e-06,8.152245951633156e-07,1.4696069638978863e-06,6.850201993867317e-07,-4.656714080754343e-07,2.3336629872704766e-08,9.104242003485362e-07,2.6616703796559106e-06,1.5158753923590425e-07,2.2085525202469872e-06,1.1050947418195799e-06,1.972419462017841e-06,2.7204428754118944e-06,1.2535624830874622e-06,1.3886708270895056e-06
4.5765732359714194e-07,8.94830444719718e-07,9.268054720448414e-07,1.6338456027692766e-06,8.438575044600651e-07,1.4295170675738303e-06,5.996767366563343e-07,-4.924928152717992e-07,4.50920392542007e-08,8.552854106235658e-07,2.6692033795562972e-06,1.4513663544701021e-07,2.190437317504569e-06,9.97288291423859e-07,1.95848519294308e-06,2.8221880414472893e-06,1.2354894353091185e-06,1.3971384019963822e-06
4.3595581344759227e-07,9.090479842870174e-07,9.6170193063154e-07,1.670036596021472e-06,8.582764777799215e-07,1.3793796489984398e-06,5.018177043233041e-07,-5.073897846179604e-07,8.521523633433925e-08,8.093151753594224e-07,2.6382147147469706e-06,1.6458858095703278e-07,2.153136780976943e-06,8.883851644488968e-07,1.936314948848275e-06,2.9822161768590204e-06,1.1987608286999263e-06,1.369100232543349e-06
4.5152063026318194e-07,9.132695441971438e-07,9.663057245549124e-07,1.7041607350955645e-06,8.660501139867059e-07,1.3324409820884772e-06,3.962478088020646e-07,-5.258970430505172e-07,1.3765556684855293e-07,7.668025952130406e-07,2.5563285777619927e-06,2.417867832873162e-07,2.1323495990796185e-06,8.166953584398223e-07,1.9107495834785395e-06,3.0525044894056043e-06,1.1794872909839162e-06,1.3396589502739635e-06
4.626101027143134e-07,9.129928442552486e-07,9.560068420631828e-07,1.7313521543490277e-06,8.677979780536995e-07,1.285910885498377e-06,2.9989434211677693e-07,-5.198176216772456e-07,1.5575957445882102e-07,7.476313752816437e-07,2.4924005587939513e-06,2.9471913476728995e-07,2.1263688802052796e-06,7.608169019335338e-07,1.9370052022589023e-06,3.081315617712596e-06,1.2004780641496926e-06,1.324621524130895e-06
4.680418940044141e-07,8.985139856776782e-07,9.439227845788367e-07,1.7368235756541607e-06,8.690460576426148e-07,1.2618071226934618e-06,2.1589403905798335e-07,-5.107085818484481e-07,1.442567731447197e-07,7.516715886960538e-07,2.4478796446334804e-06,3.2867086185433886e-07,2.111305914124061e-06,7.636747409700645e-07,1.9584750479298696e-06,3.087565820004923e-06,1.25701063664642e-06,1.3092461404243031e-06
4.859675935928764e-07,8.718476779130013e-07,9.215834501397802e-07,1.7436241488219888e-06,8.680869099761608e-07,1.264525832346328e-06,1.4979254960808e-07,-4.983006186046569e-07,1.1025522841426463e-07,7.889097554449304e-07,2.4150638343140763e-06,4.005367628086581e-07,2.0920920709406717e-06,7.112573399970463e-07,1.98125722737419e-06,3.0434304096841613e-06,1.2844051659689478e-06,1.273951385252999e-06
4.853047659368104e-07,8.35979088500291e-07,8.903406847003393e-07,1.7533571859429057e-06,8.651133809351321e-07,1.277049035917039e-06,1.0234713111244421e-07,-4.808580622060372e-07,1.088300772640402e-07,8.380853210006328e-07,2.428208265730696e-06,4.6266430510931864e-07,2.0763732885046603e-06,6.267984201166511e-07,2.014187561542396e-06,2.9787518158315077e-06,1.2705850228039023e-06,1.2375207593717268e-06
4.762638640579543e-07,7.965006730908194e-07,8.564170326101038e-07,1.7593032968379853e-06,8.603772573776663e-07,1.3060421721537258e-06,6.548500181790135e-08,-4.6413647906429114e-07,1.202158264365487e-07,9.208779725827856e-07,2.443556820324132e-06,4.7484830915048827e-07,2.0565692968725993e-06,5.325260229695854e-07,2.020818708562697e-06,2.9265590766600024e-06,1.2657667875398278e-06,1.217053476142941e-06
4.4907309025454946e-07,7.563400922601939e-07,8.229858155566892e-07,1.7565426713636667e-06,8.51787043925619e-07,1.3299358357849103e-06,3.460564718972514e-08,-4.5388534565161355e-07,1.001629195239729e-07,9.928340827495903e-07,2.460596802437899e-06,4.6346225311824333e-07,2.0272049396992105e-06,3.612987184372397e-07,2.019496265415517e-06,2.9158984496318054e-06,1.2628830641472958e-06,1.1924845838340332e-06
4.168421999513041e-07,7.176609965544104e-07,7.946691109313605e-07,1.7490589400669216e-06,8.37629740450161e-07,1.3349845907787375e-06,-1.053669254149398e-09,-4.4923682151962377e-07,4.787997820837228e-08,1.0567004052773134e-06,2.4764863909158e-06,5.407122295965786e-07,1.9830835451968497e-06,2.412026986898293e-07,2.0374873882078373e-06,2.91538119462712e-06,1.2549670079117811e-06,1.1894417787947803e-06
3.803280017082014e-07,6.925723623309409e-07,7.700804316110603e-07,1.7415594180079964e-06,8.177175250261445e-07,1.3055613561984495e-06,-7.622906368281597e-08,-4.478165849905099e-07,4.012617683383901e-08,1.1391978519022573e-06,2.4646381175784136e-06,6.129553842393461e-07,1.913166395759974e-06,1.5814736192944563e-07,2.048255374345912e-06,2.902977005864509e-06,1.2573374027941749e-06,1.196164392658122e-06
3.3700981521522137e-07,6.761655825189808e-07,7.499633888702056e-07,1.7326540706607081e-06,7.928119353285587e-07,1.235383542146826e-06,-1.0647261634413457e-07,-4.4801738786966943e-07,4.685706790918879e-08,1.2029547484271188e-06,2.418486493331805e-06,7.113511367206866e-07,1.8269206223741184e-06,7.228060022072701e-08,2.053063393626276e-06,2.86637420440126e-06,1.2380951142905017e-06,1.21320679787163e-06
2.9950631352505585e-07,6.680039232006216e-07,7.371965404289253e-07,1.718927585604681e-06,7.66568598060614e-07,1.1330972524496337e-06,-1.3756444267116245e-07,-4.5012512893828617e-07,3.323462629682315e-08,1.2743928143914254e-06,2.3623171190794044e-06,8.23247931231674e-07,1.7358081485849932e-06,3.5340157897582588e-09,2.0558371888883687e-06,2.809317264650332e-06,1.1871749667009116e-06,1.2276674360611305e-06
2.677870103084683e-07,6.690756977865947e-07,7.415003823049847e-07,1.7100298216557026e-06,7.441448445223949e-07,1.043248154636399e-06,-1.593502593343928e-07,-4.4821050594326525e-07,3.31910696887369e-08,1.3612131288803814e-06,2.307534594330478e-06,9.085168108242222e-07,1.664915224558487e-06,-1.2230250713827936e-07,2.049444293559482e-06,2.7236018768533705e-06,1.1358634722917586e-06,1.2380812774617147e-06
2.3805284918803555e-07,6.782573315148121e-07,7.606832313143958e-07,1.7088589970165661e-06,7.315794896797394e-07,1.0425795498020748e-06,-1.9196344721071789e-07,-4.403885497382076e-07,3.7395645519250184e-08,1.4496234908422558e-06,2.263404537141059e-06,1.0192324758633473e-06,1.6810533176925516e-06,-2.54376518858288e-07,2.0326939803471177e-06,2.6501786438881206e-06,1.093297942952405e-06,1.2401169779897934e-06
2.1114996569390184e-07,6.997414374804876e-07,7.933407983563722e-07,1.7084644291444988e-06,7.324201705031916e-07,1.0774402344217946e-06,-1.0879493000048284e-07,-4.3328485874468354e-07,3.811024990967804e-08,1.5231440879166275e-06,2.2460111507486604e-06,1.1531405066281761e-06,1.7178781138746458e-06,-2.892973376216363e-07,2.0116326108258743e-06,2.6467863868071963e-06,1.0613916896710533e-06,1.245100067962669e-06
1.8379797434540161e-07,7.23081072452254e-07,8.290774436984751e-07,1.7248597123770732e-06,7.493498227459789e-07,1.1251385529042233e-06,4.404571951492603e-08,-4.2530615644005486e-07,5.228158074227853e-08,1.5679581357602247e-06,2.2512997760516648e-06,1.244625509136062e-06,1.7341690415326964e-06,-2.7066610754243375e-07,1.99022127147945e-06,2.680359225205486e-06,1.0758917138324386e-06,1.2599538414025367e-06
1.71897885299807e-07,7.515554769445357e-07,8.687912325316741e-07,1.7552921309651182e-06,7.805023224063017e-07,1.1123885755212839e-06,1.7398766897575291e-07,-4.190975014100073e-07,5.437102945517089e-08,1.63393973695282e-06,2.271953845594604e-06,1.3628237621639567e-06,1.8274556821925177e-06,-1.9494891930567485e-07,1.9677562916269018e-06,2.6864795165458025e-06,1.0926307318948794e-06,1.287141492395448e-06
1.770358357917529e-07,7.728518456554917e-07,9.115463197294435e-07,1.7864639868623073e-06,8.233826239074685e-07,1.0497121932989596e-06,2.1220095076043922e-07,-4.1453919736900324e-07,5.1157786686736626e-08,1.6812777672067123e-06,2.307540696529796e-06,1.4676679332304004e-06,1.9673131713275724e-06,-1.847647374594763e-07,1.9587966230169156e-06,2.6396877852403413e-06,1.0965470726364907e-06,1.3325706100503858e-06
1.9218415737344492e-07,7.948225645146772e-07,9.356349864705698e-07,1.8244228768455865e-06,8.758422894617954e-07,1.0175282142458018e-06,1.8090780550536797e-07,-4.0521228755859467e-07,4.988758742599358e-08,1.7108523811142194e-06,2.3569534267498853e-06,1.5085605819175843e-06,2.089814413396444e-06,-2.0470903671003498e-07,1.96783093169955e-06,2.583471490310385e-06,1.1026039695539385e-06,1.3913392324002797e-06
2.1455139283007285e-07,8.256075238090912e-07,9.750827760756083e-07,1.8612064914836808e-06,9.265117838353658e-07,9.982184350285483e-07,1.6685616105954152e-07,-3.857202467825688e-07,4.232746127757448e-08,1.7732589926774831e-06,2.416682598025494e-06,1.5265803645058464e-06,2.178920392109842e-06,-1.525005600977864e-07,1.9966073458866376e-06,2.598812255965011e-06,1.1305739790993328e-06,1.4588784869989807e-06
2.3764875097813489e-07,8.592341106277971e-07,1.0282104193044626e-06,1.8935009753468623e-06,9.77382583584977e-07,1.023026427494053e-06,1.643087431482055e-07,-3.5139373858879354e-07,3.3364246400502085e-08,1.8349807993363658e-06,2.488104353863673e-06,1.5208858050488147e-06,2.2416950213663016e-06,-1.458403156574985e-07,2.0417048795530302e-06,2.654656117110454e-06,1.1747763031468557e-06,1.5302917186752307e-06
2.595633387694962e-07,8.977503578144882e-07,1.0962897537512265e-06,1.9244543672990934e-06,1.0296754049349793e-06,1.0705071220902865e-06,2.2031658789996836e-07,-2.98994655542004e-07,2.438324048997162e-08,1.8796600093938746e-06,2.5747301565681658e-06,1.5669732739848663e-06,2.2721501562920494e-06,-8.921557833122959e-08,2.090317651878749e-06,2.7325089879897684e-06,1.2287815663841337e-06,1.5935678015616962e-06
2.807448248685046e-07,9.308033283774803e-07,1.1705779184658254e-06,1.9521726382501163e-06,1.0788079618626344e-06,1.1196296656514278e-06,2.744435054566523e-07,-2.388906571799851e-07,1.4219339162774866e-08,1.9034587499584777e-06,2.660094789245137e-06,1.6430626766626287e-06,2.275563476192323e-06,1.0371951827305275e-09,2.1498251838311825e-06,2.848797674974223e-06,1.284509527601651e-06,1.6382055118805272e-06
3.02294998663277e-07,9.66062666054784e-07,1.2099288716538462e-06,1.9814929885977075e-06,1.1138064630064308e-06,1.1507254520771588e-06,3.441549781621785e-07,-1.7947156014163841e-07,2.2470611686033803e-09,1.910926874637803e-06,2.74912387751659e-06,1.710556799231594e-06,2.2628115618543095e-06,9.713378495595475e-08,2.2057298571457076e-06,2.9410636930056184e-06,1.3363573313621476e-06,1.6688446644847466e-06
3.1910855649153974e-07,9.986999764111733e-07,1.2342584528267715e-06,2.0020761337482727e-06,1.1301022182727893e-06,1.149344800145573e-06,3.81618909795045e-07,-1.2498180331370204e-07,-8.379428849575862e-09,1.8944914224399924e-06,2.830227455010974e-06,1.792218419195408e-06,2.2428619120467224e-06,2.090757057673946e-07,2.250318927518142e-06,3.0609242248958767e-06,1.3696884535062738e-06,1.715050048098961e-06
3.317522264011923e-07,1.0372859442306732e-06,1.2309815624504061e-06,2.0102006018811152e-06,1.09431560809288e-06,1.115850409529293e-06,3.650557204198645e-07,-1.0735013733946109e-07,-1.720505977790524e-08,1.8693737676546625e-06,2.8621967863959154e-06,1.861897920728261e-06,2.226638895023009e-06,2.837888731375784e-07,2.2915877012420083e-06,3.2470830755917867e-06,1.3846933329487824e-06,1.7688936403029078e-06
3.3951556119817543e-07,1.0640714753786666e-06,1.1856942152240053e-06,2.007098987291282e-06,1.0396253040635726e-06,1.0385169427815373e-06,3.371550417017921e-07,-1.1678421841673377e-07,-2.4550771348220865e-08,1.8204456268565956e-06,2.8629561824755205e-06,1.9089677847884766e-06,2.219133023040449e-06,3.4698520292484587e-07,2.335930558819782e-06,3.4653596570517363e-06,1.3874557125022847e-06,1.8120768872407489e-06
3.3990495678180717e-07,1.0774214981324204e-06,1.1884365123673082e-06,1.993567891535844e-06,1.0221678706753373e-06,9.622282235977379e-07,2.5373698613250816e-07,-1.054742322263401e-07,-2.5099066778472545e-08,1.7571688738171856e-06,2.786176912728501e-06,1.9355966721953753e-06,2.2210941736177273e-06,4.2431656653251316e-07,2.3959315612478595e-06,3.677466634284214e-06,1.3812471326868356e-06,1.8461631245197151e-06
3.317186464158149e-07,1.0798062509212293e-06,1.2094901343806086e-06,1.970327116071111e-06,1.011545153542291e-06,9.428050890758836e-07,1.6599389303334163e-07,-7.606170717966901e-08,-1.556908428860587e-08,1.6729748308071837e-06,2.6895867104284067e-06,1.880368040844379e-06,2.2301057774703406e-06,5.438433868953846e-07,2.4818340093870607e-06,3.842258815024949e-06,1.3743675399686699e-06,1.8678179765350992e-06
3.122992417005233e-07,1.054133363726325e-06,1.2166024249497245e-06,1.9373600682658598e-06,1.0014355826414514e-06,9.600659649520448e-07,1.931282927587403e-07,-5.156057823830671e-08,5.246957279238172e-09,1.5961864222249725e-06,2.6749193295921943e-06,1.7823546783328623e-06,2.2452965727730533e-06,6.750177793667836e-07,2.5953137211717898e-06,3.947422354676747e-06,1.3707040393687581e-06,1.8934129580730127e-06
2.8115669297976923e-07,1.029861769655188e-06,1.2151064836030364e-06,1.9001527952906312e-06,9.956130646787506e-07,1.0095758843022298e-06,2.599267115681962e-07,-3.738473736316576e-08,3.9028650019385116e-08,1.5215940283974955e-06,2.707120108252406e-06,1.6937227565522396e-06,2.2642250918019783e-06,8.067357211236424e-07,2.723428993927391e-06,4.113766633946699e-06,1.3724224444907208e-06,1.950508282677174e-06
2.4084869731306356e-07,1.0379196761491552e-06,1.2117483468072476e-06,1.8569905066137919e-06,9.674716223721772e-07,9.725828765467752e-07,2.491763168819694e-07,-6.07492336689268e-08,8.598797579967343e-08,1.4533247574917404e-06,2.7162525173455295e-06,1.664364186636472e-06,2.2809293421725774e-06,9.348532454760131e-07,2.849634084117624e-06,4.189194617329209e-06,1.3808634537166603e-06,1.989665046087572e-06
1.9664653589634952e-07,1.0565156711935008e-06,1.1842869134793492e-06,1.8123956259070405e-06,9.132179371492617e-07,9.096024002564491e-07,1.7018342716328807e-07,-8.798715657036654e-08,1.400186554741252e-07,1.447992262199114e-06,2.6832418828383683e-06,1.737812220459017e-06,2.293128128771568e-06,1.0393587574301608e-06,2.9540784577283402e-06,4.22072559902105e-06,1.393295913976865e-06,2.0117922950602372e-06
1.5374578941209088e-07,1.06996682797954e-06,1.14874028273138e-06,1.7719587189041938e-06,8.746902904533919e-07,8.380404061570781e-07,3.8253220367619786e-08,-1.1050556356851183e-07,1.9748359760250053e-07,1.4361025898347477e-06,2.6438504256962364e-06,1.8783145275176931e-06,2.2907752632498966e-06,1.1203762081216638e-06,3.019249294798303e-06,4.237045200526874e-06,1.404502304443156e-06,2.0360199385034893e-06
1.1623903055890961e-07,1.038843107558013e-06,1.1100390671825702e-06,1.7319934488951296e-06,8.357215155077604e-07,7.689029277469574e-07,-4.1458804207242365e-08,-1.513977504854379e-07,2.514809716904423e-07,1.4162243267318352e-06,2.569065605877035e-06,1.982399809287717e-06,2.260367709645529e-06,1.1699281215030955e-06,3.0414604378268494e-06,4.258752058999817e-06,1.4089056605714372e-06,2.042935427728892e-06
8.633435072391303e-08,1.0043782993456149e-06,1.069020533268339e-06,1.6925923460075986e-06,7.854178053731329e-07,7.192723255670173e-07,-6.491041204383454e-08,-1.8112460579891237e-07,2.8902764899453937e-07,1.389331730954046e-06,2.4726854668894228e-06,1.99055797881724e-06,2.191252486583362e-06,1.180504727008391e-06,3.0274081636312772e-06,4.2815071949210425e-06,1.40322896289645e-06,2.051323144723527e-06
6.46267052911457e-08,9.739746412774003e-07,1.0179084970482223e-06,1.653323554617189e-06,7.443051672755486e-07,6.673315020487744e-07,-1.2367478773741007e-07,-2.0716284195102852e-07,3.0456068835915635e-07,1.4096652475471764e-06,2.3976799077817403e-06,2.0233219737496383e-06,2.0856612286311884e-06,1.1485217627190798e-06,2.992438024327944e-06,4.369141185234255e-06,1.3860575080760316e-06,2.0717217583983545e-06
5.0349163152052756e-08,9.334514858520465e-07,9.597708352908183e-07,1.6140360105125618e-06,7.059235784403289e-07,6.376757381182523e-07,-1.8743339716951945e-07,-2.368399524511866e-07,2.9681186773818346e-07,1.4748364815948271e-06,2.3386025817659235e-06,2.139158065666739e-06,1.955073268883886e-06,1.0920396540954993e-06,2.9518755003663415e-06,4.469078789158693e-06,1.3589540365804638e-06,2.0841712218943634e-06
4.089252466549817e-08,8.843367979449079e-07,8.996771895527976e-07,1.5764144875612432e-06,6.692099349523191e-07,6.118265546068476e-07,-2.8491254039720676e-07,-2.7590717323554277e-07,2.69455833001521e-07,1.5244128568969035e-06,2.2731146447654625e-06,2.263594239913707e-06,1.8213630888387832e-06,1.0242873469168925e-06,2.912862460992196e-06,4.527845532706856e-06,1.3261078450286622e-06,2.076877057159883e-06
3.242715140182352e-08,8.350153658277674e-07,8.423305578894745e-07,1.5412983418271003e-06,6.382753479984285e-07,5.792594956374453e-07,-2.8189604795443806e-07,-3.1360370548529233e-07,2.3288935961329772e-07,1.5426157533290386e-06,2.2118398545911147e-06,2.3127222233243015e-06,1.7662983809580853e-06,9.60466429402748e-07,2.8784704478598173e-06,4.512262047867089e-06,1.29272448663152e-06,2.0487650148387986e-06
2.1416121786912627e-08,7.957384736512036e-07,7.944660094020205e-07,1.5140461259368436e-06,6.089305707902426e-07,5.467975047300904e-07,-2.7086366181628176e-07,-3.456939999602162e-07,2.021735936754322e-07,1.5359771667883121e-06,2.147256635982924e-06,2.333637713128255e-06,1.8016558996936586e-06,9.150483015551256e-07,2.8484270006237057e-06,4.443514244629463e-06,1.2641229597329362e-06,2.032913078060797e-06
6.298507859719695e-09,7.661055672239804e-07,7.569995745729952e-07,1.4937816633364725e-06,5.802989119507691e-07,5.100169860322465e-07,-3.1588627414897e-07,-3.70976050383598e-07,1.8546694466732385e-07,1.5240851098338212e-06,2.0799654261739693e-06,2.349245562180837e-06,1.8160888750673472e-06,8.968745555534788e-07,2.8232384869306283e-06,4.351495508989991e-06,1.2437909619904492e-06,2.01221756904627e-06
-1.1936256995834875e-08,7.438046225828305e-07,7.302740166956397e-07,1.482964535076509e-06,5.676673981985899e-07,4.915815277396439e-07,-3.5157033992854486e-07,-3.836908644705291e-07,1.8670126168561464e-07,1.5239540311904426e-06,2.050648635580661e-06,2.3699933399316306e-06,1.8166140410012e-06,9.077637479824709e-07,2.8004284524652873e-06,4.264080976911344e-06,1.2322674055694025e-06,1.9749372930638235e-06
-3.0586453088092746e-08,7.284461386731381e-07,7.121914874332197e-07,1.4882868983174338e-06,5.704351406063794e-07,4.968443639224209e-07,-3.680836418863849e-07,-3.8751844607798965e-07,2.041209479001706e-07,1.5057900387562057e-06,2.0437152539823877e-06,2.2728984149521652e-06,1.8344753090852842e-06,9.397253184942825e-07,2.78829108378147e-06,4.227521974710293e-06,1.22744768785238e-06,1.939922561036048e-06
-4.6571336758795555e-08,7.153984108734827e-07,7.091682057717995e-07,1.5008869295897567e-06,5.803015493794995e-07,5.329550585910042e-07,-3.6547869845106395e-07,-3.8483110648216924e-07,2.298732006635251e-07,1.4555524126237145e-06,2.0487919474772267e-06,2.137522196692646e-06,1.9251069146933675e-06,9.814564572746432e-07,2.7866905995918255e-06,4.193589034620902e-06,1.2264010930137497e-06,1.8977142357829284e-06
-5.7411058383942455e-08,7.101049966623042e-07,7.136581489625865e-07,1.5176316875577004e-06,5.973029447628761e-07,5.942543829559096e-07,-3.3010741875880275e-07,-3.784235270656128e-07,2.5359193490806803e-07,1.378826559837489e-06,2.069629252648576e-06,2.047588993736138e-06,2.046569001054507e-06,1.0260278400637288e-06,2.7828883962792794e-06,4.150194097874832e-06,1.2271932372973007e-06,1.8424798999120929e-06
-6.139194354526999e-08,7.109131387650089e-07,7.19681088476505e-07,1.5368515573713125e-06,6.153807924043205e-07,6.728674899074212e-07,-2.7208377814938424e-07,-3.6929242578657973e-07,2.6340803277841794e-07,1.326283218353077e-06,2.096478016440491e-06,1.9933819838817823e-06,2.126161954544073e-06,1.0708666866116866e-06,2.784899609063661e-06,4.106939252873138e-06,1.229778554651661e-06,1.7844390235636716e-06
-5.7677074841122654e-08,7.144682568487226e-07,7.299575130331484e-07,1.553692021941421e-06,6.327631208252015e-07,7.625877653745881e-07,-1.9402930163617495e-07,-3.637598358732119e-07,2.524461440442842e-07,1.2919417019304871e-06,2.1235570079696404e-06,1.959273643166089e-06,2.21519625510182e-06,1.1222837771495112e-06,2.7863015963684e-06,4.037021796661514e-06,1.2354956911008897e-06,1.7186468412354077e-06
-4.671233415072645e-08,7.207031205591592e-07,7.416188949089491e-07,1.5666325312841945e-06,6.491460034897755e-07,8.554910254615786e-07,-1.0096920323369351e-07,-3.627611367755144e-07,2.258151539786176e-07,1.2614496180649826e-06,2.1496032569107752e-06,1.9514253638803784e-06,2.2728803595080117e-06,1.1895464629632312e-06,2.77855019850401e-06,3.977651687690312e-06,1.2452917717021286e-06,1.6480300334142632e-06
-3.05030765676658e-08,7.287893947598954e-07,7.511535865207111e-07,1.5787882872846323e-06,6.658771739053149e-07,9.46497010849207e-07,-5.934860919398944e-09,-3.646033195734462e-07,1.968180262808385e-07,1.2658038991335719e-06,2.1729453636587882e-06,1.97173074609491e-06,2.3002806776431893e-06,1.2786736088130063e-06,2.768210949361421e-06,3.9150141736670125e-06,1.2590202931448113e-06,1.5852505409173359e-06
-1.2172960433451389e-08,7.374172575174911e-07,7.602236638708936e-07,1.5857656654694176e-06,6.800614852538307e-07,1.0245639791466853e-06,7.922616596075137e-08,-3.679000270904724e-07,1.8192992271606828e-07,1.2760200255237618e-06,2.1854702958729433e-06,2.020209137557543e-06,2.302917094712935e-06,1.3721391160377507e-06,2.7560589920657684e-06,3.8279906568131216e-06,1.2760232215709218e-06,1.536089133291308e-06
5.288158630576978e-09,7.474651659499146e-07,7.691677307402043e-07,1.5927575239826666e-06,6.924773752791735e-07,1.0862870656023597e-06,1.4370792645105968e-07,-3.6774826336954877e-07,1.9317973543472354e-07,1.2938452651379855e-06,2.1965001623694457e-06,2.0925030159839384e-06,2.2780244614202145e-06,1.4600332141640449e-06,2.7459194511084653e-06,3.7284289019897117e-06,1.2961128172697952e-06,1.4979671058989144e-06
2.0391861250543214e-08,7.599073621531327e-07,7.775182888334214e-07,1.6060009081143235e-06,7.056545537399405e-07,1.130547089214928e-06,1.9307258105356974e-07,-3.59537343550911e-07,2.2867279640153118e-07,1.3218133339326525e-06,2.2165422736917737e-06,2.1772596462719863e-06,2.255375488365684e-06,1.5345709250461739e-06,2.7413784838803536e-06,3.6599736747383575e-06,1.320227665893322e-06,1.4750486390077925e-06
3.3556393237927315e-08,7.745236883830287e-07,7.906630157921639e-07,1.627786283919684e-06,7.203198094362279e-07,1.1582229964913435e-06,2.3122540480274542e-07,-3.402533125032226e-07,2.7725241229105935e-07,1.3528624689029107e-06,2.251040542044128e-06,2.2585076294771693e-06,2.2506088173936207e-06,1.5840330290217572e-06,2.7494211320398223e-06,3.6355220072706068e-06,1.3494155102022426e-06,1.46826093300281e-06
4.612035480758198e-08,7.956891612537132e-07,8.122965496211019e-07,1.6623930991874446e-06,7.395475002513414e-07,1.1791104725506474e-06,2.634341398025172e-07,-3.0985334359001715e-07,3.2190137292956783e-07,1.3922912431160015e-06,2.306135246529961e-06,2.324090813810749e-06,2.270700457268592e-06,1.6072406455108693e-06,2.761762941992943e-06,3.6577580616814094e-06,1.3836117060754525e-06,1.4787227686158687e-06
5.940869840673424e-08,8.229288556427398e-07,8.380953368274128e-07,1.7071947988298847e-06,7.646528356287374e-07,1.1996117604106865e-06,2.986849498451816e-07,-2.716738958013941e-07,3.5270616992889647e-07,1.4421049991916172e-06,2.3781505273735696e-06,2.371409276945392e-06,2.325901410440745e-06,1.6041133323022066e-06,2.785331471619705e-06,3.7227854736621065e-06,1.4212580576081612e-06,1.5046313223936148e-06
7.425995791540372e-08,8.558052562168048e-07,8.696165051933295e-07,1.7587340520805205e-06,7.958857669519829e-07,1.228466294958412e-06,3.4167422429873003e-07,-2.30626534915441e-07,3.6770651046118344e-07,1.5077489897141937e-06,2.4609591876462947e-06,2.4050211212120836e-06,2.4076550504623005e-06,1.5805124555756719e-06,2.8205872361167178e-06,3.7954874928647294e-06,1.4597159859177357e-06,1.5407179047301221e-06
9.117119653105128e-08,8.935791299487432e-07,9.070946149908694e-07,1.8081596353949106e-06,8.320689579567506e-07,1.2737456416939716e-06,3.979794601943236e-07,-1.9128387437547554e-07,3.727186208634895e-07,1.5891294439947855e-06,2.5463028487975034e-06,2.433644193048882e-06,2.5035094002599324e-06,1.5455616343764422e-06,2.8612077515028497e-06,3.856784142441276e-06,1.4959180880994297e-06,1.5878169907472337e-06
1.1052454917423884e-07,9.333003423184922e-07,9.480240137110486e-07,1.8520227181420399e-06,8.708283953576414e-07,1.3320721947537692e-06,4.5963618923103554e-07,-1.5705492693666298e-07,3.768897350965298e-07,1.681473525875859e-06,2.625517210528865e-06,2.4666404319176366e-06,2.602414298081459e-06,1.513027692157752e-06,2.909415033933793e-06,3.9042210356109225e-06,1.5268541350347075e-06,1.628635855372914e-06
1.321963107501589e-07,9.717357222215528e-07,9.888565016615842e-07,1.8862954979751443e-06,9.093699915957944e-07,1.3937904132701886e-06,5.269491234861457e-07,-1.3035365539260006e-07,3.89193710025966e-07,1.7820206347276031e-06,2.6952619662397444e-06,2.5033450330553435e-06,2.6867463377555575e-06,1.4908763972781947e-06,2.959583061029832e-06,3.928805403141901e-06,1.5501581874470789e-06,1.6584113670622738e-06
1.5513754484990382e-07,1.0057417383879984e-06,1.0181222424017156e-06,1.9088151234935485e-06,9.447505158536659e-07,1.4450897752955717e-06,5.97285120006166e-07,-1.12792641396201e-07,4.0675396074997184e-07,1.8877024693460876e-06,2.7516322510363193e-06,2.5424970258761704e-06,2.7454731413160247e-06,1.4799348892546535e-06,3.0062083368277615e-06,3.928025469318842e-06,1.56487141973683e-06,1.6832511734222115e-06
1.775914961993748e-07,1.0314971546602715e-06,1.0385839569035204e-06,1.9206413237790814e-06,9.74506885490245e-07,1.4704179818675466e-06,6.627933382096064e-07,-1.045857140777864e-07,4.210364301878725e-07,1.979397268813863e-06,2.7916433344953266e-06,2.5774075119503395e-06,2.754824898460346e-06,1.4726795263118034e-06,3.0491845771026005e-06,3.891530186327046e-06,1.5721329328161457e-06,1.6999732583398199e-06
1.9816367832461148e-07,1.046488674743127e-06,1.0480871138940032e-06,1.921999117265511e-06,9.984345336757835e-07,1.4669907715897994e-06,7.193880678378698e-07,-1.0361164382428506e-07,4.235737441410284e-07,2.0629729664345224e-06,2.816622490456175e-06,2.5967609446187263e-06,2.729067011649509e-06,1.4713663608479693e-06,3.079986057131752e-06,3.837285800300952e-06,1.5747654031983464e-06,1.7127628170604579e-06
2.1635659374241674e-07,1.0552862978414966e-06,1.0478599032537803e-06,1.916653505825928e-06,1.0174302568740597e-06,1.4430762863477491e-06,7.613974795569014e-07,-1.062184174401011e-07,4.0800455347586597e-07,2.1381356232970643e-06,2.828023112628564e-06,2.594118952462015e-06,2.6787026098740253e-06,1.4665880091012862e-06,3.0947235873745375e-06,3.7979997916859117e-06,1.5755646700440552e-06,1.7262436113537078e-06
2.320332503742294e-07,1.0563013081256354e-06,1.0397983859576368e-06,1.9075902614114046e-06,1.0326594570304175e-06,1.4114780942372134e-06,7.782208073988528e-07,-1.0586532346432902e-07,3.7498218872743934e-07,2.1997957852447167e-06,2.826948641543152e-06,2.567962645873411e-06,2.607339888329596e-06,1.4475472659917726e-06,3.099087930480606e-06,3.7857507401272513e-06,1.5756160069353984e-06,1.7398566399403074e-06
2.4440948498408043e-07,1.0533455980000622e-06,1.0350142693273778e-06,1.8960641222668198e-06,1.0435887620291891e-06,1.383906457508247e-06,7.726572194730727e-07,-9.634703893424917e-08,3.3422891909736426e-07,2.2366449194396752e-06,2.815281385787078e-06,2.5230886648742227e-06,2.5346810872812244e-06,1.3972022372468981e-06,3.0962679418170967e-06,3.800098309238676e-06,1.5738114265405987e-06,1.7533396043920156e-06
2.5163450403129476e-07,1.0430549504121326e-06,1.0139815742686734e-06,1.882901202275976e-06,1.0482922834490823e-06,1.365567537790222e-06,7.700345443555307e-07,-7.349749869823506e-08,2.9979676684149266e-07,2.2404985886715247e-06,2.795028793786215e-06,2.463269740430516e-06,2.4819046687869803e-06,1.3373018336779998e-06,3.093832644101599e-06,3.818145675495476e-06,1.5678305314844113e-06,1.7696856748487932e-06
2.515428875304807e-07,1.0287815506664673e-06,9.756169493292127e-07,1.869477995378802e-06,1.0445921319499704e-06,1.3526217614050508e-06,7.683216797527983e-07,-4.093982934137922e-08,2.760459576115383e-07,2.2283177212019654e-06,2.767981774921969e-06,2.3940915948614256e-06,2.415215454210946e-06,1.2442359557051593e-06,3.0938995016659393e-06,3.830545683822376e-06,1.5553178672806638e-06,1.7855180853291485e-06
2.426754813766506e-07,1.0087246839457272e-06,9.354978365790781e-07,1.852596018975094e-06,1.0304650586794145e-06,1.3404093940697234e-06,7.63473037802734e-07,-5.471521660351141e-09,2.729151802731352e-07,2.1930657905713275e-06,2.7368353137578775e-06,2.3209745153763654e-06,2.339099655955926e-06,1.1247593097584595e-06,3.089375487111007e-06,3.7709507447508253e-06,1.5347050030135885e-06,1.787933716560379e-06
2.2465497971233258e-07,9.815741701947339e-07,8.657208092011909e-07,1.8279753193027127e-06,1.0049131664761456e-06,1.3263264973725516e-06,7.53948755940006e-07,1.96875602135553e-08,2.9397253099316275e-07,2.2008284789968705e-06,2.7041111640016605e-06,2.2518369679129195e-06,2.238961197382038e-06,1.0350848117742543e-06,3.044508620043972e-06,3.6278953664614313e-06,1.5053528189053763e-06,1.7761340633618735e-06
1.9795321787993885e-07,9.486424583848394e-07,7.973231177430676e-07,1.7944294345375652e-06,9.677439928867639e-07,1.3059438753482926e-06,7.304703315597425e-07,-4.2680513838055527e-10,3.2479407001128394e-07,2.2158865465357898e-06,2.6708200273110375e-06,2.1980481297669396e-06,2.0808134096252995e-06,9.249693740320861e-07,2.984093013288012e-06,3.5562720345651753e-06,1.468146488772459e-06,1.7581206044112294e-06
