0,1,2,3,4,5,6,7,8,9,10,11,12,13,14,15,16,17
-2.455637437404471e-07,-2.0696299353373957e-07,-8.46126061421414e-08,-1.7088317408392416e-07,-1.034769115957715e-07,-6.76874963239883e-08,-6.580978999468357e-08,-5.8182209505898106e-08,-1.1259103749443573e-07,-1.4369872780718824e-07,-6.120546332061015e-08,2.509604520855547e-07,-5.550709791631024e-08,-4.4620485588689914e-08,-4.384642161880335e-08,-4.9569692674094264e-08,-1.1663721862881583e-07,1.308635838930941e-08
-1.7756503115944937e-07,-1.5122145684074409e-07,-7.612151326013301e-08,-1.557377108460577e-07,-8.74186084740031e-08,-5.731706768586976e-08,-5.2006833653701806e-08,-4.692727645145206e-08,-8.3589832363789e-08,-1.310984233080066e-07,-6.181803817890737e-08,1.7946105566890346e-07,-5.98168190948226e-08,-4.9857731368386136e-08,-4.448465225909982e-08,-5.457018176286896e-08,-1.2783621673114806e-07,1.725031382794278e-08
-1.155976280483941e-07,-1.2598580958162936e-07,-7.129362108278241e-08,-1.361740913095142e-07,-7.358903235608782e-08,-4.8326120257724204e-08,-4.076168015321825e-08,-4.266580283057973e-08,-5.936305250115674e-08,-1.182215549409754e-07,-6.608008466273893e-08,1.1794111916085028e-07,-6.383871234820302e-08,-5.69294319334994e-08,-4.600925850745108e-08,-5.7260102079432444e-08,-1.3573628166081615e-07,2.4401797018390237e-08
-6.362249145302188e-08,-1.1089545953646507e-07,-6.59567069819137e-08,-1.1446723029814446e-07,-6.078291993869754e-08,-3.890625771877354e-08,-3.0673696712725944e-08,-4.1085384840483705e-08,-3.8167937788878475e-08,-1.0341299315781855e-07,-6.9752578251241e-08,7.038707409940017e-08,-6.30856721929137e-08,-5.993384724192546e-08,-4.458861679479047e-08,-5.578896136909131e-08,-1.3331258038358785e-07,3.001652467193021e-08
-2.0355822951317516e-08,-1.1636577016432318e-07,-5.636281273670557e-08,-9.259914887755597e-08,-4.7527258944285454e-08,-2.7653926194548844e-08,-2.0723923621418925e-08,-3.8327535667039404e-08,-1.915462328474795e-08,-8.547494317341804e-08,-6.959994250300881e-08,3.9829055170996014e-08,-5.5347079440906505e-08,-5.559110800305892e-08,-3.863366162340418e-08,-4.930449860752756e-08,-1.1842947909408252e-07,2.9076586460284873e-08
8.288483855825526e-09,-1.2727903843845545e-07,-4.1761146664415714e-08,-7.110488475318535e-08,-3.378775938165351e-08,-1.4870651411950216e-08,-1.1640070661571648e-08,-3.3188657197129693e-08,-3.4359454885081577e-09,-6.446865995006713e-08,-6.516803149512351e-08,1.4614878702286779e-08,-4.18905604931333e-08,-4.475638635926734e-08,-2.9434205530498495e-08,-3.88756541930306e-08,-9.366036312066972e-08,1.8555156243808726e-08
2.6001094496014307e-08,-1.2498137583422275e-07,-2.4621212036567584e-08,-5.0433680835142673e-08,-2.1019714305196553e-08,-2.2235495787055463e-09,-5.220981102281189e-09,-2.66222715196605e-08,7.2283262196167785e-09,-4.1378335791229145e-08,-5.79273765385798e-08,-8.052077721279352e-09,-2.6260138860576153e-08,-3.0827849718029774e-08,-1.950151210344255e-08,-2.6893574036930152e-08,-6.307693512849218e-08,-1.1094521526821476e-09
4.1795273405192606e-08,-1.16033658716808e-07,-8.40261756443464e-09,-2.9690577599268622e-08,-1.0487874185231879e-08,8.35179971599349e-09,-2.31927160459294e-09,-1.936227123296179e-08,1.2739058016745376e-08,-1.7083973806085645e-08,-4.857887235975067e-08,-2.7395399792751138e-08,-1.1688312427547065e-08,-1.671564685580262e-08,-1.025387487452548e-08,-1.5466542973915593e-08,-2.901142051878355e-08,-2.5970024139268834e-08
5.081453292712104e-08,-8.079259693998377e-08,5.12462408777102e-09,-7.024942992234591e-09,-1.5320798263579174e-09,1.609037843326257e-08,-1.4928558920743765e-09,-1.0392736873731652e-08,1.5547462139977054e-08,8.281695903885904e-09,-3.518730170728002e-08,-4.43007631666449e-08,8.229245820350856e-10,-3.008789323800274e-09,-1.1445291897699763e-09,-5.193575906820457e-09,8.108042202941897e-09,-4.978046001865435e-08
5.617939439014101e-08,-2.0854896796477545e-08,1.684778789772533e-08,2.056688470040566e-08,8.419907991086026e-09,2.1657776360114253e-08,2.713079815933075e-10,2.2884359390379076e-09,1.9134442538176226e-08,3.4937187139515016e-08,-1.4176032396922383e-08,-5.6348593371648176e-08,1.2443222166423193e-08,1.1403866201364591e-08,9.19489937092138e-09,4.69907995644634e-09,4.715824237103623e-08,-6.585219657853927e-08
6.089037699979325e-08,5.2678303421430825e-08,2.9095166348675114e-08,5.231941361546542e-08,2.204726786149098e-08,2.6326163931297296e-08,5.3919664998033135e-09,1.9242874038496508e-08,2.5407167109432978e-08,6.23928273214272e-08,1.634376283131506e-08,-6.527445414618191e-08,2.4825056601543162e-08,2.717231970248078e-08,2.1074248066561894e-08,1.516374183415445e-08,8.405826010829506e-08,-6.910091037831532e-08
6.6553261854284e-08,1.330645778058777e-07,4.3475846131610956e-08,8.75618007724852e-08,4.018070071810828e-08,3.061512503397688e-08,1.4172507484062801e-08,3.804730596996319e-08,3.3377158324914684e-08,8.875657145068499e-08,5.360543587883455e-08,-7.388959155803947e-08,3.847721001236372e-08,4.302249524168498e-08,3.300525528877006e-08,2.7677179203908178e-08,1.129198115627366e-07,-5.735567322346429e-08
7.296765993505296e-08,2.0278473993749676e-07,5.967507822530337e-08,1.22815634671891e-07,6.132831514849951e-08,3.421003055148891e-08,2.5542639677235234e-08,5.410625615501613e-08,4.0524973858740897e-08,1.111684228873362e-07,9.038349027089386e-08,-8.40836040296155e-08,5.26975599010597e-08,5.655040450893169e-08,4.290320101241431e-08,4.221504094876327e-08,1.2975441231158845e-07,-3.118654828270479e-08
8.327857979489267e-08,2.5087321367001135e-07,7.616335652342642e-08,1.5530096144729238e-07,8.291839437783247e-08,3.679736372664481e-08,3.947124900643536e-08,6.398332227222673e-08,4.5883208964451025e-08,1.2707931046014738e-07,1.186500300873541e-07,-9.607291112157253e-08,6.69132756253725e-08,6.651491394345486e-08,5.014433312541497e-08,6.009045762251799e-08,1.3725171149579898e-07,7.1661187353473955e-09
9.002784338991124e-08,2.7281029014806444e-07,9.185900790094539e-08,1.83812230885505e-07,1.0309578302269453e-07,3.919060335165627e-08,5.8599262532009805e-08,6.818541502884266e-08,5.2098159542983247e-08,1.3541219628940074e-07,1.3386468903812845e-07,-1.0682404325918351e-07,8.186898535622513e-08,7.43237884148773e-08,5.651340099468759e-08,8.411653142466924e-08,1.4299036212269857e-07,5.4467286881348064e-08
6.590821630440109e-08,2.691619313999675e-07,1.0689136935363634e-07,2.0573851550198322e-07,1.2163178988757342e-07,4.3745828067125996e-08,8.720017021512855e-08,7.090053671535328e-08,6.436247220647779e-08,1.3680940048239134e-07,1.366463133076366e-07,-1.1095219672107554e-07,9.938615852939001e-08,8.32534883796656e-08,6.506139464301528e-08,1.1896075261325172e-07,1.5545965309130012e-07,1.0633512254526766e-07
2.6128364109461754e-08,2.466624998231245e-07,1.217018092899822e-07,2.261266177677177e-07,1.3938113128253403e-07,5.306935163496235e-08,1.2797843084663067e-07,7.711788773730922e-08,8.676752001955559e-08,1.3288814568763153e-07,1.3110663859150168e-07,-1.0322983728481938e-07,1.2081170988732304e-07,9.603960778175324e-08,7.768834649479849e-08,1.6865760621353619e-07,1.7927661952411886e-07,1.5703020161936877e-07
-2.0788992702679275e-08,2.1583651629719045e-07,1.35527738193952e-07,2.5291071325868465e-07,1.56956085430357e-07,6.848494100865394e-08,1.791861253464972e-07,8.877451192929869e-08,1.1899893427253275e-07,1.2511561301569268e-07,1.218150802431171e-07,-8.13400990845666e-08,1.4553945069809743e-07,1.1282694555387709e-07,9.34065089729139e-08,2.307567848710236e-07,2.122038498756962e-07,2.0016841901235986e-07
-7.018139941252621e-08,1.881778260550914e-07,1.4614441280142967e-07,2.743569568176316e-07,1.7397710283839162e-07,8.920022563941428e-08,2.344926399570875e-07,1.0348882923813763e-07,1.5613707136250314e-07,1.1419110474889629e-07,1.1194248639561186e-07,-4.6690347404433236e-08,1.710967344466173e-07,1.3115904449970724e-07,1.0885239561293073e-07,2.9728753100062207e-07,2.4769669321870396e-07,2.306200852368678e-07
-1.0887584801831369e-07,1.7348018431144445e-07,1.5148775145308924e-07,2.806447463359732e-07,1.8962054416236795e-07,1.1289095990180878e-07,2.85929053017521e-07,1.1714560700103221e-07,1.9162006672752448e-07,1.004152790890856e-07,1.0367215917942613e-07,-2.28247790739318e-09,1.9480133926701288e-07,1.4792810688110425e-07,1.2072420467309745e-07,3.4929720194172625e-07,2.7981444816398876e-07,2.465797318581164e-07
-1.3482823086313563e-07,1.7739988837522504e-07,1.5165235903107985e-07,2.6315075259007465e-07,2.0370768765295948e-07,1.3711158516915078e-07,3.276996947117598e-07,1.276745964128986e-07,2.207821524479317e-07,8.454684430166127e-08,9.960896259945282e-08,4.932490256118004e-08,2.1533324777765717e-07,1.614541262211695e-07,1.280590023165557e-07,3.711932243227864e-07,3.1035863125798463e-07,2.5024835051926154e-07
-1.5451260431239898e-07,1.991885548551149e-07,1.4932926830459455e-07,2.52277314014035e-07,2.1705756974318748e-07,1.6024784088038995e-07,3.5820759703486943e-07,1.3726347694239984e-07,2.424107255739305e-07,6.819017141832243e-08,1.0292841274140495e-07,1.0580728650750685e-07,2.3278765917240052e-07,1.7194976509294947e-07,1.324619114879187e-07,3.6536413234719366e-07,3.371935575945308e-07,2.4645967768656223e-07
-1.642657873708948e-07,2.3100654669017446e-07,1.482832739762328e-07,2.6263922831840416e-07,2.3069396949491516e-07,1.8142404874908472e-07,3.7930018502948537e-07,1.5063986203622432e-07,2.5779935627814284e-07,5.328300262421772e-08,1.1553323908216374e-07,1.6381294259467535e-07,2.4743870628599667e-07,1.802917105514005e-07,1.361942658651941e-07,3.74292737117156e-07,3.629496148137254e-07,2.403245282401798e-07
-1.5185711409199572e-07,2.607302390488401e-07,1.5091989515764535e-07,2.7409730562311197e-07,2.4446942736312954e-07,1.9971525689128458e-07,3.9363245839316393e-07,1.7089327448255034e-07,2.6842056696607036e-07,4.105436472844757e-08,1.3579858803073215e-07,2.1769294296221648e-07,2.5847362685467994e-07,1.8632534037785154e-07,1.3973895445589918e-07,4.0895758783521484e-07,3.8727446682038217e-07,2.3549645104428177e-07
-1.3449748165215646e-07,2.7744360953581006e-07,1.564256445528681e-07,2.7761646823760123e-07,2.561634499848805e-07,2.1357005896635437e-07,4.0218056620437895e-07,1.9628847669720176e-07,2.739853984543747e-07,3.084579308336453e-08,1.582529875706144e-07,2.6021398660522694e-07,2.637935098397944e-07,1.881587661552697e-07,1.409647166625856e-07,4.237376887050619e-07,3.9703530661864717e-07,2.3408974278304206e-07
-1.204429179700713e-07,2.759650956128174e-07,1.609608873527083e-07,2.5347560656527984e-07,2.6210157340184777e-07,2.2098533259401934e-07,4.038481616146369e-07,2.2073478835711155e-07,2.7249790284856353e-07,2.1938646237550584e-08,1.7599369690764137e-07,2.840463417757954e-07,2.61172107777201e-07,1.8322987275883998e-07,1.3678529530194657e-07,4.235953767288855e-07,3.951789491838392e-07,2.375894718385437e-07
-1.1288546592681293e-07,2.576707876486829e-07,1.6034499107208999e-07,2.1640886514908148e-07,2.593193277413874e-07,2.206262863943031e-07,3.973291334590927e-07,2.3765581207058024e-07,2.6239841713914543e-07,1.2287919675233974e-08,1.8419008062338103e-07,2.8763057844878163e-07,2.5000253275875397e-07,1.704061457453107e-07,1.2595380450223336e-07,4.1465243696193134e-07,3.8009444309353164e-07,2.471959358254327e-07
-1.2156137148631468e-07,2.2825148111924688e-07,1.5344615253360906e-07,1.7470008011078727e-07,2.477698044249141e-07,2.1308225478653706e-07,3.8329842217042376e-07,2.4399330797444585e-07,2.448581159562157e-07,8.785917692327223e-10,1.821849947205016e-07,2.7469742338803973e-07,2.322704627469698e-07,1.5132287320427518e-07,1.1053309251006626e-07,3.860035384603414e-07,3.5387484324809693e-07,2.6320554596974163e-07
-1.4126792266308857e-07,1.9475876839653803e-07,1.434810989840459e-07,1.344620313386352e-07,2.3077703123911103e-07,2.0104254501867583e-07,3.6485304517637833e-07,2.414435494938978e-07,2.2399392911627893e-07,-1.1744312546980257e-08,1.73169343747776e-07,2.532080784871417e-07,2.118389306095893e-07,1.298380990963305e-07,9.475984919044635e-08,3.4814367911864173e-07,3.3043111340875215e-07,2.8407875776666173e-07
-1.6158668929769223e-07,1.631493063590629e-07,1.3603077532358357e-07,1.1176624705050217e-07,2.1329083354151545e-07,1.8814527551894928e-07,3.4584321832405025e-07,2.3420105365870367e-07,2.0460485664471696e-07,-2.484977881313018e-08,1.621449507309246e-07,2.3025758345562674e-07,1.9227618903786422e-07,1.0992669092366924e-07,8.214307015589469e-08,3.1103329821162504e-07,3.092338913606889e-07,3.054820964130609e-07
-1.793429372696843e-07,1.3633632348642412e-07,1.3509921168592266e-07,1.0698628613571014e-07,1.9909318279663355e-07,1.77030194882629e-07,3.2848662423331224e-07,2.2534629455577206e-07,1.8912857079167082e-07,-3.7643960085154303e-08,1.5342536290992496e-07,2.116100005859006e-07,1.7468286294759622e-07,9.340572354087252e-08,7.29906891103715e-08,2.9006335190155987e-07,2.9102426613261406e-07,3.2058853666792335e-07
-1.9440936391784725e-07,1.1338539393916851e-07,1.399926509989627e-07,1.0382806779466842e-07,1.8878114722218993e-07,1.6785551609379856e-07,3.12207448900576e-07,2.1558924291284359e-07,1.7626349150705904e-07,-5.012767027160518e-08,1.4892216706264763e-07,1.990390687531858e-07,1.5737736792545748e-07,7.924302479247869e-08,6.436109580560375e-08,2.819819032852867e-07,2.734323241092233e-07,3.2245994185803563e-07
-2.057039703492832e-07,9.087726133229686e-08,1.4543007839057162e-07,9.755348083533796e-08,1.7991809058287137e-07,1.584708016366493e-07,2.9469796930733686e-07,2.0259841749284877e-07,1.6248158188888403e-07,-6.273130873648289e-08,1.4810712711814752e-07,1.9175244089078216e-07,1.3797143395481767e-07,6.51747393138626e-08,5.260750750214157e-08,2.773395035299252e-07,2.496338841222132e-07,3.078490179116574e-07
-2.1705985864936907e-07,6.581197538595514e-08,1.448964348078444e-07,9.135914674241264e-08,1.6928421982385288e-07,1.4601134395969658e-07,2.7435816529521644e-07,1.8508519911768416e-07,1.4515759507554398e-07,-7.596114646655258e-08,1.492715390408554e-07,1.9268684951092415e-07,1.161639838868453e-07,5.0282454332196474e-08,3.6485471907831265e-08,2.7342676937149204e-07,2.207128278866463e-07,2.7952648523730446e-07
-2.3141010883903622e-07,3.7897427605495704e-08,1.3452208801457783e-07,7.97008374872403e-08,1.5544041120199108e-07,1.2884415937518372e-07,2.5209249856604214e-07,1.6526549300006102e-07,1.2458314552914846e-07,-9.037877377182795e-08,1.5071921226424835e-07,2.0520750719144388e-07,9.484473190352764e-08,3.617733158007612e-08,1.8327919656606588e-08,2.657838924559939e-07,1.8895944571115326e-07,2.4532413283390355e-07
-2.472513233947402e-07,9.803071372946547e-09,1.1454338212335229e-07,6.413896836939011e-08,1.394643630884102e-07,1.0726992625399695e-07,2.3097980447070592e-07,1.4698762262658256e-07,1.0326129836408004e-07,-1.0497760885176606e-07,1.5110915770920115e-07,2.3451660145156662e-07,7.85767442813506e-08,2.568193004893277e-08,2.4175057593244656e-09,2.5770695503546645e-07,1.5956663480942163e-07,2.1468986687704956e-07
-2.633783694394199e-07,-1.4399726759467954e-08,8.777479478398385e-08,4.719525914107528e-08,1.2330085772350382e-07,8.307083409843164e-08,2.140081735326544e-07,1.3508147281973854e-07,8.338962416258351e-08,-1.1976454921434306e-07,1.4915348102265047e-07,2.770349029192694e-07,6.961050443792167e-08,2.0472345228469804e-08,-8.250320927153682e-09,2.5095960050841464e-07,1.3714580616020558e-07,1.93746207472298e-07
-2.778934729977209e-07,-3.17735219197691e-08,5.694128646925996e-08,2.9608887545696375e-08,1.0724214869837771e-07,5.81329620251328e-08,2.0157979830576906e-07,1.308224993915897e-07,6.458022047725748e-08,-1.3603894706663488e-07,1.4186186341960528e-07,3.2626663899358987e-07,6.767927517275057e-08,1.8128745430380453e-08,-1.447669473493443e-08,2.4196099973603177e-07,1.1873163189761306e-07,1.8429389540831468e-07
-2.894523514782641e-07,-4.267966796433818e-08,2.323296414523671e-08,1.2499974455558391e-08,8.882091934047814e-08,3.3268777878045686e-08,1.9081722804230717e-07,1.3067225651549702e-07,4.385540335377354e-08,-1.5574038629278368e-07,1.2716306818221356e-07,3.57273096766609e-07,6.85011331077817e-08,1.2853672496409729e-08,-2.0627688737337877e-08,2.2157974406519936e-07,9.646309052068177e-08,1.836834215438098e-07
-2.9836899878234224e-07,-5.078475888121258e-08,-1.2879098603422907e-08,-2.5513633751694087e-09,6.425674435567702e-08,8.388629341703456e-09,1.7736315129788748e-07,1.2916414092825587e-07,1.8196602194694983e-08,-1.8067255766859307e-07,1.0442509451512916e-07,3.394876075292611e-07,6.519227709905774e-08,-3.9758147884595293e-10,-3.1610208728282425e-08,1.8553964014588197e-07,6.509127845722003e-08,1.8508514705561194e-07
-3.0427592637452685e-07,-6.070888451169821e-08,-4.957615153643035e-08,-1.8002218703703658e-08,3.138927274563324e-08,-1.6366620469876832e-08,1.583063555661938e-07,1.2282395823911652e-07,-1.2286847688661335e-08,-2.082311216486251e-07,7.262289390050571e-08,2.8080340030388903e-07,5.3519925840678464e-08,-2.3334546373602117e-08,-4.929757570624771e-08,1.309418630406189e-07,2.4163281393771287e-08,1.8220494225552957e-07
-3.0579702363565185e-07,-7.538787615541719e-08,-8.254706168598189e-08,-3.619577799765846e-08,-8.315715985450881e-09,-3.964710196692513e-08,1.3402551332544593e-07,1.125257499032892e-07,-4.314077700574831e-08,-2.4317161048567206e-07,3.369413501743775e-08,2.419730745660284e-07,3.3570351503262195e-08,-5.290562804901634e-08,-7.10359390197711e-08,6.88951210545625e-08,-2.2694573520875597e-08,1.7118058127135356e-07
-3.0032337638274104e-07,-9.483318982131397e-08,-1.061088272167699e-07,-5.573447251123275e-08,-5.027271563302012e-08,-5.9129074442228527e-08,1.0775357457624638e-07,1.0248439910245185e-07,-6.744182570937465e-08,-2.6987410562975585e-07,-8.461289765210916e-09,2.3156652139472046e-07,9.370671520402308e-09,-8.277435125459058e-08,-9.112082155223018e-08,4.044683015409987e-09,-6.127429263927307e-08,1.5134386070462008e-07
-2.841026992168885e-07,-1.1604272000564221e-07,-1.1597456947207787e-07,-7.411911578720897e-08,-8.931239846653677e-08,-7.275435114719297e-08,8.32517759270655e-08,9.713716144455621e-08,-7.959764458243367e-08,-2.8714344684625455e-07,-5.155990016593381e-08,2.1161801088998423e-07,-1.3329929965937614e-08,-1.0687231786647532e-07,-1.0406741944472554e-07,-5.1322815746119566e-08,-9.134783979816916e-08,1.2615037307906862e-07
-2.55804833561955e-07,-1.337255206758856e-07,-1.1176928275190382e-07,-9.03100008381532e-08,-1.2233744736109176e-07,-8.004504882174204e-08,6.221460510235493e-08,9.731408617254985e-08,-7.863618180658032e-08,-2.8775936595111975e-07,-9.274668977400248e-08,1.653655858925585e-07,-2.204167418886086e-08,-1.2554560137317136e-07,-1.0738696488481673e-07,-6.59243123900904e-08,-1.0215356171060842e-07,1.087486196177633e-07
-2.1719614974843465e-07,-1.4213448769187736e-07,-9.756178658426667e-08,-1.0054160394304868e-07,-1.4919066138156372e-07,-8.238245363252398e-08,4.343881371824493e-08,9.984341021234722e-08,-6.869804298938254e-08,-2.637375307448731e-07,-1.1812200806951067e-07,1.3992969010044577e-07,-1.9797501856760425e-08,-1.372027119839118e-07,-1.019470438839451e-07,-6.787363010940502e-08,-8.222772312980636e-08,1.0368470932832558e-07
-1.722810724618223e-07,-1.3734618969048672e-07,-7.99490008439416e-08,-1.0626904377609564e-07,-1.7116773905929577e-07,-8.197090160828283e-08,2.457992230165925e-08,1.001690441707969e-07,-5.635885704836549e-08,-2.5315062387288e-07,-1.2934221770763506e-07,1.685404379510776e-07,-1.2523095563433836e-08,-1.3767319674409207e-07,-8.997398620118147e-08,-7.074449999423189e-08,-6.787886019354853e-08,1.0545614255671251e-07
-1.2582830152012846e-07,-1.1847354068160906e-07,-6.476466736102727e-08,-1.0787528058834942e-07,-1.8858001447020314e-07,-8.028754140998066e-08,4.926527820219649e-09,9.592554451228719e-08,-4.682834650612675e-08,-2.4441318052560776e-07,-1.262448552515587e-07,1.9683247834828236e-07,3.4897894953364658e-09,-1.2786453607422028e-07,-7.282710302362757e-08,-5.96761268004511e-08,-6.173125918402865e-08,1.173868865676867e-07
-8.117071863959035e-08,-8.718932244917734e-08,-5.446455497872131e-08,-1.0478121634518319e-07,-1.9963340664402145e-07,-7.724794083471601e-08,-1.3479351469205643e-08,8.9563163365972e-08,-4.181836019449736e-08,-2.4576659156122516e-07,-1.027173903563604e-07,2.3347579375357555e-07,1.4190754632835817e-08,-9.987232278652458e-08,-5.066391185399994e-08,-5.0754970941116e-08,-3.687442762207913e-08,1.2522749359551702e-07
-3.962165419385209e-08,-4.6335457584390246e-08,-4.794611861978026e-08,-9.923318409082565e-08,-2.0161574514870288e-07,-7.184450284051615e-08,-2.745184491672064e-08,8.621965935696951e-08,-4.0290815848740285e-08,-2.2664716785499074e-07,-1.09494994977833e-07,2.73290731008686e-07,2.980255390463692e-08,-5.5687357175109436e-08,-2.412724895602134e-08,-5.76274814063074e-08,-1.2062968931734399e-08,1.278921029213858e-07
-1.546764915854015e-09,8.461973507485412e-10,-4.2854364168780815e-08,-9.272633698309178e-08,-1.933979556982464e-07,-6.378496226590124e-08,-3.5509688624632084e-08,8.957726764747452e-08,-4.090521285287798e-08,-1.906681290770104e-07,-1.3347157308872064e-07,2.9821187225354156e-07,6.093317308534707e-08,-8.540734383578193e-09,3.776645385655018e-09,-4.175622887601778e-08,1.9337366434290535e-08,1.3896855595838165e-07
3.18390032200976e-08,4.998273264691233e-08,-3.8309384640430824e-08,-8.787306256996558e-08,-1.7731032279280399e-07,-5.466595533863727e-08,-3.935812549255873e-08,9.940575632831431e-08,-4.370695195001215e-08,-1.379033004675997e-07,-1.0976482713325583e-07,3.3654258814824547e-07,9.529266163946664e-08,3.688664312075685e-08,2.7794874424998554e-08,3.617520049292585e-09,5.073200917162014e-08,1.4659581942750333e-07
5.8294661105010084e-08,9.459785838532164e-08,-3.55125238225959e-08,-8.64596716248464e-08,-1.5879684221787768e-07,-4.755029360483642e-08,-4.262311693970695e-08,1.1163832117712111e-07,-4.944556081568904e-08,-1.0094807848486965e-07,-6.646035658145602e-08,3.973231952554804e-07,1.3525016159338766e-07,6.881185933498215e-08,4.3079517387918624e-08,3.217641391077474e-08,5.828466595886872e-08,1.522906507415968e-07
7.568972807653261e-08,1.271891764654573e-07,-3.5745864117542746e-08,-8.88792874970731e-08,-1.4371748756054095e-07,-4.495270707877726e-08,-4.7815102780321514e-08,1.2211738120927234e-07,-5.7240480864742384e-08,-7.631405851618408e-08,-2.4710143450907564e-08,4.722303829424443e-07,1.6884255627335217e-07,8.416293495453367e-08,4.8489054509654194e-08,5.0092886758207706e-08,5.530280830369675e-08,1.536713866741688e-07
8.411267299816206e-08,1.423644920982543e-07,-3.785264465762201e-08,-9.223337443923763e-08,-1.3510078130586192e-07,-4.678248964966571e-08,-5.3974696929736305e-08,1.2980858603939495e-07,-6.308588984909688e-08,-4.648984403132265e-08,1.4564994313310807e-08,5.357968141663119e-07,1.8646825885513803e-07,9.233846775953768e-08,4.779017700364179e-08,8.868244796170883e-08,4.240415401077369e-08,1.4030163599883537e-07
8.700095400988844e-08,1.3928126790319216e-07,-3.7736621423154596e-08,-9.257939449231926e-08,-1.318002570805581e-07,-5.00175179906287e-08,-5.691213525583816e-08,1.3704704097366764e-07,-6.115352038623704e-08,-4.197080454609927e-08,3.625690916508683e-08,6.178262967689155e-07,1.9782816378909846e-07,9.824255637495727e-08,4.761284903101767e-08,9.153189443016908e-08,2.788692582612567e-08,1.2340074994373248e-07
8.974564212201387e-08,1.2140348825209123e-07,-3.056122943894246e-08,-8.667361240607587e-08,-1.3001040305160005e-07,-5.045140246863919e-08,-5.199972451943032e-08,1.4716082826403e-07,-4.726217887480881e-08,-3.74767089315239e-08,5.100530059095968e-08,6.338394971141694e-07,2.0761125280167865e-07,1.0902810954401408e-07,5.357509901643175e-08,7.100691014610287e-08,2.4996208551227106e-08,1.0986642585959113e-07
9.680295663266616e-08,9.457370054848081e-08,-1.3951537574897295e-08,-7.341949713733592e-08,-1.2627138700760358e-07,-4.519950078339692e-08,-3.743894293258363e-08,1.6152684505567892e-07,-2.1913052436516658e-08,-3.8309249557045e-08,6.490869135869118e-08,6.270011900835858e-07,2.204530420827687e-07,1.2779723528584725e-07,6.742651176531988e-08,6.563984190674046e-08,3.430123026217774e-08,1.0235412245293055e-07
1.0945739221203473e-07,6.544885059007275e-08,1.052520771222132e-08,-5.448438576289504e-08,-1.195213460899233e-07,-3.404401332316561e-08,-1.5291231573713195e-08,1.7864128516997862e-07,9.688805387571395e-09,-2.8618779099770415e-08,8.100371884903557e-08,6.330893286222115e-07,2.380732539926382e-07,1.5083802865442013e-07,8.72137483045054e-08,6.316460379650739e-08,5.05027857809909e-08,1.0424182201712391e-07
1.2581337354011283e-07,4.0799611427326666e-08,3.889666814694392e-08,-3.353167750294351e-08,-1.1092388559016704e-07,-1.8838174294520538e-08,1.0620104669231737e-08,1.9582864385527161e-07,4.0992829815453266e-08,-3.180389905615732e-09,1.050830083347668e-07,6.695328348085194e-07,2.5613636555491734e-07,1.745690954976361e-07,1.0990533809171045e-07,6.677845603113257e-08,6.873545487766342e-08,1.1267022707840771e-07
1.4262418468326818e-07,2.6780413891452392e-08,6.784345904847444e-08,-1.3739477077713127e-08,-1.0234775813079001e-07,-1.8549231837034031e-09,3.789841170982356e-08,2.1199922188548266e-07,6.801535460472594e-08,2.3317990039237598e-08,1.3347141181859596e-07,6.952557633176166e-07,2.71787852596735e-07,1.9629299158594078e-07,1.33932958860764e-07,7.821287067573969e-08,8.862296887607909e-08,1.2531642828013966e-07
1.5718477650622762e-07,2.7541552307675505e-08,9.647364395979677e-08,3.982058800795894e-09,-9.517159704028315e-08,1.542210103368167e-08,6.68331460626595e-08,2.283823916652776e-07,9.072214499958087e-08,5.098684392562514e-08,1.6121684362668605e-07,7.195730186325433e-07,2.85147638504211e-07,2.1529066975031778e-07,1.5955280250203619e-07,9.177998241833621e-08,1.1276752485147532e-07,1.4140211649820787e-07
1.679267778205093e-07,4.354041051629601e-08,1.2541144859486702e-07,2.1726905640965408e-08,-9.022196372108196e-08,3.2338931631291926e-08,9.874271959242055e-08,2.467706515727554e-07,1.1118564019291546e-07,7.777410029948609e-08,1.8714575279407197e-07,7.174323345870383e-07,2.977081852768654e-07,2.325209143007509e-07,1.870945090747648e-07,1.1398335505696684e-07,1.4554520198484646e-07,1.5938419516512758e-07
1.7368283099956042e-07,7.05692842141756e-08,1.544069788833801e-07,4.2439437157736485e-08,-8.848603125829559e-08,4.830967617161467e-08,1.3333237765509683e-07,2.668071721786212e-07,1.3064579821769596e-07,9.911156898422456e-08,2.0760783856412213e-07,6.859433345768984e-07,3.106097850894643e-07,2.485852239828671e-07,2.150347728506677e-07,1.440619883044329e-07,1.864187567723845e-07,1.7699550284935567e-07
1.727502661195013e-07,1.0043408109229381e-07,1.811039036576659e-07,7.010333607123095e-08,-9.144015994255104e-08,6.22524832559192e-08,1.6801336280115163e-07,2.8568859173348573e-07,1.4815592329420488e-07,1.1296768555224693e-07,2.1776087770575745e-07,6.696178435096524e-07,3.236750441007852e-07,2.6279699252475607e-07,2.399886562319151e-07,1.7993570556440425e-07,2.3088156712998155e-07,1.923944972120049e-07
1.63052083674799e-07,1.2348928510760405e-07,2.0238776043497982e-07,1.0686571591085733e-07,-1.0006747317811271e-07,7.297153685308469e-08,2.0015876658303788e-07,3.0003473596831493e-07,1.6202591315107936e-07,1.2017113583735108e-07,2.144535490320617e-07,6.250356706886551e-07,3.3622647633576234e-07,2.741178260830118e-07,2.588802813455023e-07,2.1701664240427042e-07,2.733353794947814e-07,2.058867028851733e-07
1.4341350501744816e-07,1.3242553068794776e-07,2.1708399804176855e-07,1.5264305152032202e-07,-1.1317472859330257e-07,8.0153179984024e-08,2.3013663888374688e-07,3.090750019272583e-07,1.7251032115781685e-07,1.1853362624054694e-07,1.9749054717639988e-07,5.617999800197218e-07,3.485759349045613e-07,2.828837198488202e-07,2.7131806463799066e-07,2.5681975348954396e-07,3.117238855291561e-07,2.2040690205376344e-07
1.1482925021404656e-07,1.2584990241313555e-07,2.2751764507287892e-07,2.049537262799885e-07,-1.266872483982464e-07,8.490536212403647e-08,2.6197443807238554e-07,3.1640894535886943e-07,1.8281996341138507e-07,1.0905097335833167e-07,1.717982984122439e-07,4.988979100475874e-07,3.6246212053384436e-07,2.9129921823836787e-07,2.799390356633357e-07,2.980353401172599e-07,3.4685368577867086e-07,2.40264580722311e-07
8.062754335099972e-08,1.094718071988619e-07,2.3848154937985347e-07,2.5956469291445206e-07,-1.3486665725403078e-07,8.918479458197007e-08,3.00609470866285e-07,3.2743636700721675e-07,1.9725253715370185e-07,9.545942737724205e-08,1.4556992890198337e-07,4.3705800455530896e-07,3.7989682749295505e-07,3.018104363748171e-07,2.8836112749171574e-07,3.4015140574101174e-07,3.795671019020905e-07,2.686573367817579e-07
4.536551776691004e-08,9.354056843970716e-08,2.540694963256359e-07,3.039521470410193e-07,-1.3300867710322088e-07,9.445216181862813e-08,3.475609655323111e-07,3.45648372040907e-07,2.1775632618821175e-07,7.984643935703216e-08,1.365192316754189e-07,4.075357835295958e-07,4.013045348496103e-07,3.1459959730086043e-07,2.984005091647844e-07,3.8260038839609646e-07,4.084635343902115e-07,3.053747815567548e-07
1.3241448786850426e-08,8.770151539895698e-08,2.743843413539392e-07,3.267124641004891e-07,-1.2014265888509974e-07,1.0059182909350491e-07,3.9826510909398606e-07,3.6969376602101867e-07,2.4158774101340286e-07,6.431572234943741e-08,1.389807377940114e-07,4.096409156007059e-07,4.244939571269299e-07,3.265352698553426e-07,3.088160882264561e-07,4.196160808611798e-07,4.2888091921972634e-07,3.457198939633455e-07
-1.2824996148440747e-08,9.651245213032831e-08,2.9463803261547167e-07,3.2504871157024127e-07,-9.970803036299462e-08,1.0607089005149571e-07,4.434201683708619e-07,3.938076486622431e-07,2.6225729453266376e-07,4.945199384083898e-08,1.5577610795136744e-07,4.1282309240193503e-07,4.454736527619315e-07,3.328607155986502e-07,3.166308403805071e-07,4.4573914742051183e-07,4.3641519637535035e-07,3.8256795020597363e-07
-3.0870159519713905e-08,1.1860471790993846e-07,3.0780371336548e-07,3.223810453387753e-07,-7.725968032107536e-08,1.0931530790656075e-07,4.7375607481164627e-07,4.1170167181894506e-07,2.73491228915373e-07,3.509842848609677e-08,1.8938159116613876e-07,4.035904668922289e-07,4.607868961232132e-07,3.3052250857440207e-07,3.1984617954544703e-07,4.579435704069745e-07,4.3088370961031737e-07,4.100862059689136e-07
-3.9074873270034805e-08,1.4963551644640073e-07,3.0919836866017727e-07,3.365881579638513e-07,-5.687126357812015e-08,1.1015757701387244e-07,4.848565819802971e-07,4.2077955378766325e-07,2.732617244634481e-07,2.1758448466485025e-08,2.1618715153054133e-07,4.1578392795867886e-07,4.696653173837721e-07,3.2053519054324273e-07,3.1914165531460456e-07,4.576940643795591e-07,4.175080252423876e-07,4.264034960973004e-07
-3.573194350153964e-08,1.8604005252452065e-07,2.9957263330586333e-07,3.4051097767018493e-07,-3.911935552655541e-08,1.1018501633799284e-07,4.787232097396374e-07,4.2353769025662926e-07,2.648471734815289e-07,1.0657089389318729e-08,2.546880238885233e-07,4.407194033416878e-07,4.7426327166244585e-07,3.075022296808332e-07,3.171281299941972e-07,4.5040261369732703e-07,4.0408084473427306e-07,4.3323930853703033e-07
-2.034548105331997e-08,2.2645519504281192e-07,2.843885297065409e-07,3.189643496284044e-07,-2.2004363533906436e-08,1.1174109006973289e-07,4.614017369887278e-07,4.251552007718273e-07,2.542502162688792e-07,3.0012883081281405e-09,2.968508383632753e-07,4.945033035606089e-07,4.777138348308708e-07,2.965399345910141e-07,3.1578907367667776e-07,4.418421457912178e-07,3.962343224794975e-07,4.3299375638862426e-07
4.934786913034339e-09,2.702572164243741e-07,2.699891741321908e-07,2.919320358260482e-07,-3.886682210320569e-09,1.1618947704514698e-07,4.386791268094285e-07,4.293839738432585e-07,2.4601972934914476e-07,-1.094330393108099e-09,3.2693110949652794e-07,5.477705714262628e-07,4.814304256923334e-07,2.89750059200839e-07,3.1420559288433803e-07,4.348451776846841e-07,3.9371765794910214e-07,4.259370648367239e-07
3.47692011352948e-08,3.149490663853692e-07,2.5969962509284296e-07,2.6861871928218637e-07,1.3892590693930272e-08,1.2256954436936378e-07,4.1304500693694115e-07,4.3553530698513814e-07,2.4062847873053107e-07,-3.0864044694115593e-09,3.5283071216407966e-07,6.189905946573774e-07,4.838630827429265e-07,2.84864365009201e-07,3.086185509895343e-07,4.2832121834230977e-07,3.907020952218948e-07,4.1007834608646445e-07
6.185558556398677e-08,3.548936202193313e-07,2.5277325232472014e-07,2.4820114514488206e-07,2.6934262109855083e-08,1.2775856984895738e-07,3.839995546372639e-07,4.3914815594950396e-07,2.3532085209071303e-07,-5.3842485589495676e-09,3.5216429476805254e-07,6.795685341140435e-07,4.819075939442052e-07,2.771071196744338e-07,2.9509925508617696e-07,4.189634267725237e-07,3.803570763391304e-07,3.844217866593927e-07
7.971356448410969e-08,3.8282562550783935e-07,2.465254873946826e-07,2.4133338641908946e-07,3.041077130463668e-08,1.2820765516034085e-07,3.508213398121875e-07,4.3585230103516596e-07,2.2720893960070893e-07,-1.0090051887435174e-08,3.277216944369394e-07,6.900525212827409e-07,4.7381874459794336e-07,2.6270699842875497e-07,2.727591569585454e-07,4.029798340328133e-07,3.6006154275565577e-07,3.5256744778530636e-07
8.539485614537336e-08,3.931078104522623e-07,2.3922604803589674e-07,2.4251004423136045e-07,2.2166103510775708e-08,1.2194698285361113e-07,3.149012648034876e-07,4.2466046827612204e-07,2.1559472886761737e-07,-1.8122991873467036e-08,2.933556501450027e-07,6.84824140821936e-07,4.6101718504876087e-07,2.4128532150998735e-07,2.4483262809292026e-07,3.802034935369831e-07,3.3209788894946547e-07,3.2315854401348546e-07
8.022510253046004e-08,3.8422838217304454e-07,2.3113653004469248e-07,2.497873135832014e-07,3.879796358942487e-09,1.0926920176566279e-07,2.7960078460403055e-07,4.0851130672495784e-07,2.0174335896477371e-07,-2.9292693480391547e-08,2.5534683549510307e-07,6.6303892669922e-07,4.471668869673144e-07,2.1552490455543224e-07,2.1674174657676538e-07,3.5218332848242886e-07,3.0304314797171575e-07,3.0588360080329356e-07
6.814130494096733e-08,3.588935804374059e-07,2.2320973393753882e-07,2.613439030856604e-07,-2.018853216983882e-08,9.212762315484941e-08,2.4790047684187687e-07,3.9175814126712263e-07,1.8681102730880856e-07,-4.3071160683638856e-08,2.2744511976792888e-07,6.338411894276767e-07,4.35207988818664e-07,1.8867623001491657e-07,1.9257838925249833e-07,3.207978304952996e-07,2.780560498133457e-07,3.054168230145259e-07
5.289888368627348e-08,3.220441279616205e-07,2.149145542929417e-07,2.7019306920560383e-07,-4.563636505261582e-08,7.250806987015338e-08,2.1982855716099048e-07,3.7669333703575877e-07,1.6996304667328087e-07,-5.934656893341176e-08,2.1255457830371745e-07,6.135072606663873e-07,4.2467661960663254e-07,1.619547398080577e-07,1.7253161731843525e-07,2.8479659689207636e-07,2.548274718038669e-07,3.1746388611960587e-07
3.603995079136891e-08,2.7848769886323305e-07,2.0323015765730417e-07,2.734678790748292e-07,-6.996289796149177e-08,5.1052078162985456e-08,1.9195228662176102e-07,3.62171684355417e-07,1.4842898074994923e-07,-7.848626848776704e-08,2.0580521517105472e-07,5.927831462017973e-07,4.115803312076948e-07,1.3392385469080648e-07,1.5314942577765165e-07,2.4005593749651703e-07,2.2670056113228654e-07,3.298116523522086e-07
1.6877895362411666e-08,2.3173193026089378e-07,1.8412525888407687e-07,2.6817831047088025e-07,-9.30902597938172e-08,2.7460824888638756e-08,1.5974381134888716e-07,3.448991456695854e-07,1.1978762827449475e-07,-1.0052804898235086e-07,1.9991944446047887e-07,5.674903643298014e-07,3.9118284654335484e-07,1.0236195518765419e-07,1.3027034572380063e-07,1.8485421033520285e-07,1.859770160358831e-07,3.2831280859733227e-07
-6.436481074539935e-09,1.843781307352758e-07,1.5579185291904556e-07,2.524164936624376e-07,-1.16114727365733e-07,1.7432370989963063e-09,1.2117571827650626e-07,3.225275202964689e-07,8.479124980181579e-08,-1.2411383905709788e-07,1.8742709937258834e-07,5.348781363767506e-07,3.616381208046822e-07,6.695324854316273e-08,1.0240106056465187e-07,1.2092656550532688e-07,1.327666868836831e-07,3.0464765555791867e-07
-3.301038949241593e-08,1.3934566053852957e-07,1.209529534543356e-07,2.2817560665717244e-07,-1.3942702864571036e-07,-2.4644332181673194e-08,7.860864534519083e-08,2.9591495285219913e-07,4.8286844015056756e-08,-1.4619738775781462e-07,1.6442686341628514e-07,4.939873290913873e-07,3.25755489102175e-07,3.0473908102155385e-08,7.211326840230912e-08,6.520744574293952e-08,7.326143041917737e-08,2.6085729263285997e-07
-5.925494158706346e-08,9.976039659467822e-08,8.600187489059367e-08,2.0073132625676797e-07,-1.6189371471709582e-07,-4.869718224784848e-08,3.733379227869575e-08,2.687630809077928e-07,1.715982416017086e-08,-1.6303693999764586e-07,1.3172198495271218e-07,4.4887893787607875e-07,2.898016414836726e-07,-2.3723018564100715e-09,4.471354143564866e-08,3.505869343734452e-08,2.788985611573006e-08,2.082918434933338e-07
-8.032299884149999e-08,7.106778470028589e-08,5.7298490250232874e-08,1.7643999039786363e-07,-1.8164351384801822e-07,-6.710722407945997e-08,1.880556752241589e-09,2.450593880764802e-07,-3.41310657736652e-09,-1.7198006777337805e-07,9.360489207537126e-08,4.0573258297624403e-07,2.603921272521013e-07,-2.739344155626497e-08,2.5281890723284794e-08,4.4690391093366484e-08,1.503262144642599e-08,1.6234193480157945e-07
-9.200296952584368e-08,5.7533607835189125e-08,3.731823869302357e-08,1.5994527077838148e-07,-1.9760231440770846e-07,-7.798039512983173e-08,-2.7021574011634744e-08,2.2633964106328823e-07,-1.281402444314413e-08,-1.728931854451101e-07,5.551536346850407e-08,3.700638097401964e-07,2.415625141423601e-07,-4.2842442388849085e-08,1.6070721474919508e-08,4.812840557885044e-08,1.4040729427657415e-08,1.357449802243668e-07
-9.271094621158039e-08,5.988577430006268e-08,2.363482313999065e-08,1.524530016316177e-07,-2.1040461427340422e-07,-8.173010569970486e-08,-5.247440867844125e-08,2.1100383275724094e-07,-1.4907316766072708e-08,-1.682092624845737e-07,2.204023102753077e-08,3.451531824433632e-07,2.3373227526928862e-07,-4.9617661901859725e-08,1.5948770344275078e-08,2.621236884508327e-08,7.799485706861582e-09,1.3369643353381834e-07
-8.549807836966522e-08,7.249626164547932e-08,1.1486574484766053e-08,1.5198875024587738e-07,-2.2174893487182807e-07,-8.053516139049524e-08,-7.852277250997436e-08,1.9613954364645194e-07,-1.5038166794013316e-08,-1.6153176911426718e-07,-3.805534256757039e-09,3.322668992559048e-07,2.3477953016283783e-07,-4.987815457728898e-08,2.1973690820794536e-08,-7.458554678078922e-09,2.4075191152357683e-09,1.526181785655523e-07
-7.588748988024282e-08,8.590429465216553e-08,-2.2901471798543933e-09,1.55055831430575e-07,-2.3272222642186292e-07,-7.698732562628876e-08,-1.0679543619156889e-07,1.8030054896758524e-07,-1.65313773063019e-08,-1.5578144751305838e-07,-2.0222135490921642e-08,3.3146940518056133e-07,2.418209826458202e-07,-4.5557657533511395e-08,3.139847435829418e-08,-1.1315128134622527e-08,9.206641673603222e-09,1.8285410108829225e-07
-6.940599633486589e-08,9.162454246004539e-08,-1.7076748869822075e-08,1.5821156118449347e-07,-2.42821794408914e-07,-7.292756274021508e-08,-1.3532551557400542e-07,1.6471442254398721e-07,-1.94723487035591e-08,-1.5214515359630208e-07,-2.6395163809739438e-08,3.4162693406490577e-07,2.5205578741751785e-07,-3.81994146570426e-08,4.230962044986237e-08,4.1099266919439125e-09,2.6535064017775396e-08,2.1298762996752958e-07
-7.069077427019015e-08,8.518094637778772e-08,-2.948495127110021e-08,1.5866582850227157e-07,-2.5064378212417575e-07,-6.936983333198942e-08,-1.6028242086665626e-07,1.516336839019506e-07,-2.2395768682379288e-08,-1.5040109879496221e-07,-2.3160538074378926e-08,3.6009972403438446e-07,2.623928951020794e-07,-3.000720847835538e-08,5.271673631143651e-08,2.768664194758433e-08,4.229413262996111e-08,2.3283057028215176e-07
-8.205861175282352e-08,6.77136288228592e-08,-3.648661741204041e-08,1.5418168667316826e-07,-2.553920775145069e-07,-6.730840062082759e-08,-1.7909262981699536e-07,1.4205467550841286e-07,-2.48877378294978e-08,-1.501200005578917e-07,-1.3758483868524319e-08,3.828469645889592e-07,2.6903717031025174e-07,-2.4626014104467038e-08,5.9546419723247957e-08,5.146723926310576e-08,6.637946050520059e-08,2.3475108460326845e-07
-1.0387277070171231e-07,4.314580936363116e-08,-3.799401659300717e-08,1.429457434662188e-07,-2.57711263274852e-07,-6.824846702723735e-08,-1.923769859248021e-07,1.3386761752925015e-07,-2.856884314432002e-08,-1.5158724499471863e-07,-3.352749925085048e-09,4.0569043589046437e-07,2.683425808383271e-07,-2.627253208637074e-08,5.917301056456988e-08,7.375380542508816e-08,8.828508689847029e-08,2.1511330913894867e-07
-1.3500999891811988e-07,1.6150072595807937e-08,-3.6746402590126e-08,1.2379476945197918e-07,-2.5917805877565053e-07,-7.376048391684688e-08,-2.0312107529281835e-07,1.2304198803391153e-07,-3.566914018305029e-08,-1.5564378833146907e-07,2.8606941334366207e-09,4.2617140203088596e-07,2.588722948967622e-07,-3.733692014057417e-08,4.958518356034483e-08,7.8719353860298e-08,8.685068927262277e-08,1.763522509831388e-07
-1.742445368768008e-07,-9.55346888542415e-09,-3.588167491988121e-08,9.683148470141584e-08,-2.6099926814192287e-07,-8.421171335947956e-08,-2.1399142642861515e-07,1.0720699406720576e-07,-4.6698626618951075e-08,-1.627500229941865e-07,2.0156408804937934e-09,4.448095157114505e-07,2.4298431189136823e-07,-5.619130487798134e-08,3.2385089054282597e-08,5.636977645662472e-08,7.119203258982015e-08,1.2762971955271181e-07
-2.1649875441705175e-07,-3.3729595598584544e-08,-3.671287158748322e-08,6.40729942889153e-08,-2.6314960045124087e-07,-9.789748633454848e-08,-2.253295446890856e-07,8.742702808944875e-08,-5.966203090973093e-08,-1.722288731771202e-07,-4.958757796280861e-09,4.6464287528846656e-07,2.261911973712483e-07,-7.717622887629756e-08,1.2602409411236333e-08,3.203609672316702e-08,4.95503474595509e-08,8.24250201148454e-08
-2.566508284637486e-07,-5.669524830512947e-08,-3.8678677961935294e-08,2.9538866517200502e-08,-2.647920468729725e-07,-1.1166139324837316e-07,-2.35458661721583e-07,6.799942451974406e-08,-7.07570793008682e-08,-1.8241978653182772e-07,-1.4054017479191549e-08,4.888001784810788e-07,2.1426486874987318e-07,-9.324920741879609e-08,-3.904313670209992e-09,3.9010527119114256e-09,3.013969743847864e-08,5.376356887274463e-08
-2.841844140389745e-07,-8.063764775967458e-08,-4.1142179924807505e-08,-1.6635588198692415e-09,-2.655993492091356e-07,-1.2254168124608578e-07,-2.427562294740047e-07,5.345594064469328e-08,-7.745176208679901e-08,-1.9164205373939094e-07,-2.1000168615656293e-08,5.17697885756872e-07,2.0994245583233798e-07,-9.970998749218112e-08,-1.3641199799453892e-08,-1.7503436022407265e-08,2.062343742172387e-08,4.967982976925099e-08
-2.9791144074267196e-07,-1.0697499257271123e-07,-4.5046655459829437e-08,-2.5095296437454165e-08,-2.666488915135373e-07,-1.2929020054541145e-07,-2.4749491049335436e-07,4.532566134200505e-08,-7.990975233833646e-08,-1.9916521571506342e-07,-2.3982074912973165e-08,5.480993791310524e-07,2.1167531360533156e-07,-9.635875162279639e-08,-1.687250235232677e-08,-3.277542409727472e-08,1.588189231005526e-08,7.075910870793494e-08
-3.015344413840226e-07,-1.273698261849408e-07,-5.252889762198396e-08,-3.8558432646508325e-08,-2.6988460388908146e-07,-1.3261379222542785e-07,-2.516609349547315e-07,4.156741708280523e-08,-7.997387230707299e-08,-2.053242711958367e-07,-2.395028632417091e-08,5.749448127338049e-07,2.1544055101524063e-07,-8.648620503086687e-08,-1.62057660340914e-08,-4.507560442956817e-08,8.939626872632605e-09,1.1056997011279134e-07
-2.9858601568126963e-07,-1.435765387421016e-07,-6.445542755467397e-08,-4.238019885455033e-08,-2.765811921730618e-07,-1.3399400929712593e-07,-2.56811416930453e-07,3.893412292662503e-08,-7.895645283587372e-08,-2.107239238492947e-07,-2.2741978086037933e-08,5.947371111185345e-07,2.1808367496837538e-07,-7.372081094693724e-08,-1.3716868663360074e-08,-5.587600838517126e-08,-2.5482160861893546e-09,1.584282975585342e-07
-2.9220628617676473e-07,-1.5530698169569642e-07,-7.808158094610255e-08,-3.855947472920003e-08,-2.86267542482174e-07,-1.342106216894449e-07,-2.620069936971066e-07,3.592408019571195e-08,-7.59787030154811e-08,-2.1538243451595027e-07,-2.1132386628609366e-08,6.077513198757713e-07,2.1944311629322516e-07,-5.948484480892926e-08,-9.154525314009317e-09,-6.473366667392984e-08,-1.5643181499868048e-08,2.0310928513063664e-07
-2.737542466166082e-07,-1.6706231902924591e-07,-8.730001004629463e-08,-2.9936875330281805e-08,-2.9698562622959186e-07,-1.3280011334373874e-07,-2.638159154400341e-07,3.3620018322703305e-08,-6.895990487346371e-08,-2.1857021443190762e-07,-1.831514406918746e-08,6.170836535981158e-07,2.2186024887458177e-07,-4.288246276867672e-08,-5.810893915167358e-10,-6.917665734516363e-08,-2.422665854341674e-08,2.3589541219666815e-07
-2.426983650833995e-07,-1.5879630732770266e-07,-8.580822699364054e-08,-1.9866118936785503e-08,-3.064514268927148e-07,-1.286411095670934e-07,-2.5838350422839626e-07,3.42960067404618e-08,-5.691623864109189e-08,-2.1923033352459887e-07,-1.277508977638926e-08,6.255422188922428e-07,2.2798609120328595e-07,-2.252049782742565e-08,1.3517790993417957e-08,-6.672287719155095e-08,-2.304250576615298e-08,2.520793141612443e-07
-1.8646058941214676e-07,-1.2597760747854748e-07,-7.092221912878157e-08,-1.1718241442113122e-08,-3.1301262865952487e-07,-1.2082455855865482e-07,-2.436735215140079e-07,3.9152456131139936e-08,-4.135080507944418e-08,-2.1635198427860004e-07,-3.612888306080515e-09,6.332310909956752e-07,2.38935931089762e-07,1.6980166459367623e-09,3.284018003599427e-08,-5.638624609755636e-08,-9.651612131480353e-09,2.5134116602237387e-07
-1.0914900810138403e-07,-7.051366900590433e-08,-4.4976027347810784e-08,-7.716337702235424e-09,-3.15548003496365e-07,-1.0890460334888776e-07,-2.1936293158509173e-07,4.779324631969258e-08,-2.483221645514177e-08,-2.088724147047162e-07,8.772078924368404e-09,6.377760674644359e-07,2.542449445461154e-07,2.8469229191033854e-08,5.583344654680143e-08,-3.8262287608519545e-08,1.6571437197283073e-08,2.3767006964460475e-07
-7.219817020022757e-08,-2.694952479257346e-09,-1.3209813386356017e-08,-7.664392676838353e-09,-3.1245877923350337e-07,-9.23962723401839e-08,-1.868729418234261e-07,5.987518768693426e-08,-8.305902773393951e-09,-1.9531925877622482e-07,2.3092806416960774e-08,6.367946017924024e-07,2.7333921477796947e-07,5.660839539152235e-08,8.136499063714872e-08,-1.2139614574945508e-08,5.608661815153754e-08,2.1868816205956326e-07
-6.062558407572128e-08,2.9146839383314643e-08,1.9833957808492664e-08,-8.615162866726457e-09,-3.010173995082705e-07,-7.039660007547182e-08,-1.4752641059449452e-07,7.656375656898783e-08,1.0280468153658659e-08,-1.7388564064521574e-07,3.813886825853864e-08,6.303109492899798e-07,2.968295981847044e-07,8.644989104281369e-08,1.0958807650815228e-07,2.289909524723809e-08,1.088270297852504e-07,2.0349814304248397e-07
-3.2658213438579954e-08,3.75278447894123e-08,5.223745090777844e-08,-6.016361348460863e-09,-2.783104936827585e-07,-4.128387448342177e-08,-1.027330819797954e-07,1.0008895882213695e-07,3.452406023709354e-08,-1.4335155404288279e-07,5.338109792504524e-08,6.211771242349219e-07,3.261410165735357e-07,1.1951137062317123e-07,1.4105377675051349e-07,6.713660060023656e-08,1.7166673135421732e-07,1.992278445127482e-07
1.7220576326716876e-09,3.553674152734352e-08,8.380136002468083e-08,4.0293532072802376e-09,-2.4347615405679687e-07,-5.9193266881356325e-09,-5.590179357188779e-08,1.3125471884362973e-07,6.618395422285357e-08,-1.0440389377328325e-07,6.879259728999013e-08,6.1325909058623e-07,3.615714861521773e-07,1.5658334799262193e-07,1.7490383823862862e-07,1.184041632241981e-07,2.3678748329331848e-07,2.0803674753463775e-07
8.431133405369732e-08,6.48136601096653e-08,1.1407292477371954e-07,2.2611708303930784e-08,-1.9930929879610567e-07,3.181731569505341e-08,-1.3512654991131475e-08,1.6729275951281634e-07,1.0288703119902864e-07,-6.026308930235853e-08,8.426328311679012e-08,6.088053536396833e-07,4.005217389772114e-07,1.9599961742135976e-07,2.0794734883516254e-07,1.716231478152368e-07,2.931616856512302e-07,2.2672197574046985e-07
1.7309465482440647e-07,1.330126808878959e-07,1.4176725043555578e-07,4.7480760269259356e-08,-1.5148015118481454e-07,6.802614418460049e-08,1.857097044714505e-08,2.0273454485039554e-07,1.405981969679867e-07,-1.583580433283324e-08,9.934899002819056e-08,6.074523650131648e-07,4.3788882217156586e-07,2.3387444965448024e-07,2.3581209352961742e-07,2.203146903577177e-07,3.312118909705973e-07,2.4944971217690856e-07
2.5195817214667993e-07,2.1252223717757227e-07,1.6604701846441945e-07,7.465470409171672e-08,-1.0568757007920394e-07,9.892372558908432e-08,3.6745267788252585e-08,2.3261373625339437e-07,1.722023840085473e-07,2.4292756274994917e-08,1.1373778305069495e-07,6.07546107652042e-07,4.6875782004470783e-07,2.664041637883404e-07,2.5549650301926534e-07,2.59193137970715e-07,3.479115757280218e-07,2.716045620298624e-07
3.333347240699838e-07,2.895093168687918e-07,1.8800019739949532e-07,1.0097677155831607e-07,-6.488072709274841e-08,1.2292898064332706e-07,4.229746755004758e-08,2.555496633750269e-07,1.959696343373967e-07,5.7673180312659125e-08,1.2801061760747404e-07,6.080362831052853e-07,4.911538057280476e-07,2.9226808574117807e-07,2.671715057739727e-07,2.8608686793143126e-07,3.484965908756727e-07,2.91942623577034e-07
3.920789955764048e-07,3.3291783111968127e-07,2.1055378043323617e-07,1.2569648942542636e-07,-2.8495855634092354e-08,1.414580664965189e-07,4.181406000504944e-08,2.7403653664858363e-07,2.1424752481187448e-07,8.44096197208636e-08,1.436522191570517e-07,6.091699321150769e-07,5.064028893866602e-07,3.128452031361389e-07,2.7358894402638305e-07,3.019225262372245e-07,3.431878552688702e-07,3.1216363700192803e-07
4.360636151593107e-07,3.5938677978371295e-07,2.3654108618559232e-07,1.5001183389222997e-07,5.870002222929119e-09,1.570360190159429e-07,4.189841320663391e-08,2.916647045418693e-07,2.2922612528668896e-07,1.060854139983606e-07,1.618447736981861e-07,6.11303158123814e-07,5.169180542976353e-07,3.2994238534031595e-07,2.7749931525329974e-07,3.0884473184316223e-07,3.4080020317028123e-07,3.345515704172731e-07
4.750664824599913e-07,3.7646108625302605e-07,2.661214827139367e-07,1.7511747432705773e-07,3.95130530508429e-08,1.709903140639014e-07,4.63422820174421e-08,3.0954216940060236e-07,2.418935544936269e-07,1.2414571015228134e-07,1.8208403695513132e-07,6.143108184402078e-07,5.235176578795583e-07,3.4314100024026493e-07,2.7921886063643263e-07,3.0798770948300947e-07,3.437335541385177e-07,3.5897301631573325e-07
5.068898192297502e-07,3.8295276166327225e-07,2.954208573805151e-07,2.00426961180106e-07,7.055881750345586e-08,1.8317922368651355e-07,5.355022141072978e-08,3.2476317229501816e-07,2.4953992050110143e-07,1.3898678887985118e-07,2.020642937138187e-07,6.15152200797089e-07,5.246955083129187e-07,3.494133071600418e-07,2.7649776274462667e-07,2.9899903717894854e-07,3.4799225476868934e-07,3.813654159938875e-07
5.266390075010168e-07,3.7501394979293417e-07,3.1787178070213867e-07,2.234114802503618e-07,9.451976066865112e-08,1.9170792122664594e-07,5.804380070105495e-08,3.322707692839278e-07,2.4821094786152046e-07,1.5036218912187997e-07,2.190659291725123e-07,6.111561102810406e-07,5.185036984873794e-07,3.456953598519526e-07,2.6693705013502105e-07,2.819865498945919e-07,3.4813216878832246e-07,3.9593961410585647e-07
5.375364250643042e-07,3.5616116432598663e-07,3.2796465180043985e-07,2.411379639601988e-07,1.0717937998762454e-07,1.9413078460979595e-07,5.5542467146351314e-08,3.286990281750652e-07,2.3332876946673947e-07,1.5854071735935992e-07,2.3192149242449664e-07,6.029682835767668e-07,5.053916941314161e-07,3.323342258747244e-07,2.50899313693673e-07,2.600494631838139e-07,3.4267923780416226e-07,3.9920201234266566e-07
5.42976278880822e-07,3.3735625224850846e-07,3.249276770753038e-07,2.5227364823304187e-07,1.0785528590557514e-07,1.9007682075275542e-07,4.470923478702062e-08,3.152212632259612e-07,2.1162475872926767e-07,1.650252994244167e-07,2.422653558814029e-07,5.9753155652946e-07,4.895222214218376e-07,3.14422311143469e-07,2.3239296551299056e-07,2.3971355492106103e-07,3.3537417863585443e-07,3.918296797443957e-07
5.431939801126142e-07,3.2868199831494665e-07,3.13554844785604e-07,2.579851146592397e-07,9.941111766633822e-08,1.8236938787224963e-07,2.3279985643290507e-08,2.9707459973380725e-07,1.8878084782363348e-07,1.7212108358136087e-07,2.539484245725429e-07,6.03766791434959e-07,4.772661919977945e-07,2.9974852501177843e-07,2.1712112449978615e-07,2.2830476187344334e-07,3.3121288251678225e-07,3.774174415469851e-07
5.453802244291086e-07,3.4165796213650663e-07,3.014837603704407e-07,2.6094174858532274e-07,8.651785132058439e-08,1.7450464433158187e-07,-2.2826609650946283e-09,2.802619374276014e-07,1.6865458843444668e-07,1.81975156153014e-07,2.699138015103308e-07,6.297703367983619e-07,4.736552989995249e-07,2.9467228494326855e-07,2.0904944454865096e-07,2.298683507686062e-07,3.331886594040562e-07,3.602246146831775e-07
5.516488512752446e-07,3.740841398078265e-07,2.9483693711579175e-07,2.630832108118688e-07,7.351395403639749e-08,1.6925173489915724e-07,-2.799714562409874e-08,2.678516893593663e-07,1.5316381426464856e-07,1.934356886151346e-07,2.9092550873186604e-07,6.755225971275876e-07,4.79252746419901e-07,3.006459747873445e-07,2.0794318245166872e-07,2.422255906680041e-07,3.382962575480216e-07,3.4385096032030147e-07
5.599981031344774e-07,4.2298371328435983e-07,2.953468919803603e-07,2.638808591761517e-07,6.172367812373332e-08,1.6551477454837293e-07,-5.3295957953864256e-08,2.589264427630195e-07,1.3778011414264447e-07,2.0495840197036536e-07,3.1506878461594686e-07,7.230990608742803e-07,4.898692536072304e-07,3.135942015116389e-07,2.0970242649623768e-07,2.5700124382581995e-07,3.3967662221037536e-07,3.309048437901823e-07
5.673988891680627e-07,4.820742665143758e-07,3.0074488544041787e-07,2.6056419063157826e-07,4.959089993739821e-08,1.6183061621109715e-07,-7.658967176532473e-08,2.50511449354822e-07,1.1786458833667437e-07,2.1223707760406238e-07,3.376426222574766e-07,7.659788787276638e-07,4.992456513681989e-07,3.2630734626744925e-07,2.091571440841186e-07,2.6435026665613435e-07,3.3731946998351657e-07,3.2301281923572126e-07
5.712867298390819e-07,5.438938030709986e-07,3.073025059840717e-07,2.502795633065437e-07,3.4333158695211104e-08,1.5781334501554114e-07,-9.346583360112541e-08,2.4047437089098544e-07,9.181289367466913e-08,2.1253652952015693e-07,3.682952710386511e-07,7.62475673759795e-07,5.023564491222725e-07,3.3194293064631767e-07,2.0302354120785223e-07,2.4169902854448826e-07,3.2906317974707755e-07,3.2062517871355756e-07
5.670546177964314e-07,5.964518905310222e-07,3.1200806547219876e-07,2.3253808948666513e-07,1.3368581870476828e-08,1.4997218735900277e-07,-1.1917593323172768e-07,2.2921167360976227e-07,6.428238009829429e-08,2.087695626281108e-07,3.9049292455234845e-07,7.150753007531585e-07,4.970092219595884e-07,3.2629565809591883e-07,1.9089247136197154e-07,2.1003759521930043e-07,2.98926050933857e-07,3.2280112234938833e-07
5.530542272591607e-07,6.285952267709016e-07,3.130041146303946e-07,2.1001323464092007e-07,-1.4749247383810313e-08,1.3660542082374305e-07,-1.5569174306335368e-07,2.1858882372557895e-07,3.703408938163348e-08,1.930954030360286e-07,3.839015099510017e-07,6.769971140136626e-07,4.834146746156936e-07,3.0791986909988823e-07,1.7404362270592356e-07,1.755126837103726e-07,2.7668223948453766e-07,3.27129168824201e-07
5.307547961361596e-07,6.348748116965448e-07,3.0883115743243214e-07,1.8714359876241014e-07,-5.003534379857463e-08,1.1834197323108374e-07,-2.0296409982854484e-07,2.0972844805080516e-07,1.405245328547713e-08,1.796687680433216e-07,3.641656339249697e-07,6.780800730294894e-07,4.634146454962597e-07,2.7587324895640033e-07,1.5367520833006562e-07,1.466892568157683e-07,2.609999078362401e-07,3.3006373002513656e-07
5.020063311658284e-07,6.139548868743427e-07,2.9931829966587534e-07,1.6790423827302565e-07,-9.13470251393821e-08,9.374759148109372e-08,-2.789222329397667e-07,2.0204540207990505e-07,-2.5885927612748846e-09,1.6444778792528777e-07,3.471826724581288e-07,6.49063829908567e-07,4.3860769163452294e-07,2.324851524815037e-07,1.3041386429327976e-07,1.0710548549246966e-07,2.445460450318602e-07,3.280493589795306e-07
4.7028852040559743e-07,5.702710150796805e-07,2.843555229675251e-07,1.5553927170450918e-07,-1.3755292971436725e-07,5.4191351198933345e-08,-3.2917228240129287e-07,1.9453685860416349e-07,-1.4556763126933939e-08,1.5365607547330763e-07,3.347821237278685e-07,6.19858544200173e-07,4.1221957699074714e-07,1.8382255253328952e-07,1.054411833894072e-07,5.657609860727908e-08,2.2796004597473964e-07,3.1958314996596775e-07
4.3986454879262204e-07,5.12280026565213e-07,2.671523117453065e-07,1.5068741670267882e-07,-1.8549335817537574e-07,6.1085617195337225e-09,-3.658216517486588e-07,1.8786134646569435e-07,-2.2020229796528904e-08,1.4857401531487954e-07,3.2018071079223524e-07,6.183434685351481e-07,3.894280925094299e-07,1.3641206171391854e-07,8.165560295117571e-08,3.521098677135795e-08,2.172197635817102e-07,3.064790689992522e-07
4.1551516085467045e-07,4.5142659114732786e-07,2.54047909657799e-07,1.5529277522213584e-07,-2.3047545099154735e-07,-4.019400279868274e-08,-3.9974193439073104e-07,1.848434530314468e-07,-2.48966009533629e-08,1.7300876004550567e-07,3.398355197452442e-07,6.405900088503411e-07,3.714398963558079e-07,1.1189824047701757e-07,6.31118683283044e-08,4.194471174776493e-08,2.1719709242703296e-07,2.930756712149741e-07
4.018205839500145e-07,4.005701247380563e-07,2.5313976406385807e-07,1.7166167876430315e-07,-2.7179354681440426e-07,-8.480920289936956e-08,-4.50376075061747e-07,1.8860875812063037e-07,-2.320305069407785e-08,1.853135625813885e-07,3.577580855317023e-07,6.607841719443335e-07,3.6383791687864344e-07,1.207461578113263e-07,5.270208820680784e-08,4.225487937607571e-08,2.3084529891118825e-07,2.8278857237907076e-07
4.012274101739094e-07,3.7076410666915654e-07,2.708506282477541e-07,1.999949918883914e-07,-3.1063096040250345e-07,-1.0748064570379016e-07,-5.067075434736243e-07,1.996268348346465e-07,-1.933704482850279e-08,2.0017397118235998e-07,3.763277484901559e-07,6.985378410050042e-07,3.825336223010105e-07,1.0836399995327461e-07,4.985415102884986e-08,2.379692158533025e-08,2.5499589716378847e-07,2.763899681913381e-07
4.1192706240089576e-07,3.681111176311348e-07,3.050486212850075e-07,2.3872098364807796e-07,-3.5539372584340687e-07,-1.1012860434038493e-07,-5.345991053171204e-07,2.141417353779972e-07,-1.719656269616915e-08,2.411585207045634e-07,3.864136179888295e-07,7.496289138627493e-07,4.0243056403752967e-07,1.0431038357385937e-07,5.036298711873793e-08,2.1578351965747856e-08,2.8039140490719076e-07,2.717441059804174e-07
4.2850335576103147e-07,3.915220970426819e-07,3.46971338038173e-07,2.809255671208193e-07,-4.0959359393307785e-07,-1.11884459991767e-07,-5.567707547946748e-07,2.255345250239427e-07,-2.241741065525234e-08,2.853026741328421e-07,4.2242730539067015e-07,8.141784541723634e-07,4.184321007860935e-07,1.252609115541549e-07,4.8934137238810035e-08,4.3798026993578694e-08,2.962676100503909e-07,2.660921818993419e-07
4.435269263449221e-07,4.3239211533383264e-07,3.74439538182098e-07,3.194441461790686e-07,-4.7057877866830215e-07,-1.0815465489166724e-07,-5.818032012002272e-07,2.279133477341308e-07,-3.801608976479008e-08,2.877942826386264e-07,4.570344062341952e-07,8.713772753299612e-07,4.297715379491492e-07,1.5279699911829568e-07,4.270066126478967e-08,8.62359770775343e-08,2.965522077858852e-07,2.579519910373528e-07
4.4889713526064383e-07,4.771325076029199e-07,3.5703009373441847e-07,3.415223297123771e-07,-5.264790167742575e-07,-1.0719682064639179e-07,-6.017469828742655e-07,2.193616727846297e-07,-6.122846378695908e-08,2.842178473321337e-07,4.6132587472015305e-07,9.026545795125066e-07,4.3324444647152663e-07,1.6022734575338684e-07,3.302454142308079e-08,9.276355776047743e-08,2.8310954484806536e-07,2.477279065139539e-07
4.437314113415993e-07,5.118780429095242e-07,3.1787686309261674e-07,3.450873255657425e-07,-5.551069640515999e-07,-1.0803484136199118e-07,-6.203991289550118e-07,2.0219507526459663e-07,-8.537271988918937e-08,2.750746892639502e-07,4.35411068413972e-07,9.024917280162588e-07,4.278149605568059e-07,1.5430615922635944e-07,2.4215894626217515e-08,9.753153364481257e-08,2.638227986713399e-07,2.3689277302150632e-07
4.2895885381108145e-07,5.269432932888482e-07,2.976920055063486e-07,3.3960957926492566e-07,-5.548379781601857e-07,-1.2096674448248683e-07,-6.53872478505205e-07,1.8017923863113879e-07,-1.032570353918577e-07,2.787543471004152e-07,4.312662604927006e-07,9.211713413645918e-07,4.168479045964751e-07,1.42901280812905e-07,2.0129652015140466e-08,1.0168358036526259e-07,2.469761695821108e-07,2.2599277820801514e-07
3.8581857331497016e-07,5.186969833287705e-07,2.9210412642197605e-07,3.384730896121016e-07,-5.660478188639765e-07,-1.289659621580948e-07,-6.741191602499142e-07,1.5519146862499404e-07,-1.1163217782996317e-07,2.6423146465628e-07,4.583346767730318e-07,9.292712958124244e-07,4.025811497464589e-07,1.2711008867554655e-07,2.1211459312291162e-08,9.880955795412989e-08,2.3622846277494565e-07,2.1416441782898033e-07
3.321127401442077e-07,4.884345491387898e-07,2.7168899710246466e-07,3.396813885861549e-07,-5.824083873911726e-07,-1.223292030292184e-07,-6.64031834143665e-07,1.2619703923031573e-07,-1.1270545295493543e-07,2.3054614692414149e-07,4.5943726609904e-07,9.067079074386891e-07,3.855749002622815e-07,1.0693856868087334e-07,2.4329703429074374e-08,7.115590765640134e-08,2.3005502670555123e-07,1.998156633807113e-07
2.7997736256065906e-07,4.400489902655734e-07,2.4035862479947004e-07,3.198633430562069e-07,-5.850593473266591e-07,-1.1100960190419443e-07,-6.4986261386934e-07,9.150303735091444e-08,-1.1161752810784813e-07,2.1463617966637589e-07,4.513190239211155e-07,8.744508757460236e-07,3.660940448815817e-07,8.187506396469918e-08,2.547764039291716e-08,3.949675194313246e-08,2.2538207929284962e-07,1.824427545458956e-07
2.322596497202012e-07,3.787246690641276e-07,2.0715569774456215e-07,2.965622774024621e-07,-5.489561550206761e-07,-8.719167760059657e-08,-6.344197743711926e-07,5.210122229993724e-08,-1.123788468746704e-07,1.942604272902712e-07,4.288905004014926e-07,8.056105333539544e-07,3.4601173121781796e-07,5.367076800027797e-08,2.296171206093226e-08,1.202015114689525e-08,2.2146698049703328e-07,1.6417196212435528e-07
1.8654407688474626e-07,3.110001847427121e-07,1.5865763665173623e-07,2.766206466341492e-07,-5.093786593051201e-07,-6.537528711789776e-08,-6.189855147901604e-07,1.2980956679432071e-08,-1.1549656899947691e-07,1.6635293497050095e-07,3.991105851328369e-07,7.37773121834597e-07,3.290617961641279e-07,2.7098037750145266e-08,1.8440713841949576e-08,-1.3469093355536382e-08,2.2038168945088173e-07,1.500766783912215e-07
1.4904358492453537e-07,2.446031048842373e-07,1.0155650754034512e-07,2.4530483583970846e-07,-4.783180798818932e-07,-5.09066125104056e-08,-5.973518342316483e-07,-1.8936150017254253e-08,-1.1894014705449326e-07,1.5069501144632472e-07,3.753080916466125e-07,6.781948160100439e-07,3.189011095940245e-07,7.674211227339531e-09,1.5138094095000485e-08,-3.189110485610074e-08,2.2395662891704482e-07,1.4606546550103825e-07
1.2369131603380114e-07,1.868668210083806e-07,4.2354021324986484e-08,2.1825905394385395e-07,-4.517098371047426e-07,-3.588426612031441e-08,-5.717909018717911e-07,-3.901508568427526e-08,-1.2135985907155818e-07,1.3656304008829862e-07,3.446189236345488e-07,6.210727749818581e-07,3.162601622795117e-07,-2.038794706727197e-09,1.4736706478678661e-08,-4.0772696304979294e-08,2.301540009359189e-07,1.5511031932783575e-07
1.0942830443275033e-07,1.4263305191195099e-07,-8.799246251167812e-09,1.954121342569969e-07,-4.468681711904777e-07,-2.5784203571745787e-08,-5.513571189679481e-07,-4.8311254072939234e-08,-1.247125124497138e-07,1.24478169486912e-07,3.191763723170785e-07,5.863884649817121e-07,3.173643971629301e-07,-4.6748533678439e-09,1.5458059553062468e-08,-4.201235766662347e-08,2.3236947785053224e-07,1.7167121938484034e-07
1.0257811898073849e-07,1.1319618775632617e-07,-5.661241392935334e-08,1.7207530488653925e-07,-4.502206722496647e-07,-2.0379105333669052e-08,-5.39163392012947e-07,-5.33302836892833e-08,-1.3378870566424652e-07,1.1404382048667805e-07,2.963605231061015e-07,5.611159199536563e-07,3.153139456004126e-07,-6.879734663025185e-09,1.3020867828164298e-08,-4.228171851815093e-08,2.2276393060775242e-07,1.888337779600146e-07
9.791343563311613e-08,9.637432754833081e-08,-1.098052368959464e-07,1.5072953512126066e-07,-4.6328832823040486e-07,-2.1366212695605667e-08,-5.342384385606909e-07,-6.195706221981111e-08,-1.5274089676322322e-07,9.881565078570816e-08,2.6331999804294446e-07,5.341464655152862e-07,3.0403392786502425e-07,-1.5346529238227153e-08,3.828897369941267e-09,-4.734844499168265e-08,1.9711782336357047e-07,1.9888961381361255e-07
9.100665492778015e-08,8.69438190331391e-08,-1.6928142111326309e-07,1.268878289742967e-07,-4.93348382804428e-07,-2.9114726367996797e-08,-5.36028988245762e-07,-7.859262898688512e-08,-1.814649795334695e-07,8.041038453137403e-08,2.2021921154276478e-07,5.060080508823115e-07,2.821657521582001e-07,-3.2906985064779296e-08,-1.2190091543949475e-08,-5.9102633460850895e-08,1.5748194829991349e-07,1.9969295305214486e-07
8.000500775312294e-08,7.750536464232949e-08,-2.3380063982584048e-07,1.0089928782785965e-07,-5.297644526627319e-07,-4.754685062079957e-08,-5.405885015868429e-07,-1.0202746434416315e-07,-2.148382692239695e-07,6.011365156872125e-08,1.6501870095364912e-07,4.7608794407240573e-07,2.540672518028664e-07,-5.726551201845352e-08,-3.128932193371819e-08,-7.99695980999976e-08,1.1092890518020298e-07,1.9149842671843937e-07
6.583448015937626e-08,6.0414547994733e-08,-2.9411681019172984e-07,7.504453990417394e-08,-5.650487227936668e-07,-7.010795856445098e-08,-5.506651137225656e-07,-1.272186578110467e-07,-2.4541308388413276e-07,3.917565692649569e-08,1.0400449508249769e-07,4.5082674662727006e-07,2.2718347911888694e-07,-8.281611744926185e-08,-4.825858509239647e-08,-1.0602159751106057e-07,6.559733237582724e-08,1.7709006535588945e-07
5.0914890392594e-08,3.063957114280314e-08,-3.416445925773548e-07,5.051714841600522e-08,-5.949339129995981e-07,-8.986993433111494e-08,-5.628505872603061e-07,-1.493998084429902e-07,-2.6772180155786213e-07,1.9474651541603506e-08,4.5807912438930337e-08,4.333979294041161e-07,2.076462478046465e-07,-1.0408729301461869e-07,-5.96677786840046e-08,-1.3050857306646824e-07,2.675370828299146e-08,1.590253059032343e-07
3.731835355867133e-08,-1.1758905890078353e-08,-3.7363683380799426e-07,2.797243687667159e-08,-6.131975116334394e-07,-1.0646490314231735e-07,-5.737603305455639e-07,-1.6744772860038823e-07,-2.8127278731245974e-07,1.918109393350417e-09,-4.137786373826819e-09,4.209483463648011e-07,1.9715723826223048e-07,-1.1863674476511368e-07,-6.566659149803847e-08,-1.543437609056415e-07,-4.585692199669098e-09,1.3470905473222518e-07
2.5561248482543208e-08,-6.110187558442524e-08,-3.930869118386092e-07,7.1847151804764296e-09,-6.182588327799559e-07,-1.1758729070039018e-07,-5.848103928829353e-07,-1.8395168313566206e-07,-2.8998371662941556e-07,-1.3355249774049815e-08,-4.345767623440826e-08,4.084506774735037e-07,1.9311991009345607e-07,-1.2759945362435035e-07,-6.904981291855942e-08,-1.7585389434083893e-07,-2.9623104877476086e-08,1.0583209443471749e-07
1.4706646193330943e-08,-1.0792647438567817e-07,-4.066214604962765e-07,-1.193722698909584e-08,-6.136082949430883e-07,-1.2458794705320447e-07,-5.954626869236972e-07,-2.0209521331699341e-07,-2.9839054811449407e-07,-2.6039164092521196e-08,-7.231864683370069e-08,3.9203569439370346e-07,1.9139598086791849e-07,-1.336803747194746e-07,-7.248428092553922e-08,-1.8382130656451653e-07,-4.835427769709542e-08,6.854929299749955e-08
3.4216778032968332e-09,-1.4216992670038243e-07,-4.202214793055061e-07,-2.8035861409081523e-08,-6.025497366876892e-07,-1.2996109493375526e-07,-6.043116500608264e-07,-2.2230030644209296e-07,-3.078019388911637e-07,-3.481718659675299e-08,-9.126048794411599e-08,3.716499340951407e-07,1.8919718073726167e-07,-1.3837976754161293e-07,-7.631353514042877e-08,-1.7915119760279763e-07,-5.7843986819850046e-08,2.379430420194009e-08
-9.112057969531597e-09,-1.5642169828305304e-07,-4.3629788042796556e-07,-3.825902837927088e-08,-5.865970208906894e-07,-1.3452037534046481e-07,-6.073502330810854e-07,-2.4167160244660676e-07,-3.1557316938956286e-07,-3.7433206541499555e-08,-9.9901093710329e-08,3.5090676206957334e-07,1.8600159399576334e-07,-1.4083020368053154e-07,-7.866881768998088e-08,-1.5794215001142644e-07,-5.377857825226388e-08,-2.639796358765626e-08
-2.3239119200074127e-08,-1.4848325809017778e-07,-4.5371856040050564e-07,-4.0017842910493626e-08,-5.674000056525047e-07,-1.3645774450200706e-07,-5.993660779878246e-07,-2.565296413325205e-07,-3.178904767440929e-07,-3.18028430301432e-08,-9.744831299776828e-08,3.345757470496525e-07,1.8233768761306398e-07,-1.391001255521246e-07,-7.748927561723462e-08,-1.196507554643471e-07,-3.407862860529178e-08,-7.262067774167395e-08
-3.958525656841858e-08,-1.226371629410295e-07,-4.700210000537645e-07,-3.327325676330079e-08,-5.46612134200661e-07,-1.365915153126192e-07,-5.760529309046613e-07,-2.6560747310352336e-07,-3.1344831659598686e-07,-1.7421966040727638e-08,-8.413792567682679e-08,3.2559286371482667e-07,1.7806614311350346e-07,-1.3254006510249127e-07,-7.247254062643148e-08,-1.029146448716433e-07,-1.6279433842095902e-09,-1.0719112391574092e-07
-5.9510453572059964e-08,-8.864563868292944e-08,-4.837204940075594e-07,-2.1406701106727715e-08,-5.245295353533514e-07,-1.362208763416347e-07,-5.397675035020482e-07,-2.7107368232446515e-07,-3.0471388078183833e-07,3.940274984240475e-09,-6.20315308367703e-08,3.235769795068664e-07,1.7205335457009928e-07,-1.2278409431464894e-07,-6.513877308627795e-08,-8.62641327396102e-08,3.646345031816891e-08,-1.290654671768572e-07
-8.444653663581652e-08,-5.79729010487753e-08,-4.948654063947317e-07,-9.823349095540502e-09,-5.032444764327104e-07,-1.3573551933687262e-07,-4.95049940485258e-07,-2.765209263592897e-07,-2.957579771725049e-07,2.8735805853875446e-08,-3.445773280381314e-08,3.2576399286560843e-07,1.6353671610582548e-07,-1.1244007798466936e-07,-5.70003063523934e-08,-3.87468321597421e-08,7.296646560157573e-08,-1.379136014572722e-07
-1.1432235011177809e-07,-3.8735906760804365e-08,-5.037276768623237e-07,-3.272592159430574e-09,-4.850625583993333e-07,-1.3531055412889338e-07,-4.454351820233178e-07,-2.8366498366995643e-07,-2.8887697563742937e-07,5.294145148120031e-08,-4.6492641111880055e-09,3.295515500982602e-07,1.535965741201663e-07,-1.0283927633570804e-07,-4.770602500171261e-08,3.866618408754762e-09,1.0464086961391785e-07,-1.399593988288538e-07
-1.4624189895848702e-07,-3.222484047513209e-08,-5.09294170264937e-07,-3.772789808394579e-09,-4.6990618167056144e-07,-1.3305459936467357e-07,-3.9356985101900947e-07,-2.906375840082932e-07,-2.8315728019115695e-07,7.335782791345803e-08,2.527978957704115e-08,3.3468437781158846e-07,1.4506874094675294e-07,-9.299677602115247e-08,-3.507690579060478e-08,4.807363546139418e-08,1.3292746034731843e-07,-1.344351285414705e-07
-1.746865439174605e-07,-3.2940606033738405e-08,-5.093092768555271e-07,-1.0398091674214321e-08,-4.550748353814089e-07,-1.2617090713577894e-07,-3.4071346282462903e-07,-2.9332560362136117e-07,-2.7597006763407757e-07,8.825930198462445e-08,5.424883040384276e-08,3.4342700438129854e-07,1.4084022675357912e-07,-8.061183108674778e-08,-1.7142083887988134e-08,9.760990061940099e-08,1.608432103222933e-07,-1.1882692428843692e-07
-1.9358384550531846e-07,-3.236122961981711e-08,-5.020309373686592e-07,-2.0766529279119487e-08,-4.359488863930508e-07,-1.1292146125711513e-07,-2.8926552535110407e-07,-2.8864558214257867e-07,-2.6577650905288353e-07,9.73443939810501e-08,8.135620802410128e-08,3.5863113816583193e-07,1.4197266816498215e-07,-6.414116943570404e-08,5.564268490251819e-09,1.3161709504700742e-07,1.8890443549959033e-07,-8.841719486957094e-08
-1.9919881735726403e-07,-2.461465063399914e-08,-4.88099134430471e-07,-3.282241967286296e-08,-4.0882533588622067e-07,-9.356690781179787e-08,-2.4348060778961993e-07,-2.7702310041680215e-07,-2.536830819887347e-07,1.013255805847322e-07,1.0536331007559058e-07,3.812967561858428e-07,1.4728547240462777e-07,-4.4190131841282056e-08,2.960643947581901e-08,1.5117990591030068e-07,2.137086785638275e-07,-4.508075334339421e-08
-1.9195046231559633e-07,-1.0031846584077098e-08,-4.7056798981859855e-07,-4.5435004088942136e-08,-3.7316711307160087e-07,-7.024588911243989e-08,-2.0758874654120267e-07,-2.6184897597811116e-07,-2.4232339286909126e-07,1.0160273294933438e-07,1.251783903073718e-07,4.0977380695255794e-07,1.5484768599145514e-07,-2.3023275130025896e-08,5.079049242168829e-08,1.5696011054342894e-07,2.305817660133804e-07,6.654780920003934e-09
-1.7583797643576532e-07,6.701141794860949e-09,-4.5273132975991546e-07,-5.764483957547176e-08,-3.3120656302099364e-07,-4.565869108052892e-08,-1.8308786302211506e-07,-2.4633832304504063e-07,-2.330483357005604e-07,1.0019137390182659e-07,1.4083067351557093e-07,4.411907467047964e-07,1.6412990269156435e-07,-2.5935630915102562e-09,6.716787406873535e-08,1.5559219097353492e-07,2.3811720351446813e-07,6.315288002907912e-08
-1.559621562807485e-07,2.2095278872133852e-08,-4.3554991191306065e-07,-6.768873742287939e-08,-2.8602122610809317e-07,-2.137471451583826e-08,-1.6717992492331537e-07,-2.3066112242296007e-07,-2.2406062167542644e-07,9.958441107955625e-08,1.5380802951973393e-07,4.733741790447298e-07,1.7685634966354925e-07,1.7119776346620657e-08,8.039088966126548e-08,1.5516144633171967e-07,2.4032250399495566e-07,1.1875200906915488e-07
-1.3606293965534599e-07,3.759585626895419e-08,-4.1709277247628084e-07,-7.295035742165943e-08,-2.4016320705822445e-07,2.6718769393578056e-09,-1.5395837701784333e-07,-2.1198187691521484e-07,-2.1135127906303712e-07,1.0219931697398792e-07,1.662744728572996e-07,5.052845874604771e-07,1.9565113921687922e-07,3.789628084659856e-08,9.43268153761807e-08,1.6035254680260461e-07,2.445198270388682e-07,1.69653114306001e-07
-1.1775038958158631e-07,5.817750231136723e-08,-3.947263993948004e-07,-7.097801516668718e-08,-1.955986774488281e-07,2.7309527478243467e-08,-1.378605655770037e-07,-1.8741262023498574e-07,-1.9190445849726418e-07,1.0946204644315508e-07,1.797753819852985e-07,5.358875581081108e-07,2.214340795976913e-07,6.125761464236863e-08,1.1201817086867853e-07,1.7528230577470035e-07,2.5627271152006356e-07,2.101575888632855e-07
-1.0154143184990002e-07,8.765641464232689e-08,-3.682200211605487e-07,-6.076865991897372e-08,-1.5420731934275614e-07,5.2674521314889597e-08,-1.1705247528157891e-07,-1.5734572796628926e-07,-1.6666479915884772e-07,1.2105532301225098e-07,1.9434596022621905e-07,5.629407381440327e-07,2.5162955052592185e-07,8.635630199233563e-08,1.33340044421478e-07,2.0021110574815104e-07,2.754296403874957e-07,2.3552582625379039e-07
-8.834922983614379e-08,1.2494022454422777e-07,-3.408570925865219e-07,-4.334703012349817e-08,-1.1794918372412787e-07,7.738245346457992e-08,-9.414530440952499e-08,-1.2617487520856273e-07,-1.4062086719535478e-07,1.3497778371741482e-07,2.085956125300538e-07,5.833421089928461e-07,2.808183517637474e-07,1.0985106300386578e-07,1.5525639573839978e-07,2.3250248822614914e-07,2.968904540546916e-07,2.4423367557801973e-07
-7.991222196308058e-08,1.6381328113238056e-07,-3.1736031241294317e-07,-2.115479715773335e-08,-8.83742592948583e-08,9.915282408927236e-08,-7.359026108717097e-08,-9.954398852402325e-08,-1.1954742383545412e-07,1.4865431472289506e-07,2.208369107642427e-07,5.950930244662604e-07,3.036410973234679e-07,1.282613970835975e-07,1.7444836670294733e-07,2.683530344495075e-07,3.155132547604437e-07,2.4141374282396137e-07
-7.785130542127391e-08,1.9591454370913418e-07,-3.0038251701511765e-07,3.447667461565222e-09,-6.579675233636837e-08,1.1634971540976238e-07,-5.791769095845276e-08,-8.039631857653244e-08,-1.0589308458235492e-07,1.6041382682556252e-07,2.3052409639286014e-07,5.98794155755708e-07,3.178631769080413e-07,1.408162709913845e-07,1.899899409488802e-07,3.031266226807441e-07,3.3093667385090455e-07,2.3671773085591535e-07
-8.237795255047456e-08,2.1478796238280772e-07,-2.885296173060055e-07,2.9497035416127207e-08,-4.887324308446345e-08,1.2905607698370992e-07,-4.5879627160122296e-08,-6.714419046644337e-08,-9.723556563345656e-08,1.702198630026811e-07,2.387640899901906e-07,5.970019419293282e-07,3.2534268995411436e-07,1.5018923321927515e-07,2.0382763977506062e-07,3.336961604025851e-07,3.481116939941439e-07,2.3981122055141507e-07
-9.188952613232787e-08,2.1881339062073984e-07,-2.774621801171989e-07,5.7407531792238174e-08,-3.5077566660249376e-08,1.3883037583265148e-07,-3.36934515244737e-08,-5.525548727256297e-08,-8.823986456055826e-08,1.7917239754824286e-07,2.474744364748046e-07,5.921625688391636e-07,3.3037823517493213e-07,1.6051163674113906e-07,2.1888502272961202e-07,3.6063646714604217e-07,3.7341657932924446e-07,2.5682971935952196e-07
-1.0379096739768704e-07,2.1158293223617308e-07,-2.6314378135749366e-07,8.75392955096617e-08,-2.1826698940283655e-08,1.4737996231806946e-07,-1.8039997529947418e-08,-4.074219185939154e-08,-7.443006843349055e-08,1.8832122868107102e-07,2.58176113769803e-07,5.852578251484388e-07,3.3686390636231315e-07,1.7439160294540095e-07,2.3660615860459416e-07,3.8436663639717493e-07,4.0930766626811145e-07,2.8697302867005447e-07
-1.157653525321258e-07,1.9966495514418222e-07,-2.44601632205714e-07,1.1874557850473627e-07,-7.47240812562212e-09,1.5544791366782884e-07,1.7270817802059939e-09,-2.2632443315954313e-08,-5.472288549630057e-08,1.9787072294520548e-07,2.7166974322351115e-07,5.763965020991335e-07,3.463925701221162e-07,1.9132834813709625e-07,2.561370031391832e-07,4.0485578836975763e-07,4.529702452091123e-07,3.237723507208466e-07
-1.263025657308751e-07,1.8950809508597816e-07,-2.2385092896464973e-07,1.484979768922502e-07,8.594379149235945e-09,1.6289798145946547e-07,2.3912726337939037e-08,-2.387736362858171e-09,-3.0719003727957806e-08,2.0746873347107928e-07,2.887696141333621e-07,5.667911945876224e-07,3.5857682739916645e-07,2.0866789281610524e-07,2.7582271198548967e-07,4.2308336611202327e-07,4.993633272715959e-07,3.591265036635473e-07
-1.3403963653671963e-07,1.8561405305697304e-07,-2.030790870994015e-07,1.7465335202074577e-07,2.6814340461677896e-08,1.6992672161185177e-07,4.68111207035139e-08,1.902154779145473e-08,-3.819041366217652e-09,2.1721377014673743e-07,3.112312155841236e-07,5.603162287022102e-07,3.725506162878698e-07,2.241180599755538e-07,2.954815190504952e-07,4.415876510648545e-07,5.45113580663511e-07,3.8808948514023077e-07
-1.368210288441943e-07,1.9040431148971242e-07,-1.8174254140902675e-07,1.97334988413323e-07,4.834016185787118e-08,1.7808697627183796e-07,7.065609999509252e-08,4.341709711510706e-08,2.6883458435428222e-08,2.282493606600249e-07,3.417296288148463e-07,5.627617967279315e-07,3.8943983708260447e-07,2.3760403700124418e-07,3.171456549634228e-07,4.647799376849634e-07,5.903345438333629e-07,4.1152219523232016e-07
-1.3184251635864406e-07,2.0469819837169174e-07,-1.5629362665280358e-07,2.1933434752405133e-07,7.461271425255827e-08,1.8975475693504076e-07,9.725971206221928e-08,7.463358549752196e-08,6.37853592774103e-08,2.421205871484444e-07,3.821479806197834e-07,5.786577248699975e-07,4.108549667130888e-07,2.5089743534471394e-07,3.4342780517289354e-07,4.966774229203009e-07,6.359716065412887e-07,4.34268490032677e-07
-1.1718375033538387e-07,2.2789195614562102e-07,-1.229632143348587e-07,2.444585484938161e-07,1.056240076837079e-07,2.0627396107503052e-07,1.2757532898397785e-07,1.1501346915018592e-07,1.0771037938984812e-07,2.592249494022388e-07,4.308287769123701e-07,6.078486379632608e-07,4.3692890106940346e-07,2.6530034223771937e-07,3.7486437083226247e-07,5.377151983210657e-07,6.801658779766412e-07,4.6069818335696183e-07
-9.356263915546397e-08,2.578026877411635e-07,-8.148586176631624e-08,2.7465277552047247e-07,1.386358022686355e-07,2.2634881731569191e-07,1.5935457284978723e-07,1.6216248020931993e-07,1.553975297875189e-07,2.77656831398699e-07,4.811391260107677e-07,6.446030778739512e-07,4.651893251689636e-07,2.7940017187237036e-07,4.0860046265276115e-07,5.834140807531486e-07,7.173269131735982e-07,4.915044981507643e-07
-6.471734237454519e-08,2.906961335114206e-07,-3.661673964770153e-08,3.0811504529248493e-07,1.6902832160687022e-07,2.4625542183604e-07,1.8724847150117767e-07,2.0912471180684256e-07,2.0021752049454334e-07,2.9358630146886127e-07,5.233109250837368e-07,6.800324888245758e-07,4.902112740594185e-07,2.891866412787794e-07,4.397600510983579e-07,6.262926020087092e-07,7.40660291334696e-07,5.238947668494089e-07
-3.584227997010974e-08,3.2203947257200096e-07,4.2247767294446385e-09,3.402878776742019e-07,1.9283896194954396e-07,2.6178762786916993e-07,2.0569563372629762e-07,2.4829589463951004e-07,2.3599042370210363e-07,3.0309564115865935e-07,5.486686596153121e-07,7.060305729325721e-07,5.0749342917946e-07,2.9081245692761893e-07,4.6454380476394525e-07,6.599865426319337e-07,7.469038833406463e-07,5.54147059274247e-07
-1.1081293487310359e-08,3.479833415036584e-07,3.556808416902755e-08,3.6699761963217625e-07,2.08926640045247e-07,2.704620978872165e-07,2.1239160939944295e-07,2.7598372650348817e-07,2.6083973349269226e-07,3.042098361920806e-07,5.533443886135772e-07,7.181383656036005e-07,5.161378724255403e-07,2.8360085539629077e-07,4.825356162333297e-07,6.82457223849674e-07,7.393155391124255e-07,5.803528152811773e-07
8.172072345191534e-09,3.668078596679001e-07,5.704543264381672e-08,3.8703138427672205e-07,2.1927055902016705e-07,2.725093949793318e-07,2.0967141041789917e-07,2.9394321393927113e-07,2.7806814798947673e-07,2.9771688211467573e-07,5.395000267043536e-07,7.160023959746341e-07,5.187412033023002e-07,2.705797508457982e-07,4.963988877863142e-07,6.9600373976737e-07,7.265648030536771e-07,6.034055298439492e-07
2.312490158976943e-08,3.7930614511249944e-07,7.261084409035993e-08,4.023023620451419e-07,2.275168153440085e-07,2.6997132891669815e-07,2.029367700690522e-07,3.068775007096912e-07,2.9356946403375486e-07,2.863431773407617e-07,5.140022732428781e-07,7.019097521101995e-07,5.190761198488374e-07,2.562055997607614e-07,5.093042158476101e-07,7.045804850397083e-07,7.179472061827734e-07,6.257187562017656e-07
3.58553159316927e-08,3.8783108172162893e-07,8.667456809672103e-08,4.159139279778969e-07,2.3676889776394912e-07,2.648436923258779e-07,1.9734551735936645e-07,3.181457231443756e-07,3.117974200204562e-07,2.730110383818433e-07,4.85554988861763e-07,6.789102783190856e-07,5.193923434318931e-07,2.434129226221982e-07,5.221768036184985e-07,7.10840474427789e-07,7.185020674798451e-07,6.488041033824133e-07
4.726431136360976e-08,3.9492229134163114e-07,1.0048841374031261e-07,4.2972301566599876e-07,2.478108047495702e-07,2.5771807555179253e-07,1.9514859679895473e-07,3.2719252494538046e-07,3.332759556151561e-07,2.594837506387927e-07,4.6180889951283393e-07,6.499249421631201e-07,5.191206107127252e-07,2.3246375919822697e-07,5.329995773266748e-07,7.151976482323047e-07,7.27668166348082e-07,6.721928554079807e-07
5.617999162426168e-08,4.027891942148091e-07,1.1181369580793186e-07,4.4309615008224484e-07,2.589366028664914e-07,2.478479593690389e-07,1.9567724083331836e-07,3.307306893757057e-07,3.5536551443243575e-07,2.4629646735589833e-07,4.477221317692069e-07,6.182022073040786e-07,5.15959473454086e-07,2.222229053683213e-07,5.387245713773734e-07,7.173707123774625e-07,7.412219594834882e-07,6.943069069027642e-07
6.028079610011396e-08,4.1384880819511365e-07,1.1792685700486196e-07,4.5369823342711524e-07,2.6773296925888816e-07,2.344570554282024e-07,1.9775548096954979e-07,3.264672576579087e-07,3.7533106425470356e-07,2.3370114265180286e-07,4.452021295222447e-07,5.881081093159003e-07,5.086679918036364e-07,2.1223067143144686e-07,5.380933012840217e-07,7.18640868848291e-07,7.556130148935264e-07,7.138960557569722e-07
5.805693116857262e-08,4.3101808285706344e-07,1.189884996942349e-07,4.5956462252114634e-07,2.734565801938653e-07,2.18006052084038e-07,2.020739267194477e-07,3.1595601243810865e-07,3.9286421125556367e-07,2.2246546197169746e-07,4.532051429976662e-07,5.646495770856277e-07,4.984210695007363e-07,2.0348277723272308e-07,5.329245173544074e-07,7.224089023654079e-07,7.694199775511331e-07,7.307310959240535e-07
5.0158972337023475e-08,4.5650327534787957e-07,1.1872007894408789e-07,4.6063038942732537e-07,2.7776718324783303e-07,2.003599020982199e-07,2.1121214058094967e-07,3.040443858320389e-07,4.0990648690722963e-07,2.136555076047391e-07,4.677610786503724e-07,5.511506990415741e-07,4.880968415937672e-07,1.9733556990463618e-07,5.268108982337511e-07,7.322243140392047e-07,7.819580636985549e-07,7.449723335022124e-07
3.9020580052815046e-08,4.895740695423422e-07,1.2187822508311082e-07,4.5859480396873457e-07,2.829151756348619e-07,1.8370083601624228e-07,2.2724090218318615e-07,2.9534670110486147e-07,4.280503444891261e-07,2.075830049299338e-07,4.821565508493175e-07,5.464906105868757e-07,4.801136532207348e-07,1.9363448242014033e-07,5.222800576689954e-07,7.487083442053421e-07,7.910630373883128e-07,7.555717013461218e-07
2.7077942574682395e-08,5.252403971161537e-07,1.3055067330786055e-07,4.5554668383810984e-07,2.889755501666512e-07,1.6907668330068993e-07,2.4900055129474487e-07,2.905852712184269e-07,4.4582683491737693e-07,2.029587347123784e-07,4.880983757964105e-07,5.4452817941099e-07,4.7416163689684845e-07,1.8976618154514755e-07,5.186952101041096e-07,7.678229348048612e-07,7.917030609055568e-07,7.593616540582254e-07
1.5165885881055784e-08,5.553877616173107e-07,1.4221093297612463e-07,4.5245355041633254e-07,2.9281821923768205e-07,1.5579904469192417e-07,2.715761631926602e-07,2.857646632518981e-07,4.585297202062434e-07,1.971996218916776e-07,4.784471383329558e-07,5.37111385850175e-07,4.6762640569491985e-07,1.8172266634521018e-07,5.127051437166936e-07,7.820501635624075e-07,7.780235931518324e-07,7.52589652795255e-07
2.6016127463006602e-09,5.720768523752607e-07,1.5122788975473513e-07,4.4845889603205215e-07,2.899690578067989e-07,1.4226844108677582e-07,2.887719015437327e-07,2.750524076839273e-07,4.6119074922938037e-07,1.8782261250063157e-07,4.506793220894092e-07,5.190053355164803e-07,4.5812430304605124e-07,1.6670173165459687e-07,5.010168551257541e-07,7.840720733099811e-07,7.473104189949416e-07,7.34117513296794e-07
-1.120439666429425e-08,5.710289559656968e-07,1.5274535484517347e-07,4.4152508559033704e-07,2.7784896910991384e-07,1.275317948645114e-07,2.9681429928965366e-07,2.551634047531286e-07,4.522120134939961e-07,1.7389638310310614e-07,4.087831069062202e-07,4.91159834040067e-07,4.459656497927786e-07,1.4539987014759758e-07,4.832471833921368e-07,7.705984912210803e-07,7.029382092237318e-07,7.073916588061507e-07
-2.5233995394110753e-08,5.530753792538092e-07,1.4590765832821742e-07,4.3010842636074624e-07,2.5773289059424784e-07,1.1221394187838248e-07,2.960769482316469e-07,2.2788383359147904e-07,4.3532804522029307e-07,1.5649926147170134e-07,3.617796520394962e-07,4.6006770668850163e-07,4.3399510316510236e-07,1.2223870620431195e-07,4.6257792595838527e-07,7.438366566693036e-07,6.535526868829307e-07,6.792176448134259e-07
-3.698128131019722e-08,5.224777204456083e-07,1.3397557619290824e-07,4.145720334285202e-07,2.3398320456703632e-07,9.803585109978421e-08,2.91562364613299e-07,1.9901199322301346e-07,4.172399004862831e-07,1.379198524392156e-07,3.1950293772210007e-07,4.3395647713967635e-07,4.252546635629207e-07,1.0315073778337763e-07,4.4374807199144595e-07,7.097937107078646e-07,6.088539182229243e-07,6.563834485798331e-07
-4.411642926956653e-08,4.832697273210736e-07,1.2128253856692686e-07,3.9706944093844567e-07,2.111991546728279e-07,8.63541552771576e-08,2.8729678266469085e-07,1.745126988547461e-07,4.039229694325217e-07,1.201518736460157e-07,2.882201697640243e-07,4.1841567597052695e-07,4.2110807372554274e-07,9.205718813843293e-08,4.2983834982928357e-07,6.745466869177553e-07,5.742428676301817e-07,6.425187465635444e-07
-4.6299075059043005e-08,4.367171261619182e-07,1.0948824467972854e-07,3.799996364363209e-07,1.9129548699356267e-07,7.682981232492978e-08,2.840924062141502e-07,1.5652888412313873e-07,3.960129247641287e-07,1.0366998993980779e-07,2.6847400648018255e-07,4.139522693407507e-07,4.189937719244853e-07,8.820383023693558e-08,4.201473159306259e-07,6.408697445914592e-07,5.476734118267157e-07,6.365541381084093e-07
-4.5721542710274346e-08,3.820643790604845e-07,9.62549048104561e-08,3.6453636131315426e-07,1.725528417862095e-07,6.72373679596665e-08,2.787676578405657e-07,1.422190538891961e-07,3.8879464171121834e-07,8.733148635791689e-08,2.5599355684395323e-07,4.166177362374008e-07,4.1385331983220403e-07,8.639873613275248e-08,4.1080094986540933e-07,6.075346834124518e-07,5.215108332898709e-07,6.332601454270413e-07
-4.599091288980506e-08,3.195159681241416e-07,7.743132874413484e-08,3.505439209723508e-07,1.5126107000424206e-07,5.4664374520425095e-08,2.679925859109774e-07,1.2646430808201698e-07,3.77179443010942e-07,6.950320158655126e-08,2.44846046065052e-07,4.2102034278664836e-07,4.007375814733797e-07,8.028173070252504e-08,3.976972509550954e-07,5.717288613330103e-07,4.881585248199629e-07,6.260126338395736e-07
-5.013827282207252e-08,2.5275440939712805e-07,5.080805986488969e-08,3.375812150661354e-07,1.2459233955009448e-07,3.7308225805748874e-08,2.505709396850273e-07,1.0619094465589725e-07,3.584943347463426e-07,4.9577773223070513e-08,2.307861895431449e-07,4.2352867098739666e-07,3.7953071837959545e-07,6.629698605902082e-08,3.794685166847484e-07,5.324480193148362e-07,4.4528703471886657e-07,6.103284776352073e-07
-5.9133549128362414e-08,1.8937364820157685e-07,1.828997745894901e-08,3.2564502128600644e-07,9.259538487939704e-08,1.5671897269106563e-08,2.290166988057848e-07,8.27386301176771e-08,3.3469037508773406e-07,2.87364213707452e-08,2.1282623082145283e-07,4.2347649835712744e-07,3.53611241285618e-07,4.550680244824712e-08,3.5822719785705324e-07,4.920561250165971e-07,3.9705113916456026e-07,5.855322984865802e-07
-7.182744704459992e-08,1.389710253759261e-07,-1.5193881089121434e-08,3.149252504105093e-07,5.822419618756032e-08,-7.6255448682555e-09,2.0881772590766687e-07,6.059261300057664e-08,3.108756843387149e-07,9.428726223358919e-09,1.9246002649084956e-07,4.218947413755927e-07,3.283300893141489e-07,2.2264397436911258e-08,3.377570206143199e-07,4.5496580054676973e-07,3.5063447053194307e-07,5.533847830414388e-07
-8.612942922690465e-08,1.0951700925646852e-07,-4.5019824669851613e-08,3.0495834917130907e-07,2.5764502724515884e-08,-2.9328133653063702e-08,1.9398423031221884e-07,4.370150901286084e-08,2.915089554357309e-07,-6.010067874150803e-09,1.715104861226566e-07,4.1930782580424636e-07,3.083225179606905e-07,1.0569985671694632e-09,3.206935529444373e-07,4.2464708782842173e-07,3.1106321259871607e-07,5.153461152374418e-07
-1.0039145138409999e-07,1.0381821537471737e-07,-6.964135878959344e-08,2.9395394884154003e-07,-1.0856808545591372e-09,-4.72924385497677e-08,1.8532138842069024e-07,3.2368890472995435e-08,2.7779061345093657e-07,-1.658177771655893e-08,1.5033468079769665e-07,4.146373747282613e-07,2.940815200682324e-07,-1.6078451153534305e-08,3.0685576116046574e-07,4.013237475732505e-07,2.786566265502828e-07,4.7152580891251434e-07
-1.140308417098165e-07,1.1822209294329877e-07,-9.05921339985833e-08,2.7900657781491275e-07,-2.0119812279664144e-08,-6.12643275100917e-08,1.799775694055015e-07,2.3245482610323345e-08,2.6794038954041786e-07,-2.2801239992800144e-08,1.27737609564379e-07,4.0604476665661346e-07,2.865934372106322e-07,-2.977775838536468e-08,2.9395702762376277e-07,3.8213831083080927e-07,2.505787611200534e-07,4.2220700727452715e-07
-1.2696492172988366e-07,1.44242338539611e-07,-1.0995753389179652e-07,2.5748686596416307e-07,-3.019659307539907e-08,-7.219429089792368e-08,1.738678308662185e-07,1.233489249990341e-08,2.593319052856615e-07,-2.5805472726937297e-08,1.0244607539414192e-07,3.9277057910547257e-07,2.8034133473478335e-07,-4.142705861740077e-08,2.79936447540798e-07,3.6354006797641613e-07,2.2444800621309744e-07,3.7007564844943296e-07
-1.385816944656473e-07,1.7193382169357058e-07,-1.2766281393573345e-07,2.289263854888956e-07,-3.0561729829168906e-08,-8.083309455730084e-08,1.667764438129791e-07,-1.6700808318675503e-09,2.5143038251438863e-07,-2.6258398091275844e-08,7.471436959548427e-08,3.7622642101788374e-07,2.7292935206836337e-07,-5.107718870883408e-08,2.647614260667241e-07,3.43856612659394e-07,2.0089321126359665e-07,3.210049308034447e-07
-1.4748836332800136e-07,1.947682455048979e-07,-1.4087197777526563e-07,1.9607233942589e-07,-2.1063014913793152e-08,-8.693165300297688e-08,1.6059339675409654e-07,-1.6475936075689568e-08,2.470886963366469e-07,-2.3984401471055215e-08,4.673865741061565e-08,3.5925732793476263e-07,2.652048270301103e-07,-5.707910037479823e-08,2.501533627328139e-07,3.240364799317263e-07,1.8267189795475035e-07,2.825809563042858e-07
-1.5404861998882396e-07,2.055144586735269e-07,-1.46048310200982e-07,1.6430994677633038e-07,-3.2847129750768203e-09,-8.975580164923428e-08,1.5864640332697357e-07,-2.8219799562972517e-08,2.5036957878440496e-07,-1.8568882614083344e-08,2.1836331129042076e-08,3.4386562157872284e-07,2.5378787593394876e-07,-5.79388635411424e-08,2.3757464279046394e-07,3.0622445701775277e-07,1.71142824448993e-07,2.6066308075812414e-07
-1.5875694022004322e-07,2.013093457052571e-07,-1.4235289254951533e-07,1.3974880360126868e-07,1.8346434765969866e-08,-8.946504424582285e-08,1.6528305470333439e-07,-3.4756851134274945e-08,2.601918876835732e-07,-1.0365200467084955e-08,1.7361446149163821e-09,3.289755018724831e-07,2.407543893161906e-07,-5.3698221076004786e-08,2.263206361743376e-07,2.9156779972394754e-07,1.6355906209923963e-07,2.556588476786906e-07
-1.6583562192090391e-07,1.8187623589629835e-07,-1.3397683061565735e-07,1.270429998467241e-07,3.672947279658884e-08,-8.806825691235422e-08,1.705838403335492e-07,-3.768637499153939e-08,2.729079599272332e-07,-9.881667263748793e-10,-1.4555132191385575e-08,3.1025264923093103e-07,2.3066068651978211e-07,-4.6805543483318163e-08,2.136129921227531e-07,2.7920925226226497e-07,1.5394545855575797e-07,2.61555592091086e-07
-1.827980888914146e-07,1.2809655269357003e-07,-1.292650738738933e-07,1.280194709322401e-07,4.4188445999865694e-08,-8.890360333308357e-08,1.7125068172672326e-07,-4.14167736332029e-08,2.7862991073979936e-07,7.289789246896879e-09,-2.925638475033139e-08,2.825079716391525e-07,2.2146163151179648e-07,-4.0499425388748674e-08,1.9695087630306156e-07,2.6730866094166065e-07,1.3723844023849172e-07,2.6923719834263986e-07
-2.106677164828077e-07,4.596120235729394e-08,-1.3656275585870584e-07,1.4150653612395682e-07,3.581203867224309e-08,-9.479673418603172e-08,1.6551298888987764e-07,-4.985568342144934e-08,2.7498001533652957e-07,1.2879481946596843e-08,-4.456811217208852e-08,2.4429803185767665e-07,2.1277115022212037e-07,-3.6953600605858864e-08,1.7681472605556885e-07,2.551135393921702e-07,1.131033885858652e-07,2.71882992495481e-07
-2.5636368101382216e-07,4.015379701669135e-09,-1.5954549917937844e-07,1.640825540278786e-07,1.2251492495597819e-08,-1.0616994012134821e-07,1.6242702983861884e-07,-6.337979679653616e-08,2.7227529057391534e-07,1.5879673485573706e-08,-6.088804557120606e-08,1.9980766057028473e-07,2.0769223742737962e-07,-3.5802061976666114e-08,1.5730025856454396e-07,2.441604457178482e-07,8.622966006736028e-08,2.6832430907710914e-07
-3.3402059848342624e-07,-7.538264715108391e-08,-1.95521638734363e-07,1.9121944005347432e-07,-1.988635037379299e-08,-1.205643942380281e-07,1.497571770272905e-07,-7.856938747903862e-08,2.719187930571349e-07,1.781867044860075e-08,-7.623500233091661e-08,1.5730985210211646e-07,2.1899257115466519e-07,-3.463812334790026e-08,1.4399106004365453e-07,2.3759702817191931e-07,6.319781104697241e-08,2.6218567746621306e-07
-4.150044570950696e-07,-1.7124521636419752e-07,-2.3771370706756266e-07,2.1825021082363838e-07,-5.0837180955064454e-08,-1.3393554977214776e-07,1.283550665985268e-07,-9.087765554118054e-08,2.685525247032273e-07,2.0164892784730657e-08,-8.759218237338802e-08,1.2511961444711352e-07,2.402466434607008e-07,-3.131776086745075e-08,1.406650424645889e-07,2.381218432181944e-07,4.872901897796407e-08,2.5800795163191993e-07
-4.833670449544327e-07,-2.477410843603957e-07,-2.793037709389224e-07,2.4081552439230074e-07,-7.23788481091223e-08,-1.4281686799455622e-07,1.0116763268438053e-07,-9.79960562156217e-08,2.6230593445618716e-07,2.2671642936358293e-08,-9.296160442107809e-08,1.0755581909925465e-07,2.694217884353256e-07,-2.5512226644202143e-08,1.473659784871097e-07,2.461155713651783e-07,4.434259768534498e-08,2.576506415887205e-07
-5.254330886677694e-07,-2.9687167533628793e-07,-3.1608477339302483e-07,2.5439683931972966e-07,-8.150137910414254e-08,-1.458649080097157e-07,5.231905016405271e-08,-1.0079130167187275e-07,2.4734382328556455e-07,2.2845212335518266e-08,-9.278906212748867e-08,1.0442478263115084e-07,3.054812013938228e-07,-1.8319238685515156e-08,1.612541314148231e-07,2.597666757420729e-07,4.9535720070570356e-08,2.5940297184465775e-07
-5.286787125322346e-07,-3.2435045727766326e-07,-3.463670964467493e-07,2.565885145730837e-07,-8.077969607076726e-08,-1.4384116183675542e-07,1.4430533394828717e-08,-1.0143576761146944e-07,2.0871626463816302e-07,1.6967531314633e-08,-9.00034172502192e-08,1.1301776823697324e-07,3.32703039030035e-07,-1.0557411736305652e-08,1.7931279378236185e-07,2.765303887578764e-07,6.417555838551804e-08,2.5962494299152054e-07
-5.209351602981703e-07,-3.311124502746157e-07,-3.693108209813956e-07,2.4712414586490964e-07,-7.574352556577688e-08,-1.3846020465112006e-07,-2.0014581542624327e-08,-1.0068161510904039e-07,1.7081858340723574e-07,1.958393978721854e-09,-8.879582889859912e-08,1.326243861491613e-07,3.558799234744085e-07,-5.809531141213035e-10,2.0046469312822735e-07,2.952571110747607e-07,8.918547451191909e-08,2.549750490510868e-07
-5.224237191846681e-07,-3.216279787667562e-07,-3.838302454628756e-07,2.2666349743140436e-07,-7.155234523187193e-08,-1.3126685107195208e-07,-5.94769020861836e-08,-9.699494542657555e-08,1.4136882801591192e-07,-2.311072634718897e-08,-9.261738804293097e-08,1.6293647555107707e-07,3.765489786518324e-07,1.5488574665822574e-08,2.2535508657817777e-07,3.164178853727915e-07,1.2470231171770363e-07,2.4361365425515657e-07
-5.2882101942147e-07,-2.995980357084547e-07,-3.892074626913441e-07,1.9825709252918705e-07,-7.118280214238675e-08,-1.2331228172234843e-07,-1.1539446189178752e-07,-8.833890792048814e-08,1.0081508743689921e-07,-5.66345725384322e-08,-1.0235220478641136e-07,2.0037918868238247e-07,3.9033287578628716e-07,4.126912356411045e-08,2.541809820790198e-07,3.4028263872076094e-07,1.6754296894234924e-07,2.2532237567884402e-07
-5.321419550363517e-07,-2.6746303284601754e-07,-3.86709528133281e-07,1.658092288879659e-07,-7.568203207184525e-08,-1.1551718013512895e-07,-1.8663959267988723e-07,-7.473677095938344e-08,5.535726283418803e-08,-9.52165750418065e-08,-1.1814738055362076e-07,2.4147258325362856e-07,4.0835437202453214e-07,7.665234988213296e-08,2.8469389155012796e-07,3.651678020862395e-07,2.1025267673528793e-07,2.015282079408934e-07
-5.022546779414141e-07,-2.2791671443047258e-07,-3.8030551552806107e-07,1.3327253913492115e-07,-8.532102814261953e-08,-1.0904012962787686e-07,-2.5932816929626646e-07,-5.9141588729135175e-08,7.902704793323676e-09,-1.3484959518757212e-07,-1.3778050437580044e-07,2.776681226422586e-07,4.3723199021446914e-07,1.1742010344184139e-07,3.1250886744158417e-07,3.873269042787347e-07,2.438502601551421e-07,1.760111695148994e-07
-4.355123814848544e-07,-1.855694397717244e-07,-3.7506488970303404e-07,1.0473392708150826e-07,-1.0002612658820556e-07,-1.0506469811927378e-07,-3.3191867439461246e-07,-4.5548594280779804e-08,-3.4037503016554254e-08,-1.7177172048041665e-07,-1.6064659033676687e-07,3.02855516776066e-07,4.806701566638234e-07,1.606106544630828e-07,3.338016915755215e-07,4.029864507779916e-07,2.6284928665349694e-07,1.5545692332476995e-07
-3.748447389286273e-07,-1.465340265764702e-07,-3.739673521852712e-07,8.421137606273568e-08,-1.1869931667830792e-07,-1.0402890474007416e-07,-3.816005912829272e-07,-3.6017627915499185e-08,-5.778660276657964e-08,-2.0285357148590903e-07,-1.8210024784074655e-07,3.120283430193669e-07,5.229666814709e-07,2.0029408636190843e-07,3.480882680061193e-07,4.106049905931079e-07,2.688799137435988e-07,1.4808348386215955e-07
-3.233374035384118e-07,-1.1598630168997985e-07,-3.758202010689291e-07,7.320291578503501e-08,-1.385835052258956e-07,-1.050753156160904e-07,-4.215490836692962e-07,-2.9172880373322433e-08,-6.41835262944793e-08,-2.2589950881397756e-07,-1.9427498166650542e-07,3.041622763588452e-07,5.438948949321859e-07,2.3548106708372078e-07,3.5858842445907284e-07,4.1218561625116773e-07,2.696205977480778e-07,1.6030130298522943e-07
-2.7559537113040723e-07,-9.597877003445532e-08,-3.7640025891118796e-07,7.163074846963731e-08,-1.558925455045524e-07,-1.0638265926053687e-07,-4.550109268533246e-07,-2.138153473042796e-08,-7.32989355070343e-08,-2.4009937666826347e-07,-1.9610346896571618e-07,2.819770975931231e-07,5.536961713261341e-07,2.664788940456117e-07,3.698443375581809e-07,4.124939445777638e-07,2.736749363467572e-07,1.9344327913808882e-07
-2.574733170513445e-07,-8.517114428518994e-08,-3.7194804553341915e-07,7.774646450637918e-08,-1.6762988519471057e-07,-1.0628716012631212e-07,-4.7099489245437623e-07,-9.587159511808024e-09,-8.187926105520676e-08,-2.4637061970729106e-07,-1.8872642080148153e-07,2.527210435023321e-07,5.605198131955157e-07,2.9554166465621677e-07,3.845546185646608e-07,4.1487043642788065e-07,2.86370434330989e-07,2.424670051918516e-07
-2.523836708257292e-07,-8.008961183165024e-08,-3.6182539734765846e-07,8.614026502365789e-08,-1.7324817668521016e-07,-1.0440768328491579e-07,-4.757727687235605e-07,6.472080603428593e-09,-8.374212333379872e-08,-2.4712062240346465e-07,-1.8123604288026897e-07,2.417529279745501e-07,5.744180187774954e-07,3.177356295530075e-07,4.020868941725745e-07,4.1996984121989756e-07,3.068436068161387e-07,2.974794608589751e-07
-2.5171857815217594e-07,-7.655756305738526e-08,-3.481324031490309e-07,9.224469155281513e-08,-1.7468644190354216e-07,-1.0180355650324831e-07,-4.772584840424666e-07,2.4458662317370698e-08,-8.492687706012718e-08,-2.4525656360619203e-07,-1.7181754546916784e-07,2.4638628734536784e-07,5.938740811114057e-07,3.3015924930029765e-07,4.1956760889358926e-07,4.282809513614527e-07,3.320553936162268e-07,3.48620973636672e-07
-2.5473459509091374e-07,-7.058329959524961e-08,-3.3316740744092075e-07,9.242543946965056e-08,-1.7463597414865326e-07,-9.993601120187851e-08,-4.77732720843918e-07,4.1834932515199196e-08,-7.937032354167672e-08,-2.4290540681124687e-07,-1.6158485619690555e-07,2.9102071021768604e-07,6.091016609780729e-07,3.323276454664468e-07,4.3421558721544554e-07,4.4048673586611216e-07,3.6038129748337184e-07,3.8873340365335317e-07
-2.5127116785392827e-07,-5.8641168882379694e-08,-3.1734414600500815e-07,8.461870381033004e-08,-1.7441216137642958e-07,-9.929269635141914e-08,-4.837752408714324e-07,5.816314525519083e-08,-7.192779352267589e-08,-2.4127240183347414e-07,-1.438043797040332e-07,3.746468028976093e-07,6.283431018142627e-07,3.0543844063081113e-07,4.4478797265887766e-07,4.587761420388298e-07,3.924219623607706e-07,4.1605934434547386e-07
-2.3943848135318217e-07,-3.748290421084563e-08,-2.9923457700063596e-07,7.745896647925026e-08,-1.7305189681519465e-07,-9.882637329802634e-08,-4.911793178134258e-07,7.512368997967775e-08,-6.539525184490542e-08,-2.397697514122454e-07,-1.0500592723859247e-07,4.2312893448454536e-07,6.512830591595297e-07,2.6192297329904063e-07,4.5124748499078704e-07,4.86125005346646e-07,4.311125234701613e-07,4.349466803255954e-07
-2.1603970374923283e-07,-4.4936680833145516e-09,-2.7737251415112875e-07,6.878696643553716e-08,-1.6827437899371667e-07,-9.669469507035618e-08,-4.932322456902526e-07,9.455135307705551e-08,-6.013382431737309e-08,-2.3691131934394105e-07,-6.343647528900902e-08,4.774245224731124e-07,6.756375307802506e-07,2.327230530851779e-07,4.539056614531768e-07,5.234138782240222e-07,4.762225215036579e-07,4.510528021979533e-07
-1.7910601548160683e-07,4.077373714649629e-08,-2.5218813607022094e-07,5.4658048742455084e-08,-1.5862510270619281e-07,-9.161372738535071e-08,-4.922251252602955e-07,1.1655462338773033e-07,-5.3066376386880096e-08,-2.3383131248954848e-07,-1.9036551823879553e-08,5.190849310569963e-07,7.082416060833256e-07,2.0953921659855024e-07,4.523654246765848e-07,5.681840443079853e-07,5.235270672564947e-07,4.690829774913751e-07
-1.327052929692092e-07,9.471597116325807e-08,-2.2658523045009327e-07,4.424859696970181e-08,-1.4518623756194416e-07,-8.365838341338867e-08,-4.893946063348086e-07,1.3959205672913622e-07,-4.307195226704019e-08,-2.3181638135908535e-07,2.46972030366005e-08,6.101339610699667e-07,7.394472891443465e-07,1.7121156992061177e-07,4.4686211755406195e-07,6.160450440255024e-07,5.692141744640654e-07,4.927334219262229e-07
-8.503901638004857e-08,1.498466524247802e-07,-2.048458602547172e-07,4.7421598878969964e-08,-1.3142252795231825e-07,-7.38520712564944e-08,-4.903718200862546e-07,1.6234604765428303e-07,-3.341860799357614e-08,-2.3177424291669405e-07,5.791854222034372e-08,6.831393538322019e-07,7.597832310245128e-07,1.238970532883226e-07,4.4074365529241545e-07,6.62810737526932e-07,6.091092326396257e-07,5.217975905741509e-07
-4.521771998270341e-08,1.9803333330131638e-07,-1.9074408002823833e-07,7.192544381010842e-08,-1.2122540929702746e-07,-6.315495353277967e-08,-4.929560438901484e-07,1.8535098889743984e-07,-2.0200123365504582e-08,-2.3422638114859462e-07,8.865878287207318e-08,7.077411767527943e-07,7.522259476821947e-07,1.0726696758413325e-07,4.3605143688066504e-07,7.05991978808256e-07,6.42865408037287e-07,5.455872744876034e-07
-1.936734861833377e-08,2.3418216411532977e-07,-1.8608462035139867e-07,1.2781928764095957e-07,-1.1681630115212487e-07,-5.196303340217553e-08,-4.928684556264073e-07,2.1056867353879823e-07,-3.611492628514729e-09,-2.3596432574577847e-07,9.23123819690075e-08,7.173047191340531e-07,7.445355277475397e-07,1.0459573190364092e-07,4.3597820337968173e-07,7.436040360243329e-07,6.722614962621437e-07,5.634869212722801e-07
-8.540642150676264e-09,2.574550944634415e-07,-1.904076387214073e-07,1.7919239012483224e-07,-1.1956763510509996e-07,-4.0493022122916946e-08,-4.872117914399564e-07,2.389357222986801e-07,1.4925150346851837e-08,-2.2827820446220928e-07,1.0076435140918187e-07,7.321094493651567e-07,7.423274740826309e-07,9.955863936011087e-08,4.573392044582026e-07,7.733776809175228e-07,6.957865128402409e-07,5.697839950297538e-07
-9.440039155066712e-09,2.7011769650667917e-07,-2.0286355580345886e-07,1.8631290075440004e-07,-1.2591557534463197e-07,-2.9440004403986943e-08,-4.7358828772875017e-07,2.679631292286213e-07,3.4771768964763745e-08,-2.1186940750785705e-07,1.1945590676585914e-07,7.39159379615411e-07,7.477351521338515e-07,9.623086088649822e-08,4.850396715659635e-07,7.934838419514965e-07,7.13453006135169e-07,5.523117128607542e-07
-1.6178085099828e-08,2.761444020676154e-07,-2.185306716443157e-07,1.8857581654845693e-07,-1.3291330316572799e-07,-1.988294623551881e-08,-4.5282103002754475e-07,2.919320217456531e-07,5.2877368747900316e-08,-1.905340337366815e-07,1.463286213883681e-07,7.14217367772756e-07,7.666863987654853e-07,1.272646588405261e-07,5.086439686053282e-07,8.027902380190948e-07,7.267544222627359e-07,5.669414377638779e-07
-2.216509546703266e-08,2.8053908574218966e-07,-2.3343940012180328e-07,2.1777184488970545e-07,-1.376099864783461e-07,-1.2194193206430049e-08,-4.2550419811770357e-07,3.0516894859905195e-07,6.766759080065148e-08,-1.4563171148714988e-07,1.8237829788731861e-07,6.764598546401122e-07,7.869301029856326e-07,1.7060601861335898e-07,5.257670733203661e-07,7.972232112642425e-07,7.3567760389024e-07,5.807806913103162e-07
-2.146521309549642e-08,2.874076132773452e-07,-2.3978288683578375e-07,2.434896407226674e-07,-1.1866139998147511e-07,-4.974496365893877e-09,-3.909645887583755e-07,3.057355492843027e-07,8.243370306094569e-08,-1.2494141322917813e-07,2.2978965353153573e-07,6.078986753466591e-07,7.899046459472859e-07,2.2789777353304905e-07,5.409710415137697e-07,7.886843137696676e-07,7.501534569019925e-07,5.691982348413173e-07
-7.855969571864296e-09,3.0461984433954263e-07,-2.10103491080947e-07,2.7696988935538283e-07,-7.304874587210655e-08,5.392447258786184e-09,-3.486115836343585e-07,2.963929617470602e-07,1.028830238544907e-07,-9.49053816966387e-08,2.841859230184066e-07,5.422619947865746e-07,7.736107436822952e-07,2.802815900286872e-07,5.549464473588706e-07,7.950690303834367e-07,7.87814223318294e-07,5.537365058694976e-07
2.131008890729701e-08,3.5100708154994145e-07,-1.8401691228803318e-07,2.79712533710695e-07,-5.464808727780317e-08,2.0797989529145537e-08,-3.0070474330156214e-07,2.8213510196037006e-07,1.213129916296283e-07,-4.068498449739254e-08,3.2796541264007143e-07,4.930643581788871e-07,7.463624584479232e-07,3.2718871279770344e-07,5.681716975488326e-07,8.13075221154703e-07,8.174264587584884e-07,5.539449993437888e-07
6.448858083071383e-08,3.900420889586692e-07,-1.498495118011658e-07,2.6383089992308193e-07,5.302210078009442e-09,4.0185242853466483e-08,-2.5279834067916664e-07,2.6609605156805074e-07,1.4038867408799678e-07,1.2426322684903918e-08,3.459332217625574e-07,4.529401761443756e-07,7.289790227467795e-07,3.630091967543956e-07,5.790886886367505e-07,8.415207327044637e-07,8.386993399942565e-07,5.470831340967435e-07
1.1570044589004383e-07,4.665738971092458e-07,-1.0601965577095795e-07,2.575989180189263e-07,8.640111302565321e-08,6.022118742085999e-08,-2.1332529188549638e-07,2.477534725908639e-07,1.5155188297208662e-07,4.016172301429956e-08,3.2399118257270505e-07,4.371448179378159e-07,7.198096606431519e-07,3.751773238371858e-07,5.827532928581292e-07,8.503156032436182e-07,8.380231048479806e-07,5.613440111510258e-07
1.664580165929958e-07,5.455452217432986e-07,-5.177368726082647e-08,2.609597784770676e-07,1.2579756312462298e-07,6.770372898193054e-08,-1.9037383810499844e-07,2.2455741876419754e-07,1.203273403199965e-07,6.047932170589976e-08,3.080689284191588e-07,4.2810297553925285e-07,7.041216471481435e-07,3.690840074612721e-07,5.743848407482014e-07,8.16625676943411e-07,8.096036107257693e-07,5.730538104619119e-07
2.014724795221057e-07,6.180609653432613e-07,-2.9044560077735005e-08,2.657023772192211e-07,1.3253730764163796e-07,5.8041664945516254e-08,-1.856242449085991e-07,1.953843829253896e-07,1.1550978972751898e-07,6.251590484932152e-08,3.1778986142514824e-07,4.1855403928823556e-07,6.84685697659022e-07,3.7082383588755423e-07,5.529578433163795e-07,7.797914175470893e-07,7.745035429024768e-07,5.812314620803458e-07
2.1671706507352772e-07,6.384602123093457e-07,-1.0846272172096935e-08,2.7058302359438667e-07,1.4608944024935405e-07,6.00274678994734e-08,-1.9560298386411e-07,1.6261664383067204e-07,1.1168503393736664e-07,8.291521184711256e-08,3.3588544159103757e-07,4.0080620904761793e-07,6.639549368854102e-07,3.66369899337193e-07,5.222146432529078e-07,7.726827679534291e-07,7.676246907265082e-07,5.861577331127152e-07
2.1428795020310007e-07,6.547962983559462e-07,-2.2529532029934714e-08,2.6162584909520875e-07,1.6868511712478276e-07,5.228535818678465e-08,-2.1289780178716008e-07,1.3082164947049904e-07,8.794495251365701e-08,1.0536378475047953e-07,3.127716135251783e-07,3.77892701822129e-07,6.388124991576772e-07,3.327872543750389e-07,4.884344598359594e-07,7.842178085800178e-07,7.606445580943488e-07,5.871371044813072e-07
2.0259016148585603e-07,6.875340638631313e-07,-3.84362906090724e-08,2.4872053844502477e-07,1.3336825282332846e-07,3.0115410635586584e-08,-2.303331032546811e-07,1.0327198375839893e-07,6.258752622135067e-08,1.035161805397093e-07,2.696934704891515e-07,3.6256637069211926e-07,6.07890175082299e-07,2.9234267021075094e-07,4.5677238144489706e-07,7.594894236270186e-07,7.547349858347658e-07,5.869870310322958e-07
1.8721806171476948e-07,6.804830095979853e-07,-5.733815377411195e-08,2.3113643030182323e-07,8.197171413365785e-08,5.235517241537888e-09,-2.4550692633220055e-07,7.929930787645183e-08,4.118705169680507e-08,9.388576196275012e-08,2.239549075142256e-07,3.579165188895137e-07,5.833660455746047e-07,2.579295097106714e-07,4.2888125665806976e-07,7.04720600230794e-07,7.43418432811636e-07,5.847878507580575e-07
1.6814656970359168e-07,6.424564889647327e-07,-7.840531024756679e-08,2.1981426677148552e-07,4.579469692645263e-08,-1.2093881671729274e-08,-2.6062900748250117e-07,5.5005648699481426e-08,1.821520977796249e-08,8.010176467880712e-08,1.8116111210057127e-07,3.6341728235588883e-07,5.639220830894905e-07,2.2482769157083766e-07,4.034174110357352e-07,6.48344262944984e-07,7.138916549845424e-07,5.762512496992837e-07
1.4731813993828558e-07,6.046823478830973e-07,-1.0381076252009258e-07,2.0286492452039965e-07,1.7842056605125006e-08,-2.613368508213438e-08,-2.792264165142504e-07,2.6705564658838248e-08,-2.611607884322912e-09,5.89223678521839e-08,1.3913965630811002e-07,3.7165481454822033e-07,5.425797821837611e-07,2.0007204693646224e-07,3.7864229433192687e-07,5.946696326290399e-07,6.716497753484849e-07,5.583276934120097e-07
1.2409878520987525e-07,5.694734348874872e-07,-1.355574442067136e-07,1.6811878384517287e-07,-9.726625718027931e-09,-3.992645133401949e-08,-3.0242420340844075e-07,-5.886600338957145e-09,-2.6137764409805654e-08,4.283442005978241e-08,1.1127083314130449e-07,3.7414650118024883e-07,5.204189025690957e-07,1.7912968884861062e-07,3.5465439491075886e-07,5.368287880207213e-07,6.259232710149716e-07,5.3208951152095e-07
1.0068610537235236e-07,5.317747845677088e-07,-1.7333849564259364e-07,1.3159919209002565e-07,-3.6005876144534405e-08,-5.3731740247434885e-08,-3.266030326137104e-07,-3.940718684927359e-08,-4.906590421537015e-08,2.8604042346638257e-08,9.221648354451341e-08,3.6432967585797663e-07,4.972716493864016e-07,1.622821175845036e-07,3.3336508361930547e-07,4.908180075567002e-07,5.867038823380546e-07,5.028894310196366e-07
7.956545833496419e-08,4.974625871202608e-07,-2.1451988745330403e-07,9.678929180433742e-08,-6.089095972905272e-08,-6.709700939914267e-08,-3.482856720388999e-07,-6.92760597201701e-08,-6.766888578814846e-08,1.7456032130328782e-08,7.284049858368523e-08,3.437635022859117e-07,4.750361991372757e-07,1.5062269397219735e-07,3.1646260136576744e-07,4.48573481530705e-07,5.700991916137165e-07,4.771878370463285e-07
6.333593935896097e-08,4.6689002012032906e-07,-2.5567122832844245e-07,6.42420257544068e-08,-8.417710279900135e-08,-7.91295219603762e-08,-3.6482028946169066e-07,-9.337801398798026e-08,-8.24684340956153e-08,1.089192213491522e-08,4.9478949899155784e-08,3.1437314184039447e-07,4.5631516025755e-07,1.4079522181464624e-07,3.034181785520663e-07,4.057709707009732e-07,5.546830905236691e-07,4.5844189995390836e-07
4.1114271671633425e-08,4.384662393200412e-07,-2.9418064223390847e-07,3.4862434263319234e-08,-1.0783458620144255e-07,-8.948470712874401e-08,-3.759486016099161e-07,-1.1310879099093968e-07,-9.326082870997907e-08,4.8289980095427815e-09,1.5852440120506487e-08,2.783305521448732e-07,4.3783687171701115e-07,1.3162722781037142e-07,2.915915530360799e-07,3.7490214804314586e-07,5.310908600602938e-07,4.452427635260341e-07
1.3187539928263176e-08,4.0929112569792364e-07,-3.2863764277111786e-07,1.1119705442355226e-08,-1.3281099009961423e-07,-9.857408224234475e-08,-3.7992549898566007e-07,-1.3266179373818436e-07,-1.0144740467132141e-07,2.281317622220984e-10,-2.6633682466968466e-08,2.392846075453421e-07,4.2176461154634936e-07,1.230014264175229e-07,2.784456097212192e-07,3.4665367365871225e-07,4.969201366921184e-07,4.3286510662314966e-07
-1.7733272291675185e-08,3.76026042968229e-07,-3.5793686454033634e-07,-1.2933945496403858e-08,-1.583630327864813e-07,-1.0690442859704744e-07,-3.798874519370019e-07,-1.5488180305364585e-07,-1.0817738014942035e-07,-1.9313839503855836e-09,-7.358239555699e-08,1.9995630684033937e-07,4.070763794752527e-07,1.1472259901003976e-07,2.6368020646278306e-07,3.192076939733263e-07,4.5705798125846625e-07,4.1665991250665024e-07
-5.2912160748214724e-08,3.3717502082711395e-07,-3.8050370167308407e-07,-3.172536750432745e-08,-1.8454990728670882e-07,-1.1440156949672693e-07,-3.7852392140487287e-07,-1.8035551425975352e-07,-1.1285113338117857e-07,-1.2300411339253007e-09,-1.1923246582894311e-07,1.6358189231322735e-07,3.9397231304022364e-07,1.074219229421513e-07,2.491798605672037e-07,2.9503039453311154e-07,4.1938626621754136e-07,3.945297127138423e-07
-8.630400706100542e-08,2.9440776272738153e-07,-3.950715759832473e-07,-5.013117352960124e-08,-2.0967052498682482e-07,-1.2061895022851036e-07,-3.724479507338684e-07,-2.0787703297600725e-07,-1.1491102149100254e-07,3.128574511710647e-09,-1.5690644399156018e-07,1.317697303301748e-07,3.8351571497848997e-07,1.0224210382023891e-07,2.3686898886514194e-07,2.789823577043554e-07,3.856823196882688e-07,3.669260635231812e-07
-1.095776762549041e-07,2.5165455784726283e-07,-4.026999267891111e-07,-7.406066924831486e-08,-2.3206490368910987e-07,-1.2572033087204114e-07,-3.7171625351596754e-07,-2.37801753886965e-07,-1.1612529700195446e-07,1.0950090028747594e-08,-1.8267760156379828e-07,1.0323370602795871e-07,3.7345172242058505e-07,9.850101111703108e-08,2.2655553679890214e-07,2.835216758397442e-07,3.582512212801174e-07,3.3542467609649393e-07
-1.4094660748018568e-07,2.1239057608949518e-07,-4.0790456609750883e-07,-9.954202285706574e-08,-2.534015412200903e-07,-1.3110024593860808e-07,-3.6195204834852685e-07,-2.7263109083098756e-07,-1.2087151348001805e-07,2.043887790202736e-08,-1.977163419216229e-07,7.25593438401974e-08,3.6139740406102613e-07,9.451970067377139e-08,2.1587113255164375e-07,2.9593019736022205e-07,3.349713086059594e-07,3.0219064867873015e-07
-1.8795873202205642e-07,1.7546313029992458e-07,-4.170539286239531e-07,-1.1710676748889447e-07,-2.736782314170822e-07,-1.386833028392058e-07,-3.433563215668316e-07,-3.158467293705925e-07,-1.33455831593835e-07,2.8733008348167956e-08,-2.077962996550621e-07,3.212973661040032e-08,3.448675215255378e-07,8.927947825128496e-08,2.024348079903811e-07,3.2822880874293073e-07,3.142196180653558e-07,2.7098260235700064e-07
-2.64486537314239e-07,1.3769946883431737e-07,-4.347526340347528e-07,-1.204845329596594e-07,-2.780729810766819e-07,-1.4929328934485316e-07,-3.168673023891551e-07,-3.6603061167246183e-07,-1.542569241360955e-07,3.3377929752047616e-08,-2.2017163219463815e-07,-2.122953982318617e-08,3.236705669452376e-07,8.361348500877883e-08,1.8616687500573325e-07,3.7035999910141953e-07,2.9735662388151983e-07,2.4767589712194707e-07
-3.604925232137451e-07,9.557889334363012e-08,-4.61116612933661e-07,-1.1163882766464179e-07,-2.6768337829896123e-07,-1.615026403775108e-07,-2.744784381235985e-07,-4.112246577150086e-07,-1.7808640219563237e-07,3.347997688590693e-08,-2.400468689007453e-07,-8.6504537550395e-08,2.9733405525044225e-07,7.984780013570282e-08,1.695347336989622e-07,3.83400852141338e-07,2.8606261847048247e-07,2.382710189860171e-07
-4.202860880620987e-07,4.411996453448606e-08,-4.921934970847876e-07,-8.293188827092429e-08,-2.3556802709056887e-07,-1.71994885938037e-07,-2.2996602132491417e-07,-4.4400798253129734e-07,-1.966937033429785e-07,2.9653675029641423e-08,-2.6878715834409054e-07,-1.5982089489936796e-07,2.682875754249386e-07,7.936467034456226e-08,1.5549800081324952e-07,3.737432648572346e-07,2.765983599585232e-07,2.449989704550355e-07
-4.488337017003368e-07,-1.902531861053981e-08,-5.23112572926445e-07,-8.3329983102613e-08,-1.6388962326505485e-07,-1.7725288188891645e-07,-2.0380274133564136e-07,-4.5027517083277863e-07,-2.0395764326439848e-07,2.2996575923621135e-08,-3.0435028357359215e-07,-2.3574878538752378e-07,2.390581380148584e-07,8.032374802753546e-08,1.45011077384255e-07,3.8305090217513764e-07,2.642756110941476e-07,2.632670522606652e-07
-5.203487935225297e-07,-8.547995477831246e-08,-5.513533490719915e-07,-9.592165516401959e-08,-1.5089445746873789e-07,-1.75365149857703e-07,-1.918303289026175e-07,-4.446076934832021e-07,-1.9988487934825323e-07,1.4052759924325947e-08,-3.429153066915455e-07,-3.099678059271268e-07,2.0785496456385105e-07,7.767690051127398e-08,1.363927669399225e-07,4.4043514547646266e-07,2.424468847910865e-07,2.8224645039194535e-07
-6.017617553373889e-07,-1.5630421655074028e-07,-5.774419660698716e-07,-7.52242180813832e-08,-1.4096031376745916e-07,-1.6670562385737815e-07,-1.5551714329297678e-07,-4.567118834721111e-07,-1.9011648743183547e-07,2.7941689492478068e-09,-3.803083914189504e-07,-3.850100453964336e-07,1.7340818074728733e-07,6.629470465631494e-08,1.272340813733213e-07,4.943465991208776e-07,2.0462628246245152e-07,2.897950703398968e-07
