0,1,2,3,4,5,6,7,8,9,10,11,12,13,14,15,16,17
-2.9424087452481543e-08,2.5332483788280184e-08,-9.817353335149143e-08,7.0583532670204855e-09,-1.053087881978854e-07,2.5947614750289137e-08,-1.5512341309782184e-07,2.1793808923617598e-08,2.023781713418206e-08,-5.707601977168512e-08,-1.3493844554386573e-07,-1.5558224134584257e-07,-2.5806647776198593e-07,-1.599923079728222e-07,-5.1032866231156795e-08,-5.096517716855327e-08,5.7076927583005686e-08,2.919358199146271e-08
-8.659968702958875e-08,5.57272965266066e-09,-8.264197767395842e-08,-7.237426304989708e-09,-8.968305475552862e-08,2.444680373509738e-08,-1.445356145583752e-07,3.867540068340555e-09,2.2226630213162378e-08,-5.121056171166283e-08,-1.1050286114894388e-07,-1.17077030779717e-07,-2.1183009835471712e-07,-1.359500446770582e-07,-3.7119413004539824e-08,-1.4954603507526928e-08,6.228104501130226e-08,3.8543274938832596e-08
-1.0344668323621027e-07,-1.4434991568050632e-08,-7.505243201702256e-08,-2.2482763832450578e-08,-8.65381644128809e-08,8.039679229455877e-09,-1.3476359093888702e-07,-2.0586538572009385e-08,1.1517202205696037e-08,-4.734157375529323e-08,-9.703462931303294e-08,-9.909443233964352e-08,-1.8393131141040697e-07,-1.2417330688281433e-07,-4.8527507408212475e-08,6.873840237501224e-09,4.581510929269278e-08,3.3832084220115244e-08
-9.547935871277949e-08,-3.3367342365250646e-08,-7.380034153308509e-08,-3.6678322947847056e-08,-9.264521780643189e-08,-1.8398857390090438e-08,-1.2744366337810347e-07,-4.607280798013431e-08,-9.884035604139492e-09,-4.6892600332461226e-08,-9.281431554228977e-08,-9.943199954968977e-08,-1.7168722770582162e-07,-1.2313247150002513e-07,-7.903912861613945e-08,1.0536955805522304e-08,1.1580328863293466e-08,1.5821008632462477e-08
-7.651865246912376e-08,-4.876325125587209e-08,-7.512485933756203e-08,-4.7346567882911143e-08,-1.0167376842901038e-07,-4.8000875874606666e-08,-1.1992773851336543e-07,-6.689250840826472e-08,-3.543881770728556e-08,-4.8232069451103096e-08,-9.223382552824765e-08,-1.0985625102797192e-07,-1.671133256934868e-07,-1.2509905598051188e-07,-1.1473769412110314e-07,-4.4219200233255e-10,-2.953179448072976e-08,-9.645184311407624e-09
-5.455190702680185e-08,-5.714949704825148e-08,-7.358498267141098e-08,-5.14045287919368e-08,-1.0518348345736632e-07,-7.26044281801075e-08,-1.0561887079227242e-07,-7.773454750538313e-08,-5.545484211511593e-08,-4.7861442300459656e-08,-8.782616517323264e-08,-1.1860267694045815e-07,-1.5911123854479464e-07,-1.1956763904021402e-07,-1.3931139516762223e-07,-1.763143769308159e-08,-6.41051343068228e-08,-3.411072968603258e-08
-3.273230812780881e-08,-5.5680392361683835e-08,-6.430075380771963e-08,-4.6747897376466136e-08,-9.633644882882132e-08,-8.544010223653897e-08,-7.938369763346468e-08,-7.59558005988464e-08,-6.223792614619061e-08,-4.277031009723915e-08,-7.431393015903578e-08,-1.1540776476447827e-07,-1.3827626171574272e-07,-9.96989662125314e-08,-1.416376158558222e-07,-3.295355528884826e-08,-8.251664325318151e-08,-5.057017571484142e-08
-1.215599722717234e-08,-4.4141652489191736e-08,-4.53002428500022e-08,-3.3803257498113455e-08,-7.300973976110966e-08,-8.342660889004992e-08,-4.196735851881355e-08,-6.274507910228334e-08,-5.3958749848095077e-08,-3.214431896364023e-08,-5.066776699028211e-08,-9.498047623007059e-08,-1.001114529156588e-07,-6.514808062067143e-08,-1.1903766472429288e-07,-4.179657480833871e-08,-8.171332913861696e-08,-5.5700635239389566e-08
6.0390747043822715e-09,-2.5233559733438326e-08,-1.78597385958193e-08,-1.5369782818218966e-08,-3.731209040906362e-08,-6.694213300597625e-08,1.6002198245043207e-09,-4.147334631900305e-08,-3.379495463575794e-08,-1.677999687497571e-08,-1.8812576061865905e-08,-5.6972582769616924e-08,-4.472910481036646e-08,-1.9655105732075313e-08,-7.494399011493626e-08,-4.2263786740527215e-08,-6.371471783727168e-08,-4.9400891238457015e-08
2.0629275442008007e-08,-3.143778476600141e-09,1.4732641165188999e-08,4.732600871343559e-09,6.630470489489499e-09,-3.862228611563954e-08,4.5900641548233714e-08,-1.5607300264671583e-08,-7.255506948853438e-09,1.9454807903191575e-09,1.8178752756320318e-08,-4.701046490896004e-09,2.4324468130688902e-08,3.155290979392473e-08,-1.6102506621858903e-08,-3.385383954764503e-08,-3.374555526029938e-08,-3.384960480339023e-08
3.058366779200676e-08,1.7926778412312148e-08,4.828183098014396e-08,2.2805492070566668e-08,5.362295719006377e-08,-3.131993034796106e-09,8.632075531381653e-08,1.1623871540303266e-08,1.907294370238028e-08,2.1946580664838096e-08,5.650047683131227e-08,5.5457252860636514e-08,1.0024798012340225e-07,8.208487972269361e-08,4.8145506617528174e-08,-1.7736994537634893e-08,4.766098010034789e-10,-1.3179974146557506e-08
3.6719519998043784e-08,3.4641866016704804e-08,7.845020513285018e-08,3.5990298868009204e-08,9.775154055194336e-08,3.317591956151618e-08,1.1906812652458593e-07,3.718847535995007e-08,3.873095021972684e-08,4.0871188332098335e-08,9.209669699719744e-08,1.1508329950720042e-07,1.7393090249584884e-07,1.2553464501862014e-07,1.0718212277519932e-07,3.2800036088706003e-09,3.025634243588281e-08,7.441025833434738e-09
4.409260521076376e-08,4.5308258562202244e-08,1.0181805196029342e-07,4.324496915130447e-08,1.337643933649399e-07,6.396077154844526e-08,1.4279608345972037e-07,5.924252874708616e-08,4.778521045114888e-08,5.739392368379992e-08,1.2200411167431212e-07,1.6587688326432047e-07,2.3656623633789636e-07,1.5822910520334851e-07,1.5192249934927643e-07,2.621548867490746e-08,4.851223943752203e-08,2.3575305954672272e-08
6.249381420102778e-08,5.0272656292781106e-08,1.1672206103358786e-07,4.603695050801527e-08,1.582535866742493e-07,8.444102068951324e-08,1.5934176053369145e-07,7.754038107202453e-08,4.5884235599415353e-08,7.219244460022069e-08,1.447407760118512e-07,2.0142726768440605e-07,2.817747457260527e-07,1.8010737207176512e-07,1.7645152572073234e-07,4.8848984412010786e-08,5.116894236961281e-08,3.2659091666647475e-08
1.0512425868475884e-07,5.1398277110873854e-08,1.2317613607873003e-07,4.7848893928032805e-08,1.6953926972288038e-07,9.163295555994354e-08,1.7160077628202802e-07,9.227013514984945e-08,3.4832472324655614e-08,8.78015100303497e-08,1.5944860753465042e-07,2.180239901954473e-07,3.063860610684251e-07,1.9323408706343678e-07,1.7826323605393312e-07,6.947738928620948e-08,3.746579060178494e-08,3.434067255084287e-08
1.85226465248976e-07,5.146141546252537e-08,1.226579354872775e-07,5.335298878863958e-08,1.681285380645328e-07,8.49225196535448e-08,1.8213558394452298e-07,1.0354118788942425e-07,1.7737371155070654e-08,1.0815776515689442e-07,1.6617509365515223e-07,2.1583780872637384e-07,3.116261050306672e-07,2.016739797449364e-07,1.5952489134901574e-07,8.73654992694676e-08,1.0693838880822201e-08,3.105114935160556e-08
3.119570853635402e-07,5.4275389937592664e-08,1.1844586280336409e-07,6.769375870348248e-08,1.5850257513500633e-07,6.763235210243674e-08,1.9456597047331473e-07,1.1268668472698085e-07,-1.5915848990531366e-10,1.385361733951521e-07,1.673913460279874e-07,2.0033350639578205e-07,3.043612501394618e-07,2.124171614904672e-07,1.2829352039128221e-07,1.0383114437207046e-07,-2.1426496161026676e-08,2.8103079857423307e-08
4.862713328116826e-07,6.449594843389612e-08,1.1526757618924268e-07,9.536496648994868e-08,1.4907308159460432e-07,4.68608093101606e-08,2.1346624833498196e-07,1.227708765662934e-07,-1.2558424941757239e-08,1.8315777861583072e-07,1.6752499410385208e-07,1.8077956463192333e-07,2.9526438627125514e-07,2.3288588597853414e-07,9.590663606235517e-08,1.2139334716411443e-07,-4.9812355665682624e-08,3.1452036809627795e-08
6.979898830792628e-07,8.578605353118109e-08,1.1715187686695948e-07,1.3798857889791984e-07,1.482624316000663e-07,3.0023782808108363e-08,2.40204213330166e-07,1.3647887996018683e-07,-1.6516594544280162e-08,2.4217981753405447e-07,1.6987357814848745e-07,1.6600327572879863e-07,2.9369841385121073e-07,2.654053740173208e-07,7.144228210558946e-08,1.4095385985151084e-07,-6.91544805631911e-08,4.3953242348565335e-08
9.266371465794884e-07,1.1848205964499456e-07,1.2507760595930618e-07,1.9239195745078987e-07,1.6005700202116105e-07,2.1160803535820562e-08,2.6957469006278607e-07,1.5376239631881159e-07,-1.557020486504849e-08,3.1032946559246055e-07,1.7439003001371533e-07,1.611170449246845e-07,3.038600052258486e-07,3.0496173642359006e-07,5.886099695257108e-08,1.6057111725133256e-07,-7.982073792066627e-08,6.365362074706974e-08
1.1458948315946863e-06,1.5908437825194377e-07,1.368684207021699e-07,2.514723643031033e-07,1.8341033399541577e-07,2.0511510605880035e-08,2.9225329547957886e-07,1.7195626067147991e-07,-1.7555745298010427e-08,3.786455572020871e-07,1.7885780492977015e-07,1.674569025864327e-07,3.252373053467014e-07,3.430049702434835e-07,5.869032828245238e-08,1.7743509127889435e-07,-8.523090788115264e-08,8.555490639834213e-08
1.3305188733069312e-06,2.01835221760636e-07,1.491161027196851e-07,3.0709306255425677e-07,2.1467663947283385e-07,2.6363909794203633e-08,3.000791254964009e-07,1.8727691650377465e-07,-2.988119531191051e-08,4.38050157216879e-07,1.8115967035173806e-07,1.8383025116674797e-07,3.5486449689360223e-07,3.722690668931521e-07,6.987056320918681e-08,1.9004352950791337e-07,-8.882683537427309e-08,1.043462020259399e-07
1.4622507647009387e-06,2.4062257625695366e-07,1.5883701221796913e-07,3.5261067082338037e-07,2.491524407809499e-07,3.608343906243382e-08,2.8830667500093896e-07,1.95456792143978e-07,-5.719630534824331e-08,4.81619534314423e-07,1.7981274745518167e-07,2.0695054736491173e-07,3.8830118439614705e-07,3.879964982142118e-07,8.904318893254778e-08,1.9792177778975102e-07,-9.35872075246717e-08,1.1575188725477899e-07
1.5329684296227923e-06,2.701911685031448e-07,1.6397853331580336e-07,3.8385418989475133e-07,2.8134945889841773e-07,4.629584475171626e-08,2.5542762924252044e-07,1.9234425642979327e-07,-1.0129284462800163e-07,5.054161207557441e-07,1.738001167514861e-07,2.3208970816034475e-07,4.203397567662739e-07,3.8753375109163634e-07,1.1040007951430009e-07,2.0047157689540858e-07,-1.0200570828628257e-07,1.1712266377698114e-07
1.5444223964638745e-06,2.8719644545661566e-07,1.6378277755297637e-07,3.995086208395136e-07,3.0659083209980996e-07,5.412371392758927e-08,2.0439043329312817e-07,1.7603453263915475e-07,-1.603014803896587e-07,5.08531693742576e-07,1.6341608238546748e-07,2.5510585941080354e-07,4.470322107246206e-07,3.711674712766879e-07,1.2826524526064266e-07,1.9704250158820725e-07,-1.150185162047537e-07,1.0814639812533533e-07
1.5048194173423807e-06,2.9109683004318475e-07,1.5918120694330513e-07,4.0125193918213497e-07,3.232837454667577e-07,5.8686669756883395e-08,1.4336539881832406e-07,1.4855946730646724e-07,-2.281646451593787e-07,4.926412899960072e-07,1.5069912313162883e-07,2.740436772594323e-07,4.6711111842700555e-07,3.4210162329504866e-07,1.39096569723556e-07,1.870387172054027e-07,-1.3194709309365638e-07,9.060166929532171e-08
1.4248339835843907e-06,2.838603659749026e-07,1.5213744979904334e-07,3.9263573232803265e-07,3.3255307508933946e-07,6.05164757707615e-08,8.18417333196914e-08,1.1447147834919511e-07,-2.972450997344888e-07,4.6073936446977454e-07,1.377826762792642e-07,2.88305423419826e-07,4.80773973457843e-07,3.0365905071805524e-07,1.404539304126962e-07,1.6887936898589952e-07,-1.5239245310217733e-07,6.671572056347924e-08
1.3155746891708234e-06,2.6858357759108716e-07,1.4423306572712581e-07,3.770978240273745e-07,3.357974068580036e-07,5.97859203105453e-08,2.5200004425265863e-08,7.810421008307968e-08,-3.620750616349826e-07,4.1629683578890875e-07,1.25289499499694e-07,2.973370887188755e-07,4.880317718135256e-07,2.574020212386041e-07,1.3021505010740568e-07,1.3999352983396068e-07,-1.7696430102248317e-07,3.8155633382782666e-08
1.1880643019050377e-06,2.4865139722732017e-07,1.364048987932537e-07,3.572198412940218e-07,3.3421918382973636e-07,5.6470460546769154e-08,-2.5325496940341616e-08,4.3095189647560315e-08,-4.1961275547993106e-07,3.6390126876305754e-07,1.134292831796623e-07,3.0143684313040614e-07,4.895703627369447e-07,2.0555859036162835e-07,1.0890973882007505e-07,9.958969797858168e-08,-2.0507925266236004e-07,7.047240788169816e-09
1.0540681024770978e-06,2.2798772621654493e-07,1.3013141679974155e-07,3.358309743217566e-07,3.306996949673267e-07,5.227433153765311e-08,-6.826439370672051e-08,1.3484400162557546e-08,-4.667628720062075e-07,3.0979305962025184e-07,1.0404244225189624e-07,3.032770367780159e-07,4.885579580687731e-07,1.53964332513751e-07,8.17866741011162e-08,5.1326349746142814e-08,-2.3315530778858092e-07,-2.2912257799500363e-08
9.259510426710575e-07,2.1095327533705166e-07,1.2791554059237632e-07,3.1657796233979967e-07,3.3003127772827927e-07,5.091316952820026e-08,-1.0052386349323617e-07,-6.986501768480605e-09,-5.002615695845638e-07,2.6057377709118855e-07,1.000045608623608e-07,3.070360351511051e-07,4.898382496972449e-07,1.1018283253330878e-07,5.6428192914672647e-08,2.1188054479486904e-09,-2.565682871771657e-07,-4.753621367723716e-08
8.142963748920666e-07,2.0080875798047576e-07,1.3190896391606763e-07,3.027504196911419e-07,3.36282325967645e-07,5.58811516594363e-08,-1.2055134359933093e-07,-1.710955312933438e-08,-5.195246121547551e-07,2.20646690972847e-07,1.0243050996776792e-07,3.1569908818008077e-07,4.970629606410811e-07,7.882306569772011e-08,3.827057443664517e-08,-4.165731260175868e-08,-2.729971958926108e-07,-6.43743522853606e-08
7.254255153871762e-07,1.9832745820010147e-07,1.423966255739792e-07,2.960295538188428e-07,3.5084171738842625e-07,6.867263719675215e-08,-1.2967525702728127e-07,-1.8552452852124348e-08,-5.277203495712698e-07,1.9096704206033348e-07,1.0986957064510408e-07,3.297020635375972e-07,5.114468044153565e-07,6.019278997085801e-08,2.9234732395473718e-08,-7.615346299337744e-08,-2.83171456127025e-07,-7.34443330962532e-08
6.604307991792045e-07,2.0213385633929576e-07,1.578926024480859e-07,2.966550271193689e-07,3.731113496196784e-07,8.900882471748342e-08,-1.299741490961239e-07,-1.3958611773230799e-08,-5.29481471552492e-07,1.7014749738806274e-07,1.2013081041641794e-07,3.476831411695042e-07,5.326357702264542e-07,5.264317152508794e-08,2.9286677834719188e-08,-9.928134304630896e-08,-2.891778396612404e-07,-7.634073576520295e-08
6.160679758200374e-07,2.097886748359682e-07,1.761072199593134e-07,3.0399993540044806e-07,4.013272648856905e-07,1.1511844186505912e-07,-1.2295116853843314e-07,-6.036116234695266e-09,-5.290942093259487e-07,1.5583036096593509e-07,1.3140603431749587e-07,3.670176218990954e-07,5.589307303591801e-07,5.375793499941936e-08,3.6931853998907065e-08,-1.1012076218616058e-07,-2.9370810059777825e-07,-7.55900375642113e-08
5.868466804762651e-07,2.1870233628658446e-07,1.9444319382563528e-07,3.1655317666398134e-07,4.319433651916573e-07,1.4317507872615936e-07,-1.1132871220218959e-07,1.6154799942693447e-09,-5.308828949668729e-07,1.4505686545417784e-07,1.417460398960385e-07,3.8370603571074307e-07,5.865996003894281e-07,5.963962104883476e-08,4.859736229637795e-08,-1.0953973338962843e-07,-3.0027566586630076e-07,-7.441938279776465e-08
5.675430157079219e-07,2.2682973962703385e-07,2.104541999347665e-07,3.3203471684404334e-07,4.6004378558936304e-07,1.680316937376315e-07,-9.905343281455589e-08,4.935107929264231e-09,-5.386633205361369e-07,1.3497233765032728e-07,1.4934651183436318e-07,3.936476456864393e-07,6.109458673835304e-07,6.603162479314596e-08,6.006462085615777e-08,-9.993203701007985e-08,-3.1185891749656245e-07,-7.562462850186349e-08
5.547810949410092e-07,2.3369613716901282e-07,2.2296530781650224e-07,3.4844156326290126e-07,4.820392242618136e-07,1.8586150982930668e-07,-8.791124383815695e-08,1.8353869122095784e-09,-5.53272423516161e-07,1.2409672976075946e-07,1.5412317057604465e-07,3.951100958157526e-07,6.290276981094586e-07,7.105313601788149e-08,6.905286963494408e-08,-8.377613803061272e-08,-3.2891220708659563e-07,-8.010475410504076e-08
5.476698461825784e-07,2.4083608034023164e-07,2.3274393107554806e-07,3.6500343420626614e-07,4.974431094969611e-07,1.9573786269008802e-07,-7.597968141670514e-08,-6.721488561810479e-09,-5.719992507173122e-07,1.1259787020138025e-07,1.5767133709808974e-07,3.8948077318284653e-07,6.405421114627635e-07,7.510104130103328e-08,7.486646662536953e-08,-6.352630906048275e-08,-3.498226861386713e-07,-8.708917453018578e-08
5.474783848489643e-07,2.504444989032948e-07,2.4154581348778816e-07,3.815992150883531e-07,5.074948666754712e-07,1.9848658600134337e-07,-6.048961226148077e-08,-1.8492552196422356e-08,-5.914259131091009e-07,1.0147692462312992e-07,1.6110860773741002e-07,3.796722889418387e-07,6.461864904687074e-07,7.788862388922128e-08,7.568838325184415e-08,-4.309419308496822e-08,-3.732821260753632e-07,-9.57741320417178e-08
5.558654556857007e-07,2.635024224672307e-07,2.506636761307482e-07,3.9774638883302916e-07,5.133590620183452e-07,1.9526012413111815e-07,-4.0781769496960725e-08,-3.159977317649005e-08,-6.096520741789775e-07,9.200494134665924e-08,1.640803664726122e-07,3.6889798609025134e-07,6.467817788061802e-07,7.775328133409071e-08,6.846914139988318e-08,-2.777759583136719e-08,-3.9874298028110307e-07,-1.059143221840924e-07
5.732832308359983e-07,2.7941464115258937e-07,2.6069163440730875e-07,4.1279771631109484e-07,5.165997080555305e-07,1.8788566800337435e-07,-1.7501640589267862e-08,-4.4205856160202835e-08,-6.253639868999482e-07,8.589741711558513e-08,1.661858648439395e-07,3.608613520362167e-07,6.443329617602845e-07,7.429895325008689e-08,5.2057845175039487e-08,-2.1617674659152924e-08,-4.249061866994955e-07,-1.1690294345739668e-07
5.97877132275124e-07,2.9690300058296513e-07,2.7196726537792773e-07,4.2662168707268217e-07,5.199121268040114e-07,1.7915067750654776e-07,8.493335036827265e-09,-5.453448212791508e-08,-6.369238425614125e-07,8.4769282946827e-08,1.6783458234007133e-07,3.592095404982973e-07,6.421829591590201e-07,6.943180259866518e-08,2.867930364914215e-08,-2.5422006152104244e-08,-4.4956602498929943e-07,-1.275147178472574e-07
6.245815176726977e-07,3.1424042687401227e-07,2.8417160774859267e-07,4.391990195950936e-07,5.25478712192676e-07,1.7112748993217503e-07,3.434283767784256e-08,-6.272204339426413e-08,-6.441908878656879e-07,8.83532428130445e-08,1.6881985769146546e-07,3.6545466211840483e-07,6.42888390466614e-07,6.476871237799343e-08,1.8480698974772697e-09,-3.7649677346660214e-08,-4.715588696580623e-07,-1.3709248982526703e-07
6.457189322871367e-07,3.288970994465834e-07,2.9557953679553744e-07,4.4968744241475147e-07,5.328190552658721e-07,1.6346629953664242e-07,5.368055586684112e-08,-7.187862262769835e-08,-6.502694086832105e-07,9.357929382256822e-08,1.6718505066826796e-07,3.778971800221958e-07,6.466174215250449e-07,5.9603417743720165e-08,-2.5534761499803123e-08,-5.61211182979218e-08,-4.916245840186583e-07,-1.4625021068848878e-07
6.529205787142521e-07,3.381933212236347e-07,3.0358880571986904e-07,4.565989852754909e-07,5.393081730023022e-07,1.5415130532740085e-07,5.914103697384255e-08,-8.627990746191905e-08,-6.599729021871226e-07,9.590231755031386e-08,1.6037955086626125e-07,3.929807175208014e-07,6.519122666520039e-07,5.202048259899106e-08,-5.092287439988709e-08,-7.846371773682667e-08,-5.109856130408648e-07,-1.5608820928189522e-07
6.392723796840799e-07,3.405044717331321e-07,3.0621411140933563e-07,4.589188774522733e-07,5.423531135139352e-07,1.4143443695485152e-07,4.6087986046673115e-08,-1.0896677767221581e-07,-6.770215108153265e-07,9.137116966490623e-08,1.4675462196457896e-07,4.07042370965283e-07,6.568228624267937e-07,4.025636616919236e-08,-7.242449939708584e-08,-1.024091707197657e-07,-5.30308841657241e-07,-1.6747651869854633e-07
6.017974109177626e-07,3.3580521850884573e-07,3.0280828994043144e-07,4.5646285799128847e-07,5.402843770933572e-07,1.2446303648690148e-07,1.3308563279354305e-08,-1.4122560652711667e-07,-7.031833647586162e-07,7.786734473338518e-08,1.2566971389458157e-07,4.169368482187227e-07,6.590068255379938e-07,2.239534748755359e-08,-9.04316154942607e-08,-1.269216037938554e-07,-5.50395624880344e-07,-1.8125648509017047e-07
5.420121837822005e-07,3.250847740900393e-07,2.9392352915960284e-07,4.496059285720325e-07,5.324463009970857e-07,1.0335255645031051e-07,-3.777724823543623e-08,-1.8248631966369857e-07,-7.381442523976618e-07,5.5401097760950116e-08,9.777444276228137e-08,4.2081469297235305e-07,6.566176824237755e-07,-2.8413154765201393e-09,-1.0704877053858863e-07,-1.5233935038007604e-07,-5.716934214341479e-07,-1.9794710672133226e-07
4.659563083851471e-07,3.1020742672321987e-07,2.815778234547851e-07,4.396778681957082e-07,5.204992663521851e-07,8.040890799184105e-08,-1.0217911807070058e-07,-2.2903361968510114e-07,-7.780933605345253e-07,2.6596980009127683e-08,6.65496219835898e-08,4.1971652049596953e-07,6.503311892147568e-07,-3.3283445778061854e-08,-1.2271030978259865e-07,-1.7843480929339608e-07,-5.923632601613868e-07,-2.1648204358691635e-07
3.83699414340933e-07,2.944140225714885e-07,2.695309053941313e-07,4.2949646454581894e-07,5.093152768301295e-07,6.078587940633336e-08,-1.7135312287950952e-07,-2.7388830950166424e-07,-8.155989182587559e-07,-3.483029313885487e-09,3.841553164228056e-08,4.1750180992745854e-07,6.439183945225556e-07,-6.279174402109003e-08,-1.3485139291310378e-07,-2.0277123374554017e-07,-6.084552460777611e-07,-2.3397358575156972e-07
3.067264224614019e-07,2.816856332177877e-07,2.6190177107137163e-07,4.223451803112447e-07,5.044877324205974e-07,4.999858970054494e-08,-2.3754624356627624e-07,-3.1010604500811306e-07,-8.436900675174813e-07,-2.9719219682514774e-08,1.9457115030510954e-08,4.179334607349439e-07,6.412461460424473e-07,-8.525700167047611e-08,-1.4090044574357245e-07,-2.2151567476975556e-07,-6.171140734259384e-07,-2.4752227331153593e-07
2.450529990001052e-07,2.7459996883497827e-07,2.60634598441552e-07,4.1979631181003725e-07,5.082436173561938e-07,5.011958847939896e-08,-2.986185318432539e-07,-3.346252501095176e-07,-8.60676593977166e-07,-4.8838257607632197e-08,1.1819799089766164e-08,4.2194696991741393e-07,6.432702534428118e-07,-9.834799767400965e-08,-1.409635885970308e-07,-2.3101473878178678e-07,-6.188171982774947e-07,-2.5593764302787006e-07
2.0520176566516225e-07,2.731827173690032e-07,2.6451855524059033e-07,4.2101483120944095e-07,5.186846643703453e-07,5.8996445082323126e-08,-3.5652012044945795e-07,-3.483223710737592e-07,-8.697839119778607e-07,-5.949628307050345e-08,1.385410364363076e-08,4.2820264909228007e-07,6.489032885283506e-07,-1.0225433865300016e-07,-1.361563897438645e-07,-2.2769394964438664e-07,-6.156120125367416e-07,-2.593353591234121e-07
1.8486706350953807e-07,2.7592657593240246e-07,2.707200913229238e-07,4.242939656940136e-07,5.329232845466977e-07,7.288087294706857e-08,-4.1106420718602775e-07,-3.5310124541276897e-07,-8.743848991259663e-07,-6.137686640719568e-08,2.2978690154825973e-08,4.355389912955057e-07,6.578287122850167e-07,-9.628019438647273e-08,-1.2556407516136627e-07,-2.0757098024050416e-07,-6.082581347160884e-07,-2.5783558016748816e-07
1.845946775706655e-07,2.811800985654535e-07,2.767526777281106e-07,4.287229889014719e-07,5.496173986708338e-07,8.869908786888907e-08,-4.5753009833286635e-07,-3.504753456583357e-07,-8.752101282205119e-07,-5.5158616986207006e-08,3.7013200442575826e-08,4.4388885600035276e-07,6.712103830537365e-07,-7.892206339873577e-08,-1.0653438438530084e-07,-1.680953808416446e-07,-5.961234156040897e-07,-2.5158699594113883e-07
1.9603133273536222e-07,2.8754178453112614e-07,2.811533039063827e-07,4.3439328152963234e-07,5.685571626082618e-07,1.0422231753535917e-07,-4.90518904591474e-07,-3.4263466800304295e-07,-8.717352341658657e-07,-4.333849877808144e-08,5.3308296839243836e-08,4.5332901403312933e-07,6.899494422942361e-07,-5.083490882121507e-08,-7.731863331957497e-08,-1.1120435066122626e-07,-5.790284926610647e-07,-2.4172134596845097e-07
2.0773192842613e-07,2.9375053018319444e-07,2.835290150975739e-07,4.419222307966238e-07,5.897224885387207e-07,1.1817203088852835e-07,-5.079455130688103e-07,-3.3285258126163457e-07,-8.638407067105241e-07,-3.017985545120761e-08,6.862519583784968e-08,4.6348207179743987e-07,7.135088642396989e-07,-1.5862397864460436e-08,-3.828432247445757e-08,-4.3958638169299506e-08,-5.580879397782641e-07,-2.3040261687654721e-07
2.1182385744604833e-07,2.9901535963575946e-07,2.847593519548681e-07,4.5218774940890575e-07,6.134426352998341e-07,1.3108078699551038e-07,-5.111165200287585e-07,-3.240981627395029e-07,-8.517189805849802e-07,-2.0336152973403764e-08,8.040450952842564e-08,4.737865357759132e-07,7.400625583798596e-07,2.0437824493203394e-08,8.185336932820489e-09,2.3761772608671382e-08,-5.353818620262549e-07,-2.2005122648466615e-07
2.0062087639248614e-07,3.032624641522554e-07,2.8661888463101904e-07,4.6566300238983245e-07,6.399256486555119e-07,1.4484755793961127e-07,-5.03745400426186e-07,-3.1819903568979523e-07,-8.363477837184134e-07,-1.738052406604829e-08,8.714388885036885e-08,4.833348065133139e-07,7.664570698294551e-07,5.167252510057324e-08,5.707164374343097e-08,8.186800493570961e-08,-5.143079707298506e-07,-2.1304725921187476e-07
1.7191345424834605e-07,3.0664507596747795e-07,2.9053740880084136e-07,4.813771094555432e-07,6.67735952805527e-07,1.6064162900109926e-07,-4.917544978654462e-07,-3.162555837512719e-07,-8.207805202108044e-07,-2.318849055666607e-08,8.78005005726499e-08,4.906506502193674e-07,7.881843500171481e-07,7.115476855939446e-08,1.0086460213413247e-07,1.2198480482103896e-07,-4.994045139872002e-07,-2.1160508575960243e-07
1.2627614562189276e-07,3.0896985876727533e-07,2.9684176719036023e-07,4.968362903376672e-07,6.938103165366561e-07,1.7786395705063593e-07,-4.814889658406868e-07,-3.1834420805218485e-07,-8.09168465933891e-07,-3.725742680226855e-08,8.238181745032168e-08,4.947428178436936e-07,8.010394716242232e-07,7.45409564585702e-08,1.3259357193664372e-07,1.3969030203567903e-07,-4.940624557131101e-07,-2.168053639326694e-07
6.701159219982433e-08,3.099009609221384e-07,3.051274918306588e-07,5.093078332287632e-07,7.154448207922728e-07,1.9505433117205947e-07,-4.7665519800942613e-07,-3.22750506343135e-07,-8.038315217602801e-07,-5.6130286818590354e-08,7.309414274625569e-08,4.962689575567404e-07,8.033113963575065e-07,6.257709642047533e-08,1.490906655032856e-07,1.3631574429800306e-07,-4.984619162385991e-07,-2.2771807654166493e-07
-1.967017342198997e-09,3.0916799960465775e-07,3.144714701978764e-07,5.167582342668721e-07,7.310547035380961e-07,2.1028120684171663e-07,-4.781842306971515e-07,-3.273096821881146e-07,-8.046806905016895e-07,-7.4468213574153e-08,6.330282028737965e-08,4.965481686007966e-07,7.956004015262274e-07,3.993196741687018e-08,1.507824302113053e-07,1.1825404108919938e-07,-5.103122032312108e-07,-2.4216576836729414e-07
-7.252287717465499e-08,3.0618304058806345e-07,3.228504179957435e-07,5.175921321001167e-07,7.387956207896753e-07,2.201884362740435e-07,-4.869925236510514e-07,-3.3217321546409407e-07,-8.114168519435587e-07,-8.712742793226966e-08,5.487233172781007e-08,4.954648589222241e-07,7.789614130750462e-07,1.1800539027466932e-08,1.397338647627398e-07,9.445714900887722e-08,-5.267173452201603e-07,-2.5817154122696133e-07
-1.325882255572077e-07,3.002726730168936e-07,3.273181732561202e-07,5.109390472770637e-07,7.364245046848638e-07,2.2032952360807694e-07,-5.03857481336944e-07,-3.40029697484947e-07,-8.238207917929672e-07,-9.031541714122371e-08,4.779270423492035e-08,4.914348886306231e-07,7.548505295331638e-07,-1.6632628563339605e-08,1.1991331902198092e-07,7.48628931171341e-08,-5.438575392066965e-07,-2.738602910854037e-07
-1.6722559431546723e-07,2.923743610978663e-07,3.258989682825042e-07,4.982204126306402e-07,7.238306699568812e-07,2.077582005138069e-07,-5.252198157758935e-07,-3.531741699505502e-07,-8.388458600485311e-07,-8.144311186560542e-08,4.2374836734880803e-08,4.834987888936647e-07,7.267238877815665e-07,-3.820759080151553e-08,9.843775395821913e-08,6.978508728511633e-08,-5.557393020825048e-07,-2.861873776977461e-07
-1.5791118720785186e-07,2.8648481179627343e-07,3.1930968924213914e-07,4.840741105304301e-07,7.045604664910047e-07,1.8270794302929874e-07,-5.410565347080671e-07,-3.7156988338597405e-07,-8.494690648161945e-07,-5.8852796114247703e-08,4.015550645802347e-08,4.722778495746458e-07,6.997792399187969e-07,-4.469666552329335e-08,8.328757773103162e-08,8.757495339973465e-08,-5.559043085897276e-07,-2.910921526107972e-07
-8.690168929538758e-08,2.8874760580374775e-07,3.1033868196272647e-07,4.747532468484087e-07,6.834715482711274e-07,1.4713001919189127e-07,-5.390310591825948e-07,-3.9407479875735754e-07,-8.482657518282814e-07,-2.2588864538509972e-08,4.2086095344038126e-08,4.5824286193591286e-07,6.779215921426278e-07,-3.154758211190751e-08,7.815324547316437e-08,1.3046177413509368e-07,-5.415706162887694e-07,-2.855372755379367e-07
5.8189716753747325e-08,3.047807017367409e-07,3.0178301608380954e-07,4.7522754589356093e-07,6.634076522852906e-07,1.0258882966347558e-07,-5.103612775065359e-07,-4.198579958446319e-07,-8.315623074319514e-07,2.5253264845177283e-08,4.7153857615843044e-08,4.406121479617108e-07,6.615584910836872e-07,-8.947634716490378e-10,8.028132639540061e-08,1.9244638547027128e-07,-5.153707472289005e-07,-2.688848860953002e-07
2.8109830206435823e-07,3.3777116143895647e-07,2.954963144556902e-07,4.878769065202806e-07,6.450652541170241e-07,5.064566911644045e-08,-4.5158567886734085e-07,-4.4743236689412325e-07,-7.995425707269231e-07,8.148589250601756e-08,5.369985237036754e-08,4.1842563116049633e-07,6.486739832488028e-07,4.030689276404878e-08,8.342185433994893e-08,2.616421716334676e-07,-4.830701462923027e-07,-2.4226602877436493e-07
5.706091873273208e-07,3.880998442629723e-07,2.9280100098697677e-07,5.128286568881738e-07,6.290388385218527e-07,-5.492050629475552e-09,-3.637607411894075e-07,-4.733938159054439e-07,-7.541884721124126e-07,1.4240625487835096e-07,6.095844060287842e-08,3.9189582006620673e-07,6.368412970101168e-07,8.335189966927125e-08,8.148124381487955e-08,3.2459512841822436e-07,-4.510617262857837e-07,-2.0777570866264144e-07
9.028914157283592e-07,4.5308881381655974e-07,2.9435988606512144e-07,5.480185408903837e-07,6.161603655446114e-07,-6.115006083699669e-08,-2.533547792509052e-07,-4.935040026789805e-07,-6.992044584407654e-07,2.029641352373134e-07,6.837727700520421e-08,3.6232685387748284e-07,6.237008784581869e-07,1.1861527114076823e-07,6.976887599989112e-08,3.693620457082488e-07,-4.2596556447580524e-07,-1.6887422599867376e-07
1.241274568677256e-06,5.266230973015609e-07,2.992807081389846e-07,5.888308794912951e-07,6.062862062849418e-07,-1.1173654160366186e-07,-1.3329059353481282e-07,-5.045314601259385e-07,-6.407532940199609e-07,2.561490861183925e-07,7.44902277745204e-08,3.3179747226248146e-07,6.072504855756299e-07,1.3673093051896747e-07,4.623557317825957e-08,3.876953272248416e-07,-4.1363245064421284e-07,-1.303509552072735e-07
1.5409767169048467e-06,6.001477258237571e-07,3.0538371386360384e-07,6.291726757095335e-07,5.989542115076922e-07,-1.529242482434825e-07,-1.920126773248625e-08,-5.04063200512624e-07,-5.850935416887171e-07,2.946661326093383e-07,7.816595901928318e-08,3.0418536346979935e-07,5.877071946913189e-07,1.3286441362185237e-07,1.4318370880882768e-08,3.776208205557533e-07,-4.1598682829608967e-07,-9.632960255009276e-08
1.7607376022180805e-06,6.652442132703208e-07,3.1095557881057895e-07,6.640182173025555e-07,5.956661360704555e-07,-1.7997145127458326e-07,7.779820308543033e-08,-4.895302685562908e-07,-5.344656957907964e-07,3.1385319016098856e-07,8.063671628129975e-08,2.8565706767819157e-07,5.689184858543343e-07,1.103282008065257e-07,-1.6351981221965987e-08,3.44521469779958e-07,-4.2895760238231995e-07,-6.806062951371132e-08
1.871980524275303e-06,7.157779581830593e-07,3.158142228602345e-07,6.908538123993328e-07,5.997902454936215e-07,-1.8914846507653283e-07,1.5488965790992478e-07,-4.5954076834415926e-07,-4.865336685984634e-07,3.1306088456967725e-07,8.480356477249634e-08,2.8253012238969196e-07,5.566527998757204e-07,7.85130728548336e-08,-3.447078637209507e-08,2.9825113301053417e-07,-4.44650076209362e-07,-4.396226322726525e-08
1.864878313562644e-06,7.484990429643088e-07,3.2068744639567116e-07,7.090452461173191e-07,6.135323236482238e-07,-1.8063288075468567e-07,2.1519751870336035e-07,-4.16424792195822e-07,-4.3798301996339796e-07,2.9513233317602225e-07,9.276465522033249e-08,2.9810665333694213e-07,5.552961925395597e-07,4.724535150596563e-08,-3.307094407059988e-08,2.482986850138269e-07,-4.554634987388993e-07,-2.1303317952775906e-08
1.7472762884738742e-06,7.640640510729943e-07,3.2654268001775497e-07,7.191150107938555e-07,6.362008200023806e-07,-1.5872682665194937e-07,2.6360406195609523e-07,-3.6583708762735656e-07,-3.873307959428845e-07,2.656770152811061e-07,1.0535285572200724e-07,3.3190431260280505e-07,5.665917284687415e-07,2.3693158647349737e-08,-1.1324534538720003e-08,2.015545715065286e-07,-4.5603617463009986e-07,2.739487599097194e-09
1.5348143680287093e-06,7.656347582838823e-07,3.349546137179739e-07,7.230847079520982e-07,6.657253936628617e-07,-1.2854558579957546e-07,3.039011933245219e-07,-3.132474016074481e-07,-3.346701319939433e-07,2.32213993463258e-07,1.2368894230857134e-07,3.812315527329825e-07,5.905337487979703e-07,1.255579843774335e-08,2.7485031347521542e-08,1.6325837110724466e-07,-4.431710522045995e-07,3.081252665288474e-08
1.2558645872197132e-06,7.590696875672353e-07,3.4821262803867835e-07,7.250810697096247e-07,7.002898379710203e-07,-9.318757182958554e-08,3.356908862351675e-07,-2.61713333346751e-07,-2.813472631639736e-07,2.0182080647411177e-07,1.492761740283507e-07,4.421944489730493e-07,6.255081067899384e-07,1.5590081231960633e-08,7.754732324643876e-08,1.3755868295733927e-07,-4.165501017772041e-07,6.447248265567928e-08
9.398396096310198e-07,7.498827651116566e-07,3.6811292611193043e-07,7.283876475935986e-07,7.378220739340379e-07,-5.38533053109406e-08,3.5131083463973243e-07,-2.12787335674566e-07,-2.3100284490195436e-07,1.7824624153055065e-07,1.8216132240457906e-07,5.096112741054886e-07,6.674325265926741e-07,3.0200137765711974e-08,1.3130630208384685e-07,1.2628995974781395e-07,-3.7972125589770274e-07,1.029598938346999e-07
6.113277907746978e-07,7.419026354230548e-07,3.9470476662587406e-07,7.344470991134508e-07,7.755183237445587e-07,-1.0832709733886103e-08,3.375823904197488e-07,-1.67715160071201e-07,-1.8907786362770692e-07,1.6112156136061906e-07,2.203154311670582e-07,5.776186732668147e-07,7.103324147586582e-07,5.0691049410278864e-08,1.8217635452482698e-07,1.2849004191393362e-07,-3.387903172059935e-07,1.4340887561183313e-07
2.902859410500959e-07,7.356812928181265e-07,4.2638491022582624e-07,7.423475358743052e-07,8.111016329291496e-07,3.6336522817406616e-08,2.8349571850870183e-07,-1.272092666024861e-07,-1.598464946389207e-07,1.476476268435703e-07,2.609621098193895e-07,6.413239572290215e-07,7.488157252757593e-07,7.2043736504171e-08,2.2806424714584033e-07,1.4185591025571484e-07,-2.9960852177943194e-07,1.8235624925951795e-07
-6.667767991333023e-09,7.286779514764518e-07,4.6062260293490353e-07,7.503753313807308e-07,8.436486545543512e-07,8.803086046258654e-08,1.875963747183283e-07,-9.150354833705286e-08,-1.444996185975362e-07,1.3476258136104572e-07,3.012160822162547e-07,6.978241502817477e-07,7.798389813157101e-07,9.192486891497518e-08,2.7168102556048945e-07,1.6410697103073488e-07,-2.662828833190722e-07,2.1678983951488022e-07
-2.757313046527157e-07,7.170283308720109e-07,4.942998073134103e-07,7.56056685467919e-07,8.725299320537367e-07,1.4259601794680413e-07,5.981688566939467e-08,-6.119610740033014e-08,-1.4186137741011053e-07,1.203480801891018e-07,3.3770322250093433e-07,7.459862136168671e-07,8.028112548716584e-07,1.1003762967787986e-07,3.17709308435424e-07,1.933302850903013e-07,-2.4097468150342075e-07,2.445206289949318e-07
-4.851094664422045e-07,6.967117361025238e-07,5.242960014392308e-07,7.567042374546157e-07,8.967311302774754e-07,1.9594153993201668e-07,-8.081266426015656e-08,-3.6884256264644595e-08,-1.4901757934222423e-07,1.0419093694981263e-07,3.675339067325063e-07,7.863224786284342e-07,8.194538335861966e-07,1.2773044860089505e-07,3.701965651424957e-07,2.2857397662833128e-07,-2.2331316124770762e-07,2.6486964152554375e-07
-6.778484911850723e-07,6.667240721075289e-07,5.487151976952422e-07,7.515501419869325e-07,9.15825092716227e-07,2.4354300607474353e-07,-2.104720554316103e-07,-1.7740606654322973e-08,-1.6108139314513164e-07,8.862543862766186e-08,3.902524202250533e-07,8.207991429180982e-07,8.332294993860779e-07,1.4787676030669456e-07,4.3071154055468524e-07,2.703174096065197e-07,-2.1041844262257654e-07,2.7911858565271393e-07
-8.578322990376867e-07,6.300078102197648e-07,5.673882895659002e-07,7.419772686651094e-07,9.30271639345573e-07,2.8205651722468903e-07,-3.077803333431819e-07,-1.7888894278095655e-09,-1.726327126246922e-07,7.771205093154423e-08,4.0771559067976717e-07,8.51398044274378e-07,8.472385349737573e-07,1.7266036633484882e-07,4.961509176286088e-07,3.190616573947341e-07,-1.9902224986424248e-07,2.8954159054162043e-07
-1.0127751575700653e-06,5.920547264797361e-07,5.80890335383919e-07,7.308488473470758e-07,9.401327023685187e-07,3.0920770002087896e-07,-3.618003297127415e-07,1.21144009827885e-08,-1.8071053088892476e-07,7.532223278140802e-08,4.2196891444047475e-07,8.784851589929686e-07,8.621573786169325e-07,2.0081350431891792e-07,5.582457002230256e-07,3.7305090248011983e-07,-1.8767748133551024e-07,2.979285882635964e-07
-1.1494097874654183e-06,5.579802940997643e-07,5.895147209388313e-07,7.209213426056676e-07,9.448672136154345e-07,3.2404232857832727e-07,-3.7473773496328067e-07,2.379080665022115e-08,-1.8525114152610741e-07,8.371626125966896e-08,4.3418087439884567e-07,9.010686892228063e-07,8.768817386790634e-07,2.280851023531264e-07,6.071020579999981e-07,4.279582936974968e-07,-1.7655942730015039e-07,3.0532102322786387e-07
-1.2522223567030842e-06,5.320343209910995e-07,5.933466371579686e-07,7.144643713562823e-07,9.451270239381571e-07,3.283004399459386e-07,-3.5797665720240575e-07,3.341489872483133e-08,-1.8661434508843187e-07,1.030827071383659e-07,4.4515388593547176e-07,9.184183958790887e-07,8.909067572540331e-07,2.501601338923316e-07,6.362117393364223e-07,4.785547561098627e-07,-1.6599687547497708e-07,3.125697639290007e-07
-1.3289637599798638e-06,5.121294618397426e-07,5.925757196101457e-07,7.128162820170931e-07,9.437132018944414e-07,3.2666744666286797e-07,-3.268349642350641e-07,4.250298266560308e-08,-1.8433440942731353e-07,1.3132279825350772e-07,4.553201512105407e-07,9.308449756110489e-07,9.053125065784594e-07,2.643120479292417e-07,6.448206541283448e-07,5.201776156089456e-07,-1.5619751874631033e-07,3.2035067275348666e-07
-1.3870996225630075e-06,4.965728099512512e-07,5.87387789210428e-07,7.148762947678219e-07,9.444228429807247e-07,3.2509199048583467e-07,-2.9724465434481925e-07,5.3135445525803304e-08,-1.7810816998195293e-07,1.64351356054347e-07,4.6425060567380456e-07,9.396524569016785e-07,9.220481554585196e-07,2.697081391165958e-07,6.378169740890898e-07,5.497382321658865e-07,-1.4734690047410344e-07,3.2897442714460486e-07
-1.444628276051884e-06,4.780045128839325e-07,5.783009562351029e-07,7.193598710436021e-07,9.510535570645466e-07,3.2926210052912175e-07,-2.823199009649539e-07,6.73361443181424e-08,-1.6801982355594228e-07,1.9757857270340221e-07,4.715357764343184e-07,9.472522457362623e-07,9.434239432365676e-07,2.684917593571802e-07,6.251168774807366e-07,5.672315209988992e-07,-1.3861700354427562e-07,3.388748671439476e-07
-1.4559050518462362e-06,4.5243617213609694e-07,5.671075033031097e-07,7.246523626585743e-07,9.673979547772995e-07,3.4407072951338506e-07,-2.8869667043873795e-07,8.709458549279565e-08,-1.5355467745481063e-07,2.2769188449740893e-07,4.782006908079549e-07,9.57097845724249e-07,9.718123898032885e-07,2.663823558200782e-07,6.196124623989929e-07,5.766085363026404e-07,-1.2764660993483113e-07,3.509743507290276e-07
-1.4409958018641654e-06,4.20907446154082e-07,5.569591252586594e-07,7.251034914289432e-07,9.96192070227499e-07,3.724893158046838e-07,-3.161295549487061e-07,1.1349732883558058e-07,-1.341839404522211e-07,2.5307996398288847e-07,4.86242135889156e-07,9.724990711431313e-07,1.0084375714031186e-06,2.704564157705129e-07,6.327765010342203e-07,5.844809552755789e-07,-1.1195212169209433e-07,3.660265157570368e-07
-1.4147040867579424e-06,3.9221018078694804e-07,5.511600502763407e-07,7.187564456942976e-07,1.0393579949520502e-06,4.1378411737402195e-07,-3.598565447111898e-07,1.45372942378558e-07,-1.1115692465432989e-07,2.7385624477879727e-07,4.972079430133808e-07,9.952406355656818e-07,1.0531387435225399e-06,2.861312395545381e-07,6.707683246691125e-07,5.981244594939087e-07,-9.013290980158787e-08,3.839758568206247e-07
-1.384315631048193e-06,3.638248328579459e-07,5.521945193537528e-07,7.061920893052302e-07,1.0904175486786113e-06,4.630397096052465e-07,-4.117389338579678e-07,1.7780824358342905e-07,-8.749970264043996e-08,2.9107479308447745e-07,5.120221501278984e-07,1.025290869728491e-06,1.0990479837149639e-06,3.163535246425663e-07,7.332118534916014e-07,6.248013790562312e-07,-6.151254420192947e-08,4.0427131782276367e-07
-1.3609332325047855e-06,3.2952881946348305e-07,5.616573227083913e-07,6.907636646304336e-07,1.1396085462934443e-06,5.100858906183363e-07,-4.5738543078696046e-07,2.061878356280617e-07,-6.660132750693025e-08,3.070492107319272e-07,5.312786062131868e-07,1.0605101780718457e-06,1.1407237585441923e-06,3.6152393802897786e-07,8.125416531512889e-07,6.712736895576234e-07,-2.620919509201823e-08,4.260461490097625e-07
-1.291760912691272e-06,3.2108095403914174e-07,5.799663853626164e-07,6.754596378378974e-07,1.1814075858341243e-06,5.470487878019216e-07,-4.872615797483088e-07,2.2466318959176102e-07,-5.2027648985389944e-08,3.2451529687417133e-07,5.544139177463296e-07,1.095660430814766e-06,1.1708762957399017e-06,4.180469198421521e-07,8.929049075502227e-07,7.417514667650397e-07,1.3336747691128742e-08,4.4742303682834493e-07
-1.1283519477684168e-06,3.2774342860544776e-07,6.05597951318526e-07,6.751557757228694e-07,1.1851725705404796e-06,5.625936058816297e-07,-4.908397714655583e-07,2.2687818830661451e-07,-4.777442126035447e-08,3.450811441970603e-07,5.789615023797033e-07,1.1223634297613886e-06,1.1809415948132282e-06,4.776974106992203e-07,9.520422513492664e-07,8.354917058800289e-07,5.1732559908805014e-08,4.653014329640154e-07
-7.832467267905917e-07,3.7325160990678064e-07,6.350604411393167e-07,6.820004086479718e-07,1.1253612918476502e-06,5.471507545351064e-07,-4.609584638988237e-07,2.063327120631641e-07,-5.670558537582154e-08,3.6898406515613823e-07,6.014009347422433e-07,1.1315349534013485e-06,1.1630784160385504e-06,5.300206553975406e-07,9.678640985323552e-07,9.460746366944036e-07,8.236467889344409e-08,4.7650138813662426e-07
-3.3269174677303364e-07,4.962587435517376e-07,6.638961198270365e-07,7.093854488263606e-07,1.0992228565407423e-06,4.967491884270438e-07,-3.9702205079711286e-07,1.589407595214894e-07,-7.863895520670237e-08,3.9532714459189746e-07,6.183667702103394e-07,1.1166569620172216e-06,1.1120073193134374e-06,5.657680173858405e-07,9.261144296818202e-07,1.0623390834400287e-06,9.962291375162667e-08,4.790204827344169e-07
6.658251878065199e-08,5.888215441883929e-07,6.878036344833195e-07,8.014659956684242e-07,1.0808325243268689e-06,4.1580296256510804e-07,-2.994298159204202e-07,8.826436757095932e-08,-1.1062972180676339e-07,4.226647492044067e-07,6.270253816900084e-07,1.0759819123650013e-06,1.0318215399815436e-06,5.793606573402923e-07,8.207310038562874e-07,1.1703991844897786e-06,1.0036598150667377e-07,4.723697074918567e-07
3.4284909657894716e-07,6.380639255694807e-07,7.035800336552299e-07,8.534224666179489e-07,9.73705811707689e-07,3.170219267348752e-07,-1.7920787585566728e-07,4.3355742466726005e-09,-1.4780237743824172e-07,4.4981694345107243e-07,6.255841646307153e-07,1.0137266932613396e-06,9.231994508214421e-07,5.709489843945841e-07,6.664557955151149e-07,1.256635283956197e-06,8.519555659872717e-08,4.574042329014124e-07
5.660773047172275e-07,7.901035224114439e-07,7.098601887080204e-07,8.887166088238316e-07,8.595169955784639e-07,2.1828465397442772e-07,-6.002583569128929e-08,-6.845047607651336e-08,-1.8400397620248355e-07,4.7666618990670476e-07,6.140558320739563e-07,9.399784999477275e-07,8.315955371158198e-07,5.472848018748276e-07,4.951796929876734e-07,1.3104447166143716e-06,5.8875467487287866e-08,4.3588575652657183e-07
8.690637999451677e-07,9.186009264331346e-07,7.069252108974803e-07,9.907308373998161e-07,8.186583232248396e-07,1.7412762657871658e-07,2.343700087453857e-08,-1.1085945023724243e-07,-2.132490155882455e-07,5.032651645652931e-07,5.938222129236929e-07,8.684478499513905e-07,8.051572167531227e-07,5.192760223268864e-07,3.341422084968729e-07,1.3253532435378555e-06,2.8731760338514757e-08,4.0966325649118687e-07
1.3087145905233483e-06,9.815493902248958e-07,6.955792238635763e-07,1.1046944478317083e-06,8.319673585892124e-07,1.9208091565212357e-07,6.612955633142202e-08,-7.632037801106116e-08,-2.318501704783911e-07,5.281559899786484e-07,5.664473943580246e-07,8.127894648785865e-07,8.305112743885007e-07,4.975624342890436e-07,2.566096198802902e-07,1.2994768803129408e-06,2.4389104038252644e-09,3.802153539447766e-07
1.8482169073709422e-06,1.0244070027070744e-06,6.765447564438871e-07,1.1806930390099736e-06,8.631852232571486e-07,2.147259896021532e-07,-9.486515607964646e-09,-5.3897364891471015e-08,-2.3893403999006613e-07,5.477200263603782e-07,5.336860503981983e-07,7.832511715123558e-07,8.95900097883428e-07,4.895608621377404e-07,2.9382529762202634e-07,1.236857308278758e-06,-1.325930506723289e-08,3.490754616828079e-07
2.195345290092942e-06,1.0186501547464615e-06,6.509309852929746e-07,1.213737121158408e-06,8.626888357286041e-07,2.5262732715264497e-07,-5.0103764119648116e-08,-3.469638424963673e-08,-2.3520848879199274e-07,5.570143875054379e-07,4.982555935369754e-07,7.84016075601792e-07,9.416536633966687e-07,4.982670843116243e-07,2.514227143684343e-07,1.148254261553257e-06,-1.385955856706159e-08,3.181220922038896e-07
2.5444354195895226e-06,1.0199271126770994e-06,6.204706148474835e-07,1.2468375954911059e-06,8.668983054957157e-07,2.798801423417522e-07,-5.637322477211412e-08,-2.0124549072462274e-08,-2.2245618480430786e-07,5.5197272637395e-07,4.636271455612456e-07,8.117354472771151e-07,9.78657016923219e-07,5.215136268834062e-07,2.38586758241048e-07,1.049053376831093e-06,6.275661286924004e-10,2.8901082017517396e-07
2.9145501591751784e-06,1.0179853813259966e-06,5.868612961805856e-07,1.258284729225845e-06,9.42785399115911e-07,3.885495897589e-07,-1.9481283230062998e-07,1.7002152477663483e-08,-2.033638721492822e-07,5.322896585828422e-07,4.3335709368192203e-07,8.562874396320334e-07,1.0450478266400602e-06,5.528142988610344e-07,3.3904684012038004e-07,9.550868196619005e-07,2.520552055564493e-08,2.628212060168109e-07
3.199934391429706e-06,9.951430973785307e-07,5.512995099465875e-07,1.2739946757972874e-06,1.0313125851005955e-06,5.139315015745297e-07,-3.7693572286164356e-07,8.012423087171533e-08,-1.8005227683653808e-07,5.031560697890399e-07,4.1101417073225703e-07,9.044664369715729e-07,1.136192998070073e-06,5.846687397023808e-07,4.919821317670123e-07,8.790383754132762e-07,5.231647818637617e-08,2.406720814201616e-07
3.5238548339014415e-06,9.576215701639494e-07,5.14973505738846e-07,1.253439083813501e-06,1.0685824197503735e-06,6.020970263139878e-07,-4.651909050609409e-07,1.615045021902752e-07,-1.5299194141980292e-07,4.746944643978794e-07,3.996866223711939e-07,9.442829546690619e-07,1.282426058941751e-06,6.116782938277385e-07,5.883570123166142e-07,8.284548346841096e-07,7.485860065474056e-08,2.2425145962668724e-07
3.820283718992489e-06,9.001405955551858e-07,4.798886177695659e-07,1.232507435130562e-06,1.0873699935030186e-06,6.897736364551083e-07,-4.5835564959039e-07,2.454438928024102e-07,-1.216743797706933e-07,4.5791059700648965e-07,4.0043829307058993e-07,9.67820008879061e-07,1.3594009469860341e-06,6.311593543157931e-07,6.355545990780209e-07,8.051187717211922e-07,8.804986601859114e-08,2.154573883066676e-07
3.933122482136934e-06,8.564043455805074e-07,4.492033970163203e-07,1.1896189031276947e-06,1.133745936031286e-06,7.143020526307456e-07,-4.5998492681005106e-07,2.9001650900063066e-07,-8.626711428906747e-08,4.5976594870521736e-07,4.1154747410295754e-07,9.729593618440833e-07,1.4225676793816416e-06,6.425318424521128e-07,6.487450796833203e-07,8.058299428283014e-07,9.036761913193801e-08,2.157575471626737e-07
3.812037679071333e-06,8.287280636699211e-07,4.2671803080091195e-07,1.1543267952844743e-06,1.1324955385086885e-06,7.13104677427455e-07,-4.435012978554246e-07,2.979632003247635e-07,-4.7946789832343114e-08,4.808267564452352e-07,4.2960314877347943e-07,9.636507525430964e-07,1.4817047526496262e-06,6.467816457684865e-07,6.31599103302938e-07,8.2403173374256e-07,8.352474610840125e-08,2.2567422049569815e-07
3.7413125376562186e-06,8.339699100049286e-07,4.154827220701033e-07,1.1350382011170222e-06,1.0947622696488322e-06,6.859989473407189e-07,-4.0312943338633685e-07,2.863655286808218e-07,-8.676548128267636e-09,5.159084867377882e-07,4.5108430649363486e-07,9.479656813921318e-07,1.4662502177638367e-06,6.454768800111711e-07,5.979117571039792e-07,8.511655375019842e-07,7.099272616329833e-08,2.4433382894505587e-07
3.650457029770523e-06,8.67620333043759e-07,4.163037580584832e-07,1.1258784285837613e-06,1.036107753770991e-06,6.392384253676275e-07,-2.7219893754972806e-07,2.841076366129567e-07,2.881272150936742e-08,5.568144874639987e-07,4.735571672345204e-07,9.350818417837614e-07,1.4226361822419532e-06,6.399461699507879e-07,5.60780725922423e-07,8.779899704850199e-07,5.653427747447508e-08,2.696595546417911e-07
3.509828135186665e-06,9.145107346034492e-07,4.2739437713609497e-07,1.1416592067746932e-06,9.96962754787744e-07,5.929861737646286e-07,-1.0781172033061115e-07,2.776522102194269e-07,6.210246371671179e-08,5.950988097450916e-07,4.966473450337183e-07,9.3311855277213e-07,1.3962452527145332e-06,6.31631273553978e-07,5.292075164127772e-07,8.965580263157114e-07,4.3710616153892304e-08,2.993280815952584e-07
3.452689112104718e-06,9.633647520263889e-07,4.4515888265441185e-07,1.1681509103953667e-06,9.783940435881635e-07,5.551354106004311e-07,1.568931727578256e-08,2.7611694871997124e-07,9.001801623465339e-08,6.258593189624344e-07,5.218036369615042e-07,9.474074993568816e-07,1.383717123447138e-06,6.221180450267424e-07,5.067369967133122e-07,9.017667967948032e-07,3.514172233585347e-08,3.311490224776639e-07
3.3960019320641255e-06,1.0028489475362377e-06,4.6498951889879617e-07,1.1913563350789166e-06,9.71713811467906e-07,5.274918125289309e-07,1.456611890621915e-07,2.8436436022082416e-07,1.1187232444290841e-07,6.468782881711274e-07,5.502838883983398e-07,9.787275799902002e-07,1.3906364884605599e-06,6.117687151071609e-07,4.910965512047153e-07,8.913280712368176e-07,3.1039348472416754e-08,3.6231181181511735e-07
3.3130263716361636e-06,1.0309071009349544e-06,4.81919445098404e-07,1.2044888112490165e-06,9.724477025355402e-07,5.113948334032595e-07,2.3556045360192245e-07,2.9773611555953007e-07,1.263272459038273e-07,6.572008467326765e-07,5.814376597028207e-07,1.0230155853403587e-06,1.4037336952952337e-06,5.992016285266985e-07,4.7617320186812086e-07,8.652298802996819e-07,2.900820254081387e-08,3.889672342837474e-07
3.2297017959946628e-06,1.046007620509728e-06,4.917188501098237e-07,1.2028702216513434e-06,9.756933288187427e-07,5.053453027127864e-07,2.797091186080202e-07,3.1331538011213406e-07,1.320673272209388e-07,6.567515243163476e-07,6.130144068477768e-07,1.0732410710611591e-06,1.419251951941715e-06,5.828944525940453e-07,4.5612965994303214e-07,8.258964085412876e-07,2.5738442440667756e-08,4.0706486227394443e-07
3.1014694487304177e-06,1.0477413099541527e-06,4.919739098704679e-07,1.191148600338587e-06,9.774509381342599e-07,5.068657057403901e-07,2.9410386713085253e-07,3.280051028336726e-07,1.2869871875904053e-07,6.45402422852527e-07,6.423422625408815e-07,1.1217924669731979e-06,1.438266209966903e-06,5.627244362001523e-07,4.28630905987216e-07,7.784556237681904e-07,1.8746672630336274e-08,4.1359351186755985e-07
2.930873268739381e-06,1.0370248414108108e-06,4.823831000285978e-07,1.1752142746656016e-06,9.752397068915499e-07,5.127586275023346e-07,2.728590560744159e-07,3.3901357278411677e-07,1.1649710007369246e-07,6.235586780845889e-07,6.671795577696343e-07,1.162304287951067e-06,1.454289483529561e-06,5.403454150603242e-07,3.9577322846182853e-07,7.30496121478584e-07,7.451041166292891e-09,4.0760248231250267e-07
2.7621589288960936e-06,1.0162241391514587e-06,4.6464443872585484e-07,1.1608391270690731e-06,9.679055377383133e-07,5.19532498881209e-07,2.4027167959177784e-07,3.4402717110712595e-07,9.67193674571252e-08,5.92855525157294e-07,6.866020009827938e-07,1.1911115962283243e-06,1.4710970913852464e-06,5.19476534100003e-07,3.634612987493171e-07,6.912463950313889e-07,-6.1033804953963385e-09,3.9093864468789487e-07
2.6051118947616105e-06,9.890837448393333e-07,4.4217561263226237e-07,1.1526911854231286e-06,9.560630551269545e-07,5.246075261295709e-07,2.0997791510856399e-07,3.421261542941277e-07,7.242391586225653e-08,5.565104899265119e-07,7.014428133910401e-07,1.2079283714830735e-06,1.4896917951212887e-06,5.052342930187247e-07,3.389471019851146e-07,6.692150789310651e-07,-1.8123907110488292e-08,3.6783424318229585e-07
2.4715245280307736e-06,9.596737191480846e-07,4.1889334414537163e-07,1.1536651674184466e-06,9.4159056002072e-07,5.268060854395721e-07,1.9102641027003107e-07,3.339997529375597e-07,4.7421663621150206e-08,5.181894678408702e-07,7.131349690100431e-07,1.21480661788559e-06,1.5099589274288004e-06,5.011872701148958e-07,3.2682760632213644e-07,6.682193891976532e-07,-2.5852489830204797e-08,3.430016112598028e-07
2.376425798217869e-06,9.311210500958637e-07,3.9732531520544617e-07,1.1638352685228715e-06,9.260791967696536e-07,5.257401817582408e-07,1.9089905592491838e-07,3.2117470572713414e-07,2.3953806845727618e-08,4.814718298249865e-07,7.222834739545121e-07,1.2144186291764299e-06,1.5316236080181254e-06,5.067044674780568e-07,3.266342199000957e-07,6.849237288265908e-07,-2.9391912003281857e-08,3.1996246164609767e-07
2.3165642783034057e-06,9.048898743523857e-07,3.7790695689894034e-07,1.1802101724085231e-06,9.103814859889199e-07,5.215346296860711e-07,2.088884958047748e-07,3.055209664080656e-07,1.9606255155457726e-09,4.4977668669145877e-07,7.288618753767987e-07,1.2091489207866192e-06,1.5524274145851683e-06,5.175817662285559e-07,3.3376001146885596e-07,7.105511367627341e-07,-3.093700459670689e-08,3.009157719262155e-07
2.2881225002428766e-06,8.813847900239776e-07,3.5998858675829634e-07,1.1984834049416825e-06,8.951679640127224e-07,5.149070420585215e-07,2.388523651625541e-07,2.8891009916378097e-07,-1.9945711146664154e-08,4.262268610889931e-07,7.329984378982825e-07,1.200541413205167e-06,1.5688052970030673e-06,5.281376893487554e-07,3.4125010398154773e-07,7.347665895193582e-07,-3.353166042862191e-08,2.869342730056675e-07
2.28682037191404e-06,8.606797319891593e-07,3.4295671396165803e-07,1.2146223879037134e-06,8.804617286932899e-07,5.064233527823998e-07,2.7170218613786104e-07,2.7222020809255164e-07,-4.408091022802971e-08,4.12706689020975e-07,7.347536276826892e-07,1.1885140984766956e-06,1.5761474828167406e-06,5.32200771483698e-07,3.4090700911982097e-07,7.485055454371539e-07,-4.0740161148585495e-08,2.7755926444632075e-07
2.2927077379940703e-06,8.426471802657877e-07,3.266399603868937e-07,1.22567339552546e-06,8.649549740890121e-07,4.957552743693717e-07,2.98578083247081e-07,2.549268458518095e-07,-7.303448094061862e-08,4.083376085347974e-07,7.340636933450327e-07,1.171785804945155e-06,1.5702857466617707e-06,5.246499624620213e-07,3.2590303954683027e-07,7.460648530142653e-07,-5.535450661682434e-08,2.712059241261239e-07
2.3200059127733505e-06,8.272046036157673e-07,3.1173771017654265e-07,1.2305683774421149e-06,8.475153976251302e-07,4.825612474495194e-07,3.160361712076997e-07,2.365971673776114e-07,-1.0704915184463017e-07,4.095688326117244e-07,7.320978391806743e-07,1.1499915663598508e-06,1.550439475043815e-06,5.047343852794501e-07,2.9489192797331896e-07,7.273788030610854e-07,-7.684575311172746e-08,2.6696579156735526e-07
2.3658337474571183e-06,8.150165723363961e-07,3.0013082530273233e-07,1.2308103852133168e-06,8.294280435343958e-07,4.6774124677218197e-07,3.292298309435917e-07,2.183579739378998e-07,-1.4216453859493704e-07,4.1153688550845463e-07,7.319316071495728e-07,1.1250750810055379e-06,1.5204641417234872e-06,4.773397168677533e-07,2.5283435859055047e-07,6.979571307302417e-07,-1.0098411015467666e-07,2.655355529892944e-07
2.4224478598057485e-06,8.073779206709571e-07,2.9385667535318147e-07,1.2297832347158816e-06,8.136775043740026e-07,4.526011719385299e-07,3.480393204994788e-07,2.0180376400386312e-07,-1.7275654074061307e-07,4.091691274621824e-07,7.365639807909471e-07,1.1003218771988845e-06,1.486387427288832e-06,4.492768076181758e-07,2.0649195997786005e-07,6.645038165392559e-07,-1.2304200456803595e-07,2.6783156353852046e-07
2.4883828097190115e-06,8.047095704922491e-07,2.93183846025596e-07,1.2306889008471353e-06,8.019583824905842e-07,4.368527003694249e-07,3.7910104587269305e-07,1.8678914703096162e-07,-1.9596388740687922e-07,3.9825989527634234e-07,7.464029646650661e-07,1.078664724360745e-06,1.4529858646305994e-06,4.245790260339053e-07,1.5957891185343596e-07,6.297404894404318e-07,-1.4082353892396809e-07,2.733776476953844e-07
2.5500342625007076e-06,8.057477149477419e-07,2.959693224274001e-07,1.2350165205385213e-06,7.93723057258952e-07,4.186466368679808e-07,4.2177587698980996e-07,1.7145113173433086e-07,-2.1274689136361255e-07,3.782944031056804e-07,7.593703089163873e-07,1.0622775190478305e-06,1.4228324937733019e-06,4.039549870275401e-07,1.1231571069867427e-07,5.914849766819823e-07,-1.5446611411038212e-07,2.806549645085842e-07
2.5981419839877134e-06,8.080803474646434e-07,2.9891853297071183e-07,1.2427789656084052e-06,7.879656484451088e-07,3.9664103138487273e-07,4.7021491020927584e-07,1.54162699740542e-07,-2.2559281168572535e-07,3.536735161425531e-07,7.727795519002009e-07,1.0525143673899022e-06,1.396998412387222e-06,3.870117965964288e-07,6.352141521152348e-08,5.458670292798485e-07,-1.6499560654124712e-07,2.883317679653633e-07
2.6287053592735997e-06,8.091720297395255e-07,2.9901689851130785e-07,1.2526257072597476e-06,7.84151166589931e-07,3.708559798558493e-07,5.170171304089847e-07,1.3425891967141473e-07,-2.3703536395512912e-07,3.316740224095371e-07,7.841016372922138e-07,1.0487502961112632e-06,1.3749792346360106e-06,3.730162011922795e-07,1.1648014883004449e-08,4.907816534884245e-07,-1.7408608727642432e-07,2.955027296824981e-07
2.647768982288905e-06,8.070373177866922e-07,2.9418415796082187e-07,1.2623559437212697e-06,7.812906526835321e-07,3.416207391564549e-07,5.561172023758754e-07,1.1123465211544557e-07,-2.496382759805872e-07,3.1868957346834515e-07,7.909357208513996e-07,1.0476883111532863e-06,1.3545961259859442e-06,3.6079774597338726e-07,-4.4415028354220536e-08,4.2770728671151113e-07,-1.8368837912213677e-07,3.0158496848653234e-07
2.6593547967707426e-06,8.00794168413352e-07,2.84074780709267e-07,1.2699695044243104e-06,7.782261752877107e-07,3.095260398632524e-07,5.862093388648255e-07,8.513215133251791e-08,-2.6448515159264047e-07,3.1766890799141735e-07,7.923052475724444e-07,1.0452522523036564e-06,1.3341209358245943e-06,3.5054691586699064e-07,-1.0308427962693859e-07,3.6225829137200126e-07,-1.9399666813174163e-07,3.07099887500227e-07
2.679454310228285e-06,7.913683538884889e-07,2.7105317017679917e-07,1.2750075458621315e-06,7.757624412894371e-07,2.7710651385517847e-07,6.128211224450064e-07,5.820191410735151e-08,-2.7898626516181033e-07,3.278737049358967e-07,7.901071736623916e-07,1.0395027634973823e-06,1.3146523853610923e-06,3.454734849759092e-07,-1.5904505208222872e-07,3.026077327943941e-07,-2.024123089520205e-07,3.1411249799065226e-07
2.720311922804111e-06,7.81376714478256e-07,2.596259366398981e-07,1.2792757154089262e-06,7.77075274580452e-07,2.4910215872412685e-07,6.444860766359725e-07,3.464195557291736e-08,-2.8823063207664356e-07,3.4554742996767046e-07,7.877520950277041e-07,1.0312073802513692e-06,1.299647569939807e-06,3.493548707872581e-07,-2.0632407468006414e-07,2.549183770458126e-07,-2.059314473191645e-07,3.246611612718252e-07
2.7824528220099105e-06,7.736840362193703e-07,2.538995055519718e-07,1.2847259306336e-06,7.851423475380144e-07,2.2998898070550795e-07,6.845976125884302e-07,1.7799515164936533e-08,-2.894444090228435e-07,3.641891940488861e-07,7.869602252727741e-07,1.0221741350713716e-06,1.2922536309415921e-06,3.619510206034222e-07,-2.425617499092588e-07,2.1866280752253753e-07,-2.0444149331361126e-07,3.38498132433692e-07
2.859637263227921e-06,7.696963102356116e-07,2.5521672712574354e-07,1.291597652122508e-06,8.007381556292064e-07,2.2175210058017874e-07,7.269600766371655e-07,8.289262520328329e-09,-2.8431879599594236e-07,3.757987711925859e-07,7.867167540218032e-07,1.0142341812250596e-06,1.2938503900021443e-06,3.7802405850656704e-07,-2.6959842689324996e-07,1.8627288709962556e-07,-2.010314338833578e-07,3.527235402805234e-07
2.935513924650641e-06,7.688031678847273e-07,2.61749999520961e-07,1.2983405764317256e-06,8.231383369539026e-07,2.2405120982374027e-07,7.586935795523808e-07,4.874191154884116e-09,-2.7714066357679574e-07,3.7355173398475923e-07,7.849963716744867e-07,1.009273556783317e-06,1.3046488890219872e-06,3.9052767268079724e-07,-2.9083379393636984e-07,1.4737592366273713e-07,-1.9986044037034573e-07,3.6325355332657546e-07
2.99154199363204e-06,7.687837962920341e-07,2.694173704655215e-07,1.3025027767000733e-06,8.51098470240577e-07,2.3512733408432634e-07,7.659211015945549e-07,5.806644043088883e-09,-2.7262091306714826e-07,3.5395350900786305e-07,7.80151185499883e-07,1.0085630460423097e-06,1.323935541497246e-06,3.93642671954261e-07,-3.0918603680551795e-07,9.390050147388225e-08,-2.0460226053432274e-07,3.662507976480543e-07
3.0138551507891228e-06,7.66468995769934e-07,2.7314517680511324e-07,1.3015725855982297e-06,8.824670727139916e-07,2.5202863406965155e-07,7.381003518128557e-07,8.906831400590479e-09,-2.7531424567683516e-07,3.1775702435391346e-07,7.711046372569392e-07,1.0116735692083664e-06,1.3497192379429524e-06,3.8434466293727847e-07,-3.2611291131199365e-07,2.35292095112533e-08,-2.1742677532234142e-07,3.592604652656437e-07
2.9984390003505505e-06,7.589822688161768e-07,2.687702968198327e-07,1.2939570869101672e-06,9.145975702444109e-07,2.714602207555796e-07,6.719678312203156e-07,1.1926331455976702e-08,-2.880422036459505e-07,2.7001793882903097e-07,7.583586890732512e-07,1.0171052455968328e-06,1.379429800246659e-06,3.644294616923534e-07,-3.400379332677958e-07,-5.872431328599296e-08,-2.3714490968107472e-07,3.4275971418859655e-07
2.9529875958586207e-06,7.454577986102046e-07,2.552072734492285e-07,1.2801081161393338e-06,9.463712006272333e-07,2.915623637440905e-07,5.747224700571551e-07,1.3966781602410343e-08,-3.092900163415032e-07,2.1999430339107897e-07,7.453637349449432e-07,1.024092357106145e-06,1.4118787903175926e-06,3.415748597254026e-07,-3.458728930731258e-07,-1.4163849730742583e-07,-2.582738655247442e-07,3.209702980732074e-07
2.8945688037409554e-06,7.277236121946696e-07,2.3492288122058796e-07,1.262350498049708e-06,9.787374193822322e-07,3.122410748808625e-07,4.6228308165247656e-07,1.581421605169527e-08,-3.3329925416198795e-07,1.7698548948486624e-07,7.373085888123318e-07,1.0329068921922554e-06,1.44686869959047e-06,3.259865116815732e-07,-3.3826869290023005e-07,-2.1245260726987556e-07,-2.7350058295954846e-07,3.002642883504632e-07
2.8423894298139586e-06,7.09071304159803e-07,2.1202686378250646e-07,1.2433874980689917e-06,1.012470653082818e-06,3.3341592529707067e-07,3.5247001013331204e-07,1.8380358113170178e-08,-3.53599934931023e-07,1.4666464824340475e-07,7.377353263106954e-07,1.0436102116218356e-06,1.4832713335098142e-06,3.2457695894019565e-07,-3.161189912042619e-07,-2.626292502846484e-07,-2.775956699646199e-07,2.8626512873832976e-07
2.8107955888839644e-06,6.923556792888719e-07,1.9002942465177334e-07,1.2248604240533444e-06,1.046473498220965e-06,3.539800522281009e-07,2.5919116897148796e-07,2.174142869107049e-08,-3.6562651729363434e-07,1.2913473050000058e-07,7.4684767516086e-07,1.0556713045014992e-06,1.5187748157774735e-06,3.38441060872152e-07,-2.834700101127068e-07,-2.904508000127868e-07,-2.6897997522350593e-07,2.82233172306729e-07
2.802677630199965e-06,6.792551247890362e-07,1.7108733938635837e-07,1.2074248643759158e-06,1.078768296070352e-06,3.7282823372592294e-07,1.9089354548913085e-07,2.6010427612449892e-08,-3.6661440285779287e-07,1.1956558641698384e-07,7.625697260502187e-07,1.0684850908722543e-06,1.5510489148471192e-06,3.644496376206417e-07,-2.469861941552473e-07,-2.996487923708817e-07,-2.4901282752854085e-07,2.8902015756883563e-07
2.8096706535146468e-06,6.703663463015669e-07,1.560519504408109e-07,1.191499495506869e-06,1.1076938569382793e-06,3.896390424569453e-07,1.5009036567577505e-07,3.180547240273233e-08,-3.55722328803999e-07,1.1082801568046105e-07,7.815724299323113e-07,1.0813455767601967e-06,1.5782895057358386e-06,3.968576907676595e-07,-2.138210758742049e-07,-2.969817955432511e-07,-2.215442327111631e-07,3.051027400950595e-07
2.8159414377864242e-06,6.650692280095767e-07,1.4427124563095516e-07,1.1770483449027958e-06,1.1314123729085632e-06,4.0404168526502256e-07,1.3249106385839116e-07,3.9140932816083486e-08,-3.35267814271679e-07,9.540145046208454e-08,7.993088691700688e-07,1.0926938467865697e-06,1.5985121179272836e-06,4.2798938256876573e-07,-1.9051335227456844e-07,-2.9045123646743894e-07,-1.9245462759509158e-07,3.2676619012588154e-07
2.8047650938730743e-06,6.616465512809644e-07,1.3384217436510843e-07,1.1634274258794443e-06,1.1478510839120005e-06,4.152038443518533e-07,1.2928483444428923e-07,4.695231598802731e-08,-3.0993515745194204e-07,6.76630765327567e-08,8.111975863702351e-07,1.1006750469325964e-06,1.6103775684410477e-06,4.5073456137074086e-07,-1.809297417754282e-07,-2.8734120898365504e-07,-1.6740264923595284e-07,3.4956438694196945e-07
2.765425954601744e-06,6.583074503418131e-07,1.2291116015390192e-07,1.1501606880825272e-06,1.1563998634996195e-06,4.229645790025947e-07,1.3289095638990927e-07,5.434740114142012e-08,-2.83500671644092e-07,2.601682845918737e-08,8.150543313013024e-07,1.1048907813248027e-06,1.614720711179993e-06,4.620586279066209e-07,-1.844568517759624e-07,-2.9227988950490966e-07,-1.4917358423141007e-07,3.7023985009905965e-07
2.697320663237691e-06,6.542985135239631e-07,1.1077006672975436e-07,1.1371414131248792e-06,1.1587818188636531e-06,4.2835156137084383e-07,1.4028681902791894e-07,6.127953140455858e-08,-2.5729754874899815e-07,-2.6395835249525415e-08,8.118560384933032e-07,1.1066980918805493e-06,1.614242756075262e-06,4.63430161140557e-07,-1.9729359823875473e-07,-3.069611893721138e-07,-1.375704053641657e-07,3.872421372930058e-07
2.610308113481558e-06,6.50077117035141e-07,9.767536622009479e-08,1.1247456885958218e-06,1.15757678726724e-06,4.323424856403957e-07,1.511384355985487e-07,6.750769091600492e-08,-2.318283722460121e-07,-8.307495971791395e-08,8.042489008430572e-07,1.1079062277682903e-06,1.6115839778917772e-06,4.5829811048964475e-07,-2.1536837762949714e-07,-3.3121367329609614e-07,-1.310105551040118e-07,4.001597313318111e-07
2.5205015886911197e-06,6.468371859876576e-07,8.430454244226418e-08,1.1131410026906718e-06,1.1550106652474145e-06,4.3509421452491796e-07,1.6534039334846117e-07,7.214255816422515e-08,-2.0786863670924766e-07,-1.3639057692468982e-07,7.954179847658105e-07,1.110106298278166e-06,1.6085925201289389e-06,4.5070942102244935e-07,-2.3507219428308192e-07,-3.6334695429486106e-07,-1.2701615028031543e-07,4.097048883268824e-07
2.44479475535838e-06,6.460710521095276e-07,7.17942836546717e-08,1.1025431144249492e-06,1.1536491673959968e-06,4.3689769733670106e-07,1.832832479111686e-07,7.487743474209311e-08,-1.8527044824495383e-07,-1.795437872402043e-07,7.889747411526807e-07,1.1150666549568104e-06,1.607197953606926e-06,4.4542873424110597e-07,-2.524254575528222e-07,-3.998672759976961e-07,-1.2212979200379511e-07,4.179199999365754e-07
2.3938791072576706e-06,6.486617158265169e-07,6.154621041963061e-08,1.0936341679467048e-06,1.1564612872606821e-06,4.386919126160389e-07,2.0596580370949995e-07,7.651477934712666e-08,-1.6275901496586434e-07,-2.087873162405137e-07,7.877080195434747e-07,1.1242131244680945e-06,1.6095602458465094e-06,4.4616674970530924e-07,-2.6426769566388386e-07,-4.3676098666340455e-07,-1.1358817722427432e-07,4.270346545011024e-07
2.3675115789233257e-06,6.533356146654695e-07,5.409642289450105e-08,1.0862193735482628e-06,1.1646923836437531e-06,4.4071209731960514e-07,2.3302359826295006e-07,7.757952135586845e-08,-1.4003020915424923e-07,-2.250618108374199e-07,7.912988970533096e-07,1.137157137843155e-06,1.6162458191265715e-06,4.5239160167853785e-07,-2.709604868605614e-07,-4.7224312972436703e-07,-1.0172056618469032e-07,4.3754586137089743e-07
2.3535759573403846e-06,6.559755180104519e-07,4.8259652940817036e-08,1.0785487088236567e-06,1.1763914315743656e-06,4.4145589210805643e-07,2.6181372862139476e-07,7.736361511136187e-08,-1.1884015470445889e-07,-2.331704324795944e-07,7.961133768532212e-07,1.1514190885031432e-06,1.6256829397387063e-06,4.5918302987133e-07,-2.766676743661159e-07,-5.079694644013198e-07,-8.989818329095847e-08,4.477428597886022e-07
2.33171352556284e-06,6.509819425966812e-07,4.1773499429515065e-08,1.0680472189523945e-06,1.1877708244380839e-06,4.3856549280422e-07,2.8916472554663776e-07,7.480670295043518e-08,-1.0154139187540983e-07,-2.388227867241112e-07,7.977044265823367e-07,1.163674824739606e-06,1.6353309138635114e-06,4.606339329001628e-07,-2.868595484060413e-07,-5.474297624482232e-07,-8.230678832127329e-08,4.5498620601963404e-07
2.280542885493911e-06,6.343263686841112e-07,3.2583065406031774e-08,1.0526862119002045e-06,1.1951221730376227e-06,4.2992455209226277e-07,3.1250648727085445e-07,6.932571912139944e-08,-8.998165559834293e-08,-2.4531703970133193e-07,7.92937546179613e-07,1.1706361990859628e-06,1.6421786325691309e-06,4.525787073743571e-07,-3.062734886894416e-07,-5.934652310298813e-07,-8.230898743759578e-08,4.570537095658567e-07
2.1891795725189747e-06,6.049675815983769e-07,1.946839510076328e-08,1.0315444098101741e-06,1.1952148792640448e-06,4.1365876506505566e-07,3.2908394982383685e-07,6.057255125064277e-08,-8.580720023378228e-08,-2.5229107482788066e-07,7.804034600755203e-07,1.1692597608610896e-06,1.6426018487567122e-06,4.3336127136344115e-07,-3.377539301475229e-07,-6.462720004079575e-07,-9.162101131412755e-08,4.5302317578179515e-07
2.0555895772160316e-06,5.652174809462961e-07,2.408322251546823e-09,1.005156457832553e-06,1.1859880365274489e-06,3.8872195648641503e-07,3.36931560117012e-07,4.8890869375281374e-08,-8.953356998178489e-08,-2.5630544619000404e-07,7.610439414523458e-07,1.157956009195939e-06,1.6337777503326293e-06,4.052215553228843e-07,-3.798955775712221e-07,-7.015527421370985e-07,-1.086638873598145e-07,4.443803916532814e-07
1.8879891663263614e-06,5.212673243627363e-07,-1.669661548720643e-08,9.760911080987278e-07,1.1686726712098145e-06,3.569125360817981e-07,3.383202119657851e-07,3.676522451810937e-08,-9.81149206318523e-08,-2.523517284553483e-07,7.390771741038888e-07,1.1385200888194445e-06,1.6163478425640166e-06,3.7558433386269424e-07,-4.2511274725160143e-07,-7.500783859796686e-07,-1.275909037753571e-07,4.3547983475420477e-07
1.7083969645457391e-06,4.819610502850769e-07,-3.4008322497204726e-08,9.487823661920504e-07,1.148415741999488e-06,3.236426659945486e-07,3.400922238291761e-07,2.8557232099702425e-08,-1.0513315249784019e-07,-2.368974017125852e-07,7.20467809663768e-07,1.1160113912147477e-06,1.5945822594794656e-06,3.5422614952823523e-07,-4.6223156352801496e-07,-7.811543286377865e-07,-1.4099890014250666e-07,4.316155510676072e-07
1.5397398683853496e-06,4.5553953404210576e-07,-4.550311933544024e-08,9.275662053834718e-07,1.1314280773878348e-06,2.9567015993299895e-07,3.4831453013645245e-07,2.7769766236611575e-08,-1.0502271961342074e-07,-2.1112137573739873e-07,7.089738489094701e-07,1.0963534666023336e-06,1.5738490009031556e-06,3.4712358390937264e-07,-4.824635848513645e-07,-7.887144209194121e-07,-1.4468487500399063e-07,4.357274993579731e-07
1.4014702319412696e-06,4.460066721900272e-07,-4.922611716930535e-08,9.143218392919128e-07,1.1216901889357988e-06,2.782208267540245e-07,3.631576848265961e-07,3.5047055967918734e-08,-9.651745345993346e-08,-1.810990988272548e-07,7.039234840738214e-07,1.0844078540204767e-06,1.5584812320815588e-06,3.5358177662677405e-07,-4.826536862378068e-07,-7.747410716341966e-07,-1.392535197125942e-07,4.470777918005401e-07
1.3023825090800514e-06,4.5185804388089766e-07,-4.5926417042234903e-08,9.080650931900509e-07,1.120551435116753e-06,2.7417212728228894e-07,3.795945711087224e-07,4.8931314589786134e-08,-8.165602517471263e-08,-1.5559104940088174e-07,7.01861687340114e-07,1.0839448402503632e-06,1.551886148270053e-06,3.686262640384269e-07,-4.6374012130295474e-07,-7.473173591410431e-07,-1.276667193691225e-07,4.6283361391798625e-07
1.2426677230046416e-06,4.67488829390302e-07,-3.805093740375817e-08,9.058447027411587e-07,1.1278151693488398e-06,2.8422388741254454e-07,3.9124466568116556e-07,6.715480901990262e-08,-6.307405348492706e-08,-1.414256561900391e-07,6.993141832514265e-07,1.097496650637905e-06,1.5565422080075473e-06,3.8675102336200065e-07,-4.286038578831349e-07,-7.163107437468676e-07,-1.1273196638153971e-07,4.800458166386996e-07
1.2115931261708108e-06,4.855688782119589e-07,-2.8674016678605013e-08,9.041754172188298e-07,1.141627040655368e-06,3.0637204340611366e-07,3.9238576803737965e-07,8.650177582495468e-08,-4.320846580721879e-08,-1.4116527277626344e-07,6.940295726806616e-07,1.125167899677936e-06,1.5725720034019222e-06,4.0339720058471286e-07,-3.8170027846165375e-07,-6.901941239792115e-07,-9.660911901426112e-08,4.963464901607871e-07
1.1943013739033534e-06,4.988982267376398e-07,-2.085825304038492e-08,8.992614560679587e-07,1.1582262665339403e-06,3.36029345641046e-07,3.788083404993312e-07,1.0299511816244986e-07,-2.4448688795859415e-08,-1.5196512950379335e-07,6.856005736670482e-07,1.1644498204214435e-06,1.5977918898412438e-06,4.157695577726767e-07,-3.281051802058677e-07,-6.741113399800264e-07,-8.044795376423685e-08,5.103493251484002e-07
1.1755439479957811e-06,5.017594727062921e-07,-1.6894725560943243e-08,8.88155439388519e-07,1.1735387683330388e-06,3.68117633222843e-07,3.4996996564827596e-07,1.1389652858493545e-07,-8.009309748190302e-09,-1.6885115145479039e-07,6.762193348647596e-07,1.2118219340218117e-06,1.6293394727716528e-06,4.2447834493788996e-07,-2.7133775635526447e-07,-6.687707459353261e-07,-6.350622789641453e-08,5.222832531631439e-07
1.1377086370740178e-06,4.907049916381197e-07,-1.7716495112603733e-08,8.695841580588593e-07,1.184998018837341e-06,3.9906875296912694e-07,3.1066172671289164e-07,1.1938499092684777e-07,6.875749657753513e-09,-1.8547977991709351e-07,6.699080442172616e-07,1.264047338814563e-06,1.66520648581874e-06,4.331200800390987e-07,-2.1285309470758147e-07,-6.709913653967745e-07,-4.3648764338135566e-08,5.337827969905197e-07
1.0658779591628468e-06,4.6428758088852464e-07,-2.310674992783277e-08,8.436676895780124e-07,1.1913848655369132e-06,4.265902296600542e-07,2.701740074168271e-07,1.2207712074866656e-07,2.2042323668820326e-08,-1.9563395408187882e-07,6.700749195984053e-07,1.3179642588078605e-06,1.7038129114048788e-06,4.4609195446364486e-07,-1.5347729386538614e-07,-6.752047729678517e-07,-1.8936128191930538e-08,5.468438768963691e-07
9.522802053992752e-07,4.2292081004287485e-07,-3.208136098931768e-08,8.120155618104242e-07,1.1920978941997297e-06,4.485724779524346e-07,2.410537878974852e-07,1.2593140430573286e-07,3.9866295602640946e-08,-1.9430718163313292e-07,6.78168660356046e-07,1.3702838967699261e-06,1.74332698641795e-06,4.6790962025410487e-07,-9.378136410504649e-08,-6.738365163183276e-07,1.202936768754677e-08,5.633491396287928e-07
7.998157064458441e-07,3.7006846236683336e-07,-4.268762019591945e-08,7.785136953441339e-07,1.1877034050162525e-06,4.62973440960311e-07,2.3845625407444064e-07,1.3563044243122513e-07,6.382396724547498e-08,-1.7573128772785627e-07,6.943705565109429e-07,1.4180653140789979e-06,1.782568129710224e-06,5.041045155997586e-07,-3.32230153894215e-08,-6.571074357869794e-07,5.066814217769798e-08,5.85062495187411e-07
6.23620801135463e-07,3.133175314971462e-07,-5.1951031878290494e-08,7.498048582910734e-07,1.1803418933833794e-06,4.6810185820064086e-07,2.768007512825793e-07,1.549835068506621e-07,9.749794462240555e-08,-1.3405866073404252e-07,7.179483186628068e-07,1.4588144993684933e-06,1.8208284272556916e-06,5.601392514554204e-07,2.9442164877942337e-08,-6.151060430776937e-07,9.77260868178538e-08,6.134136696424796e-07
4.5091423504568744e-07,2.6349268288607976e-07,-5.6786692377435776e-08,7.335909999277144e-07,1.172716433673248e-06,4.62816368631151e-07,3.6301646752625143e-07,1.8457782666370725e-07,1.417365268824932e-07,-6.562298394440463e-08,7.465110135277516e-07,1.490482432586021e-06,1.8575617473026115e-06,6.379239893538717e-07,9.494989861056664e-08,-5.423605422091747e-07,1.519518839927177e-07,6.480719061570613e-07
3.1356215647630314e-07,2.3153793954064433e-07,-5.5095520095002724e-08,7.358488523334457e-07,1.1674341798060834e-06,4.478905499651932e-07,4.916827523239111e-07,2.216059681844849e-07,1.938338630942921e-07,2.7776874196354033e-08,7.76426521287665e-07,1.5127365546209755e-06,1.8933596275177403e-06,7.341106743552686e-07,1.6366529233646256e-07,-4.415731994772397e-07,2.1046906938730588e-07,6.869902146948131e-07
2.3652392234301972e-07,2.2481537690178905e-07,-4.6189761737782133e-08,7.584488038224638e-07,1.1675557728913676e-06,4.279210786336934e-07,6.460078865831384e-07,2.6227435619509287e-07,2.49699706607632e-07,1.3798865982341016e-07,8.048155494419647e-07,1.5285027040968577e-06,1.9310168988680948e-06,8.410702121678627e-07,2.3578861485835844e-07,-3.2387767787462764e-07,2.701076180738618e-07,7.273405355092515e-07
2.2650634988774108e-07,2.446676565286116e-07,-3.10124087188188e-08,7.979763101147676e-07,1.176128672359587e-06,4.106427634363129e-07,8.026822629720201e-07,3.0364042840513877e-07,3.0548712963866176e-07,2.517933365853756e-07,8.305965702631176e-07,1.543066403287853e-06,1.973530662878633e-06,9.481486612776175e-07,3.0968075767192985e-07,-2.0562813004809264e-07,3.277231029886965e-07,7.65969315288732e-07
2.719113088952692e-07,2.860736072368562e-07,-1.2259403099137779e-08,8.463052124090175e-07,1.194113946852695e-06,4.034202600587324e-07,9.376696448853753e-07,3.435312984466924e-07,3.5725595710803874e-07,3.555270509877107e-07,8.538736120329946e-07,1.5612310506595468e-06,2.021471183362001e-06,1.0433123784594523e-06,3.819773419602612e-07,-1.0274388160697701e-07,3.80255778209491e-07,8.000395298369301e-07
3.47341477508821e-07,3.399213414969285e-07,6.511580567488514e-09,8.932726253930184e-07,1.2195823616300722e-06,4.1058244888593204e-07,1.0319904061242044e-06,3.8041891390642053e-07,4.010626648217227e-07,4.383476304928658e-07,8.755019584171131e-07,1.5853292715715553e-06,2.072179644220079e-06,1.1166731535971228e-06,4.4551227842223356e-07,-2.4716675539501894e-08,4.2569115649808074e-07,8.278634851893887e-07
4.22926116110592e-07,3.966188293036387e-07,2.2556104171019605e-08,9.302997639734509e-07,1.2493190021616924e-06,4.334444234361842e-07,1.0756106891081407e-06,4.13970908764812e-07,4.342529822279028e-07,4.938724176618315e-07,8.969921206508283e-07,1.6148411693681069e-06,2.1209714537103593e-06,1.1637446099589293e-06,4.974428135815441e-07,2.8107972851347952e-08,4.6359523904778577e-07,8.49145711947885e-07
4.727516286535897e-07,4.483760112012053e-07,3.482812552369745e-08,9.524479186604788e-07,1.2804683778145323e-06,4.713659544952745e-07,1.0673562777461946e-06,4.4501837923272065e-07,4.56188409844773e-07,5.222711072944577e-07,9.197924368725757e-07,1.6469313217206426e-06,2.163335302930047e-06,1.1858448448364384e-06,5.394188354797464e-07,6.109290581336538e-08,4.94277260796931e-07,8.640026557541435e-07
4.802596031791982e-07,4.892375135842924e-07,4.365441340418418e-08,9.57769618864672e-07,1.3110786456279656e-06,5.228410187073357e-07,1.0127296148231328e-06,4.750512934878784e-07,4.6835722336566484e-07,5.263849291730485e-07,9.445428786723969e-07,1.6780083570164958e-06,2.1969908412507336e-06,1.1891510519444311e-06,5.763697801884494e-07,8.388399368669931e-08,5.183429767079811e-07,8.724535079588936e-07
4.3859746407256577e-07,5.145394807073631e-07,5.0165757867560505e-08,9.464210171347457e-07,1.3405958577140704e-06,5.866300166805339e-07,9.229191456994974e-07,5.061522282506235e-07,4.748878088816239e-07,5.101445618985977e-07,9.712165220227087e-07,1.7059330312712368e-06,2.2233483764136063e-06,1.1836198541500036e-06,6.176019883492586e-07,1.0562467196909904e-07,5.374026446043166e-07,8.748834098463546e-07
3.487248632356356e-07,5.210339243745431e-07,5.58036181335523e-08,9.198889629865088e-07,1.3697997560269439e-06,6.61559884815618e-07,8.140654319894358e-07,5.404752059872378e-07,4.819061316521597e-07,4.788970426502933e-07,9.990380866744785e-07,1.7309711385300657e-06,2.246675734949736e-06,1.1800558426096207e-06,6.721887827890209e-07,1.3168281201134347e-07,5.540147017203365e-07,8.723852862392883e-07
2.178871734009648e-07,5.074397138739283e-07,6.162121934001621e-08,8.80474948746843e-07,1.399078925113881e-06,7.444862343858536e-07,7.04326444877456e-07,5.787320146156045e-07,4.947691911718169e-07,4.3804122618005593e-07,1.0256510527847463e-06,1.7546060034794822e-06,2.2706318009564138e-06,1.1857579600432937e-06,7.443060120942405e-07,1.6497180426674588e-07,5.703128010018423e-07,8.663671876713449e-07
5.666660030436495e-08,4.7536802038979664e-07,6.793246554478467e-08,8.31622995251562e-07,1.426860077027855e-06,8.290849671075051e-07,6.100636250338286e-07,6.195542210939654e-07,5.157030331046086e-07,3.928743279262887e-07,1.0474330056833268e-06,1.7780075311293312e-06,2.295465815466233e-06,1.2025045361078068e-06,8.326056228451961e-07,2.0482479675811507e-07,5.87166508294562e-07,8.582162837818535e-07
-1.262192275112433e-07,4.3037547058035945e-07,7.487989267646399e-08,7.785696879955584e-07,1.4502757955332831e-06,9.074017034829778e-07,5.432520499403203e-07,6.605395524923391e-07,5.438818951746792e-07,3.495060031585166e-07,1.0615791077063868e-06,1.8013943809640825e-06,2.3179382867936936e-06,1.2282344906854889e-06,9.28335917903519e-07,2.5168563677683985e-07,6.044049808911401e-07,8.494544949801657e-07
-3.0392869294745385e-07,3.816743587579051e-07,8.309771760201257e-08,7.282316237596993e-07,1.4666797737864905e-06,9.723567680695733e-07,5.095673209176353e-07,6.991134784457568e-07,5.766063394168885e-07,3.1556749712842453e-07,1.0678453580419956e-06,1.8239281821339684e-06,2.3327764384589955e-06,1.259688873625072e-06,1.0194397114072883e-06,3.021289115612712e-07,6.211094064828949e-07,8.417202602927903e-07
-4.630974700235568e-07,3.394320083345632e-07,9.350028729126429e-08,6.873211157093007e-07,1.4740587597811651e-06,1.0189845288853302e-06,5.077174819822417e-07,7.325193601006554e-07,6.104202511413101e-07,2.9863750583849177e-07,1.0686269863787729e-06,1.8442868798451532e-06,2.3350905910834736e-06,1.2941427289945162e-06,1.0914815854657428e-06,3.531178527478659e-07,6.361561486734361e-07,8.364630326524728e-07
-5.928895031092264e-07,3.1168938102559774e-07,1.0661028479938197e-07,6.601115129222464e-07,1.4711241583238886e-06,1.0447158366241e-06,5.320245991883815e-07,7.58214726760598e-07,6.425512317400278e-07,3.0488787128863355e-07,1.0679612949915943e-06,1.8615649155124132e-06,2.3229598725418526e-06,1.3302332410984201e-06,1.1362203964081078e-06,3.9631074917640197e-07,6.492554408482552e-07,8.349791102649139e-07
-6.723650178983441e-07,3.0239411522799617e-07,1.2212409612862303e-07,6.473018513787228e-07,1.4576380285991095e-06,1.0493854473195535e-06,5.761180726796923e-07,7.745512955749448e-07,6.717008121138968e-07,3.370517612521079e-07,1.069622196546067e-06,1.8758982207267484e-06,2.298246486270855e-06,1.3651908953577858e-06,1.1509216532338943e-06,4.329347803011866e-07,6.61032071509817e-07,8.378952614947761e-07
-6.9531745777669e-07,3.1061168464247303e-07,1.3863743917264814e-07,6.445940123320976e-07,1.4343058546059492e-06,1.0348287315919403e-06,6.335182891831261e-07,7.80811308653675e-07,6.970633279704964e-07,3.916630097305497e-07,1.0746779653486532e-06,1.8877193182237634e-06,2.265528658663196e-06,1.397098408639444e-06,1.130369296358125e-06,4.5415167151996986e-07,6.717850759470938e-07,8.442375807837176e-07
-6.649971637290718e-07,3.3091149972993136e-07,1.536578523475722e-07,6.468798533557782e-07,1.4025907667805058e-06,1.0047642076964855e-06,6.959561229465839e-07,7.773877166891035e-07,7.172990515058052e-07,4.584365233088196e-07,1.080549678387226e-06,1.897074836675528e-06,2.2302506184140855e-06,1.4182036886282296e-06,1.0791606503724433e-06,4.5013838210713626e-07,6.806918354115785e-07,8.513184583424301e-07
-5.935375357436628e-07,3.5483690255529665e-07,1.6437338120716887e-07,6.480011079006395e-07,1.3652554256943325e-06,9.654662455334355e-07,7.529852734928261e-07,7.666577316218478e-07,7.311402746150479e-07,5.227711847183275e-07,1.0827097689117061e-06,1.9039503819457775e-06,2.197107378295473e-06,1.4188236482814696e-06,9.910087497667772e-07,4.1752484524404835e-07,6.861154849259484e-07,8.5563211344107e-07
-5.11168576468974e-07,3.730128938064759e-07,1.6879550026636111e-07,6.420282068436162e-07,1.3265019434064344e-06,9.257833477006134e-07,7.931554518282535e-07,7.531672917388335e-07,7.382888175901879e-07,5.695056063586775e-07,1.0775482661437972e-06,1.9083685920108948e-06,2.169262090711341e-06,1.3927231343121737e-06,8.807542716285337e-07,3.4433315287566156e-07,6.861414426540848e-07,8.539617867620191e-07
-5.315093244091053e-07,3.77110713845236e-07,1.6654362706536766e-07,6.268905362559463e-07,1.2907916448446623e-06,8.953910618495949e-07,8.058994251090965e-07,7.42554148005519e-07,7.394412299569426e-07,5.87750233391872e-07,1.064881809105808e-06,1.9099667674068246e-06,2.1471826955863594e-06,1.3367167494511451e-06,7.649038369065853e-07,2.3555142110650098e-07,6.794411775229228e-07,8.442215546811031e-07
-6.493059571810426e-07,3.6174880299140015e-07,1.5937503983902355e-07,6.01001426681491e-07,1.2616079578831922e-06,8.823533681956346e-07,7.844510667209008e-07,7.403057674509349e-07,7.360278215761168e-07,5.737201211641463e-07,1.0494394448390444e-06,1.907580048752883e-06,2.1283968865153685e-06,1.258906539989907e-06,6.848302220535206e-07,9.96070481834169e-08,6.665758273115047e-07,8.260676238195832e-07
-9.458327912580499e-07,3.261615369572489e-07,1.5155865642675533e-07,5.661960414460053e-07,1.2408944741086029e-06,8.910097273948503e-07,7.280763086406456e-07,7.504711508479058e-07,7.293903888091464e-07,5.321174279550263e-07,1.0401776382134339e-06,1.8988772569382832e-06,2.1071467411212025e-06,1.1744264142793858e-06,6.471435588228745e-07,-8.467273449042053e-09,6.504526379437474e-07,8.007250742676311e-07
-1.4009181482673003e-06,2.7480347475092796e-07,1.493789368404147e-07,5.279664327357068e-07,1.2287365804423235e-06,9.204163240330609e-07,6.414085303111972e-07,7.739867835964977e-07,7.19388819782237e-07,4.7313720310571493e-07,1.0468310418806397e-06,1.8801072389153925e-06,2.075416149800448e-06,1.1182401101732826e-06,7.336784826878055e-07,-3.8587959725334785e-08,6.353979553541405e-07,7.700790954892853e-07
-1.6873178055791467e-06,2.1507308205908864e-07,1.5931650502611368e-07,4.927108883696656e-07,1.2236677362482085e-06,9.643642691509295e-07,5.29733526499546e-07,8.079424914607603e-07,7.041631665579128e-07,4.0865913179505925e-07,1.0753682680381173e-06,1.8472181805587446e-06,2.0265029411760066e-06,1.1189104066609998e-06,9.393117673301667e-07,4.419359530969117e-08,6.25785682735892e-07,7.358082680905905e-07
-1.9723478800292817e-06,1.540922720348308e-07,1.8539992388961246e-07,4.658505797004101e-07,1.2238487892184277e-06,1.0134603031206082e-06,4.0977355204285623e-07,8.466514732425626e-07,6.822174571245825e-07,3.474968495117438e-07,1.1245469103565807e-06,1.798121019197761e-06,1.958343180319436e-06,1.1525363004034934e-06,1.1004831673967116e-06,1.5307205612770798e-07,6.246094996663449e-07,6.989329416016665e-07
-2.474140855402317e-06,9.643106205987682e-08,2.268559704571377e-07,4.484232324965267e-07,1.2277166173610155e-06,1.0577487309408694e-06,2.9680609974014e-07,8.83178498157268e-07,6.548052953830848e-07,2.9247564405598105e-07,1.184900634325547e-06,1.7342093389576377e-06,1.8761727284014226e-06,1.1729638248700736e-06,1.1961783575935992e-06,1.8463923069890176e-07,6.322181040221452e-07,6.597912464598707e-07
-3.03265259682444e-06,4.3416355697063025e-08,2.776828554456758e-07,4.37799456714971e-07,1.2335225523353732e-06,1.0887524232989882e-06,2.1219712105216028e-07,9.104650652383108e-07,6.269991352798563e-07,2.421284376507301e-07,1.2429190685987836e-06,1.6605922285984987e-06,1.7920266750948995e-06,1.1991668156150612e-06,1.2954862440859228e-06,4.2190966471707924e-07,6.464017503969071e-07,6.186843012704086e-07
-3.3996428302509654e-06,-4.183673096828953e-09,3.290468430174699e-07,4.2891032607412757e-07,1.2390103478950848e-06,1.1013094478234026e-06,2.315203843393295e-07,9.22810808980841e-07,6.061513437340922e-07,1.9360160814666486e-07,1.2822542426986633e-06,1.5854651123768725e-06,1.7207672352718772e-06,1.2694190217654712e-06,1.44989384487783e-06,6.951890595084696e-07,6.638135282572162e-07,5.768343665266856e-07
-3.6291234774810894e-06,-4.4036109827863145e-08,3.729026647960008e-07,4.182423552953536e-07,1.241657119023563e-06,1.0947176772949544e-06,2.8656969031524077e-07,9.177537405549584e-07,5.993530177401318e-07,1.4473300749563424e-07,1.2819278088160642e-06,1.5185401763771181e-06,1.674804421849718e-06,1.3720992485843729e-06,1.6677108868787296e-06,8.285913512474868e-07,6.810035369513703e-07,5.363142960857641e-07
-3.7477957737848977e-06,-7.347660356366713e-08,4.040889119000788e-07,4.0490133619912295e-07,1.2390103458757233e-06,1.0721736977141511e-06,3.3853360471520344e-07,8.971967396167967e-07,6.098993889787426e-07,9.497649879645561e-08,1.282556094421053e-06,1.4690807020775604e-06,1.6593828958908456e-06,1.459183545756418e-06,1.7823209406761112e-06,8.807122252831028e-07,6.947165622540968e-07,4.992425464902334e-07
-3.892173232371937e-06,-9.20273066376882e-08,4.2022643849964546e-07,3.902154217725598e-07,1.2294884502048597e-06,1.0391651641605134e-06,4.77172992671719e-07,8.668954658065292e-07,6.353731966878205e-07,4.4780437610219587e-08,1.243751045300602e-06,1.4440988783790034e-06,1.670963605700321e-06,1.5284770791490315e-06,1.7565290903022422e-06,7.936386278500282e-07,7.023420570698963e-07,4.669577391437911e-07
-4.036803632133849e-06,-1.0399500216257596e-07,4.2091363899800714e-07,3.762294023391159e-07,1.2131152414387247e-06,1.0018114161744363e-06,6.650980251365615e-07,8.339526572847786e-07,6.686929186821667e-07,-4.9527703810846005e-09,1.2019521512905133e-06,1.4462997486582534e-06,1.6988247812055318e-06,1.5465572486840715e-06,1.7525512925307403e-06,6.272511122111266e-07,7.021140271473445e-07,4.3948079954804207e-07
-4.078112937843814e-06,-1.1627658286120775e-07,4.073092710164598e-07,3.628165697639879e-07,1.1907153005216015e-06,9.650970782349556e-07,8.212252631158696e-07,8.032481154709274e-07,6.999601605519112e-07,-5.421278346030377e-08,1.1603918821232602e-06,1.4726017478015388e-06,1.7277362599718936e-06,1.4856930616665029e-06,1.7353398592201758e-06,6.331797562480989e-07,6.926713669914288e-07,4.150807010042427e-07
-3.976731979316784e-06,-1.354260416401184e-07,3.8184551150875945e-07,3.4867410387585496e-07,1.1625271510337327e-06,9.316778708261428e-07,8.653708435302968e-07,7.756222749510869e-07,7.191456589937915e-07,-1.0568663424529612e-07,1.123444190087919e-06,1.5140422252072558e-06,1.7446156131658185e-06,1.4262538567403294e-06,1.685604973487043e-06,5.321520391073995e-07,6.723659530372606e-07,3.9042604651920974e-07
-3.7417243442246318e-06,-1.6600702609265095e-07,3.4764658124195576e-07,3.317816403623417e-07,1.1283561957533008e-06,9.022430632750458e-07,8.777406777403507e-07,7.492163248485438e-07,7.194475337029403e-07,-1.5801746355841525e-07,1.0913411108432794e-06,1.5586447328818937e-06,1.7404237268172104e-06,1.3979622273615544e-06,1.682381212746067e-06,4.072634770020428e-07,6.399013976597509e-07,3.617401145490522e-07
-3.5059887682515407e-06,-2.0926491648485728e-07,3.0773549584725047e-07,3.097475851801442e-07,1.0884630320170427e-06,8.764617097599866e-07,8.952920885550332e-07,7.217698891098578e-07,6.994480133911596e-07,-1.9867572818134016e-07,1.0620579490543706e-06,1.5951586221693422e-06,1.7118643758184106e-06,1.3557163503565143e-06,1.6331855341443636e-06,3.327063668162468e-07,5.955336727168858e-07,3.260900789329322e-07
-3.276723196122143e-06,-2.644892648180665e-07,2.6439834298555865e-07,2.8235073656505674e-07,1.0435336564107055e-06,8.533537057898014e-07,8.236576994744156e-07,6.917999145336926e-07,6.624953433257438e-07,-2.3116445349585872e-07,1.0333486924659502e-06,1.615944027344107e-06,1.661402845103316e-06,1.2875693403088027e-06,1.5436816495381384e-06,1.9631741494744795e-07,5.405903585279799e-07,2.8231682505651147e-07
-3.1197329558541474e-06,-3.290671902441921e-07,2.1915692724995993e-07,2.4872108017786233e-07,9.943944855480642e-07,8.315866662985675e-07,6.917428641441138e-07,6.589077712343142e-07,6.148877744995655e-07,-2.5503336295644885e-07,1.0043145261515302e-06,1.6172106319673655e-06,1.5950360767274782e-06,1.2033210682387457e-06,1.3964654514081661e-06,1.11129722847012e-08,4.783033107888282e-07,2.314611961852279e-07
-3.021125736457353e-06,-3.978561691572741e-07,1.7322548558856458e-07,2.096300634300322e-07,9.419518152098821e-07,8.097377571265689e-07,5.650412350835491e-07,6.233256088435784e-07,5.635682444392747e-07,-2.6657543213070104e-07,9.755125870789958e-07,1.5989538416197675e-06,1.520126177401918e-06,1.1047742862478108e-06,1.280432533698859e-06,-1.9565033027047547e-07,4.129667827123944e-07,1.7631449328764812e-07
-2.9382975747778187e-06,-4.6501806155893414e-07,1.2771887155913578e-07,1.6593336974249436e-07,8.866421739990547e-07,7.857949439853917e-07,4.592263346683881e-07,5.846836598721534e-07,5.134502630413667e-07,-2.685480446858599e-07,9.474847230626913e-07,1.563291921437487e-06,1.4431854708613406e-06,1.0068731238633185e-06,1.16018937183218e-06,-4.077934254788765e-07,3.480506562141678e-07,1.2022727749085883e-07
-2.853485653077146e-06,-5.252975699203614e-07,8.355761077916327e-08,1.1820441635776206e-07,8.280625636645817e-07,7.566467104626202e-07,3.6853328269490326e-07,5.415888755770762e-07,4.6636217159756945e-07,-2.64173217904439e-07,9.198139260799687e-07,1.5126176399068346e-06,1.365523849433223e-06,9.166455887355831e-07,1.0416280484151927e-06,-5.482682169740796e-07,2.8557709717402546e-07,6.632383070252184e-08
-2.7328175198286303e-06,-5.733999528225744e-07,4.1608789619996646e-08,6.882923518162519e-08,7.656912781498513e-07,7.185522461644477e-07,3.000437937303008e-07,4.928232696525356e-07,4.2217151843834207e-07,-2.47457251151209e-07,8.917245068166424e-07,1.4506356299567073e-06,1.2850420039653823e-06,8.476930766880746e-07,9.503501198264505e-07,-6.314090366838001e-07,2.2630605764455929e-07,1.7434321910327586e-08
-2.5598526470348166e-06,-6.057559636721215e-07,2.8701184978788756e-09,2.0689278236669724e-08,6.994087766249775e-07,6.677847082483543e-07,2.5564749913472035e-07,4.3833342680211227e-07,3.7952660161310703e-07,-2.1546324298399808e-07,8.627770426771031e-07,1.3780169227583062e-06,1.1967273572568695e-06,7.989149936811112e-07,8.432956218076679e-07,-7.202431853181324e-07,1.6955851418451273e-07,-2.4037709461956546e-08
-2.3423337287515155e-06,-6.196503994859645e-07,-3.174090724658654e-08,-2.600428097297765e-08,6.290478751818955e-07,6.010456144259788e-07,2.3551684248541765e-07,3.7980986799236067e-07,3.3726128974912124e-07,-1.7004197857561578e-07,8.328693037940523e-07,1.2960768596321472e-06,1.0952429890477738e-06,7.584577272485799e-07,7.183320071699686e-07,-7.98905408383779e-07,1.1448554626621052e-07,-5.626968876388583e-08
-2.063273349162866e-06,-6.109590921549899e-07,-6.164036607868644e-08,-5.7578060991441074e-08,5.545476503801762e-07,5.166147235469205e-07,2.3886742788368814e-07,3.186185218997622e-07,2.9397200681541046e-07,-1.0838199026593596e-07,8.024251034273393e-07,1.2057070519358562e-06,9.79073138667051e-07,7.229498365792982e-07,5.687963078498246e-07,-8.336645376597872e-07,6.17952433703996e-08,-7.782159055483037e-08
-1.7262213156016992e-06,-5.795556722513369e-07,-8.657452566489809e-08,-7.00312482219144e-08,4.769771841681431e-07,4.1577790596917325e-07,2.654912533205811e-07,2.5713660951360443e-07,2.5034341768068114e-07,-3.641157112337019e-08,7.726163221841978e-07,1.1087795507171652e-06,8.508306890492103e-07,6.898037584692582e-07,3.952369582208941e-07,-8.289911655213973e-07,1.3689557100292876e-08,-8.788947032244171e-08
-1.3588189073277186e-06,-5.28219757129043e-07,-1.0672613572999985e-07,-6.29004118912617e-08,3.987705534612712e-07,3.029707246130128e-07,3.1541159055978596e-07,1.98363827743191e-07,2.0903749051055977e-07,3.7965902924498364e-08,7.44845041446249e-07,1.006788835449746e-06,7.174839826591599e-07,6.643086477482764e-07,1.9825449866322174e-07,-7.752491617625269e-07,-2.7767750932244813e-08,-8.721029820207003e-08
-9.90754268207657e-07,-4.610462581124959e-07,-1.2290445116354475e-07,-2.097548644354976e-08,3.2328037908374664e-07,1.8506199560115387e-07,3.870967809477975e-07,1.4867663058566927e-07,1.732203600902411e-07,1.070778786793951e-07,7.20229861409813e-07,9.0122112658087e-07,5.864947784497238e-07,6.50028906487911e-07,3.633920782208931e-08,-6.795846603761147e-07,-6.216130586384262e-08,-7.851792324703398e-08
-6.736786124311815e-07,-3.8433224025348014e-07,-1.3632098633585036e-07,3.3828253494782327e-08,2.548621533849336e-07,7.090079257520498e-08,4.765908397267712e-07,1.1393718927608051e-07,1.4665337774846306e-07,1.7423373484773766e-07,6.996318199663392e-07,7.94910663968941e-07,4.653098334686182e-07,6.467429534013066e-07,-9.103541290958218e-08,-5.647740450932993e-07,-9.060652292118494e-08,-6.607094587825127e-08
-4.2033886373161885e-07,-3.0653211591522077e-07,-1.4820136601124603e-07,9.635447976546408e-08,1.9845164870274451e-07,-2.9772425908333466e-08,5.784705692408432e-07,9.91818650925238e-08,1.3228439638340264e-07,2.390823670779824e-07,6.831213179687682e-07,6.917166743774845e-07,3.596993264975897e-07,6.524566566602197e-07,-1.841053737102752e-07,-4.4035644555818315e-07,-1.1506421054930806e-07,-5.5003533328337003e-08
-2.8484076456809046e-07,-2.3437978060233302e-07,-1.598275435914822e-07,1.6533191152269843e-07,1.577710845423403e-07,-1.0862581013451338e-07,6.790435926233497e-07,1.0742881301971865e-07,1.3027099815713396e-07,2.94702110092735e-07,6.690127456558556e-07,5.958630208768123e-07,2.7295215938083275e-07,6.624801744451094e-07,-2.3551580282053463e-07,-2.772871542205084e-07,-1.3763681878170442e-07,-5.052885819067641e-08
-2.536527242191172e-07,-1.6326648565695935e-07,-1.726932735045217e-07,2.2617302837403878e-07,1.342336236635707e-07,-1.6041795279505772e-07,7.640275386878502e-07,1.3617413369307316e-07,1.3733118725489002e-07,3.125558342740835e-07,6.542682914574164e-07,5.108780727407676e-07,2.0606429334126967e-07,6.71157753876787e-07,-2.558911598452624e-07,-1.0922325448095719e-07,-1.5950310576435137e-07,-5.637899671586695e-08
-4.1334300709972455e-07,-9.431325089216883e-08,-1.8827691524815053e-07,2.7288588137798e-07,1.2770383210497162e-07,-1.8312293720702017e-07,8.220034181720589e-07,1.8159019118104554e-07,1.4890851115321804e-07,2.980289446277608e-07,6.362256831218987e-07,4.3981113749403436e-07,1.559187832768103e-07,6.747281330753782e-07,-2.429954090103423e-07,1.3407275781152075e-08,-1.7985992829201067e-07,-7.333292056757519e-08
-6.900559755336356e-07,-5.752114076602712e-08,-2.0773650468760788e-07,3.053594481126381e-07,1.3701638907873856e-07,-1.7807791187767972e-07,8.470302348448468e-07,2.426189006820928e-07,1.6104191711340195e-07,2.8296531012441e-07,6.13619959786523e-07,3.8201734024794297e-07,1.1606960318841107e-07,6.72304467576962e-07,-2.0224658092768587e-07,9.072341836150156e-08,-1.9708784040208392e-07,-9.95647151399272e-08
-9.98033351097091e-07,-6.657377527625591e-08,-2.3164352492299304e-07,3.2372954744966343e-07,1.5917728585372067e-07,-1.5069066157392416e-07,8.443398584369028e-07,3.1077458173469046e-07,1.701275109426338e-07,2.762875235054037e-07,5.866478326889314e-07,3.3478337065736414e-07,8.365556562506169e-08,6.659306060879519e-07,-1.387753174003177e-07,1.3106031094636172e-07,-2.1011304104052893e-07,-1.2861473067643973e-07
-1.2867328572046215e-06,-9.929785735055422e-08,-2.592973801558187e-07,3.444281301505777e-07,1.8997573240103457e-07,-1.1020341508947535e-07,8.203907619164867e-07,3.645860455975194e-07,1.7345116178215751e-07,3.4729130438807466e-07,5.570940890758269e-07,2.9259429060644054e-07,4.814161459385764e-08,6.598330763296332e-07,-7.745656562719739e-08,1.263989178175377e-07,-2.1853534693816544e-07,-1.542348390052599e-07
-1.5162690177201827e-06,-1.3545372332073301e-07,-2.8793156588636945e-07,3.77885088917944e-07,2.2243547490178412e-07,-7.086899067761318e-08,7.994966997605627e-07,4.042384804850866e-07,1.690842957886071e-07,4.825414169253418e-07,5.271184904103201e-07,2.4696535125678155e-07,2.774241369402473e-09,6.610626628108485e-07,-2.31340442429106e-08,1.4652877080613578e-07,-2.227796740862241e-07,-1.7191204417952687e-07
-1.4731522269350543e-06,-1.5923892748304887e-07,-3.1275501436372354e-07,4.5738499744315287e-07,2.4858443798623023e-07,-4.403867806521087e-08,7.872048419574673e-07,3.865474071061089e-07,1.5478698478976488e-07,5.950105864818747e-07,4.998061589555997e-07,1.8154707084435645e-07,-6.255042885997466e-08,6.708591337082046e-07,2.140162065849312e-08,2.452801106968793e-07,-2.2421917311887207e-07,-1.7540996856372237e-07
-1.2458002866026682e-06,-1.3503768129340562e-07,-3.2778677454820443e-07,5.829127588063182e-07,2.6057271225006747e-07,-4.369867676698855e-08,8.015668276484949e-07,3.086097990592962e-07,1.2835333423697725e-07,6.62814376754793e-07,4.785404563112442e-07,1.085070503648785e-07,-1.7612879914826646e-07,6.89858699790706e-07,5.374145344497439e-08,3.582940115664582e-07,-2.2388050248784268e-07,-1.6202431632514517e-07
-1.0257518115573498e-06,-5.131275693184042e-08,-3.2682774343255827e-07,6.750641435857117e-07,2.5427668643766687e-07,-5.818018212759037e-08,8.836492541826964e-07,2.410331491565102e-07,8.956505784975186e-08,7.36506282020219e-07,4.657676816861737e-07,1.810473527083694e-08,-3.0933638369143924e-07,7.165206085019804e-07,9.058915706353724e-08,5.289908299495204e-07,-2.2088393330472892e-07,-1.2981021571827106e-07
-8.40638068174943e-07,6.659181479729123e-08,-3.047841578144382e-07,7.687835045884232e-07,2.3088901206325567e-07,-1.364349074193565e-07,1.0557059354170245e-06,2.1459293482231528e-07,4.165425051674483e-08,7.905122473873679e-07,4.6433750401171906e-07,-9.403030097902213e-08,-4.7546355846391305e-07,7.529511077240253e-07,1.4549772123690042e-07,6.189151618250342e-07,-2.127072217563042e-07,-7.865093641933934e-08
-6.383044769122259e-07,1.4222541669767845e-07,-2.5973201555014654e-07,8.758584285211884e-07,1.933937704414169e-07,-2.610614166359053e-07,1.2605260830574935e-06,1.7000294912720504e-07,-1.0205762177711029e-08,8.528617911737882e-07,4.742987295420797e-07,-2.1443526794953602e-07,-6.237639273113987e-07,8.018810300145943e-07,1.905503145941009e-07,6.405673901830742e-07,-1.9701273131230856e-07,-9.412467625949571e-09
-4.081982854128237e-07,2.0764248732072484e-07,-1.949033576161387e-07,9.708524684732263e-07,1.4722426252658886e-07,-4.070880142951254e-07,1.4741535480931053e-06,6.685174216465782e-08,-5.98005613805581e-08,9.687396186423481e-07,4.931778469291141e-07,-3.2881262093858246e-07,-7.301849333665448e-07,8.639385012498984e-07,3.2866123430636664e-07,7.54439485371881e-07,-1.7324395218457406e-07,5.4852891366068075e-08
-8.161259835847033e-09,3.404662079226829e-07,-1.19288151179207e-07,1.0874282111377738e-06,9.19589083496932e-08,-5.512426816698168e-07,1.7467293180670928e-06,-4.364398696701992e-08,-1.0015916686409059e-07,1.0317114548387854e-06,5.153006008306959e-07,-3.827168450155859e-07,-7.473546375547627e-07,9.35073148398357e-07,5.467683880858901e-07,9.043103280788126e-07,-1.4351288602456192e-07,9.920421806553756e-08
3.151292033128209e-07,4.054262829431974e-07,-4.620339649823878e-08,1.1679339420152012e-06,3.155265352870931e-08,-6.476966711971688e-07,1.983870615884631e-06,-5.5613250656946515e-08,-1.2532632461860495e-07,1.0680506299359578e-06,5.425605457265248e-07,-3.7701606082268295e-07,-7.572569843063406e-07,9.836330148679867e-07,7.215854246435342e-07,9.912603038065598e-07,-1.1322094089677281e-07,1.0825387114803411e-07
4.4262291600656897e-07,3.965065818149315e-07,1.0314197221641135e-08,1.201219129004897e-06,-2.7838555114306318e-08,-6.973563633949074e-07,2.0998405011062066e-06,-6.31180135832469e-08,-1.328601306837632e-07,1.1197744263279191e-06,5.769540557261185e-07,-3.399202393555649e-07,-7.598747623202862e-07,1.008197758146872e-06,8.819795852261428e-07,9.249061611957652e-07,-8.981903599640481e-08,1.0746068191828841e-07
4.977933544067117e-07,4.111922211631127e-07,4.060355461013633e-08,1.2264779629479007e-06,-4.0158606109519596e-08,-7.392334568550579e-07,2.1077850456781327e-06,-9.610069996264068e-08,-1.2453963685581766e-07,1.1299430429455607e-06,5.779554517226315e-07,-3.399792751632134e-07,-7.665400154021568e-07,9.654516941630767e-07,9.684272033751886e-07,9.282046301675407e-07,-7.950643431612941e-08,1.1397105761838235e-07
6.114461768669352e-07,4.3570304845322585e-07,4.347628153424382e-08,1.2631011543573128e-06,5.917477276465409e-09,-7.477493569922349e-07,2.0924556799174325e-06,-8.089398271263301e-08,-1.0453089662351664e-07,1.1533487928752218e-06,5.763220564193892e-07,-3.509915555280433e-07,-7.18608769588412e-07,8.9427906828424e-07,9.138539126235012e-07,9.611799978814068e-07,-8.46430667380863e-08,1.234448608666136e-07
6.4388572168372e-07,4.5284932290200534e-07,2.6364257770642172e-08,1.2933683193323939e-06,8.448321505961258e-08,-7.676082559825575e-07,2.095359658134514e-06,-3.403992669061912e-08,-7.739994151733616e-08,1.1916622188299626e-06,5.06557471099793e-07,-3.768222067331385e-07,-6.237444472915161e-07,8.634425701204446e-07,8.150021377394734e-07,9.734054702070396e-07,-1.0364247985088111e-07,6.663862727232717e-08
5.195919031281668e-07,4.274388414449896e-07,1.2673059736330743e-09,1.3260130588302994e-06,1.455216241042954e-07,-6.733734565881858e-07,2.109093224141519e-06,3.821693627736672e-08,-4.6782326614940036e-08,1.1951363976897618e-06,4.3187201118396735e-07,-3.3909165028386176e-07,-4.818056734737463e-07,8.647883761758439e-07,7.832609569181341e-07,1.0254505045445458e-06,-1.3265535210292858e-07,-1.5929593250832678e-09
4.768425653174223e-07,3.268004408359818e-07,-2.067009859094013e-08,1.304547435526452e-06,1.8244146594121126e-07,-5.797302848132592e-07,2.116055661994359e-06,1.4869870984381393e-07,-1.4234288128367796e-08,1.2095502965441237e-06,3.7124931108827416e-07,-2.4030704159599565e-07,-4.2217319965319945e-07,8.111801554071815e-07,7.510566630380876e-07,1.0195517131299563e-06,-1.6665992122904958e-07,-3.562951666052855e-08
4.900353956916934e-07,2.6738839140589274e-07,-3.3017923369669236e-08,1.2682004835639149e-06,1.902484482975733e-07,-5.642827306868317e-07,2.0408453337101516e-06,2.3347344309502697e-07,2.03059942200756e-08,1.218647478389944e-06,3.163911095162776e-07,-1.495719585510662e-07,-3.764081020655002e-07,7.154973079355164e-07,7.395446167835246e-07,9.239192869026038e-07,-2.0030637928537002e-07,-5.340157230894812e-08
5.629799991949396e-07,2.5976298687695907e-07,-3.5100108690399335e-08,1.2704060284023438e-06,1.6941443401941974e-07,-5.358202514698286e-07,1.8689670567981928e-06,3.2227957954140303e-07,5.6632519726843476e-08,1.2344595320287351e-06,2.6681242034093117e-07,-1.1656031282135369e-07,-3.5502385846116394e-07,5.901496019099054e-07,6.910573446057033e-07,8.420747227893216e-07,-2.285851913382662e-07,-5.52004601445463e-08
6.39750828716235e-07,2.686959854118424e-07,-3.021299484891896e-08,1.270805441866426e-06,1.2300703781792788e-07,-5.431254162586145e-07,1.7244477719202269e-06,4.112111825376572e-07,9.336727426126848e-08,1.2072120294855726e-06,2.2417936443245842e-07,-4.045991045155157e-08,-4.114449058098081e-07,4.7003862469592955e-07,5.828506874846436e-07,8.207133215509377e-07,-2.467180095113247e-07,-3.7764796983302703e-08
7.38201501656458e-07,2.8310948627933774e-07,-2.238360288102394e-08,1.289237081715193e-06,7.087128203852797e-08,-5.711947592293437e-07,1.676258810030264e-06,4.2752458968766706e-07,1.288288393379347e-07,1.17540151798176e-06,1.772050884079158e-07,-7.327734012698492e-10,-4.900063721676767e-07,3.517493770502079e-07,3.4793544842828197e-07,8.160729142691957e-07,-2.5048859064953354e-07,8.289980533157884e-09
1.026119095498414e-06,2.8742556978166116e-07,-1.4102839599491038e-08,1.2928698179407517e-06,2.266360765329478e-08,-5.982182169724258e-07,1.6193615108243338e-06,3.34679569614853e-07,1.6134674127507716e-07,1.1442891915327736e-06,1.2993615225002248e-07,-6.983042196806117e-09,-5.452434270994425e-07,2.7836494791303287e-07,1.8687124963361427e-07,6.818188679008027e-07,-2.38280079796511e-07,7.3929116723917e-08
1.4277956566884517e-06,3.164378393150086e-07,-6.1876872240829815e-09,1.2849834809435104e-06,-1.5926970534001682e-08,-6.418199661363008e-07,1.6065245228980375e-06,2.4247207674989726e-07,1.8957638032523273e-07,1.132274661993283e-06,8.414677483566237e-08,-3.7186802305315776e-08,-5.776737918088219e-07,2.53212217502314e-07,9.281329891206284e-08,5.473308734625987e-07,-2.12587241976527e-07,1.1977557736677138e-07
1.7943228015112718e-06,3.573780986198927e-07,1.304664865810261e-09,1.298212994644598e-06,-3.820195711013304e-08,-6.81729487177381e-07,1.7022223149195805e-06,1.7988520030671366e-07,2.1266594775027238e-07,1.1703815496383614e-06,4.241881055545835e-08,-6.928303552883059e-08,-5.747214790974351e-07,2.556484865854079e-07,-5.67004218213928e-08,5.467637242165308e-07,-1.792889880701737e-07,1.5832384037004663e-07
2.1744482595018998e-06,4.5725236918744385e-07,8.245558512838696e-09,1.316831154163589e-06,-4.387442682438614e-08,-7.199566558447383e-07,1.8588522094143212e-06,1.4022977011177277e-07,2.3043150710811136e-07,1.2332894001590446e-06,1.1167336381964966e-08,-9.231993338030214e-08,-5.514108781797802e-07,2.797057674300688e-07,-9.725033428715491e-08,6.21383346730051e-07,-1.4595961720368252e-07,1.8909807103345752e-07
2.521413314710229e-06,5.573665207909535e-07,1.3806123178772194e-08,1.3255092143457826e-06,-3.293122532436006e-08,-7.562774114146117e-07,2.000184755609694e-06,1.320099629416225e-07,2.427495020062047e-07,1.232910633621289e-06,-9.798480759960568e-09,-1.0375919303657238e-07,-5.159428699197042e-07,3.0396920308750084e-07,-7.414308737927687e-08,6.122447557166355e-07,-1.2004756435043222e-07,2.1299356495839982e-07
2.710113217229425e-06,6.455550270786014e-07,1.6262612043986428e-08,1.3283095572634924e-06,-9.008885450999706e-09,-7.853685009550048e-07,2.0507111590837284e-06,1.3710132037162242e-07,2.4912155854825937e-07,1.1802435617449876e-06,-2.323109023941295e-08,-1.0296118932662794e-07,-4.719347834463535e-07,3.1759597434038934e-07,-8.395244593645775e-08,5.643790005654613e-07,-1.069527398563696e-07,2.2465524245918545e-07
2.7613646277254774e-06,6.995603628098921e-07,1.3410978125347714e-08,1.271285034657504e-06,2.2017811382821763e-08,-8.039159128174309e-07,2.007500434246617e-06,1.5392072017936156e-07,2.4950999468204765e-07,1.1457465871617884e-06,-3.3036899287906165e-08,-8.407772716204151e-08,-4.2825503300472266e-07,3.132281841505253e-07,-9.671860097418285e-08,5.286934461277254e-07,-1.0903708025788508e-07,2.106315769579379e-07
2.693261797295331e-06,6.883614322195201e-07,2.9515381233821714e-09,1.1410907973222943e-06,5.504221758840673e-08,-8.076103033235844e-07,1.8290933934230117e-06,1.8060005003109536e-07,2.4456411983008093e-07,1.092523996434103e-06,-4.425795360283823e-08,-5.868089676242382e-08,-3.828039540300433e-07,2.8339473377798337e-07,-7.037663072168703e-08,4.349373804412569e-07,-1.2617679767552949e-07,1.7390877078596347e-07
2.575371649339673e-06,6.601345060997371e-07,-1.7387464697689165e-08,1.0324251402930452e-06,8.585702622480383e-08,-7.928581600522996e-07,1.7300614345630747e-06,2.0910861484534338e-07,2.3530908388094954e-07,1.0005313437974615e-06,-6.098196600459147e-08,-3.022373842489311e-08,-3.3499672819683485e-07,2.2561938206684034e-07,-4.982662146428686e-08,3.070209567775139e-07,-1.5602376407197555e-07,1.1499683009432892e-07
2.350698269170867e-06,6.236087210305995e-07,-4.921208356388598e-08,9.488589758584523e-07,1.1209871147918691e-07,-7.573257427738792e-07,1.6859515554146071e-06,2.405906353905781e-07,2.2364130628896088e-07,9.036455221360891e-07,-8.383453162472367e-08,2.3709545567529898e-09,-2.890385275975685e-07,1.438855381376615e-07,-3.9497222448973716e-08,1.3533034321610853e-07,-1.932203569991383e-07,4.795136679944077e-08
2.290668353748804e-06,5.87207538216298e-07,-9.237286676055898e-08,8.634803335511835e-07,1.3430197706324912e-07,-7.019500561567231e-07,1.5478244178504789e-06,2.6651473004192535e-07,2.1282013559900157e-07,8.47771248344225e-07,-1.0924141839249212e-07,4.302819019918383e-08,-2.420411438435809e-07,4.911409236445489e-08,-1.2238444353855613e-08,-8.575416508698711e-08,-2.2959664252399278e-07,-1.2603640257540833e-08
2.226677061413069e-06,5.744305778830861e-07,-1.447060683231124e-07,7.987280351717026e-07,1.5434809442232382e-07,-6.29786234886753e-07,1.3599519090970698e-06,2.91792478614856e-07,2.0597610696535514e-07,7.249484402655564e-07,-1.322330989093203e-07,9.107522949063126e-08,-1.933414590301194e-07,-4.468753189849613e-08,2.2570222443913114e-08,-3.053519534876785e-07,-2.568410421291315e-07,-4.927356375081085e-08
1.8926548430123841e-06,5.276227184881871e-07,-2.0280702919946567e-07,7.190539898753425e-07,1.7199559380936116e-07,-5.502239624814666e-07,1.0501522515784386e-06,3.0883251548790115e-07,2.0382874229013952e-07,5.487579953933786e-07,-1.5011868806849802e-07,1.4019423117792097e-07,-1.5085327680670632e-07,-1.2496199966954596e-07,6.824055072061631e-08,-5.406820615074716e-07,-2.6903056748194694e-07,-4.460491119473633e-08
1.3949340342510817e-06,4.2156326943932107e-07,-2.625878265660873e-07,5.90870550725332e-07,1.8372337571695364e-07,-4.7656499734279756e-07,7.87027423664219e-07,2.7284382064017404e-07,2.0525782517715077e-07,4.4071607932348613e-07,-1.6326590848664945e-07,1.8373679907315097e-07,-1.0602283602401641e-07,-1.8215234697033856e-07,1.2136860657621095e-07,-7.601046902355249e-07,-2.6281823770446897e-07,-1.4402383785841737e-08
1.164014381950922e-06,3.315912300097288e-07,-3.1940657713441746e-07,4.6933306109962756e-07,1.8513770890390224e-07,-4.0389583812859787e-07,6.309346428343182e-07,2.329776909106554e-07,2.099345412109204e-07,3.9810467179257355e-07,-1.7341785026828502e-07,2.1555637108276332e-07,-8.119074113468622e-08,-2.1015027723301597e-07,1.6655591746196853e-07,-8.611437054269388e-07,-2.371678796621501e-07,-3.99329421862088e-09
1.1607283441742405e-06,2.9969098804281634e-07,-3.6899302852387357e-07,3.925731795130931e-07,1.736630892343439e-07,-3.884648280024e-07,5.257454615485146e-07,1.7883204152972537e-07,2.1863830975019226e-07,3.221975954806099e-07,-1.8244408024026417e-07,2.3410772879169524e-07,-9.806360172261255e-08,-2.0846116858052182e-07,1.850844260093925e-07,-9.394845101763645e-07,-1.9431336017937125e-07,-2.4979428269467722e-08
1.1594385792303751e-06,2.7594520556192203e-07,-4.091992065628049e-07,3.322020254877184e-07,1.4939463734012029e-07,-3.8852993415052355e-07,5.206472598033689e-07,2.8369943118055045e-08,2.3325169259001303e-07,2.689215431740535e-07,-1.9205435992272327e-07,2.4111658007234647e-07,-1.5036790411166892e-07,-1.834771736764348e-07,1.8148614242025699e-07,-1.0313154723523058e-06,-1.4008577306964114e-07,-5.720208842543502e-09
1.0732924061977025e-06,2.3922702566496963e-07,-4.4083691845622705e-07,2.500607653291508e-07,1.1518056431135193e-07,-4.830707118654453e-07,4.868899042146521e-07,-1.0385188743691202e-07,2.546707289467974e-07,2.358066044100665e-07,-2.0325950958856034e-07,2.413794983761224e-07,-1.777174186466233e-07,-1.4625286568545103e-07,1.5802888493227826e-07,-1.0302169990023503e-06,-8.230380718471833e-08,4.562296875559426e-08
1.0614107707193446e-06,2.0592400990930725e-07,-4.6681891406002745e-07,1.970931334328088e-07,7.626891238199778e-08,-5.41335515062107e-07,4.6261913156957414e-07,-1.959040052746406e-07,2.818839097653189e-07,2.145555642007124e-07,-2.15925501175299e-07,2.4244342084011233e-07,-1.905937874110383e-07,-1.086385084367486e-07,1.1427816843522598e-07,-9.79943876170868e-07,-2.8939815177781638e-08,9.2843111922688e-08
1.26966670742608e-06,2.2376534024870135e-07,-4.907165137428556e-07,1.420164037764303e-07,3.8575691398909907e-08,-5.861317933657339e-07,5.21149191453404e-07,-2.0325673292694938e-07,3.113416279734504e-07,2.7805856629519413e-07,-2.2922952242101781e-07,2.482703893753984e-07,-1.991620911356294e-07,-8.151134202344189e-08,6.002919229160663e-08,-9.313999657369412e-07,1.2838469615883062e-08,1.4910338828888936e-07
1.5543479523623458e-06,2.5048818767978074e-07,-5.155728468463379e-07,8.682220754505886e-08,6.66751297058294e-09,-6.269663532933549e-07,5.912724248499029e-07,-1.9399034012354036e-07,3.3687145475946076e-07,3.695315624041391e-07,-2.420456456212699e-07,2.6257552226556735e-07,-1.9672423338318212e-07,-7.367285919642651e-08,-3.154296455845648e-10,-9.050175868633858e-07,3.7959620476753925e-08,2.098776030980134e-07
1.6849675947739028e-06,2.6310676949526065e-07,-5.428802068631516e-07,9.765186263377706e-08,-1.6669079335558293e-08,-6.486178992663078e-07,6.595805362571105e-07,-2.1615193472942217e-07,3.5240588610568406e-07,4.2345665334807627e-07,-2.525821588482528e-07,2.851263466538549e-07,-1.834366659179254e-07,-8.598460279765198e-08,-6.093739557897607e-08,-9.13217337894019e-07,4.36988264418355e-08,2.4406361842315116e-07
1.6599962721285781e-06,2.7799330762793644e-07,-5.72190575782095e-07,1.4063480848318818e-07,-3.0135274805331066e-08,-6.432225370200618e-07,7.066207471032486e-07,-2.059860667964919e-07,3.543467868641421e-07,4.554152484425894e-07,-2.586992575945264e-07,3.1417766663742626e-07,-1.6420558334213247e-07,-1.1329357913499724e-07,-1.1335459476634235e-07,-9.538618261697417e-07,3.30183412063912e-08,2.6138113245839227e-07
1.659780091838631e-06,2.9387070148272204e-07,-6.019862197457361e-07,1.6428933133580442e-07,-3.4443266860597516e-08,-6.15697980076643e-07,7.284874428918939e-07,-1.6224306071226247e-07,3.420524111192235e-07,4.431768136193898e-07,-2.594721852316415e-07,3.482215135675929e-07,-1.438014871208338e-07,-1.4847162687464741e-07,-1.5246772281507168e-07,-1.0190076366720561e-06,1.233234982038254e-08,2.659421678452831e-07
1.7727903530146143e-06,2.845848976833929e-07,-6.310043551174875e-07,1.785624087206427e-07,-3.253295490372085e-08,-5.738322307149897e-07,6.886623646075052e-07,-1.0834902740102828e-07,3.174260350847893e-07,4.083976805560245e-07,-2.5609655213627866e-07,3.8469154549809214e-07,-1.2719485239335584e-07,-1.847373749963952e-07,-1.765166809601729e-07,-1.0949094056395027e-06,-1.5323232624627697e-08,2.615904046354516e-07
1.5383455003191813e-06,2.509874714156758e-07,-6.587222644480919e-07,1.6404548032380402e-07,-2.8300335198401327e-08,-5.275153066712701e-07,6.012523739463442e-07,-7.186927255370462e-08,2.8541436720099766e-07,3.765242328093063e-07,-2.508562119106862e-07,4.177293711964357e-07,-1.1660313249413134e-07,-2.1709762825769959e-07,-1.8717413699450188e-07,-1.1628941113748596e-06,-4.3469819244042563e-08,2.590941098427308e-07
1.1757627398078738e-06,2.1361819422629805e-07,-6.849842657593839e-07,1.2940269852046937e-07,-2.5379146631246704e-08,-4.865279002622102e-07,4.995509564011063e-07,-4.4708319752594886e-08,2.5247313733060827e-07,3.539648066773265e-07,-2.455467847622408e-07,4.463366986215263e-07,-1.2117204129103084e-07,-2.420736313959908e-07,-1.885128139151187e-07,-1.2148926393867536e-06,-6.838313471575874e-08,2.583618868601207e-07
8.954731693121547e-07,1.8330330420695376e-07,-7.093300708193633e-07,8.818151697665454e-08,-2.7010657118858233e-08,-4.592047980439276e-07,4.071992660948164e-07,-2.5024054591195417e-08,2.2383916201754274e-07,3.546286245147745e-07,-2.4062837058835445e-07,4.6988954953812176e-07,-1.3709181842362944e-07,-2.578363078398236e-07,-1.8751927477095863e-07,-1.2508133842693707e-06,-8.854976257098112e-08,2.5853966638570205e-07
6.795263111913724e-07,1.7060747435150984e-07,-7.301283185616925e-07,5.1175220304264754e-08,-3.542838487910824e-08,-4.50729512582009e-07,3.448865662171054e-07,-1.3712076578918162e-08,2.0126758360687504e-07,3.8031552530292045e-07,-2.348316599278643e-07,4.86555243029233e-07,-1.635982478530345e-07,-2.635150960930544e-07,-1.9094646641642833e-07,-1.2560523688587706e-06,-1.0134443279635615e-07,2.604833411901514e-07
