0,1,2,3,4,5,6,7,8,9,10,11,12,13,14,15,16,17
1.4665931457662447e-07,-6.091959203008348e-08,2.0963609979780632e-08,6.893106093057703e-08,-3.4915299406656004e-07,-3.248372828505566e-08,-6.410891593321907e-08,1.6509018690186975e-08,-4.7991702857586556e-08,3.764967471043714e-08,-4.474277131500057e-07,5.0231229858779076e-08,-2.4860641148922474e-07,-3.6389173116313864e-08,-2.914875450164768e-07,-6.186118786529201e-07,2.184910966120015e-08,-1.2763156784181682e-07
1.1350679063876125e-07,-6.519736734042604e-08,2.8330469541241014e-09,3.3809507479612416e-08,-3.3424522118388195e-07,-4.323719263258473e-08,-8.17234759284375e-08,-2.6422335784972214e-09,-7.043987382071667e-08,-3.4064132881411773e-08,-3.673325785783599e-07,2.5372754516097816e-08,-2.459522466532977e-07,-7.231492627076792e-08,-2.43975569757215e-07,-5.163030564170179e-07,-2.2146473061816994e-08,-1.7120026138691945e-07
6.316587606072723e-08,-6.897796780226049e-08,-1.8984309468119623e-08,-1.0454508512967903e-09,-3.107523100684332e-07,-5.152540732266513e-08,-8.212976425605912e-08,-2.4557077509794496e-08,-7.685851578219506e-08,-9.592607051693618e-08,-2.6563285483647066e-07,7.61444071412592e-09,-2.1064733083139555e-07,-9.916466128819964e-08,-1.8042713690183838e-07,-3.833921607323797e-07,-5.8287544530190055e-08,-1.890428730892868e-07
4.914193000136398e-09,-6.710156791316296e-08,-3.913094437006614e-08,-2.9114105122324464e-08,-2.7269352089042867e-07,-5.2095382099544556e-08,-5.943354333715134e-08,-4.291667716384463e-08,-6.420786100711853e-08,-1.3752214917081117e-07,-1.7128723115835144e-07,2.982689462513028e-10,-1.4348029857981913e-07,-1.0836812870226114e-07,-1.0468560833038226e-07,-2.2634614900019727e-07,-7.858800674076999e-08,-1.7693744064015735e-07
-4.896439621922996e-08,-5.6488391764313653e-08,-5.2652791559003964e-08,-4.605501229201465e-08,-2.1778845692651445e-07,-4.244962900827275e-08,-1.7614409415189732e-08,-5.246204071580867e-08,-3.402020580348837e-08,-1.5133393916973986e-07,-4.158513900376489e-08,3.999397682623183e-09,-5.5016002683025903e-08,-9.593923462205181e-08,-2.4554926235623198e-08,-6.876234179645657e-08,-7.787837756474125e-08,-1.3643030867995222e-07
-8.437862400318458e-08,-3.6745607865425375e-08,-5.5116649644750316e-08,-4.889644616993423e-08,-1.477823770288248e-07,-2.3501558608895463e-08,3.420396756590734e-08,-5.105429934615145e-08,8.280550584866167e-09,-1.3512207424565032e-07,8.943379733129326e-08,1.60791115737244e-08,3.7374328068699136e-08,-6.351256516458989e-08,4.956438239674101e-08,7.303675896688146e-08,-5.672051517088765e-08,-7.395048619482119e-08
-9.791053220405869e-08,-1.0164995267384525e-08,-4.5084699865002615e-08,-4.0280632120651906e-08,-6.779725909801947e-08,6.704200331546234e-10,8.462854881820467e-08,-3.921840590465558e-08,5.3573602202275054e-08,-9.297610694184583e-08,1.5703451599257003e-07,3.1438612536204536e-08,1.1515102606429021e-07,-1.7216667896344053e-08,1.0696672385084288e-07,1.7559601979126691e-07,-2.128342189230503e-08,2.0806027602210064e-10
-8.827805108884488e-08,1.8970977391166288e-08,-2.4462280401282164e-08,-2.3637402024659794e-08,1.521187434029232e-08,2.4286965470773358e-08,1.2138585972832516e-07,-2.066665824037772e-08,9.071250872894233e-08,-3.45194972402664e-08,1.800751353997736e-07,4.4140281924627714e-08,1.651114286083907e-07,3.326083123979748e-08,1.3994317234911727e-07,2.259194189071544e-07,1.9583010557627194e-08,7.355452640729031e-08
-6.121640625873034e-08,4.59373397839601e-08,2.4319259290665835e-09,-2.4942173785072227e-09,9.409294944817405e-08,4.183030016787349e-08,1.3667374041455352e-07,4.764839729596039e-10,1.1155540158779746e-07,2.7428899848485772e-08,2.0092909839204385e-07,4.925183985523201e-08,1.8194999295857647e-07,7.74262417086448e-08,1.4628580535313084e-07,2.3470397619059176e-07,5.766273897671509e-08,1.347845962264676e-07
-2.7420020152038956e-08,6.610498886963838e-08,2.9291918735852986e-08,1.5234566475285596e-08,1.6228905173660082e-07,4.957604982355072e-08,1.2689863083516322e-07,2.0210018897356345e-08,1.1146095807889281e-07,8.026594819210224e-08,2.1914738363091475e-07,4.374007048377883e-08,1.6807056659010507e-07,1.0635766630852075e-07,1.2993010573209064e-07,2.1358648667577719e-07,8.302052565834378e-08,1.7447411488441176e-07
4.379943175898669e-09,7.580926911373549e-08,4.9021771644441814e-08,2.641744691943679e-08,2.1433149161070982e-07,4.657186462599738e-08,9.382346569852282e-08,3.128711627377781e-08,8.967223947678696e-08,1.1467521451975373e-07,1.8002868159893227e-07,2.7123515570404467e-08,1.3201038360078548e-07,1.1455119684910768e-07,9.939858180286292e-08,1.7602707611588623e-07,8.919513927430279e-08,1.8655870686059872e-07
2.617775998463714e-08,7.316617816755552e-08,5.669570199903963e-08,2.9062427822215027e-08,2.467201256917524e-07,3.515139411555157e-08,4.299181738433878e-08,3.525330971389815e-08,5.076325061350797e-08,1.2646054963085734e-07,1.2707811991889094e-07,1.3473044426720275e-09,8.544329961290447e-08,1.017342808731032e-07,6.531471192228212e-08,1.4007651983436228e-07,7.514268251695805e-08,1.6966686997123575e-07
3.296080437650657e-08,5.8599805456204735e-08,5.00023210140571e-08,2.28433263541295e-08,2.5882877801550024e-07,2.025863812702644e-08,-1.5691701505595005e-08,3.3930918756308924e-08,2.289584443229315e-09,1.1680045345572256e-07,8.173622856403661e-08,-3.0094247520903e-08,3.990930962168642e-08,7.209975677966813e-08,3.722537652407546e-08,1.1706852487566877e-07,4.4422624958360366e-08,1.270616994206219e-07
2.4106617916744956e-08,3.5146575166945334e-08,3.125753184377519e-08,1.089475611755537e-08,2.534671344404639e-07,8.055470244766223e-09,-7.103575772364115e-08,3.105552964972795e-08,-4.4954291259211474e-08,9.139183794100222e-08,4.513424969432004e-08,-6.284502058034197e-08,4.603738839743099e-09,3.311002239826662e-08,2.13360437439142e-08,1.1655471647456236e-07,5.833061802431679e-09,6.67915584458073e-08
6.753950453374768e-09,8.091996526804786e-09,7.24346045160021e-09,-2.4782660480788767e-09,2.3699417777117815e-07,4.633207643277103e-09,-1.1338630749087236e-07,3.080604505702432e-08,-8.110807107911842e-08,5.879606705065553e-08,1.6745843906763642e-08,-9.24279271812914e-08,-1.384088444970615e-08,-6.476990454162737e-09,1.9650628929794468e-08,1.4360602936622072e-07,-2.9491427650573935e-08,5.954958324092761e-10
-1.4457220257324386e-08,-1.623164049295327e-08,-1.4309613243513336e-08,-1.3191560091343525e-08,2.1827655620799256e-07,1.4258587705047653e-08,-1.3548215485484976e-07,3.3988951447890226e-08,-9.872757410686289e-08,2.7995324817644786e-08,-4.077537702587287e-09,-1.152696328219849e-07,-1.208089927871208e-08,-3.9157648642417666e-08,2.9515253636683592e-08,1.972400594005992e-07,-5.231312679465409e-08,-5.850269049191043e-08
-2.9772409046745775e-08,-3.2530050494287833e-08,-2.6489357081655483e-08,-2.022204783588326e-08,2.0645750582081753e-07,3.807661374820136e-08,-1.3488397315066605e-07,4.035836428959783e-08,-9.480161044917116e-08,6.161947132641831e-09,-1.6282439209442545e-08,-1.2962972267954846e-07,1.0528666227680293e-08,-6.09294292104996e-08,4.455940623535508e-08,2.7072230317775904e-07,-6.029346694288505e-08,-9.915077597856233e-08
-3.308841258809471e-08,-3.7780819466791563e-08,-2.5527191905778016e-08,-2.1238409489996274e-08,2.0896816464102745e-07,7.418695294927367e-08,-1.1329989399178037e-07,4.7112680707840324e-08,-7.124162839750245e-08,-2.2188197346694013e-09,-1.958699919346714e-08,-1.3584388138888614e-07,5.376464523252387e-08,-7.173837578658737e-08,5.695616949963877e-08,3.6218201835503237e-07,-5.367363394668702e-08,-1.133092705312688e-07
-2.315134096617076e-08,-3.099845952614904e-08,-1.0725899684604331e-08,-1.9527303366910348e-08,2.305470052723381e-07,1.1867249464423196e-07,-7.450801511844956e-08,5.9442716715834175e-08,-3.3362331166744035e-08,4.615888095459406e-09,-1.3337062221087691e-08,-1.3605091247905783e-07,1.1776946797291438e-07,-7.488646389699332e-08,5.997992390400975e-08,4.6642941299694027e-07,-3.746552094466979e-08,-9.751494758155369e-08
-1.073692028636167e-09,-1.2657235316373672e-08,1.5787656916587268e-08,-1.8183931508029544e-08,2.726862489297305e-07,1.6664891172521957e-07,-2.3846289184579997e-08,6.989200840241374e-08,1.1419029389319799e-08,2.589745279617498e-08,3.3745336712168484e-09,-1.3363538027085583e-07,1.9916857669942377e-07,-7.592977002661068e-08,4.9397346532596013e-08,5.86637342870268e-07,-2.040177848366026e-08,-5.361683956068043e-08
3.0826591652282114e-08,1.5729012401019608e-08,5.0552936622649885e-08,-1.994507514034541e-08,3.33447329255272e-07,2.129365099126889e-07,3.454244044333191e-08,7.708277781320326e-08,6.008895157644148e-08,5.9034166136129356e-08,3.369638815555497e-08,-1.321492256683691e-07,3.005022477620496e-07,-8.079234535788763e-08,2.3844877537978196e-08,7.316938482511247e-07,-1.0862198481981492e-08,1.183956532243658e-08
7.07336502527913e-08,5.2067778169322735e-08,8.897600202832412e-08,-2.784184367050422e-08,4.0797934157704926e-07,2.5336349642070953e-07,9.700795219612484e-08,3.424452653747356e-08,9.761674415504098e-08,1.0052937308058419e-07,8.005156308025048e-08,-1.3410350388220971e-07,4.235305285943191e-07,-9.334159542714609e-08,-1.544520232539391e-08,9.080044687902369e-07,-1.5874163991821076e-08,8.881229954237022e-08
1.1025373029286228e-07,9.388902819468626e-08,1.2740593540703258e-07,-4.452054509710989e-08,4.892336673868333e-07,2.8570575954737276e-07,1.6021999082353774e-07,-4.805443880935556e-08,1.1718614438057248e-07,1.4625389217588127e-07,1.4212318402006474e-07,-1.4052360091955276e-07,5.699672734828694e-07,-1.1486543323380214e-07,-6.564520004920998e-08,1.1187202985837405e-06,-3.876146392993345e-08,1.6557554887298368e-07
1.452023480104539e-07,1.3827253392128842e-07,1.630854322349002e-07,-6.927530763142089e-08,5.687218417559267e-07,3.096918847976333e-07,2.2107225443201346e-07,-1.2885838753838222e-07,1.1774917360627774e-07,1.9155804329700395e-07,2.1749313301138953e-07,-1.5098582786852049e-07,7.330270344122431e-07,-1.4403275988540974e-07,-1.2333629523022064e-07,1.3570989255708734e-06,-7.833851089465512e-08,2.3161355167775694e-07
1.7121641584681112e-07,1.8193790592291193e-07,1.9354385160430395e-07,-9.78648440857939e-08,6.380919285413379e-07,3.2663685875205996e-07,2.7633755058557056e-07,-2.0669733438263208e-07,8.7708474634854e-08,2.3205214822233585e-07,2.97948363240492e-07,-1.6400873826350435e-07,8.967521736163633e-07,-1.7692203679935452e-07,-1.8507443689664923e-07,1.6043847894934403e-06,-1.2975361968398785e-07,2.804066774157931e-07
1.852123127973806e-07,2.2157512825049653e-07,2.1820713539506652e-07,-1.2976759986814837e-07,6.911857100965843e-07,3.387314322698605e-07,3.2336568891861707e-07,-2.9631992991434676e-07,4.5284040425611514e-08,2.6448467482184733e-07,3.7511875734799314e-07,-1.778325957862045e-07,1.0504749728585524e-06,-2.0911731675014078e-07,-2.4801504939492674e-07,1.8374751922772165e-06,-1.8682390669451096e-07,3.1002183221886325e-07
1.8786968945290554e-07,2.541219104324576e-07,2.371116278462933e-07,-1.6164561544628509e-07,7.253961248093895e-07,3.481230425269193e-07,3.600614943420434e-07,-3.7188701994387117e-07,-4.2627646020317716e-09,2.870957544796352e-07,4.415706329050814e-07,-1.9111493461943316e-07,1.1871046201722567e-06,-2.3735639262131785e-07,-3.102031552849883e-07,2.034874353533366e-06,-2.442732976911094e-07,3.2170034462938937e-07
1.801000473712718e-07,2.770848286981936e-07,2.504442102716012e-07,-1.9088175519880132e-07,7.420602640627598e-07,3.565991168983326e-07,3.853541189379402e-07,-4.418871063842854e-07,-5.7061616497903034e-08,2.996303956599653e-07,4.912229775457356e-07,-2.0306310074083832e-07,1.2984975499424875e-06,-2.6001959677208333e-07,-3.702789622495825e-07,2.1804136460565497e-06,-2.9877753069925076e-07,3.1823048758072317e-07
1.6283778665263085e-07,2.8909830695385133e-07,2.5880321037033976e-07,-2.19277131243879e-07,7.457416809892749e-07,3.657254843294208e-07,3.9919986463042366e-07,-5.054800205702187e-07,-9.92775398892645e-08,3.0302728062759293e-07,5.225520567100278e-07,-2.1325230287376898e-07,1.381438806047358e-06,-2.776112261641622e-07,-4.272006666723157e-07,2.2689199455748802e-06,-3.491295071464692e-07,3.028026176665196e-07
1.3673594553468685e-07,2.900661308537847e-07,2.64639591607392e-07,-2.478470216368739e-07,7.423165601444653e-07,3.7644301068369976e-07,4.024355270146523e-07,-5.596140342450845e-07,-1.3919706028185279e-07,2.989641465344259e-07,5.369206593569473e-07,-2.2135817362101852e-07,1.4370527170488305e-06,-2.9203082113901295e-07,-4.802719430832417e-07,2.306594905571827e-06,-3.9578208298053963e-07,2.78554656263246e-07
1.0319534469750299e-07,2.8086048646970005e-07,2.684091304880115e-07,-2.773650463260229e-07,7.369999716849815e-07,3.888073524132181e-07,3.953442746728873e-07,-6.107252672153708e-07,-1.754776861132119e-07,2.897601100485461e-07,5.3762761994018e-07,-2.2688037426217704e-07,1.4684971139765477e-06,-3.050235430179127e-07,-5.29126916776766e-07,2.3055638223500574e-06,-4.397902815896049e-07,2.488427779568714e-07
6.449465231075342e-08,2.63177575613205e-07,2.7073231355645095e-07,-3.085793793352158e-07,7.334517525883526e-07,4.0243482983416194e-07,3.796122752497185e-07,-6.554910814697628e-07,-2.0662203124355677e-07,2.782628696884094e-07,5.286819818384337e-07,-2.2911782667429797e-07,1.4840210675208486e-06,-3.1744278999422866e-07,-5.736942623380129e-07,2.2799496704019086e-06,-4.819010234971137e-07,2.1730133633028856e-07
2.2374882265126642e-08,2.3936552445209025e-07,2.7247621391376484e-07,-3.408800604380602e-07,7.335956383524158e-07,4.1670362043320025e-07,3.574504157114083e-07,-6.956740472155487e-07,-2.370967945726757e-07,2.671383114703932e-07,5.139708107875063e-07,-2.276569679393301e-07,1.493122645665685e-06,-3.290061239064081e-07,-6.143553108941332e-07,2.2429365863057155e-06,-5.217800356629871e-07,1.8721761609650623e-07
-1.9788494997312034e-08,2.1200341371683656e-07,2.734173040585009e-07,-3.7326519539001436e-07,7.378232230252058e-07,4.3077863428078874e-07,3.30298318847624e-07,-7.29873918065673e-07,-2.6603169068444354e-07,2.5823450137979107e-07,4.957766203011433e-07,-2.2277325977009794e-07,1.5014466150399805e-06,-3.4013051507319146e-07,-6.516727427200771e-07,2.2060043227288836e-06,-5.595541386061808e-07,1.610455441258238e-07
-5.8003977686806174e-08,1.837600929075722e-07,2.734796962520465e-07,-4.048906523086336e-07,7.457452672805133e-07,4.440688305732411e-07,2.9992592313238923e-07,-7.637803319228297e-07,-2.9522173498555154e-07,2.525456303054723e-07,4.7545430936087246e-07,-2.153817475182849e-07,1.5120945050442276e-06,-3.5152471006728253e-07,-6.857549260813874e-07,2.1744719350156134e-06,-5.951394168285916e-07,1.40218229823354e-07
-8.790625097283222e-08,1.5714166349088327e-07,2.719209192521769e-07,-4.3603343158217016e-07,7.568221775922107e-07,4.5636838337280743e-07,2.6794514314126786e-07,-7.986210350828576e-07,-3.2632921264484876e-07,2.5007470038515516e-07,4.5410851946167945e-07,-2.069111901662933e-07,1.529375111467609e-06,-3.644592307352137e-07,-7.159980845044679e-07,2.152688166665551e-06,-6.287084601335647e-07,1.2483010008730197e-07
-1.065146349232001e-07,1.3381979062648134e-07,2.686442017033603e-07,-4.672438260410199e-07,7.702718766454404e-07,4.6735070604713366e-07,2.3551615563207256e-07,-8.339420046766051e-07,-3.58352920558718e-07,2.4947348013068527e-07,4.334106875862958e-07,-1.9919412572197566e-07,1.5553196047405877e-06,-3.8110295239853806e-07,-7.412576380228983e-07,2.144648700293041e-06,-6.615231011824425e-07,1.1350244133589873e-07
-1.1371753093524103e-07,1.1431421807744552e-07,2.6237639014545015e-07,-4.997787721706638e-07,7.849246148348164e-07,4.764521602963069e-07,2.0368643774372017e-07,-8.712904262180861e-07,-3.8983813482513027e-07,2.481680455534396e-07,4.165275916981337e-07,-1.9411432584754022e-07,1.5904803859600032e-06,-4.035849650420575e-07,-7.601967696503663e-07,2.151796279179239e-06,-6.948006824138502e-07,1.0388153925718599e-07
-1.102898610897598e-07,9.846861664904446e-08,2.515107799558191e-07,-5.337488691268577e-07,7.993736607493814e-07,4.830238104109629e-07,1.7346900963541138e-07,-9.095124639895792e-07,-4.1853841747758165e-07,2.428364289632731e-07,4.057075729675409e-07,-1.9326641450673254e-07,1.633929483426369e-06,-4.332797189771912e-07,-7.723064490071804e-07,2.1739759681789377e-06,-7.291158126470497e-07,9.322931550395842e-08
-1.0022412321667808e-07,8.586176845969818e-08,2.3558737277542452e-07,-5.687134836255088e-07,8.118933988440546e-07,4.860501134929358e-07,1.4557089894416965e-07,-9.490289823986804e-07,-4.4311583483158676e-07,2.2994127344090873e-07,4.016836247796348e-07,-1.9794769235141146e-07,1.6834631486113539e-06,-4.7045224548633336e-07,-7.792500729978838e-07,2.20733105150594e-06,-7.641521575036746e-07,7.90283947924766e-08
-8.854615229663385e-08,7.582365417892583e-08,2.1520858337808208e-07,-6.036999440874399e-07,8.204599305574283e-07,4.841217129544249e-07,1.1998794482694086e-07,-9.911231762043102e-07,-4.641794405646566e-07,2.068709619502934e-07,4.0374667629284355e-07,-2.088034702267664e-07,1.7364301530176679e-06,-5.142069433372842e-07,-7.852413838358009e-07,2.242457814419043e-06,-7.985461143247785e-07,6.016094209724897e-08
-7.991906879085788e-08,6.785817858238521e-08,1.9197045370845734e-07,-6.368855672697376e-07,8.234281218161394e-07,4.7612348366541726e-07,9.657537105139253e-08,-1.0378065830350114e-06,-4.8306872186963e-07,1.7341404248565842e-07,4.08791832239179e-07,-2.2517828859618683e-07,1.7880716100033822e-06,-5.619231628760716e-07,-7.942085272639322e-07,2.272101031943424e-06,-8.297882232077889e-07,3.7729120577708014e-08
-7.766889345119993e-08,6.165158795575705e-08,1.681930580589223e-07,-6.679556997152031e-07,8.199587397901862e-07,4.614790943982804e-07,7.510035522322515e-08,-1.0875950092262692e-06,-5.009432400914573e-07,1.3218945663971042e-07,4.131101662614006e-07,-2.4507805495648337e-07,1.8329038482686054e-06,-6.104101262425955e-07,-8.094445483701147e-07,2.2919556297543613e-06,-8.556042184255555e-07,1.4269116202517323e-08
-8.307242447530245e-08,5.652186473194681e-08,1.4565921683151942e-07,-6.976227143322157e-07,8.095795494767003e-07,4.395608909223958e-07,5.4443909961124945e-08,-1.1417981512768815e-06,-5.197277203259785e-07,8.78116013312056e-08,4.134617012196064e-07,-2.6576096584925045e-07,1.8669045363424232e-06,-6.571632101572017e-07,-8.321856432908908e-07,2.299466363939621e-06,-8.749570427837214e-07,-7.752479467447989e-09
-9.601804774970314e-08,5.122715226359613e-08,1.2371042319383376e-07,-7.265325864647163e-07,7.919433198678561e-07,4.0966268709960116e-07,3.289158161277867e-08,-1.2015497135279049e-06,-5.427530595821978e-07,4.577398487116239e-08,4.0773428856030113e-07,-2.8434728162786917e-07,1.8868786587068795e-06,-7.00305089061156e-07,-8.608598745039757e-07,2.295562869349359e-06,-8.876859241173881e-07,-2.6724682689860644e-08
-1.1515598886738046e-07,4.451141035495757e-08,1.0110201961609451e-07,-7.550517663309434e-07,7.671652132480925e-07,3.7159425959482994e-07,9.038375793882598e-09,-1.2658756938132578e-06,-5.688682376767491e-07,1.1046723856397221e-08,3.941161727035844e-07,-2.986065336277922e-07,1.8915262841651963e-06,-7.387877063099728e-07,-8.925862930338786e-07,2.2819875726387528e-06,-8.942858708505348e-07,-4.226209858163894e-08
-1.3874005465023429e-07,3.544930483655751e-08,8.050700235816947e-08,-7.829152141127502e-07,7.356975543284203e-07,3.255916166189974e-07,-1.8010636992811994e-08,-1.3341160734009886e-06,-5.966983550128234e-07,-1.3427887016183775e-08,3.7312898000586296e-07,-3.077097401880051e-07,1.8811315697881543e-06,-7.729749664943936e-07,-9.246331813848204e-07,2.259752904187394e-06,-8.961076710878023e-07,-5.5396539306539025e-08
-1.64761168019298e-07,2.3180439077049853e-08,5.981086883133882e-08,-8.097008239459466e-07,6.978660820914013e-07,2.7209512364171433e-07,-4.94740551294724e-08,-1.403289857907521e-06,-6.253491847443038e-07,-2.693886858089125e-08,3.456699591452352e-07,-3.125498254889432e-07,1.8591106494692996e-06,-8.043707595909316e-07,-9.55205975197502e-07,2.2285590622039165e-06,-8.949346729561516e-07,-6.771574582657233e-08
-1.9120932717504685e-07,7.054495650638671e-09,3.863537883030325e-08,-8.330526123562066e-07,6.541633102721184e-07,2.1232835326204886e-07,-8.574638086580265e-08,-1.4707154572206426e-06,-6.525631767258212e-07,-2.9752575436297654e-08,3.123952433676518e-07,-3.143970030070594e-07,1.8259958319713113e-06,-8.345187675343691e-07,-9.82387688292054e-07,2.187945195409697e-06,-8.919245251966639e-07,-7.983452599123295e-08
-2.1588621701563173e-07,-1.2942437348956671e-08,1.7476738905032318e-08,-8.536038427483375e-07,6.057164383933063e-07,1.4871191483032217e-07,-1.2538255401609334e-07,-1.5311116081254149e-06,-6.762268748492637e-07,-2.231604491136727e-08,2.7494303835247556e-07,-3.1389381162426494e-07,1.7833848144387194e-06,-8.641052829630558e-07,-1.0041868276349933e-06,2.1364621290837385e-06,-8.87428679016301e-07,-9.085198653797339e-08
-2.3682422164892818e-07,-3.639377261659715e-08,-5.041007189719132e-09,-8.724043296790491e-07,5.538414424387695e-07,8.408126331552578e-08,-1.669455514786542e-07,-1.581131403979523e-06,-6.94444578823325e-07,-5.6832388065894816e-09,2.3478005516248975e-07,-3.1109867598122937e-07,1.7364540041528492e-06,-8.936084208185061e-07,-1.0183538039117307e-06,2.075555958446839e-06,-8.816520476701073e-07,-9.871956665915171e-08
-2.5315207773516227e-07,-6.281131173549523e-08,-2.7269162146495675e-08,-8.906526979622895e-07,4.996027112625572e-07,2.1008340597647562e-08,-2.0932484305832697e-07,-1.6198102584531362e-06,-7.058066939863504e-07,1.8394827628296226e-08,1.937587353423782e-07,-3.0529894460268564e-07,1.6905819892026666e-06,-9.23225235843617e-07,-1.0227082131621998e-06,2.006945312856466e-06,-8.74600446407007e-07,-1.0043562070637244e-07
-2.6468190488673003e-07,-9.125506073840998e-08,-4.8095411111503255e-08,-9.102504274163893e-07,4.4440569061172034e-07,-3.765242189012942e-08,-2.5072599563374174e-07,-1.6464663263591761e-06,-7.0833384288743e-07,4.8208863764825976e-08,1.5472024821272126e-07,-2.9513480756166606e-07,1.6509677570264958e-06,-9.527868434798846e-07,-1.0158661907130144e-06,1.9340018176309427e-06,-8.657129968792788e-07,-9.256158881868431e-08
-2.714632041892306e-07,-1.2010459949947678e-07,-6.650396464772525e-08,-9.309237686388727e-07,3.9036680296729306e-07,-8.888427585131675e-08,-2.889173365028592e-07,-1.661041019627973e-06,-7.006745722212745e-07,8.227562064612487e-08,1.2121422935186649e-07,-2.794422338543012e-07,1.6223816763396762e-06,-9.804209448008342e-07,-9.980084361130333e-07,1.8617269735359345e-06,-8.545267950420346e-07,-7.321351417557219e-08
-2.7448382432017126e-07,-1.4800742602014958e-07,-8.152679018391435e-08,-9.512866549746047e-07,3.3945094628182324e-07,-1.3092919340403785e-07,-3.225329974334213e-07,-1.6643397042233972e-06,-6.813545540022663e-07,1.1877976462633258e-07,9.594665291209131e-08,-2.5842576003719617e-07,1.6042703242885161e-06,-1.0042050008545419e-06,-9.726605042934155e-07,1.7914741621960591e-06,-8.414603984226876e-07,-4.4180270478971975e-08
-2.763283971671479e-07,-1.7480653326341537e-07,-9.19024685809096e-08,-9.690584014116266e-07,2.928501709091613e-07,-1.6385792958583476e-07,-3.5200067209999434e-07,-1.658019332506532e-06,-6.52490798460812e-07,1.5558602013257023e-07,7.953275975918968e-08,-2.338607827288998e-07,1.592124090336208e-06,-1.022518260947389e-06,-9.463380427317647e-07,1.7215426641890024e-06,-8.272643958600873e-07,-1.0803227718793056e-08
-2.800984567319261e-07,-2.0153788248729603e-07,-9.6702966231892e-08,-9.811044664726623e-07,2.5159168803403963e-07,-1.885368873121137e-07,-3.781735997473934e-07,-1.6431235939671188e-06,-6.168735204779814e-07,1.9063115496559565e-07,7.153184505746751e-08,-2.0864471929923785e-07,1.581805320062945e-06,-1.032928842249591e-06,-9.26427084993494e-07,1.6490893670078809e-06,-8.122449293297396e-07,1.993470934618184e-08
-2.878858471612394e-07,-2.2864494468024274e-07,-9.536352821592785e-08,-9.816959648074067e-07,2.16789110224938e-07,-2.0613655942816698e-07,-4.016263321789285e-07,-1.6202286951577643e-06,-5.782247872943083e-07,2.2124854037950046e-07,6.960623745820301e-08,-1.8602304938368924e-07,1.5678086054610091e-06,-1.0355093688736338e-06,-9.194709680151969e-07,1.5731342898637686e-06,-7.969196128218341e-07,4.1040114194691653e-08
-3.0054419170287045e-07,-2.567321812152522e-07,-8.91507818743285e-08,-9.695324805077457e-07,1.8857164111688663e-07,-2.188651973264278e-07,-4.236412925962241e-07,-1.5897806630299425e-06,-5.399820903552904e-07,2.4295794925896854e-07,7.029356864113888e-08,-1.6944438757333732e-07,1.5462113852164879e-06,-1.0335850399722115e-06,-9.286122594997572e-07,1.4893359789465972e-06,-7.829538960126837e-07,4.671174168832707e-08
-3.178259217197344e-07,-2.8669825725935934e-07,-8.219552034085673e-08,-9.469648582196425e-07,1.6541947258734974e-07,-2.2969575064012952e-07,-4.4600209142985833e-07,-1.5557216227481902e-06,-5.132901646992868e-07,2.4980912206351315e-07,7.09126763089079e-08,-1.6171461172076086e-07,1.5201323467728814e-06,-1.0312788717736916e-06,-9.516540949153396e-07,1.4053164323131216e-06,-7.726107114671305e-07,3.409763328532454e-08
-3.3817131537736246e-07,-3.1843215721940447e-07,-7.852750484917515e-08,-9.161924054189101e-07,1.4503010083008944e-07,-2.4069635191861367e-07,-4.688951941574828e-07,-1.5187591645859048e-06,-4.988175254092334e-07,2.3632582219227493e-07,7.105452826746209e-08,-1.638206986736384e-07,1.4984618387998869e-06,-1.0325874809642648e-06,-9.812744623045216e-07,1.330570448873166e-06,-7.676468884208675e-07,4.580814822526372e-09
-3.590534889206353e-07,-3.506578902912366e-07,-8.16383571735182e-08,-8.819839498327918e-07,1.251795541842607e-07,-2.523266430321812e-07,-4.900713792091337e-07,-1.47978256358095e-06,-4.946200584966271e-07,1.9931023712178265e-07,7.35040992634073e-08,-1.7518017400836096e-07,1.4864103417684008e-06,-1.0400969063430591e-06,-1.0081003042960776e-06,1.2740589095282141e-06,-7.691298942751312e-07,-3.698316040399319e-08
-3.7844656584052597e-07,-3.8176052586084747e-07,-9.49055670423182e-08,-8.461761588856634e-07,1.0362545665652157e-07,-2.6426665771349166e-07,-5.062356667239111e-07,-1.4412038846726839e-06,-5.005678225949571e-07,1.3894531895472468e-07,8.208303623336415e-08,-1.941952555925324e-07,1.4961028378941347e-06,-1.0538731480479516e-06,-1.0240785511462232e-06,1.2438784730621788e-06,-7.772234793916742e-07,-8.419623281402647e-08
-3.956101510036633e-07,-4.1059768593866603e-07,-1.1950829309157153e-07,-8.096936683040684e-07,7.840099444750669e-08,-2.756947850723133e-07,-5.145508446065759e-07,-1.4044918237927089e-06,-5.123683171900193e-07,5.965834532531237e-08,1.0067911047673833e-07,-2.1819052591462959e-07,1.533692064061514e-06,-1.0713655946433164e-06,-1.0237096247927907e-06,1.2426994899328905e-06,-7.901677477925982e-07,-1.305148405985697e-07
-4.1015775334410345e-07,-4.360465902421261e-07,-1.5529116913718412e-07,-7.732984392218855e-07,4.898975805016726e-08,-2.845637401652884e-07,-5.11542457170645e-07,-1.370032067847445e-06,-5.265558316302839e-07,-2.9846983405159344e-08,1.3221773690694872e-07,-2.433715890785375e-07,1.5990538280182335e-06,-1.0881144232352968e-06,-1.0042905482046263e-06,1.2705661658812435e-06,-8.039815068986773e-07,-1.7016613478926265e-07
-4.2100276976580006e-07,-4.568551943048841e-07,-1.9989392125349447e-07,-7.326568813722854e-07,1.695933649800618e-08,-2.876927956123606e-07,-4.937698554916684e-07,-1.34456424163269e-06,-5.377618446184388e-07,-1.1809791592436805e-07,1.7763154197088744e-07,-2.654706633218981e-07,1.6906350281640626e-06,-1.0988029323315732e-06,-9.663123841608837e-07,1.324412332660221e-06,-8.137907734201434e-07,-1.989180408263013e-07
-4.262266784822599e-07,-4.716550928104694e-07,-2.492381516743972e-07,-6.832884917907566e-07,-1.4505737361636571e-08,-2.818189127814797e-07,-4.5892790351694194e-07,-1.3150178424469884e-06,-5.415671533582055e-07,-1.9299771234101457e-07,2.3730537692314223e-07,-2.802800603702432e-07,1.8031551531779502e-06,-1.0993311404857214e-06,-9.130294492978697e-07,1.3986383718665973e-06,-8.153578615488333e-07,-2.1396713678326051e-07
-4.232204746861257e-07,-4.790939305797969e-07,-2.886704007500377e-07,-6.226632713040841e-07,-4.124987372732352e-08,-2.642957230021864e-07,-4.0731893418979274e-07,-1.2759456623004095e-06,-5.323845193811192e-07,-2.4377947673492695e-07,3.1015008117786065e-07,-2.8412763293693705e-07,1.92850777880884e-06,-1.08740294142794e-06,-8.488704716789296e-07,1.4865851838001408e-06,-8.056886141381124e-07,-2.1308893310046627e-07
-4.0906525835634004e-07,-4.77902049483682e-07,-3.2300315890486575e-07,-5.496677253118705e-07,-5.903326626169444e-08,-2.337057958648932e-07,-3.3985289936781034e-07,-1.2254935595057987e-06,-5.085724242516619e-07,-2.6319174052899333e-07,3.9254927005384017e-07,-2.744587058468051e-07,2.052645118613176e-06,-1.0612659025595683e-06,-7.7816249551198e-07,1.5819984449443987e-06,-7.833780631283686e-07,-1.9440972315993073e-07
-3.818984798419962e-07,-4.674112670792674e-07,-3.5827218103029754e-07,-4.646996513132154e-07,-6.515360656892077e-08,-1.9094773971948768e-07,-2.5963361043923335e-07,-1.1572613610574738e-06,-4.7156069101138644e-07,-2.4958151857759403e-07,4.7499838164638107e-07,-2.504902041776944e-07,2.1767551966592197e-06,-1.01985287609118e-06,-7.049136482911955e-07,1.678076934125634e-06,-7.487512563811606e-07,-1.569749477600108e-07
-3.422557644319743e-07,-4.4840051024837385e-07,-3.950937482590014e-07,-3.698904545903911e-07,-5.967170343167286e-08,-1.3945669082546528e-07,-1.7215950747300605e-07,-1.0721192507466011e-06,-4.2499359369108784e-07,-2.0745567062435095e-07,5.577703778124359e-07,-2.1343181559602018e-07,2.3070785301835484e-06,-9.622321662874632e-07,-6.324602207806231e-07,1.7661932492894372e-06,-7.033187902185695e-07,-1.013366307211759e-07
-2.932805403282783e-07,-4.2304325604687365e-07,-4.372381247527358e-07,-2.652638433910846e-07,-4.514384261775675e-08,-8.395686867141828e-08,-8.313958443455523e-08,-9.722955168415732e-07,-3.7180006603317257e-07,-1.4648094444210901e-07,6.39751587962615e-07,-1.6615206007502946e-07,2.4373493484567738e-06,-8.879348272019393e-07,-5.631584679109823e-07,1.8413130731475099e-06,-6.494563537411071e-07,-3.040804598876466e-08
-2.4033308075661434e-07,-3.9389775129974267e-07,-4.799680121316432e-07,-1.5775369142316711e-07,-2.555042662438909e-08,-2.9080977386242038e-08,1.8426055920159919e-09,-8.610131283113666e-07,-3.1716643036617774e-07,-7.988144715389043e-08,7.19916861758414e-07,-1.1287733167148976e-07,2.5649449775484426e-06,-7.989476057459626e-07,-4.951128495538986e-07,1.900153023445641e-06,-5.909327120316173e-07,4.9413401167886634e-08
-1.9044814617175225e-07,-3.6476968942825185e-07,-5.136908914297678e-07,-5.404317131908069e-08,-5.107930782481075e-09,2.1629769039511835e-08,7.8239811786799e-08,-7.432353136849094e-07,-2.6545610200534186e-07,-2.1791618765056495e-08,7.991109718211413e-07,-5.876014152760773e-08,2.6829095973842647e-06,-7.002165905001697e-07,-4.331401824533891e-07,1.941529546364283e-06,-5.328391180628778e-07,1.2854886656761577e-07
-1.508687142722964e-07,-3.3907827734706035e-07,-5.28089057673311e-07,4.055003843119081e-08,1.3260499748892862e-08,6.686917566179183e-08,1.437108209341052e-07,-6.299493991725573e-07,-2.1886093544394248e-07,1.648663434453227e-08,8.746666416175862e-07,-8.601635962682339e-09,2.781178201840132e-06,-5.984838591868362e-07,-3.764505273116009e-07,1.971150050049785e-06,-4.801042603721314e-07,1.967868526889893e-07
-1.2665514922041928e-07,-3.1842379187928976e-07,-5.170921235602387e-07,1.215066869594731e-07,2.9045811178455135e-08,1.0798069022706349e-07,1.9942866037588642e-07,-5.265380476389457e-07,-1.76394766793555e-07,2.9813828403024354e-08,9.448470140669131e-07,3.440930347826568e-08,2.855459369659512e-06,-5.005990835870187e-07,-3.226316489896406e-07,1.994342551283885e-06,-4.3598085101091914e-07,2.4642346022359003e-07
-1.1903958221403078e-07,-3.026696487338403e-07,-4.746512082368693e-07,1.890849775056103e-07,4.370527242682341e-08,1.4769145808921516e-07,2.48054282255727e-07,-4.3569500807273844e-07,-1.3202898134000314e-07,2.00428038342524e-08,1.0058435124834966e-06,6.91927224041313e-08,2.9054515396519503e-06,-4.1162884815634983e-07,-2.726757533810618e-07,2.015882956598116e-06,-4.0128800583856413e-07,2.744505904485572e-07
-1.2488420667998974e-07,-2.900141898786311e-07,-4.017080224459054e-07,2.4653352964485567e-07,5.950235801569176e-08,1.8868553996549325e-07,2.929189413118566e-07,-3.580969628231284e-07,-8.742640220227065e-08,-5.150788079949074e-09,1.065200700625442e-06,9.69787548884843e-08,2.932021942455044e-06,-3.3360505219784697e-07,-2.2651354158962087e-07,2.037815167594151e-06,-3.738994153669533e-07,2.83513793307712e-07
-1.362381637567166e-07,-2.7734341206673805e-07,-3.1308513016117e-07,2.9863197784392433e-07,7.899375305549358e-08,2.3335442988891055e-07,3.3800200108231036e-07,-2.892792981785625e-07,-4.191490658149396e-08,-3.445511315734178e-08,1.119244783127093e-06,1.2089768109774721e-07,2.9359286920343603e-06,-2.652994151588887e-07,-1.8517167285725207e-07,2.0595907725649516e-06,-3.4904748216666675e-07,2.80979151776154e-07
-1.430956394900046e-07,-2.607818328849208e-07,-2.1527774634792676e-07,3.509150746876367e-07,1.0451360703292413e-07,2.8346527547945034e-07,3.8797405044091117e-07,-2.3232065241904736e-07,6.1103007934098816e-09,-5.651695583155437e-08,1.1664636784765589e-06,1.4469837410127062e-07,2.9172788765446566e-06,-2.03389881123949e-07,-1.4902335206945657e-07,2.0798654138415874e-06,-3.212611893341977e-07,2.7588291101211864e-07
-1.3612129342840407e-07,-2.3732466170984689e-07,-1.2542009713224276e-07,4.0794935622056e-07,1.3695316229811166e-07,3.390183164917838e-07,4.445417217044258e-07,-1.8019386491515998e-07,5.633382148008048e-08,-6.342653479491417e-08,1.2069307800189465e-06,1.7110415329815652e-07,2.8858976110969875e-06,-1.4431780287961442e-07,-1.1782311173229782e-07,2.097575264491179e-06,-2.866294647334783e-07,2.757516774827445e-07
-1.0955380262788938e-07,-2.0578295646922302e-07,-4.612006514943421e-08,4.7216543075347775e-07,1.7508536664335367e-07,3.978926498562758e-07,5.064517037446743e-07,-1.2455180450787976e-07,1.0845573020795183e-07,-5.156582852693685e-08,1.2376960957892407e-06,2.0126817165418116e-07,2.8613282778738373e-06,-8.548898600759596e-08,-8.816720125946365e-08,2.11303898043489e-06,-2.4377135696709903e-07,2.8517950745427513e-07
-6.244398007992688e-08,-1.6688739550242994e-07,2.5034222553241914e-08,5.431673632410669e-07,2.1623953150973742e-07,4.5680114390153404e-07,5.706263048832387e-07,-6.824739143131686e-08,1.6043808427360375e-07,-2.24482218985263e-08,1.2477062769752011e-06,2.3497321256536643e-07,2.8262929110069065e-06,-2.5583854339746344e-08,-5.765603676281031e-08,2.1275280825415636e-06,-1.9402279842410519e-07,3.0546017366770027e-07
2.032680591281096e-09,-1.228289146525242e-07,5.405647175723128e-08,6.184680445134849e-07,2.571378346732186e-07,5.120835531356617e-07,6.331519891770802e-07,-1.113710930768644e-08,2.0835398070913495e-07,1.8530508848052203e-08,1.2441739500423784e-06,2.7063396097810023e-07,2.7910049205998053e-06,3.4875779847887385e-08,-2.5606540724161313e-08,2.1426105484671723e-06,-1.4155320570938835e-07,3.343078438907138e-07
7.697719339565272e-08,-7.69587407700043e-08,5.491406533427642e-08,6.938558637209909e-07,2.943077079416878e-07,5.601707750422321e-07,6.897425049576936e-07,4.7843081635552103e-08,2.468377021076473e-07,6.416058204187763e-08,1.2338443461568066e-06,3.0552477070864136e-07,2.7773845996046032e-06,9.355565586347948e-08,7.167536906869458e-09,2.158476514632532e-06,-9.251992715998398e-08,3.662546429292998e-07
1.530699556806332e-07,-3.325503153664926e-08,3.563180009872131e-08,7.639059291834597e-07,3.2480455737272336e-07,5.98655279325231e-07,7.369789867353365e-07,1.0146039942010746e-07,2.7365332349859854e-07,1.0659338052175904e-07,1.2324788075216033e-06,3.3653608837836964e-07,2.7704385917339427e-06,1.4713320640504205e-07,3.76143008802529e-08,2.173665413263236e-06,-5.3114795026837716e-08,3.93829888466429e-07
2.2016268878355256e-07,4.699626138605403e-09,7.140136338437043e-10,8.237321997132042e-07,3.4702481606371455e-07,6.271469683743894e-07,7.731720788549074e-07,1.4537493387665013e-07,2.870289278847349e-07,1.3926523414560642e-07,1.2362003757023787e-06,3.6074374552610653e-07,2.7538627270059275e-06,1.9274181542054755e-07,6.229719687687182e-08,2.185701022067136e-06,-2.7897027942190776e-08,4.085091286651824e-07
2.685782761475074e-07,3.404580776848578e-08,-3.705857799327363e-08,8.634806217875314e-07,3.6079546747000426e-07,6.470496240404883e-07,7.973913640600303e-07,1.7925675133108713e-07,2.87658939224814e-07,1.562366689919424e-07,1.2317890566926954e-06,3.7571663245603274e-07,2.7262581557603954e-06,2.2858558085449776e-07,7.761852859423383e-08,2.189204697634303e-06,-1.873264393058383e-08,4.016282115241702e-07
2.8998840340909144e-07,5.2737694883298485e-08,-5.609064029256671e-08,8.869644292377491e-07,3.674878956508145e-07,6.614918000141673e-07,8.099941623537459e-07,1.9880972580526228e-07,2.7940197196669046e-07,1.551198364655017e-07,1.2223433453167557e-06,3.800450357136573e-07,2.6392584651561826e-06,2.5423330345084105e-07,7.300129617585317e-08,2.1770493652832795e-06,-2.3762774446672736e-08,3.66252512727038e-07
2.7914305395276697e-07,6.030813646916912e-08,-6.824787971576717e-08,8.904750257673492e-07,3.7071341246534344e-07,6.758095762354753e-07,8.132453264509832e-07,2.0275863394624048e-07,2.689388125922319e-07,1.3584768009357982e-07,1.1760289514650109e-06,3.7359954696771117e-07,2.4793206792827018e-06,2.712013120309356e-07,5.401840333025622e-08,2.1363843571203082e-06,-3.735597565922907e-08,2.9929949213725687e-07
2.3718273543578512e-07,5.823689791088572e-08,-6.266278816339798e-08,8.76292727737384e-07,3.761675262582564e-07,6.965597923212712e-07,8.109171075229307e-07,1.9437481137284738e-07,2.6318226020119986e-07,1.0285803188688406e-07,1.1173586786484451e-06,3.5706414280490596e-07,2.3899384664798706e-06,2.8132528764712756e-07,1.6967324488738917e-08,2.065910839607588e-06,-5.205300269838809e-08,2.0271629743069142e-07
1.713678359633344e-07,4.917305553612159e-08,4.570660926078688e-08,8.48656465383472e-07,3.8986877279387906e-07,7.286845168180914e-07,8.059159047280811e-07,1.7812700300585718e-07,2.720070751938228e-07,6.411741451878985e-08,1.1303672207528248e-06,3.311447209469098e-07,2.3397312952725866e-06,2.846164153798329e-07,-4.440064690882841e-08,1.9539735971933506e-06,-6.101224141524794e-08,8.41387801400519e-08
9.438751581875676e-08,3.638729189650453e-08,7.879234574632662e-08,8.085175002750165e-07,4.1647170731554213e-07,7.735380523647205e-07,7.99421291603145e-07,1.5450113083679797e-07,2.9484439013546873e-07,2.9058976928207094e-08,1.1553058980840987e-06,2.967771872493825e-07,2.300278932024357e-06,2.796815983421953e-07,-1.2927775993507125e-07,1.7994906779881049e-06,-5.925675141009402e-08,-4.289389008834433e-08
2.3051303636666226e-08,2.4186841514759745e-08,1.2131250896688566e-07,7.641453981335874e-07,4.5870626440184493e-07,8.290175806793189e-07,7.920756860057324e-07,1.261465968930194e-07,3.303662923564339e-07,8.414780400424009e-09,1.1536051548118295e-06,2.560250066519275e-07,2.2644361954119574e-06,2.651665656924869e-07,-2.366543624883931e-07,1.6143689308457966e-06,-4.447098505306865e-08,-1.610865198574298e-07
-2.6627323371009905e-08,1.7541966205854544e-08,2.081314593081746e-07,7.177061888603263e-07,5.167479257016451e-07,8.901976811399965e-07,7.849292841002593e-07,9.495225203967889e-08,3.7459020724832034e-07,1.0568887737804033e-08,1.159264868428653e-06,2.1208608585535079e-07,2.2091078583427808e-06,2.407407594786722e-07,-3.581128191075272e-07,1.4141840598780215e-06,-1.7997782714506692e-08,-2.5442912244730553e-07
-4.5347026258910844e-08,1.9992088228960006e-08,3.189380715571337e-07,6.745501117183966e-07,5.872568458159514e-07,9.500375378268501e-07,7.77867140518742e-07,7.77572089356919e-08,4.200444006157931e-07,3.876545855890872e-08,1.0637626458603625e-06,1.6833373431090494e-07,2.0900535050902386e-06,2.0802040190299933e-07,-4.819386383644057e-07,1.221183950537856e-06,1.5606906686656078e-08,-3.131017160293808e-07
-3.438995258543695e-08,3.189374239610249e-08,4.3654966071319365e-07,6.376874905045657e-07,6.637992152650908e-07,1.0014158532016812e-06,7.699535576867722e-07,6.904749523649966e-08,4.6080085828951886e-07,8.946797307453199e-08,9.644269175701753e-07,1.271442556561916e-07,1.986367265670227e-06,1.7105050029475164e-07,-5.955228543202182e-07,1.0511958809280195e-06,5.1040030494145074e-08,-3.3544621346954396e-07
-3.927063694930814e-09,5.064084792788482e-08,5.446578767057359e-07,6.043372499441654e-07,7.391201630698432e-07,1.0397708367543263e-06,7.60154752759027e-07,6.151308251228313e-08,4.915705850371719e-07,1.5339292820192467e-07,9.172283117453119e-07,8.864341873145894e-08,1.8913245309525189e-06,1.356506839513934e-07,-6.934698375528e-07,9.090396468868334e-07,8.444257879776724e-08,-3.2734397575608944e-07
3.161064647161481e-08,7.193003692980814e-08,6.138810000346906e-07,5.717998201860112e-07,8.075305813960033e-07,1.0642541130457504e-06,7.474953579058317e-07,5.040470031234311e-08,5.117327946397726e-07,2.170807873920126e-07,8.70044707174024e-07,4.9676793727134605e-08,1.8042227184381247e-06,1.0672347947620437e-07,-7.732744524252791e-07,7.85891457289946e-07,1.1379250604224793e-07,-3.000541131957798e-07
5.865958103201603e-08,9.130021096243795e-08,6.550178799416584e-07,5.374772582673233e-07,8.664910308418537e-07,1.077539018113381e-06,7.32205976544317e-07,3.253973683808753e-08,5.209263509777252e-07,2.6603276045208056e-07,8.383759015017576e-07,4.509821365572503e-09,1.730322772484459e-06,8.638965095106995e-08,-8.368450588089804e-07,6.619556580061246e-07,1.3875326466167194e-07,-2.6643857574283875e-07
6.890406128282462e-08,1.0616236323849127e-07,6.639142203486566e-07,5.001157400286607e-07,9.176057628720702e-07,1.0853489702909797e-06,7.169436713384481e-07,3.6501817924653686e-09,5.231679930554352e-07,2.893907823024144e-07,7.977833087200956e-07,-5.2568637491980114e-08,1.6446636502828878e-06,7.391515244236079e-08,-8.900853902471791e-07,5.163490772668325e-07,1.6055038203230308e-07,-2.3667306549554452e-07
6.148060607357036e-08,1.1744093875302101e-07,6.613331443288672e-07,4.6078216477059054e-07,9.661795428966056e-07,1.0948878262941817e-06,7.079039702837779e-07,-2.934341335081364e-08,5.240014952036486e-07,2.833914304648476e-07,7.547944965828047e-07,-1.2446854121472878e-07,1.5484713658050293e-06,6.642591601743686e-08,-9.3789561782764e-07,3.39059864073805e-07,1.8102833135668198e-07,-2.155983567088081e-07
4.217990572192422e-08,1.2938047601150746e-07,6.74949172331838e-07,4.2372682455153e-07,1.0186291096557413e-06,1.1118292678820045e-06,7.128522902167167e-07,-6.21700862541278e-08,5.280751819695006e-07,2.521591836435654e-07,7.27229720576946e-07,-2.0970359640532406e-07,1.4149121323284059e-06,5.980663729711315e-08,-9.844513949467462e-07,1.4064693613407736e-07,2.0160564198203865e-07,-2.0226954589820916e-07
2.023639217226489e-08,1.47905679326325e-07,7.00967554641547e-07,3.962193390598547e-07,1.0793530133305587e-06,1.1381855408179592e-06,7.380351657933706e-07,-9.877230330852235e-08,5.372637162712813e-07,2.0668785931453104e-07,7.224074768055045e-07,-3.023252880707372e-07,1.2923489812587175e-06,5.041325906884663e-08,-1.0314412024836678e-06,-5.9542777343392084e-08,2.2349206907448706e-07,-1.910313121163777e-07
5.289590326514748e-09,1.7853328904657042e-07,7.32739688696465e-07,3.74728103904451e-07,1.1489295321450193e-06,1.1725337315429543e-06,7.859943646380391e-07,-1.3528252283374202e-07,5.515551980088235e-07,1.6112719278517296e-07,7.498465606460044e-07,-3.9463255938056195e-07,1.1899250927864597e-06,3.690904176174366e-08,-1.0721399851589351e-06,-2.3782416471684836e-07,2.481168583684682e-07,-1.7436666671232328e-07
4.765026542531556e-09,2.2441476449430334e-07,7.701317608197032e-07,3.6263976543846244e-07,1.2236052370614233e-06,1.2112893775430242e-06,8.541273720170877e-07,-1.7075382262078662e-07,5.697673266592855e-07,1.285105118731883e-07,7.704405630429746e-07,-4.776081240097371e-07,1.109321937520077e-06,1.9954754338623235e-08,-1.110546985552733e-06,-3.70263052425034e-07,2.7606223295409987e-07,-1.4751605607254464e-07
2.108325982381079e-08,2.8410894997814583e-07,8.061360519426743e-07,3.613884052162928e-07,1.2959144695663623e-06,1.250146748865079e-06,9.347158580422667e-07,-2.042142612550826e-07,5.897775438247001e-07,1.1544196164910692e-07,7.911532217648849e-07,-5.452619269423839e-07,1.0685204207564821e-06,7.757981036770329e-10,-1.1441898980812302e-06,-4.4776943920824694e-07,3.0552847626941793e-07,-1.1235409162977597e-07
5.118037641187231e-08,3.5155495092724824e-07,8.356011165425048e-07,3.6876178616137327e-07,1.357025806992559e-06,1.286065780562986e-06,1.0177933581978564e-06,-2.3556832267681822e-07,6.091346087308989e-07,1.2062562986935943e-07,8.439738346903448e-07,-5.961461640910593e-07,1.0710010696104244e-06,-1.998455351504828e-08,-1.1695147174430498e-06,-4.685156859915102e-07,3.322477324409024e-07,-7.749054469805574e-08
8.829444406311992e-08,4.186778427439767e-07,8.585585109424414e-07,3.8478751539550735e-07,1.4000747043800504e-06,1.3188468149570447e-06,1.0959848092557023e-06,-2.629414921760002e-07,6.240682470421044e-07,1.372273075508002e-07,8.749291543735893e-07,-6.317902296469304e-07,1.1083666538870213e-06,-4.261459574669779e-08,-1.1870795036346404e-06,-4.373114382894384e-07,3.5112357645791447e-07,-5.403675613316434e-08
1.2482714628003334e-07,4.784530824383468e-07,8.707790241009462e-07,4.063697624675546e-07,1.422527687627318e-06,1.350897678242547e-06,1.1671114168142754e-06,-2.8688857317893953e-07,6.378186428457942e-07,1.5693529014573407e-07,9.143514340303611e-07,-6.5449437700527e-07,1.1508200504922688e-06,-6.716585995363892e-08,-1.1939664125723483e-06,-3.6561181512427384e-07,3.592149738670878e-07,-4.894173241491956e-08
1.55351450542316e-07,5.273173321910096e-07,8.765968427908603e-07,4.3263858217302605e-07,1.4268424173738607e-06,1.3858602504114502e-06,1.2341821219394777e-06,-3.0679008538473496e-07,6.549566715012335e-07,1.7493786731511293e-07,9.625441254355136e-07,-6.685498446915257e-07,1.2054305479833266e-06,-9.118143437942779e-08,-1.1887742096378136e-06,-2.6102826606090634e-07,3.590064675483029e-07,-5.9337999886199004e-08
1.7935017472330205e-07,5.662254975528182e-07,8.806078452250991e-07,4.6271543402129696e-07,1.4196534296724318e-06,1.4271325787173182e-06,1.3033354070782164e-06,-3.3299133234754697e-07,6.801053973238902e-07,1.924772743552725e-07,9.988526042571718e-07,-6.745478101827745e-07,1.2517400704411296e-06,-1.0850996755608512e-07,-1.1706610383632518e-06,-1.4228390101337093e-07,3.592763707400838e-07,-7.176461381703184e-08
2.0143223634548503e-07,5.997130574205205e-07,8.737874122200616e-07,4.991995390078112e-07,1.4094692543176832e-06,1.4760453738807557e-06,1.3802954742180344e-06,-3.5858208209080125e-07,7.18126656196806e-07,2.158192858327706e-07,1.0475681837679517e-06,-6.712631518936349e-07,1.2896339260632225e-06,-1.10988553714429e-07,-1.1427660876550832e-06,-1.4634353279186805e-08,3.7197259680721537e-07,-6.752067736472225e-08
2.291800855232646e-07,6.332554082138047e-07,8.70328793859812e-07,5.439037932159485e-07,1.403707119617815e-06,1.5303025301147472e-06,1.4660047641527676e-06,-3.7132539048213934e-07,7.695662475381254e-07,2.5206222962759337e-07,1.121523578860602e-06,-6.592771365130432e-07,1.3388438497906734e-06,-9.2187519389621e-08,-1.1063729437495555e-06,1.2100318998235145e-07,4.0691031784174224e-07,-3.1212788197112906e-08
2.7024502565523587e-07,6.710202135543856e-07,8.694553271052047e-07,5.966474815066105e-07,1.406757259044186e-06,1.5841063074243132e-06,1.5557219022027873e-06,-3.7084824154605206e-07,8.304381585852555e-07,3.0544645016977125e-07,1.2044926962980417e-06,-6.403128480322178e-07,1.3779702741003666e-06,-5.078224859519161e-08,-1.0672349968314626e-06,1.1387416544420596e-07,4.67044894695481e-07,4.195582053716036e-08
3.293678927958646e-07,7.147564696109541e-07,8.650460575104529e-07,6.560485135935343e-07,1.4195200243731768e-06,1.6298212357276255e-06,1.6407904130032158e-06,-3.572856290092077e-07,8.940863506265685e-07,3.743211526633148e-07,1.2614814360573802e-06,-6.190623200838648e-07,1.3828678831959287e-06,7.624650927592178e-09,-1.0335802816893583e-06,2.5605696341112298e-08,5.460544277537717e-07,1.4310113889145178e-07
4.062274099592508e-07,7.634516737944324e-07,8.609860097046715e-07,7.183348760411707e-07,1.4398071920252327e-06,1.6602291876730648e-06,1.7118619840831941e-06,-3.3042283200269967e-07,9.526362444222084e-07,4.5037814955039915e-07,1.2597381970034635e-06,-6.026294537335226e-07,1.357336006668761e-06,7.150235865624233e-08,-1.010580329091417e-06,-7.640992702012562e-08,6.297017912351083e-07,2.522031526575571e-07
4.948732096024859e-07,8.139168027187535e-07,8.530080938856129e-07,7.792556862838186e-07,1.463467925272987e-06,1.670918211776921e-06,1.7625058983249198e-06,-3.019370666840076e-07,9.97476089822741e-07,5.214499526820076e-07,1.2379243720714777e-06,-5.986389942108211e-07,1.3171501592338654e-06,1.266132380101242e-07,-1.0041743269764474e-06,-2.1957025594944558e-07,7.008919160598325e-07,3.4524014900753483e-07
5.852115613706218e-07,8.621862624894565e-07,8.373321482786549e-07,8.333213422943735e-07,1.4858772344479187e-06,1.6617624533069965e-06,1.7911792709967762e-06,-2.79786523930003e-07,1.0238602026812626e-06,5.75662034003683e-07,1.213438142274216e-06,-6.121217692095808e-07,1.269003310535908e-06,1.6091443257954551e-07,-1.015576273190387e-06,-4.321696335851699e-07,7.457171174778358e-07,4.0233433479833467e-07
6.643448829336803e-07,9.04937430436528e-07,8.170455146767952e-07,8.761400208201878e-07,1.5030830403087134e-06,1.6364569377706542e-06,1.8010471462276642e-06,-2.637443383735444e-07,1.03140230551492e-06,6.058616444949696e-07,1.1842350507977546e-06,-6.448182025389239e-07,1.2236704509356152e-06,1.6832146323316633e-07,-1.0405666948793442e-06,-6.755668511404167e-07,7.578795428011765e-07,4.1363139049667253e-07
7.227032425074449e-07,9.406655223521371e-07,7.975655839672345e-07,9.075052545610161e-07,1.5120982871748044e-06,1.6007973307129538e-06,1.7982733722262327e-06,-2.5549101647963955e-07,1.0233998940438474e-06,6.114829851262094e-07,1.1589004564820562e-06,-6.923555712704648e-07,1.185666666875301e-06,1.501905246521784e-07,-1.0729063669978475e-06,-8.453248749357215e-07,7.40479642568912e-07,3.8161986214833805e-07
7.556016659030716e-07,9.697747560467182e-07,7.83500227610808e-07,9.28741432295162e-07,1.5127865238136254e-06,1.5606098505627847e-06,1.7901683944614775e-06,-2.535077127603365e-07,1.0062188988349838e-06,5.988924933984676e-07,1.1392119523231907e-06,-7.485354948917853e-07,1.152396489197679e-06,1.1508971845895563e-07,-1.1020049541371606e-06,-9.393913884750962e-07,7.045994481812453e-07,3.196803432112699e-07
7.647272844022588e-07,9.941092478607211e-07,7.785145149880445e-07,9.384398595165298e-07,1.506915632942415e-06,1.5194990730805144e-06,1.7823433816816642e-06,-2.536450960049726e-07,9.868206643372123e-07,5.779449537887424e-07,1.1165739851925928e-06,-8.061341059243388e-07,1.1304220785468953e-06,7.530412106343791e-08,-1.1217545140343268e-06,-9.970978880301824e-07,6.651146623617314e-07,2.4750975783539714e-07
7.550441768667757e-07,1.0156426967189513e-06,7.846283090046576e-07,9.366765132037655e-07,1.4974791211959552e-06,1.4775697669367126e-06,1.7762341152911297e-06,-2.539182578891833e-07,9.70026856137009e-07,5.58356624982514e-07,1.1028628006283242e-06,-8.587244069611563e-07,1.1235074482695842e-06,4.20875819600149e-08,-1.1314513025789926e-06,-1.013951255883551e-06,6.358097222338338e-07,1.8524472007918287e-07
7.342877899823551e-07,1.0356808685332493e-06,7.986320966890059e-07,9.244168747544295e-07,1.4870175098477847e-06,1.4323248717833392e-06,1.7689314859124399e-06,-2.544628812726743e-07,9.57840100571993e-07,5.473703652073727e-07,1.0929373913176595e-06,-9.035615038138755e-07,1.1236034767344911e-06,2.2456697159937436e-08,-1.134328831955077e-06,-1.0052016086557213e-06,6.254221224541609e-07,1.4794020170507475e-07
7.11981685627649e-07,1.0550145082465274e-06,8.197715282914135e-07,9.031514723649155e-07,1.477832898372879e-06,1.3808197233299107e-06,1.755182186068865e-06,-2.541714819546523e-07,9.479006136634765e-07,5.469339529622988e-07,1.0795982972909942e-06,-9.411377470097617e-07,1.1095313155250274e-06,1.72007619900583e-08,-1.1362402295602796e-06,-9.94649232225789e-07,6.352694778063379e-07,1.4165906167029158e-07
6.966812681153636e-07,1.0738640612771767e-06,8.445012447138203e-07,8.78544697214164e-07,1.4718636099711403e-06,1.3215951747913588e-06,1.7302449974161054e-06,-2.536723036301775e-07,9.37325148075951e-07,5.567287427517319e-07,1.0645903434735314e-06,-9.728489524346939e-07,1.0792356962938807e-06,2.0947969500872105e-08,-1.1421866345839693e-06,-9.930669806110935e-07,6.595060700456108e-07,1.6266382254625792e-07
6.95188517912208e-07,1.091972175795385e-06,8.689572267867858e-07,8.542069285819638e-07,1.4697788325182139e-06,1.2558274486858705e-06,1.692927732604484e-06,-2.5059163346831744e-07,9.241665320061673e-07,5.7081961422666e-07,1.0442409490309797e-06,-1.0031608246317758e-06,1.034261948325287e-06,2.48222769736121e-08,-1.1547123268491558e-06,-1.0153660352383675e-06,6.880290337822665e-07,2.001125133367891e-07
7.101766288958978e-07,1.1088581000382399e-06,8.941636015621771e-07,8.308767845339272e-07,1.4710684352976837e-06,1.1870498924871316e-06,1.646419375883379e-06,-2.4688751358921606e-07,9.082517270747474e-07,5.81792718100968e-07,1.0193116485827811e-06,-1.0388860277967587e-06,9.762601533406043e-07,2.0017393034891308e-08,-1.1739923380882325e-06,-1.0666496419122554e-06,7.10355672312086e-07,2.4072501569530153e-07
7.398239636507097e-07,1.1238382489676818e-06,9.138459578862099e-07,8.147684627247834e-07,1.4719311510453117e-06,1.1194666528198497e-06,1.5967467773647136e-06,-2.480982074483089e-07,8.914678037882201e-07,5.842964749091418e-07,9.934376794329927e-07,-1.0807000377129804e-06,9.110943520529027e-07,6.831309862404318e-10,-1.1977339371755905e-06,-1.1410043431812624e-06,7.194848933453421e-07,2.735735936601274e-07
7.783387064712915e-07,1.1359105798636106e-06,9.25151070605194e-07,8.051605046561351e-07,1.4682116547739496e-06,1.0564983600905044e-06,1.5504549641477163e-06,-2.5246456323826974e-07,8.761454456385887e-07,5.757969583941706e-07,9.689733889219098e-07,-1.1286913724911168e-06,8.47611696743916e-07,-3.3930779212834346e-08,-1.2202048751144733e-06,-1.2249889291497437e-06,7.135652117400148e-07,2.935957387126034e-07
8.185476773269548e-07,1.1441866113238906e-06,9.313199756722244e-07,7.983443616227267e-07,1.4557776474227203e-06,1.0003326054435124e-06,1.5130382893654393e-06,-2.609137063786937e-07,8.648036798867996e-07,5.588520140540438e-07,9.489733008107533e-07,-1.181392685270283e-06,7.940095669213322e-07,-7.947533920239545e-08,-1.23922075115429e-06,-1.3050410337894913e-06,6.964117026945466e-07,3.0239014997315346e-07
8.51503526747585e-07,1.1481600311248444e-06,9.352251610639524e-07,7.884065736780096e-07,1.4317068524677808e-06,9.515000039059471e-07,1.4875118660895975e-06,-2.759996764719137e-07,8.588679899326523e-07,5.392849214233292e-07,9.337177322976701e-07,-1.2341821281186388e-06,7.516728855961334e-07,-1.2918975477628236e-07,-1.2557527942654273e-06,-1.369845945468655e-06,6.747824316614751e-07,3.060770469001049e-07
8.723531370162072e-07,1.1474421411068766e-06,9.344992936323126e-07,7.693384596088014e-07,1.3970512150544823e-06,9.08517444351807e-07,1.4731707389219281e-06,-2.972375195592298e-07,8.580711279269088e-07,5.237994983753119e-07,9.222878471057538e-07,-1.2823514450777466e-06,7.244953851418352e-07,-1.7669688480184042e-07,-1.2712230694455204e-06,-1.4166166976712012e-06,6.55831119522517e-07,3.1208528162729637e-07
8.791453193566224e-07,1.141870677389367e-06,9.371515367688652e-07,7.469047831685956e-07,1.3530559976218966e-06,8.685307903810373e-07,1.4661160960769015e-06,-3.209529096462828e-07,8.601782686880781e-07,5.174377916842678e-07,9.11127762127206e-07,-1.3246298010381495e-06,7.133636479763745e-07,-2.1772357609288963e-07,-1.2889777771508456e-06,-1.452173385055267e-06,6.448970130411126e-07,3.2951266771118615e-07
8.841542139821774e-07,1.1318196317873185e-06,9.354656651127812e-07,7.192730357556355e-07,1.3039605167628377e-06,8.285378453250039e-07,1.4609783892456446e-06,-3.478646621427762e-07,8.610176774542723e-07,5.235164334828462e-07,8.951078168579924e-07,-1.360272815079249e-06,7.06856796648781e-07,-2.504953510108827e-07,-1.31139608087805e-06,-1.482454717912529e-06,6.444376641734104e-07,3.61486274530519e-07
8.893841264060813e-07,1.1178750136513385e-06,9.302907722308817e-07,6.877039671871227e-07,1.25991340382583e-06,7.864177301811102e-07,1.4529384420575743e-06,-3.767474561818924e-07,8.597407827095022e-07,5.429621589112538e-07,8.720203332305252e-07,-1.379523974616515e-06,6.97884295891589e-07,-2.748535260418682e-07,-1.3384844052513135e-06,-1.5151685244368836e-06,6.547326992018539e-07,4.065759659824426e-07
8.935530888562229e-07,1.1010136239745094e-06,9.258419249719008e-07,6.552191979909084e-07,1.2251630958975013e-06,7.418434849368241e-07,1.4395862930907798e-06,-4.035565887399055e-07,8.575867309144493e-07,5.737984771383984e-07,8.417290200933445e-07,-1.3852861491430708e-06,6.808675560456329e-07,-2.9083958486904813e-07,-1.368681025074659e-06,-1.5630178339811347e-06,6.750486654912527e-07,4.6602301179797746e-07
8.863823020366105e-07,1.0826670918954864e-06,9.26125163009747e-07,6.199572443061671e-07,1.2050302450918447e-06,6.964872644735033e-07,1.4215411093135077e-06,-4.265691974443658e-07,8.57138446885631e-07,6.141120083040466e-07,8.064836839778634e-07,-1.379620700628723e-06,6.523000206997747e-07,-2.9791848373766497e-07,-1.4010257146863304e-06,-1.6243005927146492e-06,7.045286092121922e-07,5.386707149987002e-07
8.769475651000201e-07,1.0641173417935896e-06,9.359269514997664e-07,5.899795453962476e-07,1.202046925631043e-06,6.528382329563314e-07,1.4006704731280855e-06,-4.423213765688611e-07,8.611440849640976e-07,6.60760836306026e-07,7.697322645515741e-07,-1.3642543548490354e-06,6.151913903322716e-07,-2.956292808994359e-07,-1.431190063021746e-06,-1.6980197016619887e-06,7.412268271917075e-07,6.240216467938995e-07
8.968241410714881e-07,1.047482807333997e-06,9.510926719882342e-07,5.976588345758287e-07,1.2142584837075658e-06,6.12923220735785e-07,1.3778887196907164e-06,-4.4813537360604666e-07,8.703827605571579e-07,7.093634691326679e-07,7.340397614536963e-07,-1.3433789639508908e-06,5.752477768570809e-07,-2.8492128921642116e-07,-1.4561413656469245e-06,-1.7821524453372206e-06,7.811106018187823e-07,7.160217721847002e-07
9.534257352331623e-07,1.0353002657760144e-06,9.533275978084282e-07,6.319904715518838e-07,1.223008566768524e-06,5.782683787537582e-07,1.3523689387894526e-06,-4.434215108906157e-07,8.829404060431814e-07,7.554461819628056e-07,6.999310404050027e-07,-1.3293489417711594e-06,5.414997057281032e-07,-2.69132214104708e-07,-1.4775649171043584e-06,-1.8749109448106765e-06,8.173512192716356e-07,8.00639145425584e-07
1.0650670206688591e-06,1.030935467129817e-06,9.106920150703698e-07,7.145971906891599e-07,1.2237692715946066e-06,5.504123360808745e-07,1.3221182843514355e-06,-4.284971010063539e-07,8.924820150324476e-07,7.924880157097593e-07,6.627596430868893e-07,-1.321869435714771e-06,5.186381776350287e-07,-2.5445551306957835e-07,-1.4993362309175977e-06,-1.978009088487299e-06,8.40315009462963e-07,8.382188732932713e-07
1.2226608044863615e-06,1.0376095361703166e-06,8.157370375615608e-07,8.408364145193067e-07,1.1663022066007214e-06,5.311790946055217e-07,1.2850725682759369e-06,-4.023580226624302e-07,8.926796691483259e-07,8.102943127784252e-07,6.190519045096515e-07,-1.3260326709030356e-06,5.182461131495352e-07,-2.491925350678719e-07,-1.5336872481018548e-06,-2.09663472032654e-06,8.392111549889084e-07,8.018755343955995e-07
1.3168884864596193e-06,1.053921641215439e-06,7.39881192380846e-07,9.469930368494872e-07,1.0325136862939551e-06,5.22759527751503e-07,1.2416467195874405e-06,-3.635077357839347e-07,8.782372271154003e-07,8.016637854692271e-07,5.716271024927018e-07,-1.3340306835644618e-06,5.416916855663302e-07,-2.6130825231576394e-07,-1.5731987661243694e-06,-2.2268544035501357e-06,8.056214698654036e-07,6.887305880683576e-07
1.3613439446970316e-06,1.0937247736811515e-06,6.714601538228407e-07,1.009684178690131e-06,9.120219746796059e-07,5.271156301285601e-07,1.1960134975222433e-06,-3.1047055416181087e-07,8.472243975692622e-07,7.558351392566131e-07,5.102364434202782e-07,-1.3585914407840762e-06,5.92335284425283e-07,-2.952486376861282e-07,-1.6488262332290262e-06,-2.309374049316793e-06,7.343541469326826e-07,5.991270659666648e-07
1.4289066058586954e-06,1.1422044780324958e-06,6.10835128535288e-07,1.074630292309466e-06,8.136220351606596e-07,5.445698240429575e-07,1.1558135451989095e-06,-2.4369300342014435e-07,8.032476616832572e-07,6.72793839190555e-07,4.3476575595954473e-07,-1.4018239266044326e-06,6.710107043234757e-07,-3.491638594029835e-07,-1.732563545283078e-06,-2.34738590780355e-06,6.374164094878977e-07,5.502599460249894e-07
1.5855798733627491e-06,1.2030125165254965e-06,5.632169680215493e-07,1.1362570477453341e-06,7.161810822690518e-07,5.727334536531341e-07,1.1306256126733581e-06,-1.6540208313184743e-07,7.545104841544214e-07,5.585102148520254e-07,3.5149913945851486e-07,-1.4247360821901465e-06,7.679498226681496e-07,-4.1338630908077447e-07,-1.8111968767108544e-06,-2.2647402552287164e-06,5.306133332349284e-07,4.2002207807553103e-07
1.7603355031910337e-06,1.2732197876520674e-06,4.5434006742570543e-07,1.2185515588838695e-06,6.129505844286043e-07,6.064871013737916e-07,1.1289162726789783e-06,-7.935944133867932e-08,7.121200546289453e-07,4.175902494343157e-07,2.6762411125968706e-07,-1.396735849902177e-06,8.735417376974253e-07,-4.7197219931600485e-07,-1.8080882934516141e-06,-2.111346901629928e-06,4.3823549703348534e-07,2.2864051021958965e-07
1.84138798880332e-06,1.3319410716829338e-06,3.546449492250486e-07,1.3089480988158275e-06,5.242295403769214e-07,6.389602356661525e-07,1.1539820722458027e-06,1.0091402317095e-08,6.863357725929858e-07,2.663368159313981e-07,1.956604829243482e-07,-1.2915277317550212e-06,9.735873259563603e-07,-5.076153086728396e-07,-1.7339844999003118e-06,-2.013438467369355e-06,4.375919658899264e-07,6.719375953763453e-08
1.8908001234084135e-06,1.3389500965664347e-06,2.7700458343890723e-07,1.3643024121664408e-06,4.742939937262603e-07,6.636549574782161e-07,1.2012464309464559e-06,9.864127329987359e-08,6.832338709046805e-07,1.2388554306955174e-07,1.4388352670477982e-07,-1.1600312825497291e-06,1.0558666249409617e-06,-5.075005117148463e-07,-1.6793347019593001e-06,-1.9564727482638754e-06,4.560289030182383e-07,8.172852723698514e-09
1.991658180348119e-06,1.355858963269808e-06,2.1920667090342327e-07,1.3775823608811355e-06,4.630086542264044e-07,6.767792769563765e-07,1.259438682649247e-06,1.855592109958987e-07,7.029979043809313e-07,3.4797034767020847e-08,1.1389097179991414e-07,-1.0236342374912478e-06,1.1144154390381153e-06,-4.669666957173459e-07,-1.6342812192532348e-06,-1.8142599408998201e-06,4.495641371917231e-07,-4.670854072401557e-08
2.0645780820521654e-06,1.3675219732953795e-06,1.5303556630525517e-07,1.4262371329261569e-06,4.5400988409924534e-07,6.77885409743783e-07,1.3144967418434951e-06,2.692629157654629e-07,7.395662676446597e-07,2.8962001042565598e-08,9.996277919234421e-08,-9.459705232674275e-07,1.1518960902739185e-06,-3.902593146032938e-07,-1.6097272489507045e-06,-1.5920244371755859e-06,5.199078400687333e-07,-6.30183582133395e-08
2.1325387840100653e-06,1.3134393740895995e-06,9.052214206310844e-08,1.4840545463993608e-06,4.5520188168994126e-07,6.687891984424712e-07,1.3546236201917348e-06,3.4479762314716766e-07,7.832498425789176e-07,1.3210747033074367e-07,9.789863852882488e-08,-9.07023370464146e-07,1.1718348641186056e-06,-2.889948108550604e-07,-1.5591085644826637e-06,-1.3611687835927148e-06,6.381134509903952e-07,-9.168176191655314e-08
2.168523286040236e-06,1.25000793615065e-06,1.0644615175868498e-08,1.5575316798977454e-06,4.4625153136023243e-07,6.52309284878105e-07,1.3744161749500213e-06,4.170937000727344e-07,8.23451820018535e-07,1.652863566798208e-07,1.0329967797929886e-07,-8.704504672305353e-07,1.184034432984152e-06,-1.7856897966174287e-07,-1.408623633301601e-06,-1.2052025947649154e-06,7.35767693862471e-07,-6.025028174085153e-08
2.092154261712182e-06,1.2177130734611062e-06,-3.35644119081278e-08,1.6405630928945913e-06,4.3628961027969426e-07,6.314077945492626e-07,1.3759585080506698e-06,4.891687896759381e-07,8.507039837001184e-07,2.038265884348555e-07,1.1163148766761379e-07,-8.328027667416578e-07,1.201702626907252e-06,-7.392295951984382e-08,-1.231052408746494e-06,-1.082350081742541e-06,8.022729410098873e-07,3.7108876329580035e-08
1.996215556738351e-06,1.20346588466647e-06,-4.7308924855162385e-08,1.6925872430674455e-06,4.4906731800617375e-07,6.088364816067881e-07,1.3665625307994187e-06,5.620781039743061e-07,8.595425533101226e-07,2.823010538055877e-07,1.2158562677673756e-07,-7.607270224560865e-07,1.236180118333236e-06,1.3853312278087142e-08,-1.0937498400518344e-06,-9.704736479379015e-07,8.264179104793556e-07,1.389418340654869e-07
1.9329749479543586e-06,1.1985125211025897e-06,-7.64452014705432e-08,1.648532688078854e-06,5.035557008528972e-07,5.87591678868022e-07,1.3552097243644343e-06,6.376835696047294e-07,8.477626529508439e-07,4.0226672720662527e-07,1.3297909427948224e-07,-6.522744877972486e-07,1.3000688274902505e-06,7.947787358604313e-08,-9.74084381637265e-07,-9.791930798869956e-07,8.182279119175841e-07,2.301847654157264e-07
1.8936817813040525e-06,1.218427630867876e-06,-6.469844868644733e-08,1.5900077654336827e-06,5.604933601123495e-07,5.715019587059458e-07,1.3493884137468556e-06,7.136499331648842e-07,8.23005384856482e-07,5.244979111659081e-07,1.525338017841827e-07,-5.472742817820594e-07,1.3820010966987059e-06,1.2326577564446575e-07,-9.194271383865859e-07,-1.0610131423406867e-06,7.40501366005857e-07,3.749804988282599e-07
1.925921401655214e-06,1.2392465136648645e-06,-3.165650927442687e-08,1.5148404932922955e-06,6.366523780029027e-07,5.649792905782064e-07,1.3521708479519674e-06,7.847614511569108e-07,7.943419135894413e-07,6.6791379673754e-07,1.8228230517404522e-07,-4.593712551798592e-07,1.4854253264394902e-06,1.4922143454576103e-07,-8.821360667987537e-07,-1.1548871586527426e-06,6.672065296034394e-07,4.945890942409469e-07
1.983593130250755e-06,1.267362291182626e-06,-1.2010636975301155e-08,1.4376909307476325e-06,7.149569539299299e-07,5.719191489008132e-07,1.3623811729436366e-06,8.452368455497814e-07,7.713117111584243e-07,8.065724280755133e-07,2.0671732346453073e-07,-3.7134885308808467e-07,1.6011795639490696e-06,1.6294359691313415e-07,-8.145292122079206e-07,-1.1824085850700403e-06,5.977894380598101e-07,5.824844218561568e-07
2.039494611080393e-06,1.2994239842804776e-06,-2.001184195444254e-08,1.4146493292298772e-06,7.749806271011865e-07,5.938867225682035e-07,1.3767260109830165e-06,8.907248551634557e-07,7.625761757868797e-07,9.122140363027105e-07,2.4122532269878013e-07,-3.0594872922154804e-07,1.715662351565532e-06,1.6993181482762663e-07,-7.241844168075811e-07,-1.1485046666426798e-06,5.224599818915163e-07,6.538630758211774e-07
2.0905676641546343e-06,1.3310143795112481e-06,-2.7631934958902254e-08,1.4111637511615915e-06,8.255676234976778e-07,6.28266968336868e-07,1.3916514921289133e-06,9.168226615926885e-07,7.685108175316918e-07,9.568540107758982e-07,2.8588380844453693e-07,-2.512817799988152e-07,1.8244013631978373e-06,1.7448660646199887e-07,-6.352419696283434e-07,-1.0687996351232017e-06,4.5433443492717424e-07,6.930670605151674e-07
2.110304173024971e-06,1.3605065226718425e-06,-2.841260183228292e-08,1.420924612111382e-06,8.665706160794415e-07,6.683863966166453e-07,1.405055303489123e-06,9.228241541227522e-07,7.869380239395867e-07,9.483945171014592e-07,3.286393477726515e-07,-1.8984439014120272e-07,1.9214687987006087e-06,1.797360517551795e-07,-5.544195576465063e-07,-9.498235571684526e-07,4.004334717419865e-07,7.2581484535079e-07
2.103554884853522e-06,1.3854693536024719e-06,-3.718641028308861e-08,1.440260186622522e-06,8.999605529245463e-07,7.061808777391786e-07,1.417359472705502e-06,9.114465502818617e-07,8.12748277396511e-07,9.133297863168559e-07,3.7473249380274727e-07,-1.3145987135771397e-07,2.0089044302102913e-06,1.881643732701259e-07,-4.801039048441992e-07,-8.177259452890986e-07,3.6182725568680973e-07,7.620523823604094e-07
2.0771650821100833e-06,1.40545184378329e-06,-3.946923042174643e-08,1.4588075877832912e-06,9.303332699012961e-07,7.350908130073334e-07,1.4309750224555093e-06,8.95017154489372e-07,8.404324852812383e-07,8.688640880915629e-07,4.207023311813772e-07,-1.0299329965592204e-07,2.0900763227382315e-06,2.0132351329319616e-07,-4.209620196235535e-07,-6.639187105931277e-07,3.3631357016141944e-07,8.050549501814664e-07
2.0345958199584776e-06,1.4215471719485973e-06,-7.156616653399563e-08,1.4798853113437092e-06,9.568082158971885e-07,7.514595099228851e-07,1.4483137931399937e-06,8.723386153613872e-07,8.654779079651991e-07,8.412143574991769e-07,4.6312482008103564e-07,-8.950576886007028e-08,2.169858937454456e-06,2.1932029058165792e-07,-3.737791108389523e-07,-4.925625108019421e-07,3.2001023474229644e-07,8.589011040089188e-07
1.984578139545728e-06,1.4346094097090262e-06,-1.1271352686043903e-07,1.512233717551537e-06,9.651641943675054e-07,7.547483567430081e-07,1.4703799026552535e-06,8.440699319883702e-07,8.86044555990435e-07,8.300184953222706e-07,5.129439909891111e-07,-8.202580704711804e-08,2.2502324517207464e-06,2.408565514477638e-07,-3.3961765816430014e-07,-3.1269904245786637e-07,3.0973017790809837e-07,9.206999222917323e-07
1.9337050214821592e-06,1.4449525459304816e-06,-1.5042695782195752e-07,1.5452777689975355e-06,9.637339294419485e-07,7.465968750100762e-07,1.4958379651186656e-06,8.126795412416989e-07,9.015510445814114e-07,8.374948550248025e-07,5.699626566426104e-07,-6.301248984530591e-08,2.2977857055086572e-06,2.633295061243244e-07,-3.255851258468662e-07,-1.252936232242152e-07,3.022823643422451e-07,9.828846172695417e-07
1.8838321161720435e-06,1.4519246074874628e-06,-1.85357405534438e-07,1.5715828412887055e-06,9.544486793252037e-07,7.288206254695278e-07,1.5203155259123843e-06,7.901393617620697e-07,9.10980927176486e-07,8.759012138758889e-07,6.256318237655868e-07,-2.759321580179849e-08,2.333815541678177e-06,2.830081372246544e-07,-3.26451700122072e-07,3.1348726670746714e-08,2.9397461271041657e-07,1.0360697728583454e-06
1.835556048909754e-06,1.4541157463147472e-06,-2.147793853660833e-07,1.587812981577432e-06,9.36661678274772e-07,7.020657851013427e-07,1.5373516838508677e-06,7.70805904059999e-07,9.130461965189308e-07,8.990411765119179e-07,6.678204869993936e-07,1.1810988488251901e-08,2.351535571136928e-06,2.9590260964470424e-07,-3.307810884393361e-07,1.603083641280585e-07,2.787533333400415e-07,1.072765137346223e-06
1.787851347504211e-06,1.4504172352600142e-06,-2.435664018665525e-07,1.5883470733950948e-06,9.144158505838911e-07,6.661286807972498e-07,1.5410863864639588e-06,7.47962155921211e-07,9.053723044072697e-07,8.978904324919832e-07,6.96181935147604e-07,4.786064032793076e-08,2.338194170250714e-06,2.988972404438361e-07,-3.402872252531848e-07,2.491399008466492e-07,2.465018745274087e-07,1.089988497497123e-06
1.7390299784341358e-06,1.4407123200852528e-06,-2.6984577226022214e-07,1.5733953556107707e-06,8.850484310655307e-07,6.206731883987795e-07,1.5282997743558185e-06,7.202373734534645e-07,8.86389332903113e-07,8.779396827994485e-07,7.093887682129676e-07,5.8551115079884656e-08,2.3012475327498187e-06,2.902510565788275e-07,-3.569737965530591e-07,2.937112944622504e-07,1.9680911844897707e-07,1.0893733279072155e-06
1.6874516282282144e-06,1.4255348277989333e-06,-2.9708162948726845e-07,1.5440395228711441e-06,8.477036622210751e-07,5.656669680330347e-07,1.4988193646241675e-06,6.8064540363056e-07,8.561117461985955e-07,8.151678199810287e-07,7.08371115043503e-07,4.0572037531561326e-08,2.2394616535976512e-06,2.699560567220005e-07,-3.7682429958662054e-07,2.975813340282879e-07,1.3420149600064523e-07,1.0758228366288785e-06
1.6409021396296388e-06,1.4058477779202392e-06,-3.179555164152191e-07,1.5036687074207774e-06,8.023986663147386e-07,5.022727786174713e-07,1.4554821808127595e-06,6.330483939651901e-07,8.162346519774512e-07,7.567239241563852e-07,6.949846316385419e-07,3.8120178589002396e-08,2.1893527544798515e-06,2.405442504815079e-07,-3.962752327262626e-07,2.845353263053252e-07,6.919396666543313e-08,1.0559374127380004e-06
1.5948862626757225e-06,1.3833973519318842e-06,-3.404727437401705e-07,1.454798722572382e-06,7.535969867940808e-07,4.335232275768477e-07,1.403579811726255e-06,5.822723723590786e-07,7.718694881104907e-07,7.212680783314414e-07,6.454997797398917e-07,4.560652742340911e-08,2.103608860624748e-06,2.0708362226745286e-07,-4.0811176873193893e-07,2.61572486375591e-07,9.500484112564056e-09,1.0356459259287377e-06
1.5458124733839195e-06,1.360080503921952e-06,-3.6122306835745623e-07,1.406479300871667e-06,7.010371692427698e-07,3.6331520582096966e-07,1.3475802688406845e-06,5.310715516939339e-07,7.291478993999736e-07,6.642752990438603e-07,5.995493941082087e-07,5.16221816606703e-08,2.0627039038112763e-06,1.754975675243187e-07,-4.079120262312317e-07,2.1937877648575905e-07,-4.7695139775919336e-08,1.0171705619370785e-06
1.4941317753686103e-06,1.3363083446172962e-06,-3.7605339231727303e-07,1.3652453832599316e-06,6.4382556557889e-07,2.9475562382108984e-07,1.2877050759565605e-06,4.780207881699862e-07,6.922488487742735e-07,5.864857952600327e-07,5.402869614466863e-07,5.999767003091255e-08,2.0060877449820353e-06,1.507323808250835e-07,-3.942563350171869e-07,1.7435721416321768e-07,-9.347694128896968e-08,9.975891050032164e-07
1.4373805528247756e-06,1.3105250233922891e-06,-3.873405323713956e-07,1.3349441750732615e-06,5.817290155151939e-07,2.2996278716664645e-07,1.2199250618745112e-06,4.2457440125178195e-07,6.639321369259859e-07,5.194201834379288e-07,4.4662031610723934e-07,5.0744282511612994e-08,1.8794156562899781e-06,1.3596053200534566e-07,-3.701084005431832e-07,9.450013992886002e-08,-1.1841950181819635e-07,9.700912429585326e-07
1.379021933646786e-06,1.2804093822621232e-06,-3.9137755067289076e-07,1.317820057700651e-06,5.135292432802113e-07,1.7064059477043312e-07,1.1379912796683867e-06,3.71922150382836e-07,6.449972522778016e-07,3.492790656621515e-07,4.034004895621321e-07,2.170845357306014e-08,1.824373168995365e-06,1.3164787441653783e-07,-3.431236613954023e-07,-3.2290209219780986e-08,-7.225447515722588e-08,9.262189900673924e-07
1.3248572417330465e-06,1.2436971092350407e-06,-3.8520826990315244e-07,1.3118862892766319e-06,4.402600454836721e-07,1.1748583185417774e-07,1.03530679555662e-06,3.1959341621047257e-07,6.342660217406724e-07,2.80557213390277e-07,3.7811243829740136e-07,8.491619410911394e-09,1.7982886289590165e-06,1.3394416781756628e-07,-3.2157677255062826e-07,-1.4050046520674493e-07,5.3653107864205444e-08,8.578510353156899e-07
1.2792511016674788e-06,1.1980699640970987e-06,-3.631538977357209e-07,1.3119750178829906e-06,3.630828120799111e-07,6.926206624153822e-08,9.06896454775143e-07,2.5040039054157784e-07,6.277753938107014e-07,3.214818108738743e-07,3.663705918470442e-07,-4.5099638969544786e-10,1.7877189894699733e-06,1.3455801287971126e-07,-3.184292767946502e-07,-1.4387097909054042e-07,2.0419456061952996e-07,7.599252001965407e-07
1.2414783090433027e-06,1.141935889435395e-06,-3.2901157346262467e-07,1.3106046291954638e-06,2.829830872362459e-07,2.3581417671977583e-08,7.529057902834045e-07,1.69990036283627e-07,6.199726310315262e-07,2.994017602945722e-07,3.7316870648270805e-07,-4.7800264937784e-08,1.7878570840662793e-06,1.2358658051112148e-07,-3.428142886271679e-07,-2.1140671407606208e-07,3.264806386040569e-07,6.336983647130543e-07
1.2112110671963032e-06,1.0760808266482952e-06,-2.8603037219123293e-07,1.3014748502071857e-06,2.0185501188143873e-07,-2.1449810088365093e-08,5.810712033709406e-07,8.438218268797355e-08,6.061508576026935e-07,2.2508140510300076e-07,3.4933774727188964e-07,-1.1720234479470182e-07,1.7017807091774625e-06,9.337516812834227e-08,-3.95237880089741e-07,-4.339723401941528e-07,4.1850446633404586e-07,4.876669865646235e-07
1.1852923373613446e-06,1.0038061179522896e-06,-2.462723054012159e-07,1.2807953694612464e-06,1.2194406756763386e-07,-6.690299249249036e-08,4.044766827975422e-07,-2.6480530333073657e-09,5.833313274407477e-07,7.093718642393682e-08,2.4536701638701084e-07,-2.1831245224829813e-07,1.5368438292481319e-06,4.087296612905032e-08,-4.6900598716099427e-07,-6.617930555783184e-07,4.946510736789448e-07,3.347555869047291e-07
1.1487033559304224e-06,9.286961012120096e-07,-2.1770434535071138e-07,1.2468836967778162e-06,4.470059354098772e-08,-1.1333374071712216e-07,2.3634447738265158e-07,-9.742721997241862e-08,5.498541258063481e-07,-1.2895590954540292e-07,1.4122372497070749e-07,-3.3261894338969593e-07,1.432548926247899e-06,-3.1636306733213455e-08,-5.528011274940015e-07,-9.460515020298524e-07,5.271330470234502e-07,1.882414051928035e-07
1.0988359811197223e-06,8.536364537815459e-07,-2.0262613962414298e-07,1.1998295612567189e-06,-2.8897018673927666e-08,-1.5976673048973455e-07,8.702583638622832e-08,-1.975506483409095e-07,5.065474899314145e-07,-2.9408138402420925e-07,6.329639413295848e-08,-4.290464239758749e-07,1.297625221244523e-06,-1.1687912027225657e-07,-6.337858412304597e-07,-1.1712810578072803e-06,5.091821583773518e-07,5.905213971814015e-08
1.0356084278615986e-06,7.816079927681155e-07,-2.004931948162736e-07,1.1427890626867813e-06,-9.677988911353499e-08,-2.025931383489425e-07,-3.610447572440777e-08,-2.9809098561814703e-07,4.580234142730358e-07,-4.265518565879199e-07,-2.2755028095262874e-08,-5.038059423113476e-07,1.1874049507815099e-06,-2.0483163610898267e-07,-7.00761303128088e-07,-1.3409561719024207e-06,4.585516200794074e-07,-4.5897576074200935e-08
9.602037145016687e-07,7.157277565917157e-07,-2.0561841440995132e-07,1.0808574510207943e-06,-1.5572235670687725e-07,-2.3716174021042845e-07,-1.2959016173337022e-07,-3.973517751116438e-07,4.1099852108818216e-07,-5.42569531640537e-07,-8.254213180526723e-08,-5.771860653440899e-07,1.0839997823912585e-06,-2.8680771069051276e-07,-7.483585239120471e-07,-1.5371888434074696e-06,4.1200198236814437e-07,-1.2511449338177922e-07
8.787955937239719e-07,6.576399127761685e-07,-2.1277070702588293e-07,1.017598386035736e-06,-2.0335666067630774e-07,-2.6111450360115973e-07,-1.9587232137228048e-07,-4.863860483706589e-07,3.699329198713692e-07,-5.432785624311954e-07,-1.6639897923640108e-07,-6.412474834850383e-07,9.503589220885635e-07,-3.586430913184764e-07,-7.769175857121498e-07,-1.6279295736569589e-06,3.740256427546768e-07,-1.8237458205214246e-07
7.911855797208158e-07,6.064713183949579e-07,-2.168911937717986e-07,9.538000893921355e-07,-2.3961478337540373e-07,-2.756771525748369e-07,-2.4266576225988656e-07,-5.691272025157347e-07,3.3360898611460807e-07,-5.153987056159646e-07,-2.3587496589246522e-07,-6.866884478696081e-07,8.563850550955909e-07,-4.206770839892488e-07,-7.917808246102973e-07,-1.6112830006353847e-06,3.308171463069824e-07,-2.2408080755555604e-07
7.002461359584149e-07,5.600871846447043e-07,-2.1567398260489806e-07,8.891795657407433e-07,-2.6619388136384615e-07,-2.84154233182196e-07,-2.7907997210947296e-07,-6.503420400494239e-07,2.992274443551539e-07,-5.375594270889575e-07,-2.8286387429754383e-07,-7.26163226988466e-07,7.493085088175591e-07,-4.75803716496018e-07,-8.004727590423404e-07,-1.5964279493265754e-06,2.8976752170913047e-07,-2.56072346410682e-07
6.099810150060563e-07,5.165780400874884e-07,-2.1004300164173088e-07,8.242390520576846e-07,-2.857550091256964e-07,-2.904380581242843e-07,-3.127176744234655e-07,-7.323023255034385e-07,2.6349095951582827e-07,-5.795611678590442e-07,-3.312383370651393e-07,-7.553180774060297e-07,6.947282730378944e-07,-5.279112950997529e-07,-8.095147972685277e-07,-1.5988501822026395e-06,2.5125167233166333e-07,-2.821280613877494e-07
5.253266932829275e-07,4.744266073303577e-07,-2.0394532506347904e-07,7.603235064860168e-07,-3.018550506302393e-07,-2.9850150984030227e-07,-3.488731431375459e-07,-8.143580469040278e-07,2.2281472431028432e-07,-6.318960133180089e-07,-3.5954449994489846e-07,-7.83316445378745e-07,6.726564093018472e-07,-5.805512617253809e-07,-8.244286302700827e-07,-1.5942405053384149e-06,2.0714271399579034e-07,-3.0370747782893637e-07
4.483982439411352e-07,4.326460310983501e-07,-2.0237637642507324e-07,6.997291504720317e-07,-3.181213683409128e-07,-3.109778250992408e-07,-3.892352069921907e-07,-8.969625177537117e-07,1.763365463426705e-07,-6.916005796209385e-07,-3.5446447376515285e-07,-8.135079859731754e-07,6.69825744432485e-07,-6.350148884864649e-07,-8.467685342147412e-07,-1.6052466019817432e-06,1.5652585769042295e-07,-3.1974413908712105e-07
3.806037939677255e-07,3.919987115452258e-07,-2.0851609852526313e-07,6.466431131042369e-07,-3.3628744881698033e-07,-3.270404496935403e-07,-4.3004055708885414e-07,-9.786343264642895e-07,1.267400594603617e-07,-7.290264659395383e-07,-3.6631017079604277e-07,-8.435967032471252e-07,6.646730216613621e-07,-6.893887637021685e-07,-8.731626182810334e-07,-1.622060539969736e-06,1.0651944192297927e-07,-3.273056097895909e-07
3.2446441306112995e-07,3.5526450353285953e-07,-2.2281515202812522e-07,6.06290958992299e-07,-3.554282714457617e-07,-3.4269178968413685e-07,-4.6340325135202406e-07,-1.0554229317638653e-06,7.972096926320783e-08,-7.514049004102032e-07,-3.8576362559064576e-07,-8.652386525218476e-07,6.428148437823259e-07,-7.402808588449538e-07,-8.987171889066081e-07,-1.6546876058468278e-06,6.392982629607066e-08,-3.2398105196529936e-07
2.802382785085334e-07,3.252296715981728e-07,-2.444297580922875e-07,5.816807641634994e-07,-3.7355267036060543e-07,-3.538624913791075e-07,-4.822680967130884e-07,-1.1125805863477623e-06,3.991101950371457e-08,-7.645720831910968e-07,-4.0623071081687025e-07,-8.773906096280802e-07,6.232609719149564e-07,-7.854581607751302e-07,-9.18538873809044e-07,-1.6659358210662327e-06,2.8211289534074327e-08,-3.102205456820954e-07
2.463554147879371e-07,3.0274065370072813e-07,-2.6969813831528806e-07,5.716005159102047e-07,-3.893859779030082e-07,-3.586628664930942e-07,-4.84008180504832e-07,-1.1536022350440144e-06,8.528091245092922e-09,-7.653525991643804e-07,-4.315016484178252e-07,-8.891430021223023e-07,6.193207501901291e-07,-8.244691728557816e-07,-9.299279867140319e-07,-1.6575514544761544e-06,-5.728398931612216e-09,-2.8936955673973773e-07
2.1820691004181297e-07,2.868918042199915e-07,-2.9566918338372975e-07,5.720335849848728e-07,-4.025062446031765e-07,-3.569113218801041e-07,-4.7009138744783685e-07,-1.1841542140154386e-06,-1.5085608887154133e-08,-7.60351289552471e-07,-4.3533514789202914e-07,-8.975861332477239e-07,6.363674558562558e-07,-8.576254885078999e-07,-9.322316674234478e-07,-1.6326575329549972e-06,-3.946730069909054e-08,-2.660158792094405e-07
1.9114107224727414e-07,2.7588343742586205e-07,-3.176772451266818e-07,5.783255592949374e-07,-4.1298721294412044e-07,-3.4936536590506575e-07,-4.446541977588597e-07,-1.2067151592684096e-06,-3.297667974707911e-08,-7.592363250751934e-07,-4.303140279946858e-07,-8.915861193181428e-07,6.476480740079454e-07,-8.857103377786631e-07,-9.266382676145512e-07,-1.5827754838623168e-06,-7.449613097831808e-08,-2.447261348305667e-07
1.6417483795329592e-07,2.674244526315299e-07,-3.335951005680133e-07,5.85656677162655e-07,-4.2179228912027885e-07,-3.381770967151152e-07,-4.1417018882147717e-07,-1.2241818774959118e-06,-4.8293207419822805e-08,-7.480889202219675e-07,-4.2397102051683695e-07,-8.794199395261326e-07,6.693390794098967e-07,-9.103834538947762e-07,-9.165204865829221e-07,-1.5241419817101415e-06,-1.102310220711528e-07,-2.293697805155359e-07
1.341867100834488e-07,2.586625017946051e-07,-3.4413777523753846e-07,5.893847805188675e-07,-4.3077628365201247e-07,-3.265506564110849e-07,-3.860450551427501e-07,-1.2390514452257396e-06,-6.486925399780364e-08,-7.349774260820264e-07,-4.1510626361372684e-07,-8.682414562920617e-07,6.932815051975237e-07,-9.335327153198086e-07,-9.060825241589294e-07,-1.4646309815079072e-06,-1.465760130490084e-07,-2.2209057303847357e-07
1.0022663837533965e-07,2.474671902991059e-07,-3.5043897670657577e-07,5.867408489659604e-07,-4.414080430328416e-07,-3.1678456978050233e-07,-3.654297214296987e-07,-1.2524946717697887e-06,-8.459262376075825e-08,-7.281207835774106e-07,-4.0598199382221225e-07,-8.609198691163335e-07,7.089684818081768e-07,-9.560123794729313e-07,-8.984015525210042e-07,-1.409707680579139e-06,-1.8313774067122336e-07,-2.225465320174778e-07
6.44017100452616e-08,2.3353829559591205e-07,-3.561948628851495e-07,5.778401790714271e-07,-4.538291077107933e-07,-3.0934327174096536e-07,-3.5380322056949004e-07,-1.2637303862351842e-06,-1.0672957871891941e-07,-7.247007556401888e-07,-3.952944582967818e-07,-8.626793214410359e-07,7.222348078309618e-07,-9.776759329742894e-07,-8.949250418467775e-07,-1.3606271127043844e-06,-2.193166291526295e-07,-2.2861891363967782e-07
2.8842260051985964e-08,2.1748783620776004e-07,-3.621455950189554e-07,5.643842005004111e-07,-4.6750277387891084e-07,-3.0409614564219907e-07,-3.507329025666371e-07,-1.2761019837014314e-06,-1.3143565032826284e-07,-7.31565326574163e-07,-3.834549913283106e-07,-8.722540121780926e-07,7.271947201336928e-07,-9.982475192024486e-07,-8.96583138797425e-07,-1.3288189728869042e-06,-2.5344000513334923e-07,-2.377170586429823e-07
-1.1677056439555543e-08,1.9985596936937088e-07,-3.6982930349180203e-07,5.482612253837799e-07,-4.818881126428684e-07,-3.0096502398074676e-07,-3.55060924729483e-07,-1.2875540861042146e-06,-1.5720805107949538e-07,-7.398777666923383e-07,-3.7144221203228654e-07,-8.81447599744557e-07,7.321650462328555e-07,-1.017013430397668e-06,-9.029750926397865e-07,-1.3139156201411057e-06,-2.8346965973475854e-07,-2.46991187493543e-07
-5.2708008854507616e-08,1.817505893521689e-07,-3.779626741743064e-07,5.320682806346477e-07,-4.957213735331233e-07,-2.985756852653785e-07,-3.652906722564338e-07,-1.2950983603172952e-06,-1.8147164646437444e-07,-7.468145499491235e-07,-3.6266876264982686e-07,-8.892318180431917e-07,7.402107971254876e-07,-1.0318802110689541e-06,-9.112839079458542e-07,-1.3101733980333774e-06,-3.070601336643903e-07,-2.53065782654705e-07
-8.93943750706502e-08,1.6570611403172748e-07,-3.8811526092104517e-07,5.195440585497274e-07,-5.064825586975096e-07,-2.9375658976578133e-07,-3.7494852306184933e-07,-1.2962233508307203e-06,-2.0006694999526915e-07,-7.490817355113692e-07,-3.5488139628279947e-07,-8.9694390309703e-07,7.553235979767437e-07,-1.0402745106688965e-06,-9.169802466663204e-07,-1.3122712099587614e-06,-3.217985071364429e-07,-2.5311328447712516e-07
-1.2088055688655954e-07,1.54424905018403e-07,-3.9866097541489377e-07,5.137601071190266e-07,-5.117654073982513e-07,-2.837475421510474e-07,-3.774061700202084e-07,-1.2891448751869367e-06,-2.093719355353636e-07,-7.530003765717235e-07,-3.459797596415328e-07,-8.995056527464346e-07,7.764029551085508e-07,-1.0415820118611187e-06,-9.177204454884046e-07,-1.3144559757731945e-06,-3.287447779827641e-07,-2.4668400772857614e-07
-1.4572709292943343e-07,1.4881141081259222e-07,-4.076421893038711e-07,5.151323157191263e-07,-5.110812475015751e-07,-2.683440834732579e-07,-3.6947632494467097e-07,-1.2743315840514317e-06,-2.1004347549784306e-07,-7.56328318689716e-07,-3.3608525553359066e-07,-8.96966555000292e-07,8.029431277679233e-07,-1.0379759415476838e-06,-9.136187035670267e-07,-1.3098324629640298e-06,-3.32356166931558e-07,-2.3589381759319513e-07
-1.676969167626919e-07,1.4777176480995646e-07,-4.1443970087659595e-07,5.219732756820807e-07,-5.058572310709541e-07,-2.4928961705115117e-07,-3.508897019715968e-07,-1.2535973294915846e-06,-2.049991543988446e-07,-7.520414141411946e-07,-3.2183071484138955e-07,-8.906218901449183e-07,8.376406143719609e-07,-1.0327488016445497e-06,-9.056601252681586e-07,-1.2962843493024645e-06,-3.375053298217255e-07,-2.2377524553469941e-07
-1.9139169570755185e-07,1.494443406845912e-07,-4.1971987078799047e-07,5.321131569646154e-07,-4.983088856882021e-07,-2.286646345836471e-07,-3.2065147481769056e-07,-1.2289110888434786e-06,-1.9747465161218082e-07,-7.429306685732273e-07,-3.0448305455465554e-07,-8.780747859241311e-07,8.796918780120486e-07,-1.0287020351570326e-06,-8.956250335175979e-07,-1.2670165228414577e-06,-3.4824076574000025e-07,-2.130320348209514e-07
-2.2001951354424182e-07,1.5171351547955069e-07,-4.2696989405104396e-07,5.428947079950201e-07,-4.91086129270374e-07,-2.0871741152217306e-07,-2.827590127151612e-07,-1.2066163612507221e-06,-1.907923516839943e-07,-7.28886343728983e-07,-2.857815948577127e-07,-8.613658668123855e-07,9.288387159724536e-07,-1.027859719837429e-06,-8.846044157141564e-07,-1.2312700818805439e-06,-3.649775900776523e-07,-2.0605419365076306e-07
-2.5443735445620875e-07,1.5200405362029612e-07,-4.373136301206194e-07,5.506036657677224e-07,-4.872368093572632e-07,-1.919250170606173e-07,-2.4416771522281945e-07,-1.1879903189359192e-06,-1.8912439868253002e-07,-7.199866524118272e-07,-2.669287673111022e-07,-8.437927950591296e-07,9.77529820314389e-07,-1.0308108210310051e-06,-8.737514511953717e-07,-1.1940441298026533e-06,-3.8643815933545173e-07,-2.0480319413534117e-07
-2.9636315334705644e-07,1.4814181008383117e-07,-4.53491582910556e-07,5.516709898656764e-07,-4.890071895130481e-07,-1.7956781226315764e-07,-2.1170883356566531e-07,-1.173364375077659e-06,-1.9508823091777523e-07,-7.12723802377084e-07,-2.5315621025319386e-07,-8.289023649867791e-07,1.0183986182157083e-06,-1.0352625979946384e-06,-8.634950015386641e-07,-1.1561088137413892e-06,-4.0839986482272947e-07,-2.102156714959128e-07
-3.442930711306322e-07,1.3966595530873062e-07,-4.694810902569443e-07,5.443428335487604e-07,-4.963725618554947e-07,-1.7060818660618792e-07,-1.9332837704537337e-07,-1.1637979431721057e-06,-2.0787554522023046e-07,-7.186458959052838e-07,-2.446767064263127e-07,-8.22900508071123e-07,1.0460224151225417e-06,-1.0361961746197035e-06,-8.537561750059093e-07,-1.1281866884099968e-06,-4.2932989095686127e-07,-2.2258397384051226e-07
-3.8687201211729036e-07,1.273603140000039e-07,-4.803458515666353e-07,5.281555678214299e-07,-5.072237474376535e-07,-1.629771787180621e-07,-1.964623663872101e-07,-1.157800154639102e-06,-2.2526537960818527e-07,-7.347532026974843e-07,-2.4217115511005643e-07,-8.297797866188783e-07,1.0450572702912516e-06,-1.0284178485550858e-06,-8.464308703026324e-07,-1.1179385966511123e-06,-4.394272174509731e-07,-2.4287533976941407e-07
-4.216008273434079e-07,1.116152386235176e-07,-4.825051196977854e-07,5.023951572239019e-07,-5.185196283320433e-07,-1.5537626552615628e-07,-2.2892530226667766e-07,-1.1566951030416202e-06,-2.453558632413744e-07,-7.62156007702269e-07,-2.4835988016056946e-07,-8.544160763147963e-07,1.0088018427186557e-06,-1.0088581553875124e-06,-8.463567567160223e-07,-1.1392612583612296e-06,-4.376638283098127e-07,-2.727290929962985e-07
-4.457701411138752e-07,9.249093038503586e-08,-4.708406424688294e-07,4.6667238203978264e-07,-5.262746551536564e-07,-1.4684010356274515e-07,-2.9665187243582075e-07,-1.162146801107079e-06,-2.657576395560884e-07,-8.080037565167565e-07,-2.6514694405481695e-07,-9.012801888877823e-07,9.338428847488347e-07,-9.769967967987529e-07,-8.593009487382181e-07,-1.203756612023761e-06,-3.732935169208803e-07,-3.1245996163805107e-07
-4.544950258181296e-07,7.156145615662436e-08,-4.4052713045173634e-07,4.2289126469138226e-07,-5.249622783504794e-07,-1.3553344480739588e-07,-3.970833755512962e-07,-1.1757485184626694e-06,-2.826320221739727e-07,-8.660757553142259e-07,-2.922702872209057e-07,-9.718176168385297e-07,8.220611117753513e-07,-9.351901370536324e-07,-8.896126860701194e-07,-1.318814511167321e-06,-2.646662100524971e-07,-3.595152599400916e-07
-4.4655141972043847e-07,5.233448598650355e-08,-3.879819679591934e-07,3.749802205641156e-07,-5.089355511798029e-07,-1.1989867105388337e-07,-5.195255641838085e-07,-1.1979600407372457e-06,-2.909329881632502e-07,-9.309602377666809e-07,-3.270997539673133e-07,-1.0541214619846563e-06,6.861135039254058e-07,-8.898310348534706e-07,-9.404749395077822e-07,-1.4793442651972142e-06,-1.6294200647194418e-07,-4.0921988904304386e-07
-4.205137067362669e-07,3.816004711126003e-08,-3.147654727659375e-07,3.2620436840527277e-07,-4.7567954677332004e-07,-1.0096016164346798e-07,-6.488153452316245e-07,-1.2314597545259057e-06,-2.9335712806644024e-07,-9.939160285472854e-07,-3.6570460356390744e-07,-1.1458961435008798e-06,5.42451285394584e-07,-8.507958312404957e-07,-1.013429960527055e-06,-1.6780154160849556e-06,-7.883521120831059e-08,-4.5647933788708257e-07
-3.828988647094237e-07,3.0480935006092016e-08,-2.2791422391780255e-07,2.7780867312830477e-07,-4.275296621551014e-07,-8.189153258020529e-08,-7.544413256960169e-07,-1.279429664526254e-06,-2.9520511832766186e-07,-1.0491359250238211e-06,-4.025651052802617e-07,-1.2421964816742064e-06,4.082882055009432e-07,-8.275833879050053e-07,-1.106598716091112e-06,-1.8997234941579048e-06,-3.094811451336111e-09,-4.966076160371076e-07
-3.434245234296895e-07,2.9295675519584792e-08,-1.3749025857713448e-07,2.3028538376052578e-07,-3.7033322074988646e-07,-6.506139607351109e-08,-8.248987925326717e-07,-1.3420405682037947e-06,-3.0181565126150727e-07,-1.0887790181394673e-06,-4.331273606972058e-07,-1.3433271977739323e-06,2.9407303767954827e-07,-8.25032706671702e-07,-1.2140944651805075e-06,-2.1234656835413487e-06,4.136833565885218e-08,-5.256541174862312e-07
-3.114794795076158e-07,3.402651004144769e-08,-5.3065793037950865e-08,1.8426369545724553e-07,-3.11176867772946e-07,-5.0713899464467305e-08,-8.549057947383909e-07,-1.4171220651072846e-06,-3.1742063680672087e-07,-1.1090520682813414e-06,-4.5344946664031333e-07,-1.442157450648931e-06,2.1264458527198994e-07,-8.420060355316298e-07,-1.327499576739347e-06,-2.299100522127634e-06,6.650638821732371e-08,-5.411106020530724e-07
-2.9158019566060225e-07,4.3243724794923816e-08,1.8340131766562153e-08,1.396232106984961e-07,-2.567678749388454e-07,-3.829906249421641e-08,-8.43728095860555e-07,-1.4994725539406331e-06,-3.414921881548449e-07,-1.1111617824988352e-06,-4.609549536588206e-07,-1.530715846562419e-06,1.7617456106348602e-07,-8.72411656343061e-07,-1.4386138271413736e-06,-2.4355492079931894e-06,7.964636311888433e-08,-5.422540816326476e-07
-2.833978041395969e-07,5.478195431790614e-08,7.314332358856472e-08,9.55375116300393e-08,-2.1139809041090977e-07,-2.7090342653986975e-08,-7.968996633702009e-07,-1.5862327799276706e-06,-3.7255615465339457e-07,-1.097264353358592e-06,-4.548865991035404e-07,-1.58783640294532e-06,1.6968181356960333e-07,-9.064514725227372e-07,-1.540026354081825e-06,-2.5350712294013825e-06,8.788117246356903e-08,-5.29193976243325e-07
-2.822690655015426e-07,6.740525567176175e-08,1.1321418388611147e-07,5.2682875148771086e-08,-1.7433448626316612e-07,-1.4918294882135405e-08,-7.437891501399786e-07,-1.670751358747568e-06,-4.0476363891779423e-07,-1.0692433219265657e-06,-4.3471615595403374e-07,-1.6207441340353397e-06,1.7951855668229543e-07,-9.326416170941572e-07,-1.6246137487672954e-06,-2.600057331052187e-06,1.0015324604846062e-07,-5.018671930197447e-07
-2.7919087097288074e-07,8.210012115751249e-08,1.4491307876068804e-07,1.4483610601692952e-08,-1.391964907072922e-07,2.014689533420976e-09,-6.866485760868265e-07,-1.736488822394368e-06,-4.2917753154817757e-07,-1.0281780785676968e-06,-4.0034235110124776e-07,-1.6359329029017716e-06,1.801313458516537e-07,-9.418438703756126e-07,-1.6874328647901627e-06,-2.640605891633122e-06,1.2556584508158563e-07,-4.604032551575184e-07
-2.6630963893103306e-07,1.0138173226601092e-07,1.7509104509353726e-07,-1.4679333506619497e-08,-9.669547285252474e-08,2.7096032347302358e-08,-6.171370911258733e-07,-1.7804077148903652e-06,-4.3813172608776795e-07,-9.74214832938728e-07,-3.5316268224922357e-07,-1.6313883967694917e-06,1.732767477880653e-07,-9.341449189271352e-07,-1.7272886938305966e-06,-2.623137858345787e-06,1.7607408637903614e-07,-4.061043182349856e-07
-2.3927567837700833e-07,1.281039469478544e-07,2.1009672226557265e-07,-3.182340572085971e-08,-3.8566283156330754e-08,6.188024287489281e-08,-5.631330135995644e-07,-1.801521738336156e-06,-4.291284653739395e-07,-9.107701022525572e-07,-2.96330782535512e-07,-1.6075569583257922e-06,1.7188347027530303e-07,-9.137268636236428e-07,-1.7463703730774043e-06,-2.57391100487051e-06,2.42727982883172e-07,-3.418285234956895e-07
-1.9926984700829805e-07,1.6524735779529154e-07,2.5228874029950347e-07,-3.594626548326089e-08,4.107426846712306e-08,1.066763876297812e-07,-5.080439922630918e-07,-1.801454647897167e-06,-4.045393223612079e-07,-8.35597238909549e-07,-2.3390066373945094e-07,-1.5777709332849722e-06,2.2024340030596854e-07,-8.879198109225479e-07,-1.7484775484224172e-06,-2.4700496197247398e-06,3.0996045689934244e-07,-2.722889139660283e-07
-1.5440814505571932e-07,2.1522150661851564e-07,3.018296587733719e-07,-2.8018022995179096e-08,1.4028211089133996e-07,1.6092711621809772e-07,-4.3232875573871405e-07,-1.7860172986503991e-06,-3.7027466003355326e-07,-7.506539829772834e-07,-1.6986887134522078e-07,-1.5357141121222924e-06,3.2800220312928785e-07,-8.710082926401893e-07,-1.7375480824070667e-06,-2.2873203859096438e-06,3.163408968716791e-07,-2.0480437978748307e-07
-1.1365306428309568e-07,2.780266768995937e-07,3.551802651259145e-07,-1.1249398023251357e-08,2.476186556855063e-07,2.223830504161733e-07,-3.357201296112105e-07,-1.7706007110788026e-06,-3.3552286103355037e-07,-6.564783731530683e-07,-1.075773010887255e-07,-1.4757303389809915e-06,4.6597532144022686e-07,-8.748449779556186e-07,-1.7164698451920175e-06,-2.135833040034375e-06,2.2873335362228736e-07,-1.488917704727895e-07
-8.650170503936785e-08,3.500962115896123e-07,4.041751066736367e-07,1.002464365644671e-08,3.514635653510322e-07,2.8699957103298976e-07,-2.1807731103083818e-07,-1.7439948731209649e-06,-3.089321823191518e-07,-5.524924474633954e-07,-4.9011220795720345e-08,-1.4372952396369442e-06,5.222527011594428e-07,-9.073536980450322e-07,-1.6855753764506089e-06,-2.028783182966029e-06,1.124618342844079e-07,-1.1334067537483685e-07
-7.91025325316795e-08,4.254458145534829e-07,4.3938217883900214e-07,3.477726454558226e-08,4.275834053361236e-07,3.5015436297242425e-07,-6.144538608430376e-08,-1.704889963126637e-06,-2.9568127916453334e-07,-4.403221657645946e-07,5.560726072770815e-09,-1.3922451914412742e-06,5.411068374410042e-07,-9.658181152024344e-07,-1.6423428091402052e-06,-1.985362774066617e-06,7.57155032842856e-09,-1.022873313254272e-07
-8.9794804132941e-08,4.978880576769787e-07,4.513992982700136e-07,6.14263308231326e-08,4.3788236020082446e-07,4.0759430356925247e-07,1.1217692681629826e-07,-1.6824760463421544e-06,-2.961108865097799e-07,-3.1874168882022524e-07,5.737050418855278e-08,-1.3536994388576096e-06,6.758598062731311e-07,-1.040174316946535e-06,-1.5830953362934632e-06,-1.9765888021373075e-06,-1.5656705679176886e-07,-1.1266309995159204e-07
-1.079889697080787e-07,5.626280858537694e-07,4.3486633511404687e-07,9.38020401012585e-08,4.795952294400745e-07,4.5586516840444236e-07,2.5543890614045767e-07,-1.6199602818687259e-06,-3.055395123290391e-07,-1.8635752954128594e-07,1.064537805787089e-07,-1.3236469646688143e-06,8.672153223064551e-07,-1.0843238225436282e-06,-1.5053635922185748e-06,-1.8464405914062105e-06,-2.7143210321342265e-07,-1.33814897766664e-07
-1.2039335151001925e-07,6.173372099189815e-07,3.8996039117027604e-07,1.3861579017361108e-07,4.91928678812876e-07,4.930279893771831e-07,3.36523618274469e-07,-1.5510446436203236e-06,-3.1641349404884043e-07,-4.110830686615511e-08,1.515784870564062e-07,-1.2966989314825977e-06,1.0482739852016787e-06,-1.0478525351138303e-06,-1.4090769758341201e-06,-1.6164803601533812e-06,-2.6995857355623905e-07,-1.497800992100907e-07
-1.1256712306981309e-07,6.624287423625762e-07,3.248588547500665e-07,2.0184454158842957e-07,4.6033341923313026e-07,5.187828380050384e-07,3.901823979767033e-07,-1.5075847772096139e-06,-3.198808484130787e-07,1.1578567821240051e-07,1.9055685000394605e-07,-1.2232574561951092e-06,1.2067375390161944e-06,-9.893652950499514e-07,-1.2971294529724933e-06,-1.4779204899072421e-06,-2.443567562821949e-07,-1.4456553813596752e-07
-7.368139076918408e-08,6.998302501276622e-07,2.5128811537441356e-07,2.893818166252904e-07,4.041223559937527e-07,5.331900186478784e-07,4.667605377326789e-07,-1.5035471270238084e-06,-3.0896834252100516e-07,2.812072211074433e-07,2.2076616765996009e-07,-1.1198220753845847e-06,1.2790428309585608e-06,-8.948447261590929e-07,-1.1759530184462685e-06,-1.3791970870848892e-06,-2.0668214341882533e-07,-1.0811111867768434e-07
-3.32952375414396e-09,7.311401658417297e-07,1.8173561432119601e-07,3.9691601372415237e-07,3.6087043326140936e-07,5.355051677582834e-07,5.654920925130866e-07,-1.4751652579555878e-06,-2.8177696955644293e-07,4.4343250360676286e-07,2.42179704714014e-07,-1.0123665762861503e-06,1.3876264981755178e-06,-8.578936106048728e-07,-1.0551807745395545e-06,-1.2419699822864317e-06,-1.8819708583260328e-07,-3.90113320156593e-08
9.020255460229384e-08,7.568828164372729e-07,1.2680776278523834e-07,5.114106896875314e-07,3.294524579900619e-07,5.243407725064427e-07,6.279601203722327e-07,-1.3976757486252398e-06,-2.4080017447567113e-07,5.86625873000628e-07,2.560457265357901e-07,-8.775945705888434e-07,1.46443597020106e-06,-8.175714968337029e-07,-9.459318455707738e-07,-1.0756807618604907e-06,-1.1822811195801746e-07,5.688078953058056e-08
1.9273748335027567e-07,7.76890154693913e-07,9.330386358265626e-08,6.001688277756771e-07,3.0700142457979767e-07,4.983762463134651e-07,5.917220617547022e-07,-1.317665902733059e-06,-1.9262415661172418e-07,6.97731954222986e-07,2.682804881364664e-07,-7.587233751284831e-07,1.503308680087364e-06,-7.094775045439123e-07,-8.580707993629034e-07,-9.194568644641247e-07,-2.5626135737803503e-09,1.6982915413450685e-07
2.88676052381755e-07,7.910944276244788e-07,8.31205825626133e-08,6.339187361306604e-07,2.960179556464136e-07,4.5722496803666603e-07,5.883410146241707e-07,-1.2384735542240615e-06,-1.462781807157888e-07,7.713670110038444e-07,2.8547657476933964e-07,-6.594823490682003e-07,1.5068425946739564e-06,-5.811465304006077e-07,-7.971276076734757e-07,-8.049465526758079e-07,1.3157052620731937e-07,2.8934390237720234e-07
3.660972356878526e-07,8.005208785681246e-07,9.288414000140867e-08,6.313154719623339e-07,2.9606254282119487e-07,4.0266891787442756e-07,5.577930986739616e-07,-1.1571592387313628e-06,-1.1008110225624217e-07,8.132102007283066e-07,2.979478243734812e-07,-5.746154715697882e-07,1.5237634866088566e-06,-4.620323210501429e-07,-7.622432943776835e-07,-7.286962283430423e-07,2.3075809952727089e-07,4.060300829573237e-07
4.2095877231818425e-07,8.077066666219248e-07,1.1649756129718742e-07,6.229053180278403e-07,3.0598532799612413e-07,3.39268236442674e-07,4.89823578805518e-07,-1.0642355362328278e-06,-8.887669921331715e-08,8.358011969678301e-07,3.3117896965718655e-07,-5.032695945101532e-07,1.5769769172681146e-06,-3.5790177477338706e-07,-7.466089451236305e-07,-6.904614648945956e-07,2.9826166615463723e-07,5.12346652150129e-07
4.559349256760867e-07,8.158306590975982e-07,1.445747643560304e-07,6.464796716456811e-07,3.2387825485577653e-07,2.7356044397463194e-07,4.6252468367035557e-07,-9.745196635468477e-07,-8.287250770798562e-08,8.595434509445048e-07,3.950471616149724e-07,-4.660300556243149e-07,1.6359538326991697e-06,-3.036985549934452e-07,-7.396189083560802e-07,-6.491599076069131e-07,3.0015159644457436e-07,6.031358134864356e-07
4.754617817917886e-07,8.276374153382467e-07,1.694999548717301e-07,5.921077727662363e-07,3.469304446926707e-07,2.1269012965824143e-07,4.4083913609209806e-07,-9.745724036037476e-07,-8.75685156471738e-08,8.980863933153566e-07,4.57864176141405e-07,-4.413742216623749e-07,1.7033772396060148e-06,-2.8027280496888336e-07,-7.288265002548834e-07,-6.358457351327522e-07,2.6649006025913507e-07,6.757213610327575e-07
4.865972397119248e-07,8.447238722670152e-07,1.8686652612069299e-07,5.127574151137327e-07,3.7147970299548655e-07,1.630221447214594e-07,4.3040617480681926e-07,-9.711764228229615e-07,-9.499019154919044e-08,9.687383521756915e-07,5.173234066740528e-07,-4.0633387126906645e-07,1.7760935430329672e-06,-2.7537408630337666e-07,-7.016010550753757e-07,-5.701775628143911e-07,2.2024726723222458e-07,7.284120115196604e-07
4.933255641695408e-07,8.669379412724401e-07,1.9552451655685102e-07,4.6315242588245594e-07,3.9285502644273035e-07,1.285813979060796e-07,4.450992167230368e-07,-9.46142634487752e-07,-9.694988269786854e-08,1.0722784769537163e-06,5.806390826338851e-07,-3.637842536710957e-07,1.8342601193169684e-06,-2.768787003152131e-07,-6.475586235774316e-07,-4.428398194737831e-07,1.7108039615933063e-07,7.584573302870309e-07
4.948646086161134e-07,8.920025946447576e-07,1.9736090869977328e-07,4.1911403793127416e-07,4.056832888614069e-07,1.100615946565044e-07,4.587334370200883e-07,-9.234252572332473e-07,-8.764282502577528e-08,1.2068145993459178e-06,6.427530631880166e-07,-2.994657289038366e-07,1.8937664459422743e-06,-2.6395798718841135e-07,-5.618561025019318e-07,-2.946910484273462e-07,1.4761707905967266e-07,7.623982138384888e-07
4.895674827635862e-07,9.161357347413288e-07,1.9563154952637544e-07,4.104235001947828e-07,4.055942954256016e-07,1.0499323421773648e-07,4.704559797027749e-07,-8.751108769891787e-07,-6.522417288747858e-08,1.3663731396350899e-06,6.938870386621994e-07,-2.068983624721322e-07,1.9563051408846025e-06,-2.3670999832473877e-07,-4.482153735144556e-07,-1.4203424833217844e-07,1.4967390737002844e-07,7.392359426714976e-07
4.7649898013498816e-07,9.35459388824022e-07,1.9316745997996216e-07,4.3938096969495536e-07,3.913655639319534e-07,1.0839113020099872e-07,4.757487845310114e-07,-8.237275373400736e-07,-3.061233838151067e-08,1.4608757634801653e-06,7.310628896090188e-07,-1.0804772618327202e-07,1.958308085196366e-06,-1.9849208096801112e-07,-3.1956707279504843e-07,-2.5223945621154433e-08,1.780729487115988e-07,6.932512908435939e-07
4.595117600892376e-07,9.472269800278704e-07,1.9123868733957952e-07,4.923020218490296e-07,3.6589302089107215e-07,1.1405935333317878e-07,4.645288736633925e-07,-7.708535555886484e-07,1.2054807214852818e-08,1.461460749371707e-06,7.509700869612211e-07,-1.9508597204496134e-08,1.944875925155303e-06,-1.5174841998070888e-07,-1.9436965914510976e-07,5.055771686219621e-08,2.3422495302588772e-07,6.336288102691229e-07
4.4620886253427484e-07,9.507031461536161e-07,1.9035566631816373e-07,5.681337619774251e-07,3.355732317444863e-07,1.169968595965443e-07,4.363043974851658e-07,-7.137454606498157e-07,5.8071757712350934e-08,1.442279850123038e-06,7.516002849617574e-07,4.678124634927813e-08,1.8588204075688704e-06,-1.0025892860109847e-07,-8.995229537092986e-08,7.283012194581018e-08,3.123059094146731e-07,5.710942129782484e-07
4.445629911161302e-07,9.473095279755061e-07,1.916864926671204e-07,6.489408025029954e-07,3.082646144945227e-07,1.1548514459424025e-07,3.9466404314329586e-07,-6.625176098789741e-07,1.0477094959921396e-07,1.4177956853347196e-06,7.336013600237295e-07,6.752798692846762e-08,1.7262642949161468e-06,-4.7462817216919186e-08,-1.7124110510774966e-08,3.7583196991873274e-08,4.0517943750710243e-07,5.139367477255914e-07
4.585508569317896e-07,9.396706275395536e-07,1.9745538964421204e-07,7.264374751853604e-07,2.9047249351987407e-07,1.1104119213699827e-07,3.4620941817914994e-07,-6.097696562591332e-07,1.509099172830445e-07,1.2518433795042984e-06,7.001088750681642e-07,7.065046981504165e-08,1.5322188420043737e-06,3.4444682654824575e-09,2.1714002543352166e-08,-4.252818281686536e-08,5.040506573035734e-07,4.658856496779933e-07
4.864943314593449e-07,9.303860143528762e-07,2.102759496900671e-07,7.966153745996457e-07,2.853551273706354e-07,1.0687459236424686e-07,2.9664609071449024e-07,-5.519215862260888e-07,1.9694661143843946e-07,1.080905669488086e-06,6.568195623123703e-07,5.2878108225815755e-08,1.3684841554591242e-06,4.9289048575263406e-08,3.1673545628104484e-08,-1.4926482094950727e-07,5.99291209147485e-07,4.264687479190337e-07
5.221742094554599e-07,9.215239899171271e-07,2.316765259171482e-07,8.550008013298512e-07,2.924180333817861e-07,1.0609703203168926e-07,2.5691891950010916e-07,-4.938759032777251e-07,2.432530239809143e-07,9.94408193451774e-07,6.110716641093591e-07,2.775884802088125e-08,1.2473003778399095e-06,8.668176272524408e-08,2.2649391461698306e-08,-2.5482170324130665e-07,6.815873450154657e-07,3.924660082753218e-07
5.565550590047945e-07,9.144705030249764e-07,2.611826864739306e-07,8.992830580342204e-07,3.081347302259147e-07,1.1008264500935225e-07,2.3189290904941734e-07,-4.4004080331339215e-07,2.885862229245727e-07,9.422785932969255e-07,5.713349380231925e-07,-9.872098950764952e-10,1.159582277708872e-06,1.1177129467700621e-07,5.726469759764296e-09,-3.330883301439471e-07,7.426581895558115e-07,3.59259689460323e-07
5.805798015411519e-07,9.097891823918174e-07,2.9600392490904587e-07,9.283931703461032e-07,3.2701385789009015e-07,1.1795686291348499e-07,2.2184414477577808e-07,-3.945611908389412e-07,3.296455896794714e-07,9.112647098414902e-07,5.427474098166311e-07,-2.6697939683632227e-08,1.1157319381838243e-06,1.2088541777401777e-07,-9.742831459471254e-09,-3.656706806277898e-07,7.763706708112835e-07,3.221567257474185e-07
5.870981974177367e-07,9.074692392876546e-07,3.3146870727165925e-07,9.430217040350521e-07,3.432454821252726e-07,1.276119468906511e-07,2.2610018313007262e-07,-3.6131532890782943e-07,3.6274975486076557e-07,8.840116677205861e-07,5.271899597132581e-07,-4.491081386552699e-08,1.098424682221015e-06,1.1193617505717428e-07,-1.7894705183573246e-08,-3.4452111868184373e-07,7.803257502221602e-07,2.7777676482111935e-07
5.727395706327578e-07,9.072197455788721e-07,3.6299281542956867e-07,9.460660138629928e-07,3.522155733191274e-07,1.368341754394444e-07,2.408442616714767e-07,-3.4057830171804145e-07,3.8562993955538556e-07,8.542140612973206e-07,5.241667996528759e-07,-5.164433538786772e-08,1.1032774491360825e-06,8.527443006644089e-08,-1.7491071779879805e-08,-2.73247949963083e-07,7.560284223379444e-07,2.2534407030976495e-07
5.390348027929424e-07,9.082581708552944e-07,3.862692168308515e-07,9.418900876921753e-07,3.5126086400148865e-07,1.4363373357980095e-07,2.6263393253806755e-07,-3.3020317057207424e-07,3.9807901035215494e-07,8.25560232908102e-07,5.252078592487979e-07,-4.950293686716419e-08,1.1289708856196792e-06,4.389028925498592e-08,-1.1837941514197625e-08,-1.6636631539256917e-07,7.085660494926201e-07,1.6798398710113908e-07
4.910785771894315e-07,9.097043094866122e-07,3.982299906150118e-07,9.353176238469608e-07,3.4019222888961966e-07,1.4650577299100504e-07,2.8863373066004565e-07,-3.2628391858789095e-07,4.02370497304247e-07,7.952207429445823e-07,5.28514259219885e-07,-4.350881976662771e-08,1.1679224261253688e-06,-6.614705312796031e-09,-6.788692538327597e-09,-4.473547874072965e-08,6.460698571544215e-07,1.132887661959687e-07
4.3783141006319605e-07,9.115552269560237e-07,3.977889912253817e-07,9.308286008875055e-07,3.2156032491156165e-07,1.4455597095206886e-07,3.166960567926792e-07,-3.2361517675309403e-07,4.022236705210234e-07,7.702737916286693e-07,5.331798405859595e-07,-3.659910496040283e-08,1.2178772099549763e-06,-5.909003113514129e-08,-7.933398351653123e-09,7.103215296911209e-08,5.777567467771541e-07,7.160553751520239e-08
3.9015549628521157e-07,9.149451408512503e-07,3.8538329770806334e-07,9.311843442021902e-07,2.9978073609982185e-07,1.3694228680359407e-07,3.451641107305943e-07,-3.174445632289644e-07,4.0085437566235375e-07,7.527083063991121e-07,5.371230174090507e-07,-3.109984647208204e-08,1.2739195556351935e-06,-1.0704096069947925e-07,-1.823201229813968e-08,1.6635706615629935e-07,5.112626085008258e-07,5.234267461197682e-08
3.5741489585886144e-07,9.215481691325108e-07,3.624249829191124e-07,9.361752401954984e-07,2.795237314473334e-07,1.2268860722749282e-07,3.7229206754706384e-07,-3.04856350609825e-07,3.9988985688009574e-07,7.462396352986825e-07,5.407434671525659e-07,-3.015881567362724e-08,1.3216965143344821e-06,-1.4627926941633472e-07,-3.640297195056786e-08,2.3672691514429477e-07,4.513390560302622e-07,6.067487322654968e-08
3.45868868551076e-07,9.32985040697129e-07,3.309865983697361e-07,9.428341649298967e-07,2.645597296076481e-07,1.0163510494475816e-07,3.967592683243349e-07,-2.848337583467093e-07,3.9861244360723444e-07,7.573777183155239e-07,5.417196982265382e-07,-3.0329585490079933e-08,1.3637034248047765e-06,-1.752097098647073e-07,-5.6896272874200116e-08,2.8811014246423725e-07,3.998186864148014e-07,9.611081299711756e-08
3.575654051109123e-07,9.501893701783877e-07,2.9364529254723665e-07,9.46401484937636e-07,2.569639148233309e-07,7.517360890625274e-08,4.1794319774909815e-07,-2.5790556947990015e-07,3.9580595672940357e-07,7.897665332971038e-07,5.407848515891292e-07,-2.9203873744528134e-08,1.4041525697133708e-06,-1.9453917926410078e-07,-7.222121515533336e-08,3.3317806873809043e-07,3.560966823132552e-07,1.5287382442204652e-07
3.897679359060343e-07,9.72469702546029e-07,2.528474681309179e-07,9.411360491939463e-07,2.5640343026852887e-07,4.6043280113035535e-08,4.350896895410195e-07,-2.2518586201915755e-07,3.902803255823792e-07,8.430947936388043e-07,5.420485693395138e-07,-2.0167562501746582e-08,1.446147710518123e-06,-2.0658713016047745e-07,-7.60976799845669e-08,3.853849680923852e-07,3.181079591875148e-07,2.2208915930975962e-07
4.354991009086095e-07,9.974650404354114e-07,2.1087323603379055e-07,9.218451240590695e-07,2.6034450040081623e-07,1.8060740406742814e-08,4.4729876102332246e-07,-1.893802586419727e-07,3.8139225378002716e-07,9.123484455399586e-07,5.609976314307901e-07,-4.843599320926187e-09,1.495273286086046e-06,-2.14050321493184e-07,-6.521541083037204e-08,4.549755130998544e-07,2.8358086276470124e-07,2.951263789857509e-07
4.85743517126161e-07,1.0223795658384663e-06,1.6985019541927127e-07,8.862047879612137e-07,2.6526030019724497e-07,-4.356448248723443e-09,4.541187195403815e-07,-1.531903045840045e-07,3.707429487771374e-07,9.89485862361663e-07,6.006700088385146e-07,1.2494574763112467e-08,1.5544477700866648e-06,-2.190955570063409e-07,-3.94135958993624e-08,5.479771159986638e-07,2.5080865501520477e-07,3.6610756237348307e-07
5.316721113761021e-07,1.0451226097360286e-06,1.312775016623853e-07,8.362593240373402e-07,2.6767315910479755e-07,-1.7644364272937778e-08,4.555435093242109e-07,-1.1865216522591458e-07,3.598798507146875e-07,1.0651318093946156e-06,6.638300792489704e-07,2.879757731238982e-08,1.626999971799789e-06,-2.2141066278332012e-07,-9.89870366913142e-10,6.656523503449187e-07,2.1859507212052228e-07,4.325538063680469e-07
5.656691703485368e-07,1.0646434096244595e-06,9.56690752090879e-08,7.797606932306601e-07,2.648799223541847e-07,-2.0370766728651082e-08,4.5212557611298197e-07,-8.709103867557688e-08,3.502629240761571e-07,1.130849867352272e-06,7.515498826732773e-07,4.224059363538336e-08,1.7106659364150922e-06,-2.2346210159912098e-07,4.655997982144587e-08,8.042905994003277e-07,1.863514400050081e-07,4.94981462621711e-07
5.830132590408847e-07,1.0810031303760397e-06,6.278378817321022e-08,7.265291561384376e-07,2.5586962136673104e-07,-1.3196513047309744e-08,4.4572688635587013e-07,-5.7705329299777244e-08,3.438245109447986e-07,1.182121756588924e-06,8.356300297466266e-07,5.592708741906306e-08,1.7978170123870782e-06,-2.2407753878611767e-07,9.9616544523722e-08,9.548589534769058e-07,1.5420885973141644e-07,5.560087128197325e-07
5.824668976916009e-07,1.0949500290802614e-06,3.169830808816056e-08,6.873098036524655e-07,2.415598394728491e-07,1.3053316861038411e-09,4.3919609876862485e-07,-2.7963975881810757e-08,3.425626227865953e-07,1.2189170461393213e-06,9.243012041472441e-07,7.21037136201289e-08,1.8838096675793092e-06,-2.2085479005119955e-07,1.5473482853528935e-07,1.1033803927398362e-06,1.2238893388678915e-07,6.186898696166225e-07
5.65172244891473e-07,1.106673269005154e-06,2.581911904021004e-10,6.66604783550129e-07,2.2363295653509877e-07,1.8383795876997597e-08,4.343487605369406e-07,3.775382574668949e-09,3.471949453606488e-07,1.2438565760378688e-06,1.0115545900019395e-06,9.237749922651489e-08,1.9617651443581787e-06,-2.1315586924199586e-07,2.0918615457429163e-07,1.233963249437708e-06,9.0547960374813e-08,6.845393522904154e-07
5.335018462198521e-07,1.1150634648403526e-06,-3.4539780290360254e-08,6.640663865952785e-07,2.0329490395768707e-07,3.18356798130148e-08,4.3069162675157336e-07,3.809635074767413e-08,3.5554311518749936e-07,1.261243359295995e-06,1.072813716781337e-06,1.1491839149612939e-07,2.0046423644527156e-06,-2.000187720560646e-07,2.6216456928066957e-07,1.333219568133005e-06,5.832396735156482e-08,7.521429215901074e-07
4.906882233430036e-07,1.1183376053719422e-06,-7.45000417678527e-08,6.741620902489273e-07,1.8107625995872018e-07,3.5924576554048006e-08,4.258044424731627e-07,7.327329724188256e-08,3.652565737500859e-07,1.2720441086023922e-06,1.0991126451958787e-06,1.3797577050394953e-07,2.0079143453293973e-06,-1.8176569904898204e-07,3.148462056273823e-07,1.3937261144578607e-06,2.594081327775926e-08,8.164528668129244e-07
4.407478579959964e-07,1.1148392355929112e-06,-1.1813560080335977e-07,6.87723524480587e-07,1.5704685874232724e-07,2.6956499243297062e-08,4.162682332500057e-07,1.0517087037115519e-07,3.7338524706556623e-07,1.2745689312962507e-06,1.0608791355295016e-06,1.5887553531926308e-07,1.94691340533445e-06,-1.599602574233831e-07,3.6840648035536785e-07,1.4142385985739059e-06,-5.992283643334493e-09,8.691716094840118e-07
3.879292785514223e-07,1.1033362579320151e-06,-1.600648239856968e-07,6.966315634652454e-07,1.3117228163685722e-07,4.303292177315107e-09,3.9920959753850856e-07,1.298408710082297e-07,3.7761708006745814e-07,1.2662970649755134e-06,9.817933852014927e-07,1.7474984880847164e-07,1.7996819692640685e-06,-1.3752594589686341e-07,4.218786661698169e-07,1.3981772988434437e-06,-3.6725343877755725e-08,9.012755649690823e-07
3.3671900615055323e-07,1.0835181806065143e-06,-1.9109978661643948e-07,6.955638363739277e-07,1.0420011742021e-07,-2.8784846954775723e-08,3.7463892211764634e-07,1.4228277245271124e-07,3.782553753385632e-07,1.244818775119905e-06,8.965639004199449e-07,1.8047099539809335e-07,1.7107262779969492e-06,-1.1641440559912595e-07,4.715641931691493e-07,1.3519579016337407e-06,-6.514333819744064e-08,9.070091164560982e-07
2.9138609601244243e-07,1.0563627128495203e-06,-2.0609182017884762e-07,6.85283162030205e-07,7.811041710010117e-08,-6.600887140139004e-08,3.4614644349385343e-07,1.4422415695761605e-07,3.7724702283984494e-07,1.2133389003192535e-06,8.371707970338898e-07,1.8156262290341593e-07,1.6596166451172835e-06,-9.822474001415935e-08,5.116382447285784e-07,1.2821579580995289e-06,-8.955833783175452e-08,8.867415495525935e-07
2.5515915207465257e-07,1.023436228277203e-06,-2.0348624722274798e-07,6.712640534042136e-07,5.50995548819354e-08,-1.0102016539406149e-07,3.1847633060393275e-07,1.4033844594878243e-07,3.774665264196608e-07,1.1777870070750462e-06,7.921222817554567e-07,1.8028455156317152e-07,1.627355464846444e-06,-8.176076147054784e-08,5.356080661994396e-07,1.1925387972408577e-06,-1.0810558449564431e-07,8.472373690871466e-07
2.299322611327545e-07,9.860765470526608e-07,-1.8777824741306133e-07,6.613227922924413e-07,3.6391864524982824e-08,-1.3000548336554216e-07,2.9479637885064386e-07,1.3655714499358666e-07,3.819527511978719e-07,1.1440563531648256e-06,7.543653790897897e-07,1.8626489149501117e-07,1.6421934561868507e-06,-6.594742604453166e-08,5.38687444845814e-07,1.0833517366340727e-06,-1.185587100958518e-07,7.997493429241228e-07
2.171547226708822e-07,9.457395100715356e-07,-1.6793713868159738e-07,6.641127084438608e-07,2.2348947779302952e-08,-1.519000000226328e-07,2.7625566604871876e-07,1.3266149551157825e-07,3.9055579913951943e-07,1.1164910723427773e-06,7.253459818550094e-07,1.8655835232108843e-07,1.6319149484998342e-06,-5.142444870968905e-08,5.198331911118348e-07,9.535714028681247e-07,-1.1873297181321394e-07,7.563270413518131e-07
2.18515235798977e-07,9.045046521935601e-07,-1.514380083478445e-07,6.837316643338366e-07,1.3009452410580434e-08,-1.675126505621786e-07,2.625511366447921e-07,1.3379914901460854e-07,4.024180385535701e-07,1.0961652313646582e-06,7.083932428861821e-07,1.8170508977606527e-07,1.5884185633356766e-06,-3.389869024024244e-08,4.820622113300247e-07,8.035027982689125e-07,-1.0702170193198819e-07,7.252815717185544e-07
2.3476696352637843e-07,8.64619589864979e-07,-1.4290293292274982e-07,7.205828411614765e-07,8.109933676679646e-09,-1.7860765582007665e-07,2.526328810384146e-07,1.4187023170484563e-07,4.110207345117504e-07,1.0806305077128207e-06,6.79368074053605e-07,1.77885271451697e-07,1.4965846964291337e-06,-1.2127621158885583e-08,4.316742087241371e-07,6.371353195095144e-07,-8.37150124415202e-08,7.084683187555022e-07
2.6442631693585443e-07,8.281360825533653e-07,-1.4266095890504355e-07,7.732319760822527e-07,7.376706140746561e-09,-1.8637970136506769e-07,2.4635774006155854e-07,1.5454957912052985e-07,4.156712149196982e-07,1.063946758936317e-06,6.316466475289184e-07,1.8567852972330548e-07,1.4031471665346639e-06,-2.9463128944976814e-09,3.771782909577212e-07,4.629969049692232e-07,-5.0643662344095586e-08,7.019513841166346e-07
