0,1,2,3,4,5,6,7,8,9,10,11,12,13,14,15,16,17
-2.7650122221497824e-08,1.1784252649136194e-07,5.442602694298331e-07,4.5741089402433815e-08,4.171052796904685e-07,1.933188995437587e-08,1.0770267818832318e-07,-4.13010727208207e-08,-1.8952591873198347e-07,1.6047590526123098e-07,1.7938358473840244e-07,1.8671751296303469e-07,-2.0363080985119087e-07,2.1707864316980515e-07,1.5664990023835922e-07,8.447086233241111e-07,2.8015273682813654e-08,3.0357797416371885e-07
-1.745793901063761e-09,6.750787116453965e-08,4.843807047028163e-07,-2.0167863446251187e-08,4.0095917140136224e-07,2.7210337127628643e-08,1.4174478209837155e-07,-1.2409189485989857e-07,-1.3667198451307773e-07,1.4711507704264334e-07,1.80986635045243e-07,2.6079068665388947e-07,-1.4130680798157497e-07,1.7306396085146492e-07,2.4862554915109466e-07,8.220213283104846e-07,4.1358473822353015e-08,3.403698665872853e-07
3.053722348915384e-08,3.421115574305589e-08,4.401473449184449e-07,-6.6113965684506e-08,3.693743390347434e-07,2.3307745704406033e-08,1.4327964406447123e-07,-1.8135349574698188e-07,-1.0015845093126768e-07,1.3759257032052988e-07,1.7352527911705261e-07,3.177850732617617e-07,-8.736101177304628e-08,1.3784858106800763e-07,2.916450397505758e-07,6.61721645283807e-07,5.600757923726583e-08,3.774565298768246e-07
5.217418192873631e-08,1.507776976825971e-08,4.08716759888656e-07,-1.097156250394457e-07,3.3824231016311653e-07,5.7600432131118124e-09,1.1914567300675033e-07,-2.108036657512867e-07,-8.130490397277559e-08,1.129920558238739e-07,1.537688526755073e-07,3.5917634425909726e-07,-4.853000085127502e-08,1.105274926909883e-07,2.863459045668502e-07,4.882560063641598e-07,6.603430759224837e-08,3.9592940876069286e-07
6.415774220342515e-08,1.1520204561696676e-08,3.4699495709619557e-07,-1.3350401156316723e-07,2.7267511976335245e-07,-2.10459671408786e-08,7.521821329184092e-08,-2.2322570171261283e-07,-6.705129863758426e-08,8.412770964629329e-08,1.2266091098076672e-07,3.1176155842318583e-07,-1.4446089475580946e-08,7.779917955545224e-08,2.464697310301316e-07,3.141625455204434e-07,7.168110805836143e-08,3.821833235266614e-07
7.696925521298562e-08,1.5477854066823436e-08,1.7947801833558903e-07,-1.46425433319506e-07,1.8927795064599422e-07,-5.100989574300896e-08,2.1586388005156178e-08,-1.9740737846509042e-07,-5.522671434760288e-08,3.686957140282353e-08,8.249888612902349e-08,2.2248565638130215e-07,1.1393720164246087e-08,4.425564859180101e-08,1.792006400376954e-07,1.3342336401910654e-07,5.658061918626145e-08,3.1375702421298705e-07
8.580340431799777e-08,7.755216461993311e-09,1.4999584657316243e-08,-1.2046832923763493e-07,8.242458685127709e-08,-7.781760122482777e-08,-3.3647781685170044e-08,-1.6436601121079126e-07,-3.918291987319733e-08,-2.3837783711833e-08,3.705452687388107e-08,1.1725800215571696e-07,2.3769008968461574e-08,7.140508670788671e-09,1.0105319148135856e-07,-4.152858326931494e-08,1.6324446980082035e-08,2.0653741689408297e-07
7.610869817030137e-08,-1.1075054214306187e-08,-1.2754227744238328e-07,-7.645653038861726e-08,-3.6362741572554706e-08,-9.608901600443092e-08,-8.29517261901855e-08,-1.325833036509462e-07,-1.637475625700036e-08,-8.529859338411394e-08,-8.71090131465968e-09,1.2773133263555331e-08,2.7319951562005543e-08,-3.343630037748619e-08,1.86130051732045e-08,-1.6993200877032492e-07,-2.591776765770738e-08,8.156114222567727e-08
5.0295997469559125e-08,-3.3948953350367446e-08,-2.5101961603865744e-07,-5.900430669056086e-08,-1.39977802576179e-07,-1.0185725976436168e-07,-1.1919347550823441e-07,-9.031230668771322e-08,-5.807034055287122e-09,-1.2618556525812463e-07,-4.97950844202538e-08,-8.71068934400042e-08,2.8408134933259838e-08,-8.032202670472736e-08,-6.151861234420717e-08,-2.749931113522954e-07,-6.540570658660644e-08,-4.675811463447926e-08
1.145624676867373e-08,-5.358206532394228e-08,-2.9442732072014073e-07,-5.224392053130171e-08,-2.3141642607974105e-07,-9.259872925361259e-08,-1.3727274654256816e-07,-4.06852794525903e-08,1.2146302749695619e-09,-1.4865539300243326e-07,-8.253821300843822e-08,-1.7305936875554156e-07,3.299076120295035e-08,-1.231005239808482e-07,-1.310823436983397e-07,-3.5452225786203783e-07,-9.473931054193655e-08,-1.649559804746642e-07
-3.2967683009045276e-08,-6.121032663051877e-08,-3.192430515995848e-07,-2.6184472984073517e-08,-2.8787629328097354e-07,-6.755371065672328e-08,-1.34251115575539e-07,2.268513998702356e-08,1.3695055055584452e-08,-1.4616948812766527e-07,-1.0576920178246202e-07,-2.3424754755316907e-07,4.4485943298982365e-08,-1.4308603592988744e-07,-1.8484366687558703e-07,-4.0187196102664295e-07,-1.0371841295948905e-07,-2.617948461616317e-07
-7.006918964444338e-08,-5.6686898395960544e-08,-3.354397712671465e-07,1.8863730052319666e-08,-3.1111299096309825e-07,-2.801694162229163e-08,-1.1091457119493528e-07,1.0297707787979382e-07,3.544675992157493e-08,-1.1612305157387238e-07,-1.208235097467485e-07,-2.7561297157666643e-07,6.090636955127425e-08,-1.4243526822899164e-07,-2.205768370840991e-07,-4.2801695314742095e-07,-9.341291214702278e-08,-3.3319085127818933e-07
-9.22693216541934e-08,-4.594343475334408e-08,-3.3485817193410365e-07,8.216550862244519e-08,-3.103330529628472e-07,2.310762913529962e-08,-7.164392459859812e-08,1.9659611520182883e-07,7.600280741698925e-08,-7.07833625982496e-08,-1.3047433927029694e-07,-2.930013494405307e-07,7.571942170270022e-08,-1.2226640727310035e-07,-2.388645444629652e-07,-4.310663664650793e-07,-6.418438093760109e-08,-3.805893251628686e-07
-9.543208627846785e-08,-2.7177926018039e-08,-3.049029251127665e-07,1.6263256498818464e-07,-2.882974581676191e-07,8.214402197150184e-08,-2.3236804698047226e-08,2.8167142680473794e-07,1.2876440261065335e-07,-2.044399298175194e-08,-1.3752756876033024e-07,-2.827366318636007e-07,8.07573824885962e-08,-8.547158773889202e-08,-2.422026200256305e-07,-4.161068029284703e-07,-1.6812577111867146e-08,-3.979183286729707e-07
-7.934797753991447e-08,-2.654990239853244e-09,-2.561656837321915e-07,2.2501648813149742e-07,-2.526163501929334e-07,1.453932126215395e-07,2.8201173992643464e-08,3.6315490554344657e-07,1.875151834922527e-07,2.0012520133448176e-08,-1.4391713164583552e-07,-2.4860317923537397e-07,6.959186945751767e-08,-4.1691393125140603e-08,-2.3365785874741155e-07,-3.904172276676386e-07,3.8872015770427745e-08,-4.032241332934717e-07
-4.802057531220734e-08,2.28870506686007e-08,-1.9537882118187672e-07,2.758650776881834e-07,-2.1206564175436758e-07,2.097342416822718e-07,7.623359334572084e-08,4.3904544484190035e-07,2.486651425477527e-07,3.831182100720091e-08,-1.5032272561085054e-07,-1.9438002549665672e-07,3.9932156602674067e-08,4.0955287607656e-09,-2.1585647819102823e-07,-3.558382403328889e-07,8.93172436124168e-08,-4.1294110656965494e-07
-7.426731088160785e-09,4.7394728774368215e-08,-1.2339791577184312e-07,3.227581370876716e-07,-1.7265415246398514e-07,2.7302442200876313e-07,1.1881458214600287e-07,5.071407043728885e-07,3.114414257539057e-07,2.977003464780312e-08,-1.5600973540634894e-07,-1.297120314159438e-07,-5.558706021542929e-09,4.615524908664124e-08,-1.909110793953569e-07,-3.145699772850475e-07,1.2842359104111e-07,-4.331394833091135e-07
3.7051496767319316e-08,6.78769651967393e-08,-5.66200201724701e-08,3.6185736505710607e-07,-1.3886330492258843e-07,3.3438200492684926e-07,1.5642554059417188e-07,5.734123131025545e-07,3.7340899557817655e-07,-2.921359658047266e-09,-1.5898351239650353e-07,-6.472780255617787e-08,-5.982072987144917e-08,8.209585047828167e-08,-1.6094785536985077e-07,-2.6885350115009156e-07,1.522820588587193e-07,-4.6963444808673744e-07
8.215299226124209e-08,8.399410699469969e-08,1.654446868071964e-08,3.9327936062552514e-07,-1.1705530120106716e-07,3.9401538476300586e-07,1.9026545879119827e-07,6.362039274257802e-07,4.328627705837067e-07,-5.096699761857118e-08,-1.5663464455058783e-07,-7.479495135541755e-09,-1.13446442884466e-07,1.0621672741935642e-07,-1.287023836272369e-07,-2.2063510356785281e-07,1.6081163990719615e-07,-5.183058733680926e-07
1.2647329454411097e-07,9.75760773583877e-08,9.443429620687583e-08,4.192899420902865e-07,-1.0377687144907942e-07,4.520031857982313e-07,2.2348130459737838e-07,6.96317809461751e-07,4.973152880021418e-07,-1.0412324221885917e-07,-1.4687433490152045e-07,3.537911226281722e-08,-1.5811066966939195e-07,1.1938979190347332e-07,-9.772078320514493e-08,-1.7223016890872868e-07,1.5776525868653462e-07,-5.726807005975159e-07
1.6908678016973694e-07,1.1021810903871871e-07,1.6977045312907312e-07,4.4274296645632483e-07,-9.44600627869209e-08,5.068319151121544e-07,2.5422563291618223e-07,7.539442536145953e-07,5.587097876590005e-07,-1.5560411386646132e-07,-1.2876388468591617e-07,6.004402631957332e-08,-1.8962006333748793e-07,1.2544882798431802e-07,-7.155111047519515e-08,-1.2482879046260397e-07,1.4701195237742505e-07,-6.248936174720898e-07
2.067357320788757e-07,1.2270944361460283e-07,2.3189915634217554e-07,4.65219129317884e-07,-8.58559398453583e-08,5.551329009805714e-07,2.781130400592774e-07,8.12922910474968e-07,6.133480093180023e-07,-2.0439588987868103e-07,-1.0236870805869659e-07,6.60168278865243e-08,-2.0878491590252693e-07,1.2784547032421234e-07,-5.208547061300427e-08,-7.814994818637294e-08,1.3735876509736848e-07,-6.668965353601416e-07
2.3470263644613743e-07,1.348441136751325e-07,2.79568783441982e-07,4.945691000465663e-07,-6.928674683237304e-08,5.926459637453883e-07,2.913766481060435e-07,8.701702484073216e-07,6.612704062564991e-07,-2.5425992206367283e-07,-6.794914754311837e-08,5.751319331539905e-08,-2.200682698214679e-07,1.3423889944172447e-07,-3.808871965914871e-08,-2.9603917895540957e-08,1.344292010586324e-07,-6.939525210160416e-07
2.483859427550247e-07,1.4603269055737985e-07,3.1095803556700067e-07,5.256519552827419e-07,-4.133743308812878e-08,6.156815380799974e-07,2.894147559863761e-07,9.236462088441293e-07,7.005608828711093e-07,-3.107236715402549e-07,-2.5182935029369303e-08,4.240183520439957e-08,-2.28954909044181e-07,1.5170380945252128e-07,-2.4649676597906093e-08,2.4703580221488335e-08,1.4037835460585953e-07,-7.033477395534883e-07
2.4500415335537115e-07,1.5576134770331218e-07,3.24886667217784e-07,5.52457528448561e-07,5.839675800562222e-11,6.224980031991452e-07,2.717149966594586e-07,9.74964563870354e-07,7.355922238993888e-07,-3.776317145773987e-07,2.6925283816088854e-08,3.0217950493645975e-08,-2.394802196614517e-07,1.8623274359225305e-07,-3.933923570435132e-09,8.948727375221179e-08,1.615898383099608e-07,-6.919589737632845e-07
2.245730263724265e-07,1.6405059621223324e-07,3.2734211775081246e-07,5.721299907942095e-07,5.8523217570921905e-08,6.139436485635265e-07,2.4005519432326444e-07,1.02525560869956e-06,7.657745641778586e-07,-4.550834026602775e-07,8.857396040120814e-08,3.020104947865296e-08,-2.532989439830018e-07,2.4027380764847393e-07,3.26202331157734e-08,1.6837193052167423e-07,1.9969978573790586e-07,-6.641145474135991e-07
1.9005086228254805e-07,1.711425349037919e-07,3.21613930428319e-07,5.805762091742666e-07,1.287448100974982e-07,5.932862606476908e-07,1.9726158248306819e-07,1.0782701075067972e-06,7.959142330547013e-07,-5.391719402814937e-07,1.5716619283177675e-07,4.872259227153323e-08,-2.70224486046056e-07,3.0842217054910254e-07,9.133306878352408e-08,2.6168979845303665e-07,2.516908606382097e-07,-6.262485147251909e-07
1.4687348903692645e-07,1.7733589203084497e-07,3.1311310755717766e-07,5.782772200486853e-07,2.0626044170862518e-07,5.655760991875517e-07,1.478761877592288e-07,1.1360195483881621e-06,8.328036036759157e-07,-6.231619356105946e-07,2.285446219970626e-07,8.740830430575085e-08,-2.8926802459713083e-07,3.839359157501223e-07,1.7365873044516434e-07,3.660347492501601e-07,3.1071081725079635e-07,-5.80827591226431e-07
1.015861865983988e-07,1.8244357167761206e-07,3.067397133141435e-07,5.682626775980258e-07,2.8389875186326926e-07,5.364160914744526e-07,9.751661439391147e-08,1.198319814726115e-06,8.678433935662342e-07,-7.000581570318038e-07,2.969021346922639e-07,1.4295999716307798e-07,-3.0949506240329287e-07,4.5753425190476916e-07,2.7503527285418175e-07,4.751752015888797e-07,3.6764635818375793e-07,-5.388292393188332e-07
6.081457411428083e-08,1.873540401190803e-07,3.0332589933839035e-07,5.555712430455668e-07,3.532458534916582e-07,5.10393827032388e-07,5.174960239995671e-08,1.2634529145313731e-06,9.031016526875033e-07,-7.654237857956173e-07,3.5668041526024146e-07,2.063259840146184e-07,-3.3020370475994316e-07,5.186944809155292e-07,3.861530114143843e-07,5.816575374793119e-07,4.133122565940928e-07,-5.115627503290014e-07
2.9838952152254534e-08,1.9315816038344698e-07,3.006039510297843e-07,5.471384300105192e-07,4.081947742652852e-07,4.900916167202165e-07,1.4610905511986865e-08,1.3275290849515945e-06,9.388384872509119e-07,-8.204613470616345e-07,4.048866267995284e-07,2.672577973690345e-07,-3.506707183112924e-07,5.605320202239879e-07,4.959995570793769e-07,6.800255476052098e-07,4.426141512406366e-07,-5.002004343997922e-07
1.1841876393814424e-08,2.0063623155481414e-07,2.940290514318046e-07,5.496665387824495e-07,4.48869579343932e-07,4.7589391996002617e-07,-1.106745089677998e-08,1.3871848948164384e-06,9.7109475121617e-07,-8.629031191991944e-07,4.4089521776538225e-07,3.157925862448911e-07,-3.704050921974591e-07,5.789365793793523e-07,5.945615063572832e-07,7.669455489933284e-07,4.547139215156434e-07,-5.048437439612668e-07
7.0171369374489295e-09,2.1008831880988312e-07,2.8279588567145463e-07,5.675203369833827e-07,4.753346464056097e-07,4.66333329864092e-07,-2.64091731298911e-08,1.4391968382990152e-06,1.0000146758211584e-06,-8.992561169617657e-07,4.6553054214122297e-07,3.442828207702091e-07,-3.898640384180609e-07,5.732703171695632e-07,6.741580366087674e-07,8.409062792672147e-07,4.4916715538193837e-07,-5.240984652020708e-07
1.3909907948675449e-08,2.205525303551325e-07,2.652151395346148e-07,6.009733120434547e-07,4.88540859745027e-07,4.589374936694409e-07,-3.494077842869879e-08,1.4806601014387856e-06,1.0244285368854368e-06,-9.363230474542706e-07,4.798788846484597e-07,3.487351975067126e-07,-4.1080515993405386e-07,5.495915637383246e-07,7.288045844061999e-07,9.009163665532781e-07,4.275218313940719e-07,-5.535677570347937e-07
2.9665480216482764e-08,2.3032861700342412e-07,2.4293627017719304e-07,6.465008492617973e-07,4.923374434507383e-07,4.5106721928272874e-07,-4.134897853773072e-08,1.5102129964200338e-06,1.0415901108925572e-06,-9.762558997034211e-07,4.845935240783937e-07,3.323880214074501e-07,-4.360030999862684e-07,5.120984780002666e-07,7.569500489858075e-07,9.455751761034817e-07,3.92625372056156e-07,-5.906125400194789e-07
5.064752987859168e-08,2.3753407447621586e-07,2.209284946133456e-07,6.975890162424431e-07,4.888013333660488e-07,4.4033286371526573e-07,-5.197712234075668e-08,1.526999168705984e-06,1.0462631446871476e-06,-1.0203944612906468e-06,4.795070228927643e-07,2.9798681706034583e-07,-4.6820321558321123e-07,4.648072151711698e-07,7.61289832094235e-07,9.73821094318562e-07,3.516765737803047e-07,-6.337738672316469e-07
7.325819817099709e-08,2.409639380557015e-07,2.046452131536194e-07,7.470146064415845e-07,4.791499510495375e-07,4.2509917076784545e-07,-6.728382444702845e-08,1.5312286952668517e-06,1.041034771084121e-06,-1.0654564283108714e-06,4.675608526083798e-07,2.5074516111064083e-07,-5.085428779321525e-07,4.1282995402904975e-07,7.459589633115018e-07,9.858094989203753e-07,3.080040927477224e-07,-6.726474112795817e-07
9.453456459302738e-08,2.4037318668590324e-07,1.973570086881596e-07,7.88886505215364e-07,4.6465503264941795e-07,4.049136377918687e-07,-9.275951456333361e-08,1.5242786520095044e-06,1.026459483587986e-06,-1.106442165817226e-06,4.492297338800354e-07,1.981925157056723e-07,-5.559054164000092e-07,3.5984155146684664e-07,7.176742457814147e-07,9.84810162361339e-07,2.646087548558184e-07,-7.039951963845431e-07
1.1219631207801552e-07,2.3659861687124977e-07,2.0029461988368107e-07,8.193242750872014e-07,4.460536913685852e-07,3.7993157437426906e-07,-1.3069880321092968e-07,1.5078224215191966e-06,1.0028844291967792e-06,-1.1389646833939727e-06,4.2541399798929556e-07,1.4554767395982407e-07,-6.079973489037496e-07,3.085334915802131e-07,6.830168594887732e-07,9.752831793586118e-07,2.2422514521006508e-07,-7.294274269028489e-07
1.2409775606927487e-07,2.3055377850983803e-07,2.0893907460019145e-07,8.36282428749681e-07,4.225579715721104e-07,3.500374410442017e-07,-1.8002182129129887e-07,1.4828084222339152e-06,9.72263741803289e-07,-1.1609184347413492e-06,3.977344794091821e-07,9.68014283706193e-08,-6.64237574801769e-07,2.601271663599322e-07,6.461981250966827e-07,9.610595469816278e-07,1.8742272436143574e-07,-7.460368939023792e-07
1.2840212748722907e-07,2.2260853449212904e-07,2.208327173679409e-07,8.383404583136751e-07,3.944072232315632e-07,3.1502494329151815e-07,-2.4070978742063276e-07,1.4498015881185201e-06,9.343568589369477e-07,-1.1722178628948985e-06,3.661454511069867e-07,5.477246592330447e-08,-7.226072646108288e-07,2.1380810853694424e-07,6.095320844470371e-07,9.445893001806054e-07,1.538922875894712e-07,-7.563985137901984e-07
1.2411674959690024e-07,2.1290013974086815e-07,2.3469362763371137e-07,8.271707347778841e-07,3.6183893279466943e-07,2.751000493357256e-07,-3.092559967707553e-07,1.4095557261473748e-06,9.007003914147098e-07,-1.1737353745872122e-06,3.321215527115157e-07,1.8994374161343535e-08,-7.802716043322388e-07,1.672337658471222e-07,5.734728166733699e-07,9.262980833059208e-07,1.2286531462579597e-07,-7.620150528752256e-07
1.1110317688433931e-07,2.0458137500465808e-07,2.4833041201838275e-07,8.056514555635626e-07,3.2509580112058343e-07,2.306302251860886e-07,-3.818142657069096e-07,1.361971984828129e-06,8.689702763438174e-07,-1.1674964360637528e-06,2.9568114182199716e-07,-1.2935083437314468e-08,-8.378914890763707e-07,1.200130944501028e-07,5.363082397958153e-07,9.043550738078935e-07,9.29243324400135e-08,-7.64002989631849e-07
8.987315137166826e-08,1.9613291151898965e-07,2.5995943629538794e-07,7.769738307373433e-07,2.8604959162253565e-07,1.8216793733133777e-07,-4.550159892805824e-07,1.3071312976856241e-06,8.256623739124837e-07,-1.156097153337056e-06,2.561785362127922e-07,-4.246683260738568e-08,-8.954496711815767e-07,7.080317058335082e-08,4.95682494878614e-07,8.760507243020499e-07,6.166541365256449e-08,-7.666264998862367e-07
6.192764315803533e-08,1.8646669137031078e-07,2.6646584939701007e-07,7.455861117684237e-07,2.4539299405566246e-07,1.313067754199525e-07,-5.25809365737372e-07,1.2475759488632144e-06,7.769138584498306e-07,-1.1417388741122615e-06,2.136099928705741e-07,-7.084743229067643e-08,-9.511259888438541e-07,1.8698087238233824e-08,4.5083511455595843e-07,8.401763035980284e-07,2.8612715960113108e-08,-7.721331032807543e-07
2.9698404223315937e-08,1.7634334186897888e-07,2.625107637843388e-07,7.16421554267744e-07,2.0389672523535371e-07,8.058133009047101e-08,-5.931263307820062e-07,1.1850311424734192e-06,7.234267313600212e-07,-1.1260337262794205e-06,1.6988782046320794e-07,-9.822616966400112e-08,-1.0018171159677206e-06,-3.612046997060431e-08,4.022518241812879e-07,7.973742518180642e-07,-6.401479266616772e-09,-7.781873105997014e-07
-4.7592161308317685e-09,1.6570124130598775e-07,2.451642150724616e-07,6.941014557786201e-07,1.6223878778114892e-07,3.182577568649211e-08,-6.522386781650512e-07,1.1211675714664837e-06,6.654243594547582e-07,-1.116629194971749e-06,1.2705131188200758e-07,-1.2458988860695535e-07,-1.0432169055074096e-06,-9.406892504926555e-08,3.5121772542325765e-07,7.497811903457255e-07,-4.840619121918962e-08,-7.892173268506828e-07
-4.1125215000040954e-08,1.5216113502650863e-07,2.1143930423466938e-07,6.798306297525227e-07,1.1531655482636746e-07,-1.4701034354230857e-08,-7.005775829783203e-07,1.056894762989059e-06,6.060079806789774e-07,-1.1143661516801986e-06,8.764391834254032e-08,-1.496360807576937e-07,-1.070738081055972e-06,-1.5566287870776312e-07,2.99956647569489e-07,7.000100500918373e-07,-9.715082747397208e-08,-8.035199615776431e-07
-8.039244088055718e-08,1.398394611490013e-07,1.5574360381599193e-07,6.734117888661622e-07,6.352031477729154e-08,-5.9416528229806435e-08,-7.38459633966552e-07,9.925638848571994e-07,5.430575990470139e-07,-1.1167520771510757e-06,5.429637942449114e-08,-1.7222254492600056e-07,-1.0808611708234182e-06,-2.1998090427399455e-07,2.514504985240423e-07,6.520498492956854e-07,-1.5130909788494088e-07,-8.172244154536028e-07
-1.243963520963304e-07,1.2904912069325972e-07,8.54221275562888e-08,6.737285223288172e-07,7.616325491414815e-09,-1.0280518100694773e-07,-7.658474238430929e-07,9.291889626905309e-07,4.7323781029262137e-07,-1.122938452886074e-06,2.8008969802239744e-08,-1.9431240930723415e-07,-1.0726082974145771e-06,-2.858743348643287e-07,2.085886053128518e-07,6.099266358561666e-07,-2.091742568528617e-07,-8.30940113106737e-07
-1.7559741371940043e-07,1.1637619205895949e-07,-1.539101465377868e-09,6.777651245611297e-07,-5.3785867335310694e-08,-1.459489544548143e-07,-7.851624955043282e-07,8.675962473351005e-07,3.977887538730484e-07,-1.131268437550385e-06,8.61732038423622e-09,-2.1277991461749102e-07,-1.0487392935263386e-06,-3.501382670162601e-07,1.7182910587763054e-07,5.752261995277725e-07,-2.686164008536916e-07,-8.444814675473389e-07
-2.3665476570642073e-07,1.015043364424648e-07,-1.0433503639184807e-07,6.808054952121345e-07,-1.201284310401153e-07,-1.902324270555842e-07,-8.007830936844337e-07,8.067243159432817e-07,3.2080792577436897e-07,-1.1407426448261253e-06,-1.0508871321113936e-08,-2.2564013828093433e-07,-1.0165622590468747e-06,-4.0992074723710757e-07,1.391272619590002e-07,5.463063831008961e-07,-3.2914001472715247e-07,-8.590097572431136e-07
-3.089097410687567e-07,7.88119433799477e-08,-2.1368139742358395e-07,6.769390948473223e-07,-1.917825688647786e-07,-2.3499564211213577e-07,-8.17008911450991e-07,7.451896379492146e-07,2.431356483978283e-07,-1.1522403640823867e-06,-3.292991342232228e-08,-2.3305575570482332e-07,-9.852761823756133e-07,-4.6252921258094813e-07,1.0777328049694825e-07,5.186965039279714e-07,-3.875733396379708e-07,-8.776162330420245e-07
-3.9073263830249044e-07,4.6979063455106756e-08,-3.184241963256182e-07,6.60617175771543e-07,-2.673220814487998e-07,-2.789507875088457e-07,-8.340638406503761e-07,6.827764894566545e-07,1.6903200749280943e-07,-1.165246999816278e-06,-6.170904746964681e-08,-2.338018281769588e-07,-9.629920904515709e-07,-5.084987814114207e-07,7.451588817700455e-08,4.851873715602806e-07,-4.409866771304156e-07,-9.000071314240969e-07
-4.78815303432433e-07,6.9534632581063525e-09,-4.0637455676300343e-07,6.253826704916283e-07,-3.435517938861443e-07,-3.2063841111779533e-07,-8.537722374443642e-07,6.200284033609694e-07,1.0272371410977508e-07,-1.1776725136803808e-06,-1.0017201962626455e-07,-2.2941078781800686e-07,-9.547884040353552e-07,-5.466486288561217e-07,3.6255030456916524e-08,4.3898871684044593e-07,-4.874176455177696e-07,-9.22474369875688e-07
-5.698387108559429e-07,-4.179042760241025e-08,-4.701272428494945e-07,5.695177004084042e-07,-4.1601151190853395e-07,-3.5874375288726304e-07,-8.75840686235754e-07,5.550042444862883e-07,4.494818402047402e-08,-1.1894827460861738e-06,-1.4846074222809616e-07,-2.2441911558926723e-07,-9.601198656444676e-07,-5.7762484344669e-07,-8.452639474594615e-09,3.7575688049052793e-07,-5.275521782579014e-07,-9.43364209660918e-07
-6.605930840830554e-07,-9.756460553468183e-08,-5.048364130671827e-07,4.973888476104689e-07,-4.810272021941655e-07,-3.916314284030108e-07,-8.995453527941273e-07,4.89793259369524e-07,-2.1127948163056435e-09,-1.1995337362889667e-06,-2.048197689988302e-07,-2.2000699487031494e-07,-9.73458368874169e-07,-6.048401667267842e-07,-5.732801082790528e-08,2.9578330244383296e-07,-5.618341479526986e-07,-9.58663320635052e-07
-7.476227094085083e-07,-1.5769549066914236e-07,-5.181485937080987e-07,4.1409199953475024e-07,-5.34758857781388e-07,-4.1764829701233735e-07,-9.209225235444387e-07,4.2623397837784986e-07,-4.4235237051299874e-08,-1.206006400948992e-06,-2.653731328750013e-07,-2.1419388255862086e-07,-9.858472095365437e-07,-6.277478584983009e-07,-1.0783986175996422e-07,2.0389033921305088e-07,-5.900993670100085e-07,-9.625080243992297e-07
-8.284173517342858e-07,-2.1957852343155254e-07,-5.225729963003926e-07,3.266444296337367e-07,-5.745291240888113e-07,-4.352010514701834e-07,-9.346926184033173e-07,3.661108544632602e-07,-7.912913606558453e-08,-1.2084923975416155e-06,-3.186272190454871e-07,-2.074683817865145e-07,-9.915748746740907e-07,-6.473290772975639e-07,-1.5883861925323657e-07,1.0556754097290721e-07,-6.126627140546867e-07,-9.519447849623817e-07
-9.026670728369717e-07,-2.809660946232618e-07,-5.229712362800481e-07,2.4014016658804103e-07,-5.934822385359962e-07,-4.448780953302807e-07,-9.402699840267106e-07,3.213829634141907e-07,-9.903599984794452e-08,-1.2079655335883952e-06,-3.620429986853962e-07,-1.992919710840526e-07,-9.89837943856263e-07,-6.54486258688167e-07,-2.0842656136296832e-07,4.4996771778435804e-09,-6.200989858479923e-07,-9.266155548057668e-07
-9.715902466841038e-07,-3.3395558463876436e-07,-5.255469656453911e-07,1.5609637253055375e-07,-5.939201052210827e-07,-4.4857253247456993e-07,-9.388733105168099e-07,2.901794566719995e-07,-1.0932257901215695e-07,-1.2055595625057975e-06,-3.9562767778388007e-07,-1.8877616027919643e-07,-9.83677127899935e-07,-6.476266555443156e-07,-2.550742527676098e-07,-9.766121128747667e-08,-6.139866005420999e-07,-8.914490190016851e-07
-1.0368617083501179e-06,-3.8083281626044474e-07,-5.244338788222213e-07,7.391310721637274e-08,-5.82301292894904e-07,-4.4739381821821884e-07,-9.373667461417814e-07,2.732546468996735e-07,-1.1190803199670669e-07,-1.2029363234343455e-06,-4.192929599565919e-07,-1.6474333854019877e-07,-9.803376640084502e-07,-6.253141078372314e-07,-3.0121337369206487e-07,-2.0184331900955414e-07,-5.964275484547401e-07,-8.54124539144627e-07
-1.100514478381335e-06,-4.2705674280867183e-07,-5.178351891946071e-07,-7.030910471893804e-09,-5.62222050604807e-07,-4.433372359948851e-07,-9.401842038826033e-07,2.815424365050188e-07,-1.0921473916233222e-07,-1.1866051339382655e-06,-4.3917816191310686e-07,-1.3086819845782862e-07,-9.883809387978271e-07,-5.86390963494521e-07,-3.4884244666710914e-07,-3.119366494302853e-07,-5.681938546596861e-07,-8.212610471110877e-07
-1.1650299661800198e-06,-4.740284351788397e-07,-5.037181814229101e-07,-9.457165530636809e-08,-5.459538190993104e-07,-4.395618727805892e-07,-9.50404311290388e-07,3.0810092725076997e-07,-1.0675296975054694e-07,-1.175263888581775e-06,-4.5776935378515866e-07,-9.309433341798656e-08,-1.0162764808437633e-06,-5.357409308593788e-07,-4.004288102331786e-07,-4.322164339284689e-07,-5.347303638476065e-07,-8.004002213773577e-07
-1.2317607225880222e-06,-5.278649189073191e-07,-4.828918758088891e-07,-1.9675282331508226e-07,-5.361223046746205e-07,-4.388439400333502e-07,-9.750346330656153e-07,3.475432160406147e-07,-1.0584508077897041e-07,-1.174088813623196e-06,-4.77227811508897e-07,-5.975190481086685e-08,-1.0690562056588207e-06,-4.7632837831332556e-07,-4.579514474622284e-07,-5.640026048739245e-07,-4.988582210618622e-07,-7.981240138308699e-07
-1.2997160056619998e-06,-5.900706791768981e-07,-4.678457641583598e-07,-3.194069419122751e-07,-5.310809751598159e-07,-4.42592887385889e-07,-1.0163930856417432e-06,4.067378277149934e-07,-1.042268566481476e-07,-1.1809012343353124e-06,-4.975947049010438e-07,-3.531645750215497e-08,-1.1479262091960089e-06,-4.206799405888997e-07,-5.102351081048155e-07,-7.039112972545467e-07,-4.6370799998887736e-07,-8.150078326973214e-07
-1.366395857619622e-06,-6.47022154100986e-07,-4.494012914711534e-07,-4.582301012695359e-07,-5.293983174358134e-07,-4.522495089099444e-07,-1.0736025131771693e-06,4.648096723495239e-07,-1.0311740425046144e-07,-1.2014746303256051e-06,-5.232747670057844e-07,-3.376317191677136e-08,-1.2493968943400029e-06,-3.667956706967777e-07,-5.587770276179369e-07,-8.449139053000257e-07,-4.334377512625116e-07,-8.489907799655618e-07
-1.4301486328526497e-06,-6.977608119562563e-07,-4.221143400531563e-07,-6.127095274728676e-07,-5.371389942683971e-07,-4.6947378095785787e-07,-1.145776856251702e-06,4.962289189986155e-07,-1.0669764214156143e-07,-1.2296789254996107e-06,-5.540615997673914e-07,-5.628412766540337e-08,-1.3681900917942745e-06,-3.3239910294428573e-07,-6.153779092536759e-07,-9.77625820428327e-07,-4.210422877601693e-07,-8.944892725499867e-07
-1.4905625317988932e-06,-7.451676737226121e-07,-3.898611106523036e-07,-7.768811865360364e-07,-5.46611913288176e-07,-4.941205509642237e-07,-1.2337765079919725e-06,5.310102702338212e-07,-1.1436694543533149e-07,-1.2589492464948136e-06,-5.963448171121192e-07,-9.538168249740693e-08,-1.4974895646088135e-06,-3.2392259443559854e-07,-6.743993477915683e-07,-1.0900203172461368e-06,-4.234420599577261e-07,-9.416006923838505e-07
-1.546752904868137e-06,-7.829729935446152e-07,-3.512464281374948e-07,-9.403367638522381e-07,-5.478672049521374e-07,-5.214040027528573e-07,-1.2913316888097614e-06,5.126659796982528e-07,-1.2221682154522727e-07,-1.280630519023709e-06,-6.445397721840761e-07,-1.494301394110361e-07,-1.6279662187181094e-06,-3.3444909909018333e-07,-7.310701258188298e-07,-1.167968924181221e-06,-4.324859897230229e-07,-9.764811087280017e-07
-1.5971348453895782e-06,-7.911754128389365e-07,-3.0407482999626685e-07,-1.0793028530925668e-06,-5.342319305841481e-07,-5.427619679297877e-07,-1.305319088020627e-06,4.4091596614708985e-07,-1.2389795358578732e-07,-1.2875704195122137e-06,-6.708757562950984e-07,-2.074086667836536e-07,-1.7507170059594827e-06,-3.750902491588044e-07,-7.812718583388196e-07,-1.1993594221714432e-06,-4.414379170043772e-07,-9.866644203808109e-07
-1.641356318377744e-06,-7.657278376425895e-07,-2.414683450125544e-07,-1.189228486975023e-06,-4.965371779860877e-07,-5.499458974438265e-07,-1.2557997547224262e-06,3.854429666717981e-07,-1.1344376534778494e-07,-1.2808224131071977e-06,-6.692429711964962e-07,-2.4223167166832884e-07,-1.844195335510952e-06,-4.1775422864750113e-07,-8.196177159627745e-07,-1.1774760092025076e-06,-4.4678119120568635e-07,-9.713255060457657e-07
-1.6809953671284512e-06,-7.012072654898755e-07,-1.7462428685328828e-07,-1.2799272268066912e-06,-4.3530749955301074e-07,-5.348339967952082e-07,-1.1774225260036282e-06,2.893217487272728e-07,-8.86912722799304e-08,-1.2514974866866074e-06,-6.039434336724126e-07,-2.6203376634447255e-07,-1.905455311720418e-06,-4.3651365548478836e-07,-8.444353404576994e-07,-1.1016383521766804e-06,-4.4161629883761455e-07,-9.24047702717381e-07
-1.7171929950165654e-06,-5.83898317265668e-07,-1.0339234748467301e-07,-1.345767137411569e-06,-3.5424265622646217e-07,-4.922011411040809e-07,-1.1684504823194511e-06,2.0581154818531712e-07,-4.7262339133146196e-08,-1.197269652692023e-06,-5.258947910065255e-07,-2.688154217748479e-07,-1.946916993281938e-06,-4.290432775832527e-07,-8.583645896304049e-07,-9.766821387823869e-07,-4.2083516513771595e-07,-8.433836548730231e-07
-1.7483290507516534e-06,-5.334568178195823e-07,-1.3944842969921883e-08,-1.3876838843594336e-06,-2.604899184257202e-07,-4.2059907998149e-07,-1.209581044557276e-06,1.900103436584576e-07,9.022838870880401e-09,-1.1223914101755692e-06,-5.022876677386238e-07,-2.2950424133096358e-07,-1.9606184019541183e-06,-3.936201263811179e-07,-8.60154226870302e-07,-8.129822875544736e-07,-3.8239907176920497e-07,-7.344031678139125e-07
-1.7696205362306305e-06,-5.540366328656427e-07,8.753847845695822e-08,-1.4028263123660553e-06,-1.7494241224575795e-07,-3.229863121986319e-07,-1.1473568197384037e-06,2.009726511103871e-07,7.197873144097111e-08,-1.0316127332350147e-06,-5.46745682662717e-07,-1.4969837170582413e-07,-1.9476807183706944e-06,-3.493818876818493e-07,-8.428466187271781e-07,-6.263282757445886e-07,-3.415289852206086e-07,-6.252534426351156e-07
-1.774213674226505e-06,-5.917458082314496e-07,1.968121158707167e-07,-1.3852279270263917e-06,-9.990535637894956e-08,-2.043981081858921e-07,-1.020497121935579e-06,2.995865383242088e-07,1.370721504006519e-07,-9.336224718502421e-07,-5.789159453700967e-07,-5.0880408216629617e-08,-1.913295928938988e-06,-2.901096160143917e-07,-8.047346060314734e-07,-4.3517293569265405e-07,-2.968533821242093e-07,-5.236090535713719e-07
-1.754832210109014e-06,-6.383015363744749e-07,2.8766975197124734e-07,-1.3362906948445293e-06,-3.5856184388783285e-08,-7.70178527516054e-08,-8.680359470910417e-07,4.2479985592425117e-07,1.9957589807199016e-07,-8.343208886574784e-07,-5.604351633970648e-07,5.5383547952787286e-08,-1.8596613325770756e-06,-2.138069626124889e-07,-7.439485399563368e-07,-2.5661729844964963e-07,-2.497208446415342e-07,-4.3311498536130177e-07
-1.7064745387153397e-06,-6.671995477215712e-07,3.563915995212382e-07,-1.3009220038993736e-06,1.1901646292882694e-08,4.411037622054438e-08,-6.919587521808668e-07,5.352374669542173e-07,2.5646453976389805e-07,-7.525653654309126e-07,-4.953315312291627e-07,1.3129953074598851e-07,-1.7961728784111186e-06,-1.1808306132596214e-07,-6.621604487165501e-07,-1.0366838178121862e-07,-1.9698523784939977e-07,-3.5301040816997824e-07
-1.6295292388579677e-06,-6.738252510541034e-07,4.0702753218372436e-07,-1.2707759544657815e-06,5.525384940857874e-08,1.5502115245257623e-07,-5.561200546365001e-07,5.908141301118118e-07,3.0350682462631386e-07,-6.780250895961991e-07,-4.3575491389815726e-07,1.4304043776607098e-07,-1.7357413408511686e-06,-1.1831095647057358e-08,-5.669128139476667e-07,1.5805977531455045e-08,-1.418175454870634e-07,-2.8784196970610584e-07
-1.5305758997520631e-06,-6.580326910205024e-07,4.4399233841918306e-07,-1.2106462087947191e-06,8.17661000304618e-08,2.1294743894765097e-07,-4.673333330859087e-07,6.301709364634575e-07,3.3594627955506597e-07,-6.110824522346493e-07,-3.877133046362723e-07,1.6256094221945242e-07,-1.683440757076514e-06,5.349711634312855e-08,-4.6649993126533923e-07,9.986248112349957e-08,-9.550266484873318e-08,-2.535123343613129e-07
-1.4202170985306616e-06,-6.352998985215319e-07,4.8707348233433e-07,-1.1381875043953306e-06,7.973475433568522e-08,2.3986022773719793e-07,-4.4435888319056776e-07,6.939531722241414e-07,3.501387669374248e-07,-5.55747478156921e-07,-3.767117470247454e-07,1.8426399107669667e-07,-1.637007219337098e-06,7.883267609389403e-08,-3.8774932326335974e-07,1.5243067008065584e-07,-7.183195802130985e-08,-2.5449242870305483e-07
-1.3105054950835504e-06,-6.050919933297281e-07,5.264997807618028e-07,-1.0595184270250984e-06,5.253892196942113e-08,2.792669756996167e-07,-4.785686777810404e-07,7.706724146386217e-07,3.488443298241283e-07,-5.060092477410368e-07,-3.940511829117574e-07,2.3705801511640285e-07,-1.5934164240723033e-06,8.012750084877983e-08,-3.2749781671854e-07,1.8191596458767644e-07,-6.769731723958662e-08,-2.8349792149064637e-07
-1.2103097996246016e-06,-5.944409009610308e-07,5.419659135584469e-07,-9.800685491473497e-07,1.6376493827575253e-08,2.7575867585608645e-07,-5.087637357882439e-07,8.594960035407628e-07,3.5706821958595913e-07,-4.769039472469722e-07,-3.972210987645299e-07,3.027326955095537e-07,-1.5482666155535087e-06,6.36039938304174e-08,-2.5557540848356093e-07,2.010171889097237e-07,-6.834872480304425e-08,-3.20245479996803e-07
-1.1298442026198352e-06,-5.898550805211012e-07,5.383900701714035e-07,-9.026981326798238e-07,-4.711584477302665e-09,2.3726379296920748e-07,-5.438755014121564e-07,9.64220190977885e-07,3.864350462634289e-07,-4.610504409462027e-07,-3.832201913527875e-07,3.413560534140037e-07,-1.4910473911991426e-06,8.048228619622758e-08,-1.7157623118403818e-07,2.2396237412114475e-07,-6.204584907384654e-08,-3.098040727862353e-07
-1.0745310204060516e-06,-5.762594876989009e-07,5.338806481900858e-07,-8.286083574754476e-07,1.968480473834733e-08,1.8560568400223537e-07,-5.80109765883885e-07,1.0737659536223982e-06,4.6858565654177467e-07,-4.462307954685559e-07,-3.0025216210812144e-07,3.8158692402364993e-07,-1.4091606118232603e-06,1.6437159784877625e-07,-6.797914398195446e-08,2.6533074927777945e-07,-3.1001281353256534e-08,-2.2945102633085247e-07
-1.0448158400087208e-06,-5.581620683161297e-07,5.280810563151773e-07,-7.268188014074503e-07,1.1672143837712123e-07,1.8079214918421466e-07,-5.772545415163044e-07,1.168907272248987e-06,5.706486254380849e-07,-4.1864268199185285e-07,-1.9401733839851192e-07,3.645992660532301e-07,-1.2914739681609687e-06,1.7561611220562075e-07,5.867067409947263e-08,3.3599608945063777e-07,3.423241476449237e-08,-1.0730457312208988e-07
-1.0411347456595289e-06,-5.205811787533937e-07,5.248002333729123e-07,-6.107038398590294e-07,2.1188901799802473e-07,2.577958667185219e-07,-5.5361175225443e-07,1.1768500026817893e-06,6.369913827960353e-07,-3.4660155734359995e-07,-1.282777845957962e-07,3.83551567841105e-07,-1.1605135386737477e-06,1.5758346532753566e-07,1.9750977111044896e-07,4.4094039051696614e-07,1.2954639713594947e-07,9.46573268230838e-09
-1.0571256358228937e-06,-4.783186984203348e-07,5.242201992664587e-07,-5.410856029859644e-07,2.989402831490466e-07,3.5148246216571845e-07,-5.032826350792418e-07,1.133921503718245e-06,6.726284025261792e-07,-2.4516611454048373e-07,-1.1565442663992669e-07,4.462121320600505e-07,-1.0110247751302965e-06,1.4598554968033903e-07,3.134690961090435e-07,5.8085104824936e-07,2.4570253847409777e-07,5.092798954460492e-08
-1.0836074326988546e-06,-4.312911595054948e-07,5.178222888640237e-07,-5.169466078997077e-07,3.7682711469668056e-07,4.3704736417230893e-07,-4.16537885420595e-07,1.191292470985711e-06,7.497079724133567e-07,-1.3095252368619906e-07,-6.01904723432415e-08,5.299563302924972e-07,-8.294431184976896e-07,1.3385463592464e-07,4.1056668150034975e-07,7.578029698379153e-07,3.678052225999356e-07,2.0942233278286043e-07
-1.1098742335438318e-06,-3.692841401905641e-07,4.911783846526006e-07,-5.143829986070883e-07,4.892112355732197e-07,4.723757398089931e-07,-3.008882076024646e-07,1.2892518544287168e-06,8.574054750120083e-07,-1.2398310866489866e-08,4.378960437709387e-08,6.294488628726291e-07,-6.421246044708723e-07,2.1164402010022192e-07,5.143458511776512e-07,9.62223912103155e-07,4.4909656355206086e-07,3.7091381471577333e-07
-1.1239229551278286e-06,-3.0396308408283394e-07,4.6433165669613503e-07,-5.144647849254358e-07,6.389818575036944e-07,5.712210746216869e-07,-1.565859937151363e-07,1.3829555899492631e-06,9.78760046763017e-07,1.0227188036078211e-07,1.5852262154653398e-07,6.867636417391305e-07,-4.6460468638087156e-07,3.047755860461129e-07,6.013549217127549e-07,1.1758604435049536e-06,4.698163753928526e-07,4.5886315432595615e-07
-1.1141308176840068e-06,-2.321563200005345e-07,4.479017596338867e-07,-5.384573427554319e-07,7.656045206334225e-07,7.09673168726465e-07,-1.901312702422829e-09,1.4836998316378283e-06,1.0923795357127248e-06,2.1267198978739746e-07,2.1279311756300688e-07,7.026666467439708e-07,-3.1571174054102543e-07,3.510209039523522e-07,6.570362833010232e-07,1.3814915260483205e-06,3.921534548697341e-07,4.883251086155262e-07
-1.0736235316708392e-06,-1.6267172538311244e-07,4.766687591918795e-07,-5.620949373372617e-07,8.315775405115325e-07,8.059359876648018e-07,1.5156021457196892e-07,1.504582622077437e-06,1.190486253215628e-06,3.1543188466744986e-07,2.7082650670393253e-07,6.671696360340775e-07,-2.1019189020135866e-07,3.583817929301177e-07,6.902724178785484e-07,1.5071755341353308e-06,3.3029116205605337e-07,4.774446004766948e-07
-9.99886928540792e-07,-1.0418096260208771e-07,4.971931671888516e-07,-5.135278956610274e-07,8.583106832753151e-07,8.620974418982489e-07,2.582774217013552e-07,1.4907259381468546e-06,1.254356800868718e-06,4.181786174032784e-07,3.141810644141768e-07,6.285171277870202e-07,-1.4693193371592858e-07,3.423388731350276e-07,6.881831841659136e-07,1.521111726893155e-06,2.9562798046745714e-07,4.5862874410579216e-07
-8.929956283474305e-07,-6.401773408817383e-08,5.886180824890386e-07,-3.5756490791051123e-07,9.077782903196885e-07,8.632088179295624e-07,2.855366589363861e-07,1.4982149624249265e-06,1.2853723842760197e-06,4.7307063951292337e-07,3.2391879520318476e-07,6.740135472136858e-07,-1.0966192615328513e-07,3.231612682748075e-07,6.509907059561998e-07,1.585889467440562e-06,2.7735571101339476e-07,4.771577240273134e-07
-7.655197393294823e-07,-3.7453695184562965e-08,6.625352970834381e-07,-2.1750417780587466e-07,9.54743806233108e-07,8.766699785362144e-07,3.299350816904732e-07,1.5633776455974117e-06,1.3355036525057952e-06,4.693604974239324e-07,3.4286371808279835e-07,7.246249787084516e-07,-8.227244508528621e-08,3.226442246994146e-07,6.246160452952941e-07,1.6406098600685853e-06,3.1364466307131384e-07,5.203328888428622e-07
-6.346867156476266e-07,-2.7259239607274567e-08,6.24045163618456e-07,-1.7402153256468803e-07,9.77524917884941e-07,9.149776186118782e-07,3.667707245170571e-07,1.6147274364216254e-06,1.3560036787286326e-06,4.104240321318748e-07,3.8695156318692187e-07,7.518874968812297e-07,-4.138485882336703e-08,3.640359545906852e-07,6.138849650220228e-07,1.5324396175906263e-06,4.3101482057308926e-07,6.054550961148836e-07
-5.131831415079872e-07,-3.297300431194008e-08,5.58798909492839e-07,-1.6078345502075117e-07,9.527593982573168e-07,9.45175813858647e-07,3.08007940419129e-07,1.6733686614959141e-06,1.3571595984792225e-06,2.9959747959318614e-07,3.7137540950672645e-07,7.811980135387618e-07,2.7387167166418842e-09,4.229302204926268e-07,5.723406690640127e-07,1.3871021808024825e-06,4.8096522626602e-07,6.003382117281752e-07
-4.3463475674105416e-07,-3.751427504551123e-08,5.155759546331458e-07,-8.735893729888054e-08,8.826399603784024e-07,9.228101351197255e-07,1.989500676766632e-07,1.701124618420972e-06,1.355148030873428e-06,1.903280517449829e-07,3.054205805829496e-07,8.147872562926147e-07,6.66871083468132e-08,4.1029499325032583e-07,5.057980247145977e-07,1.293329462731916e-06,4.821379132075845e-07,5.341374300936182e-07
-3.8959615488793243e-07,-3.734938939891229e-08,5.234119515674154e-07,-2.294196453295339e-08,8.024460085157907e-07,9.049303302173647e-07,1.0486538113884115e-07,1.6963607224423981e-06,1.3257184688046404e-06,9.93859484642963e-08,2.8278908350364734e-07,7.671807117031403e-07,1.5501097835703731e-07,3.8048967337243787e-07,4.3695424858202446e-07,1.2663393437229716e-06,5.253053915885727e-07,5.439436028831108e-07
-3.5747382841290516e-07,-2.5369408142877297e-08,5.669707172792378e-07,6.970913518684757e-08,7.734887249799035e-07,8.93358377909882e-07,2.988605616544107e-08,1.7092903662185018e-06,1.3050009171009473e-06,3.5316236224094086e-08,2.690171607606423e-07,7.480376594413156e-07,2.5142925050392547e-07,4.160915837075467e-07,3.760382971457063e-07,1.2874755550737057e-06,5.791405017259334e-07,5.222278340575349e-07
-3.3669345945852946e-07,2.2164584467890664e-09,5.433195421131597e-07,1.2481039020426306e-07,7.497661951833682e-07,8.841469345273454e-07,-3.416890498922592e-08,1.7443873969491032e-06,1.3049418849994757e-06,1.3303276736741547e-08,2.5879790445565754e-07,7.835621755060837e-07,3.2253888806945206e-07,4.922421553172176e-07,3.443526197518996e-07,1.3946224513999408e-06,6.425940487812299e-07,4.990437945955652e-07
-3.422075833609512e-07,2.9481919872283154e-08,4.3443652428986993e-07,1.0204866080879396e-07,7.599648901160469e-07,8.860502593292524e-07,-5.9355783697151155e-08,1.8050538100544086e-06,1.311567256239187e-06,5.078098108619735e-08,2.8700514425417615e-07,8.001691783405055e-07,3.4843353329059817e-07,6.137831747218774e-07,3.431372698531507e-07,1.5578323571177093e-06,7.235227041771727e-07,5.917654694627815e-07
-3.8630415790272875e-07,2.135907135959089e-08,2.745809719439843e-07,7.272966667573292e-08,7.204872514734394e-07,8.935397394868689e-07,-4.451042417243817e-08,1.909903725441659e-06,1.3243184306693897e-06,1.2041655857618127e-07,3.2368833941339953e-07,7.619471124506966e-07,2.8086637116509743e-07,7.654517572230198e-07,3.482157723301543e-07,1.6426606633602023e-06,7.949312331061746e-07,6.379949636999286e-07
-5.130330929849089e-07,-7.716662416051182e-10,1.0459467454541222e-07,5.7014238736384054e-08,6.575396547780125e-07,8.834105777094799e-07,-2.1805145434423583e-08,2.027587230663823e-06,1.329493623872251e-06,2.03429106217281e-07,3.2547389193567933e-07,8.022768458503924e-07,1.8531563871548262e-07,8.884879090962916e-07,3.426567997466746e-07,1.6206830507232515e-06,8.402479499816265e-07,5.875438680553066e-07
-7.528244525278229e-07,-3.6734734224800803e-09,-3.619963644295262e-08,4.968940681269262e-08,6.304995837291249e-07,8.58742150178173e-07,-1.5302557893865395e-08,2.112962574168974e-06,1.319498829414928e-06,2.9795146024240134e-07,3.143357060937882e-07,8.571428782757813e-07,1.672928929997675e-07,9.006851326214831e-07,3.1861782824815745e-07,1.4608413523195103e-06,8.4672226498297e-07,5.096845779220926e-07
-8.146258789451004e-07,4.016584550880373e-09,-8.240276067697542e-08,4.278369920805648e-08,6.005350331119213e-07,8.187232555538986e-07,1.9997018518771208e-09,2.17743741090278e-06,1.2857132938014616e-06,3.4533970022179755e-07,3.213754887743403e-07,9.070204436090558e-07,1.847037870718809e-07,8.860958302635205e-07,2.6745122253405296e-07,1.3274136680350305e-06,8.016954121557839e-07,4.971406414891973e-07
-7.643990544250672e-07,2.2848300171958802e-08,-9.881224662889588e-08,2.7724867381493064e-08,5.821349626583424e-07,7.368314008873437e-07,1.3295342107099227e-08,2.2047203218537323e-06,1.2344336498225278e-06,4.0316583270513767e-07,3.4327378925700473e-07,9.219523273991257e-07,2.242332934180696e-07,8.764114653993654e-07,2.0748809130468423e-07,1.2605789982286753e-06,7.142421863538648e-07,5.151789565332634e-07
-7.795388226443809e-07,6.482052104023751e-08,-1.2761457617618539e-07,6.729280109523044e-09,5.927964677731683e-07,6.517658883827606e-07,-2.2373195355483612e-08,2.181324357197427e-06,1.173705023694935e-06,4.6252722598794783e-07,3.9937956482949526e-07,8.873683756396398e-07,3.18626344545612e-07,7.915137545394564e-07,1.1576962416855251e-07,1.1659432326695095e-06,6.299395455743528e-07,5.080253758715676e-07
-7.829582376549955e-07,7.592715765814204e-08,-1.520950320397904e-07,-2.263572618582262e-08,5.920827630647026e-07,5.701157936899869e-07,-5.718663399973794e-08,2.130921782616216e-06,1.1065474541591972e-06,4.718807537624925e-07,4.518271191252359e-07,8.301976603989139e-07,3.16523959781479e-07,6.523974761888147e-07,-9.545954359241407e-10,9.58698216102002e-07,5.266284783137176e-07,4.5417943985999947e-07
-8.736481044611224e-07,7.578817666713974e-08,-1.6863592605265437e-07,-6.127074680355297e-08,5.628906938112064e-07,4.908997630473977e-07,-9.693994531794642e-08,2.0689812026701862e-06,1.0440466440054895e-06,4.2663043370001787e-07,4.871100176636406e-07,7.862811317192111e-07,2.61998194887362e-07,5.334206096940802e-07,-1.2575756024853982e-07,6.96998476477734e-07,4.3109783249564907e-07,3.408329048643648e-07
-9.80888735818108e-07,6.357085520961896e-08,-1.9804904797152221e-07,-1.3371125638931657e-07,5.050157781464278e-07,4.4248450247181503e-07,-1.5841697428352752e-07,2.006732046138345e-06,9.935675511646075e-07,3.608484506036381e-07,5.071186269094541e-07,7.678464818608377e-07,2.2143532151432902e-07,4.471259025154317e-07,-2.54088945931821e-07,3.9565303649131815e-07,3.6214125272066175e-07,2.3931956847153644e-07
-1.018383788956146e-06,3.203985719333577e-08,-2.2693759697133229e-07,-1.714435376233672e-07,4.6616638107183803e-07,4.211955048215449e-07,-1.981231003778017e-07,1.95347701988873e-06,9.600203924226046e-07,2.7566430479243206e-07,5.487268853512085e-07,7.638828621487871e-07,1.780611926103932e-07,3.956316236310921e-07,-3.776164454779102e-07,1.1380423844946903e-07,3.0029676063101864e-07,1.2865054149334024e-07
-9.692926480782305e-07,-1.0991282324418131e-08,-2.6145397741827713e-07,-1.8892115897993686e-07,4.487295507346669e-07,4.23744465146615e-07,-1.799339724874902e-07,1.917281210948325e-06,9.480185666033357e-07,1.9686393417894498e-07,5.841445977500434e-07,7.497876694148476e-07,6.813463309706937e-08,3.6654612130859514e-07,-4.847990697173191e-07,-1.3834817375697784e-07,2.6103045826121683e-07,6.2117806741012174e-09
-8.916205257344147e-07,-3.4864826802014594e-08,-2.935334495654503e-07,-1.8188558637987678e-07,4.228602078578567e-07,4.7093796774981325e-07,-1.3379237275088193e-07,1.9012822299988277e-06,9.607519196807106e-07,1.0460082302912416e-07,5.823562033146717e-07,7.160558752535086e-07,-1.427904066685291e-08,3.4725642172954057e-07,-5.827188260771084e-07,-3.1115071620306305e-07,2.4123719748001855e-07,-1.0639020471373854e-07
-7.880458734107368e-07,-2.8517694956555888e-08,-2.6061787787737953e-07,-1.5320674155546898e-07,3.076726005757958e-07,5.384923431633174e-07,-5.3481595236013464e-08,1.9085721632049876e-06,9.94949452654168e-07,-2.694187937799654e-08,5.668986101017877e-07,6.684436262141696e-07,-8.893011601443455e-08,3.1530867941660353e-07,-6.783295894191363e-07,-4.040894569026893e-07,2.3089800975037724e-07,-1.4188534386332616e-07
-7.195309607949346e-07,1.7609414806846689e-09,-2.260546399357852e-07,-1.0276086546859241e-07,2.025973037946341e-07,5.985935476769283e-07,7.706081974940299e-08,1.885709542268757e-06,1.045775185079459e-06,-1.8808829697233786e-07,5.559069779600081e-07,5.766991479716202e-07,-1.743423480999815e-07,2.548585999466401e-07,-7.603514051434668e-07,-4.4756122288616196e-07,2.1721054401111724e-07,-1.2133750415141002e-07
-6.934314186797169e-07,6.505600868524005e-08,-2.4054297438816883e-07,-6.344152149174699e-08,1.2359988778426864e-07,6.655068359600603e-07,1.826595878685406e-07,1.795554846471571e-06,1.0995925435372637e-06,-2.780014108314719e-07,5.433385203366507e-07,4.7762697790824e-07,-2.0650321553481154e-07,1.7078844889338105e-07,-8.289106550495524e-07,-4.4944242276127534e-07,1.9771262774945516e-07,-1.4836612172797038e-07
-6.926851043746572e-07,1.155581844626978e-07,-1.7786939567641496e-07,-1.796746505105929e-08,5.2797013523736896e-08,6.872851131936583e-07,2.7897709501253336e-07,1.6644881155543228e-06,1.1526299100625374e-06,-3.0087616382983117e-07,5.590964377893721e-07,3.63360229962468e-07,-2.445891786847217e-07,8.137235085833092e-08,-8.863448916921291e-07,-4.250800337154797e-07,1.6488064705536964e-07,-1.7008580430882422e-07
-6.084012247343482e-07,8.750307860097295e-08,-7.217302087338974e-08,3.845557972888219e-08,2.3571118642583147e-08,6.764431535140055e-07,2.7791031761498125e-07,1.504316487075789e-06,1.203023742944727e-06,-2.4962025363028796e-07,6.124794028221058e-07,2.4511548286912826e-07,-2.2107113001496583e-07,-9.609174009211906e-09,-9.236431963383573e-07,-3.718371665222209e-07,1.0850624102690318e-07,-1.78440372083057e-07
-4.6938837392405696e-07,6.146515085049301e-08,-2.4133007200061024e-08,1.0121261935757932e-07,5.263510570489278e-08,6.695032037933704e-07,1.7256110832728644e-07,1.3501733219147379e-06,1.2468980375673806e-06,-8.942467950312057e-08,6.297965365413722e-07,1.4971624764591528e-07,-1.3506933357741883e-07,-9.875902488728569e-08,-9.513521947893745e-07,-2.868125342288392e-07,3.245832040925202e-08,-1.7743102346563045e-07
-3.463039665175101e-07,4.7313106338677265e-08,-3.950250162004259e-08,1.6364150156174811e-07,1.0805899152156252e-07,6.584008385220702e-07,1.0161253698980483e-07,1.2580798774288422e-06,1.2838795556856954e-06,-8.63180625316463e-08,6.161373888899394e-07,1.0638660710783945e-07,-9.933173318615034e-08,-1.7150615268757068e-07,-9.598804744495928e-07,-1.73591530579928e-07,-6.511854003445369e-08,-2.0087575146691704e-07
-2.3906595260123946e-07,5.4033465648323846e-08,-4.7770528878804114e-08,2.1913003227456365e-07,1.7857473771628422e-07,7.051182836573592e-07,9.078817437246887e-08,1.2067595227173636e-06,1.3194532705558145e-06,-1.7432041808976577e-07,5.887168586800127e-07,1.031716299528461e-07,-1.6616976004190853e-07,-2.0636629499199985e-07,-9.527596798512228e-07,-3.966674586212282e-08,-1.721527155588408e-07,-2.4538653419181747e-07
-1.4377860162024172e-07,5.821809117164952e-08,-5.080314638957754e-08,2.8350543410687966e-07,2.1469525036859397e-07,8.131681911654972e-07,1.3526810835646178e-07,1.1932069811065543e-06,1.3507459967999341e-06,-2.6226653547543526e-07,5.194659400837362e-07,1.4285757926788465e-07,-2.3082385532276366e-07,-2.146584832361101e-07,-9.545320902021856e-07,1.1382625333163364e-07,-2.7358052326242027e-07,-2.9119365721525233e-07
-4.033827341944461e-08,6.292524655320686e-08,-4.939796231540725e-08,3.500460130205517e-07,2.1826327589160225e-07,9.679989529464796e-07,2.0957492788346333e-07,1.1910084457044785e-06,1.3784415345436201e-06,-2.6769209034969786e-07,4.917160872269744e-07,2.397155062910904e-07,-3.0394820531849394e-07,-1.896390410637132e-07,-9.509702819238334e-07,2.8120068796794564e-07,-3.584324510199759e-07,-3.6074701802029923e-07
8.810523807417335e-08,1.0609120750118781e-07,-7.296009066746455e-08,4.809280650648596e-07,2.0986707775984207e-07,1.14071644140545e-06,3.371776732512727e-07,1.1893165375089348e-06,1.4097584685192576e-06,-2.307641830032911e-07,4.996378593531942e-07,2.7097540118701175e-07,-2.8628374818279996e-07,-1.2187602927766383e-07,-9.458937698326713e-07,4.6360323110604044e-07,-3.6677806741251297e-07,-4.3068710178473274e-07
2.348921683973264e-07,1.84289513948612e-07,-8.296340620576708e-08,6.556475958520744e-07,2.0012120664120998e-07,1.252615449650177e-06,5.249008773426494e-07,1.1363210793086132e-06,1.44575775381966e-06,-1.9969177875096877e-07,4.920777880990355e-07,3.10726546101629e-07,-2.0168549825890364e-07,-1.2028603954233048e-07,-9.039201362280742e-07,6.671185613050935e-07,-3.1097293302905115e-07,-5.116180181491248e-07
3.964391514667736e-07,2.6059696778548367e-07,-9.313349249534948e-08,7.917144185630526e-07,2.2784331959032868e-07,1.3481446202621647e-06,6.986471529456581e-07,1.0860500140005057e-06,1.487894053511187e-06,-1.874049120272783e-07,4.736841902709455e-07,2.910563868270428e-07,-1.0253187294616763e-07,-1.583214214815273e-07,-8.938242469978657e-07,8.940984641300341e-07,-3.107861609184732e-07,-5.40326903207536e-07
5.506852585077691e-07,3.5777388233343733e-07,-6.889574594468993e-08,8.779096690334717e-07,2.706601095015902e-07,1.4379534254602302e-06,8.504048742117401e-07,1.0665105666349106e-06,1.5358691250077835e-06,-1.3064410503477893e-07,4.573253574122865e-07,1.6954966099182303e-07,3.557016115294438e-08,-2.098354763087491e-07,-8.674494513759769e-07,1.1443185050642577e-06,-2.1981563590376403e-07,-5.087394066518069e-07
6.856410079055465e-07,4.632458448578292e-07,-2.131246821653892e-08,9.084328212394462e-07,2.6596896738945506e-07,1.5272554256944854e-06,9.78266867916707e-07,1.0574253942148385e-06,1.586217258833059e-06,-1.4281270748586736e-08,4.717486461375966e-07,8.783981480979658e-08,1.185461779591411e-07,-2.8057878365208357e-07,-7.896322192143848e-07,1.410602032365351e-06,-7.185524060060348e-08,-4.224766907485796e-07
7.147909176451489e-07,5.240890715052032e-07,2.4632759992466578e-08,9.185931913241865e-07,2.3734682634054374e-07,1.5867037206265303e-06,1.0745705522725942e-06,1.0854201896383466e-06,1.6340201585249146e-06,1.165832102045661e-07,5.109965550607481e-07,4.104473820151459e-08,1.9483972707827763e-07,-2.8347042070535416e-07,-7.279038652868409e-07,1.682068211524345e-06,7.252816223463488e-08,-3.007831442059809e-07
6.953350752622122e-07,5.666268376223706e-07,7.02732669690896e-08,9.546911395674937e-07,2.1310703840509476e-07,1.620784221113685e-06,1.166436724936212e-06,1.1176999265170673e-06,1.6780502939172531e-06,2.4622733848220244e-07,5.679483443892055e-07,2.7441169389515703e-08,2.858875261496886e-07,-2.030068364250699e-07,-6.309659710455984e-07,1.9459382465034793e-06,1.9963644213134836e-07,-1.8193876057953174e-07
6.825059063657459e-07,6.285026862110332e-07,9.434759774444451e-08,1.0491775108235218e-06,2.1197931332702917e-07,1.6595887001847513e-06,1.2407147396725285e-06,1.152105426271312e-06,1.7134352223328582e-06,3.688501147004985e-07,6.398293635353016e-07,3.3523036988217445e-08,3.7063915960471335e-07,-8.874010819614013e-08,-5.166546492600099e-07,2.1938004447612416e-06,3.0958775836433733e-07,-6.954178058946515e-08
6.885586324453696e-07,7.108328855788793e-07,1.8849901918914888e-07,1.0759849266261222e-06,3.043635192617685e-07,1.6728929949756501e-06,1.2865201237685966e-06,1.171390727981517e-06,1.7435161909920306e-06,4.71550121821765e-07,7.345530543926615e-07,9.685805415037003e-08,4.7414177523561626e-07,3.568510049186249e-08,-4.1071734450451163e-07,2.4202272733025524e-06,3.857891403282505e-07,2.6144161743997478e-08
6.740901497662601e-07,8.013119657552886e-07,2.9407820252236266e-07,1.0621008365975799e-06,4.227400753704148e-07,1.6898098817902073e-06,1.3009241693244448e-06,1.1836472315915938e-06,1.769347329366005e-06,5.664096461032161e-07,8.455316025936082e-07,2.031968573245296e-07,5.453906877054066e-07,1.4768116624122728e-07,-2.8825814713592053e-07,2.6220880370478006e-06,4.257246852764756e-07,1.0593210289494102e-07
6.589709503974618e-07,8.776342314921762e-07,4.489375306665352e-07,1.0749346542349542e-06,5.499674440860487e-07,1.716812672512178e-06,1.3128141515349404e-06,1.2057171643992394e-06,1.793666868684078e-06,6.751593044127133e-07,9.62961335636995e-07,2.9063626254127153e-07,5.940076498640878e-07,2.3793613133586446e-07,-1.7953817596816665e-07,2.797988961657106e-06,4.3015165738973166e-07,1.3660637060848736e-07
6.560384506110931e-07,9.334724913611576e-07,5.958481671000712e-07,1.0311196937369197e-06,6.916222622777591e-07,1.736498563665965e-06,1.332757878865061e-06,1.2092724427148287e-06,1.8140182626673498e-06,7.480128723581312e-07,1.0821312951641934e-06,3.6226861199705573e-07,6.354670975287078e-07,3.1008105744508284e-07,-9.806313352512835e-08,2.9452629458998325e-06,4.0100747991383084e-07,1.288847546008946e-07
5.48597698110685e-07,9.7249334584364e-07,7.517657655877356e-07,9.591173421113809e-07,7.809078029959418e-07,1.753778812515422e-06,1.3616037141889325e-06,1.2290828165479424e-06,1.8254681308893295e-06,7.804106104995302e-07,1.164089336104334e-06,4.0675675520679923e-07,6.625292042032064e-07,3.6508410309949063e-07,-3.699365293468966e-08,3.060636606628061e-06,3.4702350190515157e-07,9.68646207247214e-08
4.325021994636728e-07,9.919385732116712e-07,8.973016251492188e-07,8.649446047396552e-07,8.444497353298936e-07,1.7592739323771176e-06,1.4035631819173686e-06,1.2037836208083647e-06,1.8247298484818185e-06,7.904093631902418e-07,1.2160744423405072e-06,4.1729201714337664e-07,6.690748483033313e-07,4.077766035859367e-07,-1.1490007392830354e-08,3.1419794920828494e-06,2.7966072873981747e-07,5.262317425592148e-08
2.7894290462464056e-07,1.0069182817142446e-06,9.821320218461612e-07,7.391630346092477e-07,8.916628935070672e-07,1.7545643236597628e-06,1.4481671811080389e-06,1.1429595584660252e-06,1.8123508556814119e-06,7.85148448891108e-07,1.2497281772958442e-06,4.146304966351961e-07,6.511410931386622e-07,4.1257822361584316e-07,-4.259538358547754e-09,3.18935458317263e-06,2.1201784912994226e-07,1.7826638810392765e-08
1.7388132033941345e-07,1.0199525631552238e-06,1.0476319977124388e-06,6.135062197457536e-07,9.21755572866858e-07,1.741016490802611e-06,1.4745167209679716e-06,1.0880800080741079e-06,1.7941395645352205e-06,7.820309534120375e-07,1.2651129121827217e-06,4.0578312030554624e-07,6.054643395361914e-07,3.9194934422360454e-07,-2.3501744418052097e-08,3.2036397068784654e-06,1.5749019829608068e-07,1.4109782540332788e-08
7.948595942521656e-08,1.0215956782566149e-06,1.0789821052300545e-06,5.41639650990299e-07,9.301326605686141e-07,1.71903129097441e-06,1.489430264367387e-06,1.017867026732572e-06,1.7749137588976248e-06,7.912913288312911e-07,1.2816822290653464e-06,3.599254601414344e-07,5.352358799127773e-07,3.728695768820998e-07,-5.2324211786467984e-08,3.188032562444826e-06,1.2287163354915902e-07,4.147917074012347e-08
-5.984453376196592e-08,1.021841832324377e-06,1.1102643573850872e-06,4.857802435322019e-07,9.314739543746344e-07,1.692168607740394e-06,1.4991722252798962e-06,9.72318713033762e-07,1.7601749721245714e-06,8.133807218610348e-07,1.3018493328481298e-06,2.943878063158479e-07,4.59822239157967e-07,3.452332888860632e-07,-7.359732009229376e-08,3.1489382020740264e-06,1.1109593440114395e-07,9.41655963372331e-08
-1.9473264760027575e-07,1.0287225163855647e-06,1.158159869896582e-06,3.97477501486053e-07,9.291659397302121e-07,1.6622158826002011e-06,1.4971376134305513e-06,9.520234930806026e-07,1.7512087998459766e-06,8.419538160738735e-07,1.324693678128897e-06,2.3996425144556734e-07,3.8155285780218087e-07,3.194896797928415e-07,-9.681032911517539e-08,3.094723000616994e-06,1.180043965621063e-07,1.6914392254715584e-07
-3.1779307572787344e-07,1.0399392658032212e-06,1.200611707247281e-06,3.773701306964013e-07,9.38340301865141e-07,1.6319370413690868e-06,1.4877157468533053e-06,9.456686743194335e-07,1.7467911884779453e-06,8.873052624702932e-07,1.3531585152905814e-06,1.9410642044290322e-07,2.990285727010722e-07,3.030709712827254e-07,-1.137305019402753e-07,3.0351227500759705e-06,1.3341169300743375e-07,2.3476504290679752e-07
-3.621586471669125e-07,1.0587565781492834e-06,1.2361026392216489e-06,4.1089520107578236e-07,9.64043981331149e-07,1.6009712563471606e-06,1.4696651129229866e-06,9.536208093560167e-07,1.743179892997147e-06,9.390148813498186e-07,1.3877033373801098e-06,1.6087916675928744e-07,2.203242484039876e-07,2.8305905881571154e-07,-1.1342925526495535e-07,2.979505939624869e-06,1.4584229156682544e-07,2.87236697750089e-07
-3.2972387126761697e-07,1.0829367471683601e-06,1.2714104097823113e-06,4.197193897820613e-07,9.898866934553858e-07,1.5668799496776825e-06,1.4426714434103572e-06,9.629090969969752e-07,1.7343359815253203e-06,9.885943399611669e-07,1.4278760432000014e-06,1.3664337091759895e-07,1.47558775813238e-07,2.563937199361077e-07,-1.2347032279520325e-07,2.9348175860975328e-06,1.448432515512042e-07,3.2562628001819796e-07
-2.9533254400984904e-07,1.106696564556594e-06,1.304564747058883e-06,4.4965875767717225e-07,1.009539636343218e-06,1.5272752530618301e-06,1.4078183446252386e-06,9.635993088967381e-07,1.7140605592230358e-06,1.0334828550027868e-06,1.4709469254977066e-06,1.1076945941771724e-07,8.278877380325791e-08,2.21228135498962e-07,-1.4605725458079987e-07,2.905765452647376e-06,1.2398373395998322e-07,3.443532084940398e-07
-2.6565042519349145e-07,1.129663577717535e-06,1.3341086435766852e-06,4.498550258302061e-07,1.0189646459445562e-06,1.480567401764382e-06,1.3691921366356072e-06,9.458398527032051e-07,1.68809279355724e-06,1.066104438672441e-06,1.5144961148290574e-06,8.078343355538207e-08,2.8276969453683197e-08,1.7339575157678263e-07,-1.7244779557625913e-07,2.8946323521919214e-06,8.263547992723068e-08,3.4465010506069856e-07
-2.3325092881998727e-07,1.1533814329327269e-06,1.3587224925132699e-06,4.213642320183327e-07,1.0248311801178157e-06,1.4273074123793107e-06,1.3272495433507329e-06,9.125133442880504e-07,1.6540704735011457e-06,1.0850470694046344e-06,1.5422729325085144e-06,5.264173712068082e-08,-1.877741892615563e-08,1.107129618849041e-07,-2.0898663326343716e-07,2.900175554405774e-06,2.5349778829322323e-08,3.297742281192014e-07
-2.5690494459438204e-07,1.1748235198304858e-06,1.3773478801461837e-06,4.0313762436457474e-07,1.0265460636387342e-06,1.3699890782811317e-06,1.2812657326730218e-06,8.692362307640506e-07,1.6124981813789063e-06,1.090973107092796e-06,1.5571095129566514e-06,9.339297677550053e-09,-6.165075511932858e-08,3.7947014614936894e-08,-2.498287969607134e-07,2.91709414918451e-06,-4.22691733532199e-08,3.0453886553306453e-07
-3.008337668184685e-07,1.1928369031972945e-06,1.3915873875122172e-06,3.650755103345167e-07,1.011666634521073e-06,1.3121914328996993e-06,1.2307352866295856e-06,8.227211322327852e-07,1.5582710845974904e-06,1.0850492663955866e-06,1.5627881824188089e-06,-4.903185126760984e-08,-1.0279568317652804e-07,-4.2650053187599026e-08,-2.922317714018058e-07,2.936700974003582e-06,-1.154759757805445e-07,2.744047427590379e-07
-3.371688139784275e-07,1.2061406794646163e-06,1.3897785186417696e-06,3.4042919879129287e-07,9.862034700505485e-07,1.2570061059623108e-06,1.1760249690412944e-06,7.814637432186537e-07,1.494781105236875e-06,1.0691833973749432e-06,1.5577350870463658e-06,-1.1484444576677223e-07,-1.4334308024705536e-07,-1.3349751636708816e-07,-3.3840350060555445e-07,2.9489024669992025e-06,-1.9246183939995558e-07,2.4497962231186564e-07
-3.6265430719824217e-07,1.2113066127944286e-06,1.3805038546299123e-06,3.352729571685761e-07,9.553467219714383e-07,1.2059246840775206e-06,1.1153680459702743e-06,7.475952733881837e-07,1.4263442460864516e-06,1.0462620422079356e-06,1.545824084457195e-06,-1.8862788961377223e-07,-1.8440652473125523e-07,-2.3137025498652335e-07,-3.916444841865598e-07,2.945526726256938e-06,-2.7451937867200197e-07,2.1093814195939604e-07
-3.636042018467366e-07,1.2064897850001869e-06,1.3621838859365158e-06,3.369241051822922e-07,9.201680296278873e-07,1.1591481828830021e-06,1.0443694260490379e-06,7.195087422636153e-07,1.3528413946918019e-06,1.018079827292906e-06,1.5249366875860517e-06,-2.606300489291541e-07,-2.257863173403166e-07,-3.358423003578346e-07,-4.467449157909374e-07,2.924278188477073e-06,-3.635380767338152e-07,1.6637718533062612e-07
-3.6266123346464566e-07,1.1882867294611315e-06,1.3314572537740684e-06,3.4186542737504397e-07,8.844385784521391e-07,1.1163290750121925e-06,9.615730539972384e-07,6.950251540604666e-07,1.2773357400798408e-06,9.861904632724793e-07,1.4941128951189966e-06,-3.2838606449822023e-07,-2.663338385686348e-07,-4.457709012606167e-07,-5.038725572699111e-07,2.88607007490326e-06,-4.5987164361437055e-07,1.0854269876995373e-07
-3.754157049167606e-07,1.1583200501339664e-06,1.2933616294590171e-06,3.4192004880923055e-07,8.469760843650873e-07,1.0772804240717504e-06,8.718531292372638e-07,6.723729666206389e-07,1.1984182027019724e-06,9.517552590457507e-07,1.454980460708642e-06,-3.930207022133632e-07,-3.050389708793401e-07,-5.573741591520532e-07,-5.641027934337911e-07,2.839284702072543e-06,-5.612886403662685e-07,3.265061344042454e-08
-4.042652928029794e-07,1.1229449437507701e-06,1.2483684936473794e-06,3.2941869242793196e-07,8.0719004761407e-07,1.0427245332231815e-06,7.784499647662696e-07,6.465532274716857e-07,1.1193898915235048e-06,9.141417626084536e-07,1.4089867250960768e-06,-4.5288487515810534e-07,-3.400936545702236e-07,-6.700738383856275e-07,-6.254287121181867e-07,2.7942316392993304e-06,-6.636547435931841e-07,-5.540107061489769e-08
-4.5347712451614085e-07,1.085333207039927e-06,1.1996252546038856e-06,3.0676192237032716e-07,7.660574390262752e-07,1.0140520109558995e-06,6.886170208498982e-07,6.18847093828448e-07,1.0446712683523605e-06,8.729846939476516e-07,1.3586573437415246e-06,-5.044634505763699e-07,-3.692836251400627e-07,-7.784590374965317e-07,-6.883802544069322e-07,2.7601342881049316e-06,-7.618122964754675e-07,-1.467937366027523e-07
-5.222486889364147e-07,1.0501306533282886e-06,1.1491847747652576e-06,2.827792894381171e-07,7.297976806140895e-07,9.918662896162436e-07,6.083347051439678e-07,5.908652832447202e-07,9.781826467780656e-07,8.266606599738138e-07,1.3063442193012052e-06,-5.533095904683299e-07,-3.907045052081694e-07,-8.789818086839441e-07,-7.522312395612644e-07,2.7441516586798148e-06,-8.522677373250951e-07,-2.3487924512819138e-07
-6.07087489661078e-07,1.0200369843132604e-06,1.0989917546392252e-06,2.559929809090391e-07,6.939060485880697e-07,9.751859994713168e-07,5.372022876403273e-07,5.623898650525689e-07,9.183839274894715e-07,7.727495630944951e-07,1.2537999270088092e-06,-5.999661693125051e-07,-4.0306564349275183e-07,-9.710948492207107e-07,-8.1532728189391e-07,2.748342235122414e-06,-9.335776534443194e-07,-3.0855748456795834e-07
-7.032377436768048e-07,9.949075525011575e-07,1.046372548829472e-06,2.2955953645265931e-07,6.579637667203451e-07,9.621629929938097e-07,4.7360916029806273e-07,5.349302763986974e-07,8.617004647373342e-07,7.099911247905019e-07,1.202778991763591e-06,-6.423491372031073e-07,-4.060372711704588e-07,-1.0524356524474365e-06,-8.79172321977583e-07,2.77081714025503e-06,-1.0051958874622182e-06,-3.662506154346486e-07
-8.018234104207999e-07,9.744581796730922e-07,9.83958560411064e-07,2.091591218196675e-07,6.239338900481508e-07,9.510910614297667e-07,4.1387831921994395e-07,5.094747857207156e-07,8.062727966087545e-07,6.384491242424789e-07,1.1544695837003785e-06,-6.817416375388315e-07,-4.008445100947882e-07,-1.122742454593583e-06,-9.355487894047129e-07,2.8057799739515614e-06,-1.067175400902654e-06,-4.085170168368535e-07
-8.927834975091476e-07,9.569532615199477e-07,9.131538426151558e-07,1.9495789079693258e-07,5.92398958149556e-07,9.41277536734391e-07,3.5581259226194556e-07,4.873490075275093e-07,7.517145123990981e-07,5.60251014304248e-07,1.1100542587020112e-06,-7.160914390144313e-07,-3.901412510485543e-07,-1.1824760175520758e-06,-9.812756433383576e-07,2.8449365036380865e-06,-1.1193923568620075e-06,-4.351961830090984e-07
-9.612706365402152e-07,9.3900097914457e-07,8.384957507599546e-07,1.8949596847885854e-07,5.662725672674209e-07,9.340579331157045e-07,2.991485195235344e-07,4.7096595025606893e-07,6.943255533545906e-07,4.804054232957599e-07,1.0703683693629063e-06,-7.457939078123931e-07,-3.767449602391198e-07,-1.2320564751879018e-06,-1.0152259087403263e-06,2.8783903871326507e-06,-1.160999954021882e-06,-4.4718182539524915e-07
-9.954279039596618e-07,9.164540511243704e-07,7.660193045539444e-07,1.9551913984292435e-07,5.476451890035971e-07,9.327078268391691e-07,2.486895389765033e-07,4.6397867229303365e-07,6.418188441079178e-07,4.0678348349266144e-07,1.0395745383977488e-06,-7.694611880730662e-07,-3.6268662722564743e-07,-1.2702150010948268e-06,-1.0352443168101458e-06,2.8973890062762968e-06,-1.1910062850033866e-06,-4.4583561599528833e-07
-9.885230461453071e-07,8.864220799305714e-07,7.058903108951537e-07,2.1077052101741554e-07,5.374286745427854e-07,9.404532625517674e-07,2.1083595395766885e-07,4.6737823347669854e-07,6.013084189892829e-07,3.4805398266208753e-07,1.0160344557613008e-06,-7.821137523949357e-07,-3.4928067696603677e-07,-1.2958337638681354e-06,-1.0442553303743401e-06,2.8953036857159336e-06,-1.2098416871321367e-06,-4.3397989586068645e-07
-9.409999972793769e-07,8.46047261998254e-07,6.641958068114515e-07,2.3516918056583765e-07,5.365432649329043e-07,9.58475277756607e-07,1.885243238594057e-07,4.795366667971573e-07,5.821454434141683e-07,3.1181311936297476e-07,9.97405979997538e-07,-7.831628600302585e-07,-3.372077510446431e-07,-1.309417357879216e-06,-1.0458679595013198e-06,2.8683383872048386e-06,-1.2195194031633822e-06,-4.154005257585371e-07
-8.633132546914826e-07,7.940281650317645e-07,6.464006275445974e-07,2.586576977334867e-07,5.402865554480359e-07,9.855036386609112e-07,1.8181671861443283e-07,4.966986622268925e-07,5.825107734530922e-07,3.0241347902881626e-07,9.826417963674591e-07,-7.733299413772187e-07,-3.264139604166812e-07,-1.3101939231390833e-06,-1.0441540980210444e-06,2.816954218406785e-06,-1.2230054376363578e-06,-3.955385287489857e-07
-7.71497495422109e-07,7.318808390234507e-07,6.485952777758022e-07,2.755519688439325e-07,5.448339610121689e-07,1.0181818451500681e-06,1.8708160441803921e-07,5.131057158726084e-07,5.949221451020933e-07,3.1866490473783216e-07,9.697672779004907e-07,-7.538205747519708e-07,-3.1654252424336013e-07,-1.3007880030519747e-06,-1.0424830298683226e-06,2.745038342869122e-06,-1.2238119501362897e-06,-3.774750170467244e-07
-6.832928266641982e-07,6.631535517336288e-07,6.632168039774774e-07,2.827474218855767e-07,5.463887496742478e-07,1.0517200520370898e-06,1.982803845655297e-07,5.235443235201495e-07,6.126100784619189e-07,3.535812189609611e-07,9.586748498885138e-07,-7.266850120602334e-07,-3.0737372650366326e-07,-1.2856490198667022e-06,-1.0456900416947205e-06,2.6583186093405065e-06,-1.2253609282424485e-06,-3.6358097131680875e-07
-6.136028456320811e-07,5.931265668262892e-07,6.836824068710161e-07,2.777800817837394e-07,5.420985072455996e-07,1.0814231475638935e-06,2.0923874799209795e-07,5.256468770986343e-07,6.273643313299761e-07,3.9669466340411673e-07,9.497207009777732e-07,-6.96090076506643e-07,-2.984810799001514e-07,-1.2688401459119225e-06,-1.0556203477077036e-06,2.56371585497723e-06,-1.23025427197146e-06,-3.5588525197828216e-07
-5.706633923444064e-07,5.275547779890539e-07,7.03322569132942e-07,2.626662360201814e-07,5.332293291132392e-07,1.104278709633129e-06,2.1623054485390706e-07,5.186424976971152e-07,6.379875914230477e-07,4.3745648095188963e-07,9.435227191358112e-07,-6.651106148270914e-07,-2.887858147801323e-07,-1.2522757550670387e-06,-1.0719031081632763e-06,2.469409542367263e-06,-1.2399782973785593e-06,-3.5527032598656844e-07
-5.58955446972915e-07,4.7138142801375806e-07,7.194266400349702e-07,2.430746415198857e-07,5.219110717443149e-07,1.1193261637830199e-06,2.1916769323449746e-07,5.041347303943434e-07,6.435507440761617e-07,4.678206692930545e-07,9.406043419143065e-07,-6.363518839106373e-07,-2.7658857293237244e-07,-1.2395885165774505e-06,-1.0934460689229229e-06,2.383613031013987e-06,-1.2549245712765562e-06,-3.6260338971596835e-07
-5.776354240064656e-07,4.2777443393721936e-07,7.306715151296184e-07,2.225508049409583e-07,5.087683091007933e-07,1.1273384890103333e-06,2.1977025760742048e-07,4.85560825098211e-07,6.442587874740122e-07,4.836447129044166e-07,9.417078742443696e-07,-6.124107788201873e-07,-2.5970724406542726e-07,-1.2287642437120809e-06,-1.1173914227587421e-06,2.313348857069788e-06,-1.2742170629239781e-06,-3.7811104679808246e-07
-6.212194155785245e-07,3.9800924311064173e-07,7.36544029681352e-07,2.029406777204966e-07,4.948723870274761e-07,1.1303754805586352e-06,2.20308614979196e-07,4.665325989051819e-07,6.400125788695444e-07,4.845428706214969e-07,9.470239464716262e-07,-5.927133384700651e-07,-2.360588420619162e-07,-1.217826569508897e-06,-1.1408078629516666e-06,2.2634428425625933e-06,-1.2960060529852902e-06,-4.0124640234970935e-07
-6.81648080217504e-07,3.816216228858795e-07,7.36256195318253e-07,1.8786935720700469e-07,4.813584861596104e-07,1.1306406393628737e-06,2.2240314847538146e-07,4.499309237935774e-07,6.322358240250643e-07,4.7207667494187473e-07,9.555134824061758e-07,-5.765254710474045e-07,-2.0507464669933908e-07,-1.2084334212371334e-06,-1.1615275619205933e-06,2.234829000513732e-06,-1.3185686162097648e-06,-4.313037267549438e-07
-7.492426337199739e-07,3.763159656970627e-07,7.298745572176362e-07,1.7802457441320279e-07,4.668002034526416e-07,1.1291946668625007e-06,2.2501034394471514e-07,4.3696705850676864e-07,6.214688562328792e-07,4.480684485986045e-07,9.644402207275488e-07,-5.63851038251103e-07,-1.6869359368343972e-07,-1.1998931058497837e-06,-1.1785077603201429e-06,2.22404516687427e-06,-1.3409339627036094e-06,-4.6748040500263807e-07
-8.150036055617102e-07,3.784062735662086e-07,7.182927848533842e-07,1.72136189012049e-07,4.496474572239126e-07,1.1258227949581643e-06,2.2412891268982986e-07,4.2719450910364544e-07,6.066344945896811e-07,4.1456015363981105e-07,9.708762089599327e-07,-5.548572438040685e-07,-1.3089678704335557e-07,-1.1935454165790373e-06,-1.1915983373479488e-06,2.2247939245932583e-06,-1.3624778603255624e-06,-5.082368531997253e-07
-8.717255567154398e-07,3.8360984451823386e-07,7.022484946860127e-07,1.6934917409820525e-07,4.283521769532004e-07,1.1196991034692788e-06,2.1626599948850336e-07,4.195117878327393e-07,5.876908757770167e-07,3.746895700548169e-07,9.722805529735557e-07,-5.489761497595056e-07,-9.65049180393727e-08,-1.1907071283773198e-06,-1.2009601233831531e-06,2.229832054350313e-06,-1.3822972619258542e-06,-5.506202688553757e-07
-9.151747478055941e-07,3.8751485022139967e-07,6.835814416036505e-07,1.6823311650171735e-07,4.017429095399398e-07,1.1100811620521237e-06,1.9895305110268294e-07,4.1381387724115966e-07,5.673895976108288e-07,3.3347134959653937e-07,9.670592278499493e-07,-5.464439165326224e-07,-6.98349638525285e-08,-1.1905978032521279e-06,-1.2063491567925389e-06,2.2346939770284904e-06,-1.3984139954727605e-06,-5.898416642986712e-07
-9.42754722582762e-07,3.862723105874525e-07,6.652302989253234e-07,1.6727937345028494e-07,3.705300149663262e-07,1.097273521139264e-06,1.7156552087881444e-07,4.1154398108530774e-07,5.482001113983584e-07,2.9797092192461663e-07,9.551889482004604e-07,-5.439229948545829e-07,-5.3312777596463946e-08,-1.1894516990069137e-06,-1.2060867598347375e-06,2.23586491609086e-06,-1.406789238495853e-06,-6.193962054291042e-07
-9.526439920417999e-07,3.7805882925105884e-07,6.501203606408034e-07,1.6827951878993882e-07,3.3779980479300585e-07,1.0832680238684553e-06,1.3770141023592396e-07,4.157846303478662e-07,5.345188551063107e-07,2.757099258574575e-07,9.380803039555359e-07,-5.369713351649766e-07,-4.707581422112308e-08,-1.1822830100262397e-06,-1.1968356215042307e-06,2.2338067822573535e-06,-1.4015431172037682e-06,-6.325598125997604e-07
-9.431294159830317e-07,3.63157293384137e-07,6.410476834934902e-07,1.753574894947497e-07,3.0753320590542674e-07,1.0709060956622611e-06,1.0255401981913954e-07,4.300357372551959e-07,5.289978469892018e-07,2.7129296025750186e-07,9.176038200929345e-07,-5.227542980753177e-07,-5.015785466592161e-08,-1.1629226893487012e-06,-1.1748334845955479e-06,2.231933625158326e-06,-1.376894464169546e-06,-6.246815090403317e-07
-9.130508330936645e-07,3.4387549730609796e-07,6.394831698045322e-07,1.9321374114298336e-07,2.8432211446958113e-07,1.0623614710317846e-06,6.934387430056234e-08,4.562365809485781e-07,5.339905339398293e-07,2.838614712770285e-07,8.953125986567332e-07,-4.998017865354974e-07,-6.192404895239632e-08,-1.126024400173545e-06,-1.1375488247719149e-06,2.2325267464786694e-06,-1.3292786301437723e-06,-5.943349356568346e-07
-8.632040401804702e-07,3.2402775360609355e-07,6.459374657547076e-07,2.2526097076021828e-07,2.7119144826337494e-07,1.0583977088715516e-06,3.956985025785924e-08,4.938283586011187e-07,5.500976986350616e-07,3.073182242294037e-07,8.728472807852015e-07,-4.691255665074688e-07,-8.256509500456139e-08,-1.0710161895020326e-06,-1.0850351969126327e-06,2.2352137225335908e-06,-1.2587844952008627e-06,-5.430394795769651e-07
-7.969883424284197e-07,3.081802785415475e-07,6.606606722043045e-07,2.7178197917409327e-07,2.7054695980022996e-07,1.058181458264641e-06,1.3436501394148948e-08,5.403162175060586e-07,5.756022726824979e-07,3.325062834436143e-07,8.520450095207084e-07,-4.352220608646022e-07,-1.1277624046659089e-07,-1.0001998957039216e-06,-1.0210003257784644e-06,2.2408589976623334e-06,-1.1701919658286496e-06,-4.750012325307229e-07
-7.208194084082134e-07,3.0063993316760526e-07,6.838888379174423e-07,3.282038243916859e-07,2.8355824075322834e-07,1.059447421085655e-06,-1.0477657558133775e-08,5.910248831064289e-07,6.082760256821399e-07,3.501608564758488e-07,8.350451985187278e-07,-4.033802109285626e-07,-1.5257901560550704e-07,-9.189987008209738e-07,-9.52748528864348e-07,2.232662228575379e-06,-1.0728385905643585e-06,-3.9711399018217715e-07
-6.430860047090393e-07,3.0428715008928084e-07,7.157412314945743e-07,3.878822203015206e-07,3.0944151251325054e-07,1.0597456382508585e-06,-3.287376169868663e-08,6.41089302444589e-07,6.444582172098007e-07,3.5395769054738997e-07,8.238813339990569e-07,-3.7840726882827837e-07,-1.9951404354910326e-07,-8.358252651710246e-07,-8.892872315356369e-07,2.207327195454985e-06,-9.785810717921178e-07,-3.1848069750549917e-07
-5.714824015445108e-07,3.203223946130105e-07,7.55315544250422e-07,4.4395727141723696e-07,3.463873268264857e-07,1.0580685426409762e-06,-5.318467187344315e-08,6.880706626662152e-07,6.814842517783829e-07,3.422026495554151e-07,8.194006670496703e-07,-3.64459654772475e-07,-2.479414979304446e-07,-7.584235690443402e-07,-8.386078741860028e-07,2.16130867342566e-06,-8.989846858991105e-07,-2.494078331758509e-07
-5.107636701712783e-07,3.4780166859124604e-07,7.99682713625494e-07,4.922645343739434e-07,3.91377818439683e-07,1.0551626277466461e-06,-6.76553365828123e-08,7.302005789044398e-07,7.167399761514602e-07,3.173147772388112e-07,8.204060096910948e-07,-3.627464700314627e-07,-2.9059848567525634e-07,-6.956326693020293e-07,-8.053874278312374e-07,2.0942063430842205e-06,-8.427786157310001e-07,-1.997113122599388e-07
-4.6224478180893576e-07,3.838302805901204e-07,8.429330095140867e-07,5.325838492979201e-07,4.389604140148409e-07,1.0527547317046659e-06,-7.277110692722394e-08,7.665999179598356e-07,7.474272812629272e-07,2.842297848320189e-07,8.232573838823099e-07,-3.7148290915195946e-07,-3.2127980691667156e-07,-6.529815893814404e-07,-7.895542213315927e-07,2.0182426595413572e-06,-8.135548526137853e-07,-1.7604590427624718e-07
-4.2425029174890836e-07,4.235923180998514e-07,8.77228660752573e-07,5.674116424493341e-07,4.822045955706803e-07,1.0528944290345176e-06,-6.695599365218547e-08,7.987888236887921e-07,7.70608158980981e-07,2.4866593781709636e-07,8.231261628399848e-07,-3.8670766101643375e-07,-3.372233166557246e-07,-6.31442374783951e-07,-7.864280741639912e-07,1.945025708921209e-06,-8.08620651247236e-07,-1.7952184405505076e-07
-3.9331604294640904e-07,4.6139587716084374e-07,8.951652091237443e-07,6.009909353947415e-07,5.146006594835796e-07,1.057401046315195e-06,-5.1069876228996674e-08,8.273911166213267e-07,7.846982087460172e-07,2.1515076648726882e-07,8.158754044514953e-07,-4.0355656189910087e-07,-3.405073307404783e-07,-6.28728745502973e-07,-7.886587503557057e-07,1.886154491314253e-06,-8.200856130293349e-07,-2.0529914952785556e-07
-3.657954834523843e-07,4.921048738550504e-07,8.921860942096416e-07,6.374310253487605e-07,5.311011005893052e-07,1.0674757624656226e-06,-2.897084878706834e-08,8.541323810730147e-07,7.904649215702691e-07,1.8556433197591366e-07,7.990107350978897e-07,-4.176533920906462e-07,-3.3749530409162473e-07,-6.386039072245611e-07,-7.884491138374783e-07,1.847363087113366e-06,-8.372199483606685e-07,-2.439059920536644e-07
-3.3893289877023836e-07,5.122944307370263e-07,8.686684667233835e-07,6.795486295755913e-07,5.30296362484241e-07,1.0840769219826547e-06,-5.326245955587174e-09,8.810540536074886e-07,7.913212116680355e-07,1.5915473876933316e-07,7.728251825655975e-07,-4.2639268401460353e-07,-3.3628639240905624e-07,-6.526909311711799e-07,-7.789099996937394e-07,1.831846110624274e-06,-8.48811593514167e-07,-2.8329237366181413e-07
-3.112062502447397e-07,5.212960452067286e-07,8.307881389693197e-07,7.27697683411768e-07,5.154750308080909e-07,1.1083647797749556e-06,1.571687750399949e-08,9.094980869868831e-07,7.935453292925397e-07,1.3336932944728738e-07,7.405883514740023e-07,-4.2858770974201045e-07,-3.440033271823263e-07,-6.619662979993252e-07,-7.552424561204995e-07,1.8338255929402148e-06,-8.456716808469791e-07,-3.1153705297753266e-07
-2.8268627170922717e-07,5.209608865854147e-07,7.893186018424755e-07,7.791673707700822e-07,4.937161705254696e-07,1.1412249242798207e-06,3.424112956407451e-08,9.403385956672188e-07,8.044359291650023e-07,1.04703668533904e-07,7.075754345364142e-07,-4.257019171513649e-07,-3.652141626626506e-07,-6.589178758050568e-07,-7.161070327105691e-07,1.8456500217437252e-06,-8.229545019140417e-07,-3.19789221101494e-07
-2.551877005325921e-07,5.146794613239438e-07,7.566769475784078e-07,8.2815458360525e-07,4.738972041733158e-07,1.1825441892290225e-06,5.1716189952988096e-08,9.733304389565598e-07,8.300527764091425e-07,6.973336968692378e-08,6.797335292014059e-07,-4.2124098412766804e-07,-4.0126959421700646e-07,-6.38819792669634e-07,-6.643332412163157e-07,1.8584491533833681e-06,-7.811216774593735e-07,-3.042588125668974e-07
-2.3140624925594374e-07,5.066091408282776e-07,7.432693797208718e-07,8.682472523388497e-07,4.644243732585092e-07,1.2309701735052863e-06,7.068490700588188e-08,1.0071346812775147e-06,8.734517552526632e-07,2.5974084130159826e-08,6.620688825769712e-07,-4.197302707552431e-07,-4.5046693930120004e-07,-6.010346915515736e-07,-6.065379233152506e-07,1.8614021850617492e-06,-7.254786103152006e-07,-2.667537494381137e-07
-2.1347930376032355e-07,5.00750698543848e-07,7.540050086846912e-07,8.944987039622116e-07,4.7044135177865664e-07,1.2838748041845784e-06,9.494161488270006e-08,1.0390569202573868e-06,9.332809896322787e-07,-2.7956157888797365e-08,6.569731745568791e-07,-4.2598425967644924e-07,-5.087490431908992e-07,-5.496732974869892e-07,-5.516268044440016e-07,1.8468641119126301e-06,-6.647915835225601e-07,-2.1389908372460086e-07
-2.0159262181211695e-07,5.000214196713999e-07,7.864956321774035e-07,9.060173155646104e-07,4.925854361202987e-07,1.3377512908762533e-06,1.261193435002237e-07,1.0664090748508892e-06,1.0038124443795572e-06,-9.2190827262775e-08,6.63366843490594e-07,-4.434339130137847e-07,-5.700134883802626e-07,-4.920463979694752e-07,-5.08137437140868e-07,1.810463363486587e-06,-6.090046616077149e-07,-1.551628917511777e-07
-1.9311761959179224e-07,5.059957459069104e-07,8.321411767685633e-07,9.063344786751323e-07,5.274581034946466e-07,1.3891658353356644e-06,1.645320220414499e-07,1.086805011325613e-06,1.0769098421426797e-06,-1.650506527113946e-07,6.773947984705436e-07,-4.7258120063020646e-07,-6.265474231020793e-07,-4.372835248029832e-07,-4.815174281060372e-07,1.7508543796359964e-06,-5.666465059886172e-07,-1.0034761911550364e-07
-1.828676874569887e-07,5.190040323499259e-07,8.792283057177938e-07,9.025883530862859e-07,5.69438167347032e-07,1.4351570506813237e-06,2.089527679558396e-07,1.0989491598977521e-06,1.1442971196104336e-06,-2.427639945674231e-07,6.934673863816787e-07,-5.107262931922771e-07,-6.709511665602436e-07,-3.940031696559858e-07,-4.7296435357538025e-07,1.6687668431158628e-06,-5.429149237839179e-07,-5.7471585146797404e-08
-1.6467305667785207e-07,5.380165847500909e-07,9.163804684222998e-07,9.023571862127911e-07,6.127028344958672e-07,1.4727778518000924e-06,2.553152772149985e-07,1.1035686050715186e-06,1.1990334560823556e-06,-3.196376099122642e-07,7.052494847131041e-07,-5.524476635493809e-07,-6.986247749688893e-07,-3.679118560176214e-07,-4.798844356239748e-07,1.5699850174211903e-06,-5.386050955655973e-07,-3.1257877863756585e-08
-1.3330402003169553e-07,5.606756218047984e-07,9.354278605963251e-07,9.098663356425367e-07,6.526038978559091e-07,1.4988746867723687e-06,2.9673746591575253e-07,1.1025298108578546e-06,1.2366599167040494e-06,-3.884445116120797e-07,7.067675414366231e-07,-5.900250855373743e-07,-7.088021493075188e-07,-3.603847246114154e-07,-4.970965150727421e-07,1.4622422266766557e-06,-5.501378592443686e-07,-2.2411507786959902e-08
-8.613264825265018e-08,5.837412571156262e-07,9.329424260204282e-07,9.255588982613432e-07,6.863483331294959e-07,1.510399363378087e-06,3.264339518492499e-07,1.0989740860661332e-06,1.2558208976405968e-06,-4.4147772110111726e-07,6.939996565795122e-07,-6.151222042379247e-07,-7.039345037256887e-07,-3.6805066059125804e-07,-5.185289525773763e-07,1.352938191040464e-06,-5.712298274598373e-07,-2.8205115496651204e-08
-2.4562326899831446e-08,6.033007874530007e-07,9.10171505396079e-07,9.455002350032998e-07,7.125682767659021e-07,1.505002919810956e-06,3.3876689893654975e-07,1.0962953471602052e-06,1.2580372495485237e-06,-4.721347383123438e-07,6.658393450379243e-07,-6.208261115758221e-07,-6.879100068175036e-07,-3.846755607468203e-07,-5.391520538551592e-07,1.2497291912382452e-06,-5.953555635436324e-07,-4.4058461782369275e-08
4.580673530909476e-08,6.157099654142895e-07,8.722204227407632e-07,9.629436791486406e-07,7.306170442977434e-07,1.4822815008311305e-06,3.323296690205611e-07,1.096396584541427e-06,1.2473446737798692e-06,-4.7613326036944897e-07,6.246994794489915e-07,-6.035679383067655e-07,-6.6333725756195e-07,-4.027296446288795e-07,-5.565973611477558e-07,1.1585960733907745e-06,-6.175655148072619e-07,-6.522910191910315e-08
1.1719308889194182e-07,6.19205292859801e-07,8.269610711103815e-07,9.715882083558912e-07,7.400766599237757e-07,1.445116277460101e-06,3.1231128244353765e-07,1.1000249305462474e-06,1.229726851225916e-06,-4.524020087993845e-07,5.763110174052438e-07,-5.647228012792207e-07,-6.294173354435563e-07,-4.15380913210681e-07,-5.721045828065039e-07,1.083181584313984e-06,-6.353163907702175e-07,-8.799392600887321e-08
1.8248470198212717e-07,6.148108138286557e-07,7.832234321764439e-07,9.681252962052856e-07,7.402878174673219e-07,1.3996199048806522e-06,2.878534861196879e-07,1.106027032255036e-06,1.2116585066429353e-06,-4.0388881876703344e-07,5.274955557054041e-07,-5.10961640529957e-07,-5.823509284111103e-07,-4.1801747223683096e-07,-5.900791794420996e-07,1.0227483495924148e-06,-6.480395895687156e-07,-1.0973429066839649e-07
2.3728647641758344e-07,6.057021840514033e-07,7.485214150115211e-07,9.528709169171651e-07,7.300207726779632e-07,1.3535484653048075e-06,2.7048482998999847e-07,1.112247380194852e-06,1.198534116312079e-06,-3.3745422944309996e-07,4.839171676333716e-07,-4.5239074149316157e-07,-5.182977451813571e-07,-4.0790450721577866e-07,-6.157570618559955e-07,9.749078197586805e-07,-6.552339569311444e-07,-1.2786040912361184e-07
2.8074353843796197e-07,5.95499455695405e-07,7.271524117360715e-07,9.290745111452987e-07,7.080798964464789e-07,1.3138041408729113e-06,2.6904033197891086e-07,1.1168567746369632e-06,1.193718898324782e-06,-2.6257801156941027e-07,4.4827623329901114e-07,-3.991391089581233e-07,-4.3730597624109703e-07,-3.8325839562463953e-07,-6.520703606003882e-07,9.309760679257272e-07,-6.546680628281871e-07,-1.3908787323604423e-07
3.1522332706114915e-07,5.864498104702122e-07,7.190696174850096e-07,9.011163430648125e-07,6.745665035276864e-07,1.2834384574285988e-06,2.844949934676895e-07,1.1187222364226925e-06,1.1976934693639208e-06,-1.8976647041440308e-07,4.196909676697062e-07,-3.5817899909530065e-07,-3.4593370998087287e-07,-3.431251566856024e-07,-6.973245100932897e-07,8.788536621987373e-07,-6.426322805184286e-07,-1.4049453309287826e-07
3.4449080423067067e-07,5.781594143734746e-07,7.200683463704906e-07,8.715789720568668e-07,6.317571140524512e-07,1.2598787812162352e-06,3.098443153445776e-07,1.1169030211715889e-06,1.2076314398005816e-06,-1.2892528418724674e-07,3.949600832918643e-07,-3.3169483120136957e-07,-2.564193783836639e-07,-2.881500706547876e-07,-7.447103456118981e-07,8.087465105756751e-07,-6.159391090504058e-07,-1.3139913624639128e-07
3.714504357415711e-07,5.677462502268813e-07,7.236314695012049e-07,8.397641223926508e-07,5.840789445134089e-07,1.236215271445353e-06,3.305412177420824e-07,1.109998455269448e-06,1.218185843068861e-06,-8.765200373430775e-08,3.7088679763583527e-07,-3.177483887423382e-07,-1.82733286703274e-07,-2.2121125751382508e-07,-7.847658951563807e-07,7.145355368093246e-07,-5.741936994211188e-07,-1.1423549606807284e-07
3.9720352110306527e-07,5.51286963208403e-07,7.2337514922119e-07,8.027716273977624e-07,5.369464255065132e-07,1.2044911292656392e-06,3.304570285583e-07,1.0963823432726491e-06,1.222791845995858e-06,-7.024343501663958e-08,3.4572411669013524e-07,-3.129859637077756e-07,-1.3604546149915938e-07,-1.4763444966237277e-07,-8.104380965818939e-07,5.931804756986046e-07,-5.212596935166979e-07,-9.40575568006953e-08
4.2221384938057747e-07,5.256755896650267e-07,7.148143145148682e-07,7.57472698916104e-07,4.951528149942956e-07,1.1586585390824526e-06,2.97704988616881e-07,1.0742277245817359e-06,1.2150133673158172e-06,-7.772246422919494e-08,3.1932427195127826e-07,-3.1543071804727754e-07,-1.2123023978371215e-07,-7.467904787179585e-08,-8.21170728732001e-07,4.4158153257121786e-07,-4.6491302657896207e-07,-7.719513630608935e-08
4.48461561823103e-07,4.903352377186317e-07,6.963531929811698e-07,7.029540371757879e-07,4.621781489864155e-07,1.0963691030405966e-06,2.2786997328766705e-07,1.042861839088827e-06,1.1904437770653538e-06,-1.0816744629821361e-07,2.930628351144946e-07,-3.252441887221874e-07,-1.3521719962466302e-07,-9.885770329338096e-09,-8.227125905595553e-07,2.5660960282766057e-07,-4.144639639431168e-07,-6.94217661990212e-08
4.799776308885391e-07,4.478579751979761e-07,6.696202294834083e-07,6.41284181804388e-07,4.4041512446835047e-07,1.0195261104793353e-06,1.2746474259190522e-07,1.0028795155210602e-06,1.1485701639204059e-06,-1.5701136427803997e-07,2.694078543415162e-07,-3.434615746276406e-07,-1.6825269448167663e-07,4.1032532492686366e-08,-8.233070665577982e-07,4.5695364021302095e-08,-3.775640871755485e-07,-7.412973178988171e-08
5.206190569780112e-07,4.029924695594639e-07,6.389728429025328e-07,5.764720207337513e-07,4.31249284149406e-07,9.337120324057255e-07,1.1352848919495809e-08,9.559106160314497e-07,1.0934614475163805e-06,-2.1743194775607265e-07,2.509983661663268e-07,-3.7006245780138336e-07,-2.074616455971915e-07,7.574120751284105e-08,-8.291690756174213e-07,-1.7989959890673817e-07,-3.5759565064480634e-07,-9.120057917663286e-08
5.709880374570514e-07,3.608439358124539e-07,6.10317342649897e-07,5.132405798991518e-07,4.348286784376083e-07,8.470540078658481e-07,-1.0163122959892157e-07,9.050522413769526e-07,1.0330718845047151e-06,-2.8103613418925383e-07,2.396002220769028e-07,-4.0261906379365084e-07,-2.4060426833406423e-07,9.56684832629446e-08,-8.417546494086964e-07,-3.989128198070493e-07,-3.528016890293101e-07,-1.1729878106601171e-07
6.270804874577385e-07,3.2541284217874903e-07,5.893449652317845e-07,4.555376866138161e-07,4.4973274909612904e-07,7.683939389100596e-07,-1.9520310079157182e-07,8.543454331239178e-07,9.76851849676312e-07,-3.3932666685078333e-07,2.351779675270021e-07,-4.364676312843272e-07,-2.591444489482672e-07,1.0501314110148558e-07,-8.581104061135811e-07,-5.860454497786676e-07,-3.578611482524084e-07,-1.4770646812475855e-07
6.810134709115907e-07,2.982782159482584e-07,5.794021785192655e-07,4.0532026904858973e-07,4.7247088321658936e-07,7.045475332344714e-07,-2.595935174087397e-07,8.077180810631583e-07,9.319828427025509e-07,-3.856784325405106e-07,2.3557354877708273e-07,-4.6633551823651937e-07,-2.6038324397174755e-07,1.0834193447483462e-07,-8.735049872278475e-07,-7.237500488312851e-07,-3.667473382717021e-07,-1.783959910941009e-07
7.233018117985605e-07,2.7804448301174097e-07,5.802066371390375e-07,3.616832872181332e-07,4.975106959094793e-07,6.581403056146642e-07,-2.94434132003839e-07,7.671944228591613e-07,9.006550582171881e-07,-4.165497886234815e-07,2.370074837835876e-07,-4.881895515293246e-07,-2.476837041876523e-07,1.0933960524356866e-07,-8.841771843308259e-07,-8.046300947535294e-07,-3.7485192938144907e-07,-2.0694126266420237e-07
7.455341057274311e-07,2.609756220646853e-07,5.883547096012368e-07,3.2118640752541625e-07,5.184835006431582e-07,6.273858966724323e-07,-3.076727711478941e-07,7.330256295349241e-07,8.800264407179578e-07,-4.3162274467828217e-07,2.351688196972167e-07,-5.004295734667756e-07,-2.2874660736456436e-07,1.1021133211386957e-07,-8.889364202009759e-07,-8.35367599503761e-07,-3.800248173853937e-07,-2.3337828401423691e-07
7.421966085325062e-07,2.4236868852300433e-07,5.989590096559753e-07,2.7901198445733835e-07,5.298190888108767e-07,6.072409780341081e-07,-3.1085378573350155e-07,7.031561840634987e-07,8.638459562136755e-07,-4.335476551037843e-07,2.2639633199351882e-07,-5.042842002401904e-07,-2.1303956090227135e-07,1.112228529093075e-07,-8.89363069345653e-07,-8.259035118070857e-07,-3.829441350025343e-07,-2.5831829043586075e-07
7.110686992636088e-07,2.1802725300389475e-07,6.074625645669508e-07,2.3035488015311832e-07,5.280428872572765e-07,5.912497185750288e-07,-3.161818724763524e-07,6.741562332018282e-07,8.447970928292871e-07,-4.271613473952827e-07,2.0848373863297182e-07,-5.032018549492809e-07,-2.088675946331557e-07,1.1107168660592145e-07,-8.886100679010192e-07,-7.949518697865048e-07,-3.8647446498287177e-07,-2.8287225519360285e-07
6.528728363277211e-07,1.854909166655311e-07,6.112000390621644e-07,1.7192124699397552e-07,5.127193825432033e-07,5.737540460110248e-07,-3.318002354818392e-07,6.42785551994019e-07,8.171873422765277e-07,-4.180380032908329e-07,1.8127580127108321e-07,-5.014761202543868e-07,-2.2072818674809662e-07,1.0767248369097261e-07,-8.897207226052054e-07,-7.573110527069085e-07,-3.943162788460398e-07,-3.09787306660261e-07
5.705934543834267e-07,1.4462681856852596e-07,6.100410397693564e-07,1.027281432186398e-07,4.866404602387742e-07,5.514174365153855e-07,-3.601574645529734e-07,6.067320934717068e-07,7.78701886471602e-07,-4.112785543946018e-07,1.4659538839958218e-07,-5.029731050467376e-07,-2.482755332572555e-07,9.870410860636494e-08,-8.945658346850569e-07,-7.204576599198409e-07,-4.0994195817766356e-07,-3.412254618454278e-07
4.6865291701729525e-07,9.719339168819368e-08,6.05724764186894e-07,2.4097983347233507e-08,4.5489959745681164e-07,5.235705343267087e-07,-3.983610634840542e-07,5.652938489346012e-07,7.306480736484339e-07,-4.109843812745076e-07,1.0753841332395197e-07,-5.102799442893059e-07,-2.8697822685152144e-07,8.168944534529958e-08,-9.032174790602655e-07,-6.872061298791059e-07,-4.357537441510104e-07,-3.7867841845962436e-07
3.527999656822132e-07,4.598797104808421e-08,6.004465254660569e-07,-6.065431801277479e-08,4.233875086324656e-07,4.919696085077026e-07,-4.3952829780959286e-07,5.194897153497372e-07,6.773500149402058e-07,-4.1999870251910785e-07,6.777503523172056e-08,-5.241595702141726e-07,-3.296461250855507e-07,5.508436204123857e-08,-9.136102645329556e-07,-6.553229325219303e-07,-4.722201938441479e-07,-4.228675757595749e-07
2.306218274625937e-07,-6.0293988762357e-09,5.954079307717417e-07,-1.4627465506816227e-07,3.971623891116213e-07,4.599432039794824e-07,-4.762908695410965e-07,4.7191644023789827e-07,6.246470277788336e-07,-4.3967819352982264e-07,3.0984927107906236e-08,-5.435233178190643e-07,-3.6867379096176564e-07,1.8673827157236665e-08,-9.222737766561463e-07,-6.175331350709852e-07,-5.166770849440902e-07,-4.743820545694868e-07
1.1135059033673384e-07,-5.65862013178549e-08,5.900777146702205e-07,-2.2689333710349999e-07,3.78991750125378e-07,4.3091362469950564e-07,-5.033336277174708e-07,4.259403001327889e-07,5.778278966155736e-07,-4.6930057838312405e-07,2.7695609307703164e-10,-5.657986992988383e-07,-3.9840198393042537e-07,-2.5752051314103022e-08,-9.259105991270643e-07,-5.684876162710051e-07,-5.670821833512094e-07,-5.299535727395171e-07
4.563451254803188e-09,-1.0444768912310871e-07,5.83007540710011e-07,-2.974273522727782e-07,3.690098800874334e-07,4.07458173973497e-07,-5.187075091913997e-07,3.8506354176672683e-07,5.402992737937259e-07,-5.049823282132527e-07,-2.2063405041526522e-08,-5.872244633914095e-07,-4.163188616922142e-07,-7.338609869897438e-08,-9.225009932237059e-07,-5.086754028754374e-07,-6.163098042400139e-07,-5.815109132344438e-07
-8.149631268507516e-08,-1.4895567393811737e-07,5.735889041274787e-07,-3.545093713377911e-07,3.657599390529959e-07,3.9124809209778903e-07,-5.239078923151693e-07,3.519113088253111e-07,5.13760310480442e-07,-5.395639350514484e-07,-3.4625618834778524e-08,-6.033242071771544e-07,-4.2302877275273e-07,-1.1681016998790029e-07,-9.116127821119458e-07,-4.4319194769468556e-07,-6.553439428252676e-07,-6.235782488788769e-07
-1.4150369834411482e-07,-1.895028642141069e-07,5.62847785717677e-07,-3.967295701978243e-07,3.6742645935787726e-07,3.828972797315609e-07,-5.216482219085552e-07,3.2918837996725535e-07,4.981524177981782e-07,-5.646581106528743e-07,-3.7294443682615814e-08,-6.099158463627704e-07,-4.215304989014943e-07,-1.481916649499931e-07,-8.943110679929e-07,-3.787907874377388e-07,-6.751890476758246e-07,-6.513726696748785e-07
-1.7402989420515134e-07,-2.254944424609743e-07,5.527908665464586e-07,-4.2452930090512067e-07,3.7250485208662644e-07,3.818464310092749e-07,-5.155728571705051e-07,3.1811687993401465e-07,4.914918250673896e-07,-5.735225669165415e-07,-3.1475306120969256e-08,-6.040920151552071e-07,-4.1560713105460305e-07,-1.6228209753202873e-07,-8.726427502337855e-07,-3.221760830115673e-07,-6.738095807792949e-07,-6.619676113511173e-07
-1.814725097564856e-07,-2.564565528341518e-07,5.453507932329159e-07,-4.3973873705831294e-07,3.8007631746872985e-07,3.8688276129530924e-07,-5.086403451776977e-07,3.1803706099927096e-07,4.905016964056553e-07,-5.629448502175204e-07,-1.9310911101734005e-08,-5.847061966121923e-07,-4.079348118234562e-07,-1.5848002815513607e-07,-8.490527091802122e-07,-2.764834047261539e-07,-6.541401699755935e-07,-6.591582726372523e-07
-1.694978463994306e-07,-2.823661269196644e-07,5.41438345685853e-07,-4.4522549085045435e-07,3.8950756411608486e-07,3.9661498119663295e-07,-5.021720342997044e-07,3.268592495547139e-07,4.912131236319462e-07,-5.339048665100036e-07,-3.32012948887978e-09,-5.526018620333676e-07,-3.994483372930163e-07,-1.4128702717339758e-07,-8.263211382837979e-07,-2.414441740573351e-07,-6.236396423873201e-07,-6.441510527963084e-07
-1.4646448957116224e-07,-3.0438281639994754e-07,5.403446000640593e-07,-4.452261147820409e-07,3.9977264941301566e-07,4.0910852334621363e-07,-4.967923812147786e-07,3.4091969307176313e-07,4.892450117280176e-07,-4.909954996797932e-07,1.390686814325383e-08,-5.104225477815823e-07,-3.89812306732103e-07,-1.1880068261716327e-07,-8.074080585770873e-07,-2.0847057052894472e-07,-5.93713717601234e-07,-6.287129506717163e-07
-1.2178416873533445e-07,-3.248694593941068e-07,5.401474893194199e-07,-4.446481989827674e-07,4.09515575379745e-07,4.223760720970614e-07,-4.926321974588772e-07,3.5611461675691006e-07,4.808469163215708e-07,-4.4056536225370335e-07,3.0533745173611237e-08,-4.616426900920287e-07,-3.777509099842287e-07,-9.940511478661254e-08,-7.944254419091743e-07,-1.6185102822163454e-07,-5.72555428481074e-07,-6.102692343954914e-07
-1.0303670749407143e-07,-3.462427885515486e-07,5.388367238252605e-07,-4.472627345894649e-07,4.1791057544218125e-07,4.3516413375701865e-07,-4.893354903604013e-07,3.695713816814758e-07,4.644671927455879e-07,-3.8876987013638306e-07,4.574204873335848e-08,-4.093762173329131e-07,-3.6142238130777066e-07,-8.839171894774552e-08,-7.874842049880774e-07,-1.3498146155739e-07,-5.649816954789695e-07,-5.922075387004939e-07
-9.357053077896276e-08,-3.698003932000438e-07,5.35042248400523e-07,-4.543079924586437e-07,4.2514897913253267e-07,4.4701879537661384e-07,-4.872075814458741e-07,3.802905145819724e-07,4.406302708236004e-07,-3.4058610073445925e-07,5.996789755830744e-08,-3.556569721782532e-07,-3.392314477572911e-07,-8.61474098419265e-08,-7.844212591066993e-07,-1.2394274599661636e-07,-5.687786685688009e-07,-5.81663388392433e-07
-9.181384152537212e-08,-3.9521300217317603e-07,5.282894908194818e-07,-4.6431686312099804e-07,4.323506252494097e-07,4.583061453836746e-07,-4.877854810380811e-07,3.8863957852041347e-07,4.1133423308570403e-07,-2.9939736329094037e-07,7.474275500194964e-08,-3.0118712767067245e-07,-3.1022023700961546e-07,-8.81916822405308e-08,-7.814829122987173e-07,-1.2283441323131635e-07,-5.756184340772928e-07,-5.707145998818584e-07
-9.237900324816643e-08,-4.205713059568225e-07,5.192566907276823e-07,-4.737764451269977e-07,4.412988601154486e-07,4.704586396480088e-07,-4.924039314119711e-07,3.9638759631401124e-07,3.7974532493457976e-07,-2.670003983011723e-07,9.237028807316074e-08,-2.457372138302624e-07,-2.7026652119294477e-07,-8.725288174813566e-08,-7.750437426698637e-07,-1.3150931201909576e-07,-5.809439240034465e-07,-5.579434800635759e-07
-8.884146266283256e-08,-4.43319040285954e-07,5.096013576865195e-07,-4.788111483500196e-07,4.53689150416541e-07,4.856040270046502e-07,-5.01509471738456e-07,4.0550460690914344e-07,3.490563676409415e-07,-2.444918018096129e-07,1.1534351798007522e-07,-1.8941691741339967e-07,-2.210742721051182e-07,-7.707322606748847e-08,-7.640522754043714e-07,-1.318171950940886e-07,-5.801787246139338e-07,-5.390703010501715e-07
-7.722274409400049e-08,-4.616110989638993e-07,5.01138474996415e-07,-4.774166869533051e-07,4.7025471782445224e-07,5.053502995375303e-07,-5.139817566229343e-07,4.1632637410600617e-07,3.209906053236549e-07,-2.3314648440119218e-07,1.4577004073320601e-07,-1.338355913984177e-07,-1.6304436590709077e-07,-5.514136235014543e-08,-7.514003417938247e-07,-9.676268413176584e-08,-5.751762626370733e-07,-5.555880968959373e-07
-5.789197783922825e-08,-4.7511838196726127e-07,4.951207771292867e-07,-4.7054569945320324e-07,4.909371454025619e-07,5.300263136000834e-07,-5.262244476234781e-07,4.268575837429604e-07,2.9546490339376203e-07,-2.339490648879935e-07,1.8545265412068896e-07,-8.196635622572176e-08,-9.480821892617854e-08,-2.6556992166908823e-08,-7.427388138308616e-07,-1.0326522350268682e-07,-5.833463097826194e-07,-5.823561799811204e-07
-3.516272861532539e-08,-4.845321941252644e-07,4.918992633539367e-07,-4.6146368584665287e-07,5.156279498870461e-07,5.58436558363561e-07,-5.32821575552437e-07,4.331200796033751e-07,2.710951833516394e-07,-2.463320182314276e-07,2.3609464029238438e-07,-3.697345831925777e-08,-1.7376674815274412e-08,6.465745304196241e-10,-7.43454556152447e-07,-1.894320455300202e-07,-5.916639237984478e-07,-7.115930123339668e-07
-1.5770292217444622e-08,-4.908667772338589e-07,4.907057938602901e-07,-4.5455124179679553e-07,5.440489347485692e-07,5.878887357102664e-07,-5.28233838160877e-07,4.2992578925783377e-07,2.4558584178404887e-07,-2.673556742944596e-07,2.990840847401152e-07,-8.116356437410897e-10,7.337423477031126e-08,1.7852525494801978e-08,-7.534439049233352e-07,-3.186720439559105e-07,-6.306072907880881e-07,-8.557776995206096e-07
-6.596015499951631e-09,-4.950066673868743e-07,4.899716453068155e-07,-4.534254177007272e-07,5.751915463428952e-07,6.151638712198808e-07,-5.090449277409184e-07,4.1316331963169224e-07,2.167708948273199e-07,-2.91536796002557e-07,3.7488293588197034e-07,2.7022873423401256e-08,1.8146481737371738e-07,1.9344572727839306e-08,-7.685657607829026e-07,-5.770777421375561e-07,-6.918030773461259e-07,-9.518415968129655e-07
-1.171396134590741e-08,-4.969970145563849e-07,4.883830458525728e-07,-4.5868076299625266e-07,6.074336844117971e-07,6.382006704660821e-07,-4.7543174158348286e-07,3.81831705963325e-07,1.8428500815222825e-07,-3.1173487038456745e-07,4.624806009566123e-07,4.981015919353712e-08,3.032944293336519e-07,9.761835836111902e-09,-7.79142847078055e-07,-7.18144981288082e-07,-8.570103202103593e-07,-1.1878987064114423e-06
-3.042223826098133e-08,-4.957976399044554e-07,4.856877769493778e-07,-4.6710185917708506e-07,6.38924844734561e-07,6.567305325417977e-07,-4.3143271857219554e-07,3.391350757905851e-07,1.4999469830431986e-07,-3.217344270251361e-07,5.588324700349316e-07,7.222493077980333e-08,3.9612718620231493e-07,-3.2659745014237278e-09,-7.724849112935946e-07,-7.900005167227599e-07,-9.77071862346108e-07,-1.3671841532136389e-06
-5.768158329626946e-08,-4.89891973273915e-07,4.827005237241096e-07,-4.732426587662935e-07,6.677415133983192e-07,6.713874358545154e-07,-3.8573386964282326e-07,2.913825290704032e-07,1.1630306844232946e-07,-3.19353853329484e-07,6.585487213671375e-07,9.807316516816952e-08,4.6449603028832817e-07,-9.12657095429518e-09,-7.399481184503324e-07,-8.446919842408499e-07,-1.0411523058154392e-06,-1.3547691421593885e-06
-8.614437264392422e-08,-4.782633268590745e-07,4.810752459351297e-07,-4.7194472486613197e-07,6.922239843576938e-07,6.827033624407216e-07,-3.4945716933876644e-07,2.4594857106302355e-07,8.676328511985534e-08,-3.0794189174594075e-07,7.549026518345991e-07,1.2870718442773575e-07,4.781456941746339e-07,-7.015934361227855e-09,-6.736559124942431e-07,-8.750556130547e-07,-1.0049072003180113e-06,-1.3204272480837345e-06
-1.0862122764340753e-07,-4.608006846239579e-07,4.829584817391343e-07,-4.603139614050465e-07,7.112388570790047e-07,6.905255165944653e-07,-3.3359355855587977e-07,2.0884217450710836e-07,6.474906429871018e-08,-2.9560702049726946e-07,8.412821204572768e-07,1.6261187290580177e-07,4.0159305969489166e-07,9.06553101593923e-09,-5.7480465402246e-07,-1.0376148065867746e-06,-9.086149234706533e-07,-1.2742157904968288e-06
-1.2039207538448508e-07,-4.387028058482475e-07,4.902891899951407e-07,-4.387732280147297e-07,7.23859421127744e-07,6.938775142732035e-07,-3.474204154194519e-07,1.8429420158371053e-07,5.29859815074418e-08,-2.9256361157840443e-07,9.121474283831791e-07,1.960301825047067e-07,3.8970091541051196e-07,6.062350766821863e-08,-4.533173368954689e-07,-1.154327595898491e-06,-8.363923935009912e-07,-1.208558445336906e-06
-1.2044168603265694e-07,-4.1442641272361807e-07,5.043611203606135e-07,-4.103935188283759e-07,7.292955947206377e-07,6.91524658537692e-07,-3.9643830290585574e-07,1.732062474462934e-07,5.281737543929e-08,-3.070958385598954e-07,9.638867351418594e-07,2.245118941812926e-07,3.7348633248394923e-07,1.6299295635562242e-07,-3.396292535064847e-07,-1.1107465073117997e-06,-7.752512760233058e-07,-1.0890605843325183e-06
-1.109829412599194e-07,-3.9056379505777784e-07,5.259234843077173e-07,-3.7883574430052606e-07,7.276762133478365e-07,6.83394812449253e-07,-4.816821782713507e-07,1.7505156622179874e-07,6.481260271797326e-08,-3.39718427782433e-07,9.951776368173334e-07,2.445462296317658e-07,3.4894646875531544e-07,3.2718054354186154e-07,-2.7018365540963776e-07,-1.0941509204587017e-06,-7.131553660207393e-07,-9.94837155090139e-07
-9.611765734675397e-08,-3.6872487459390216e-07,5.549287260020229e-07,-3.468993953630566e-07,7.206493041625904e-07,6.709039770470295e-07,-5.899935768757028e-07,1.887511327480263e-07,9.008010264510857e-08,-3.864881498352615e-07,1.0067362335290782e-06,2.541692768584845e-07,2.9160139370007915e-07,4.5952903863073625e-07,-2.7415347319452996e-07,-1.1217234970735189e-06,-6.507261639608516e-07,-8.793670137262603e-07
-8.043046607056921e-08,-3.4912473680966775e-07,5.898289492255915e-07,-3.165000383004774e-07,7.111868370095268e-07,6.55745632540285e-07,-7.092100695026249e-07,2.1133889553737332e-07,1.2782331984548845e-07,-4.381695276770883e-07,1.0012265377692337e-06,2.5261202851403516e-07,1.4168229119690475e-07,5.395107269548867e-07,-3.0216267778731185e-07,-1.1018574477278595e-06,-5.012225905476549e-07,-8.276686496164382e-07
-6.741291395149103e-08,-3.304837653279274e-07,6.274805743962574e-07,-2.888675198095162e-07,7.03149062571664e-07,6.389119948289451e-07,-8.177186260246036e-07,2.3806936664032678e-07,1.8090849813868232e-07,-4.813202677412964e-07,9.838879221350516e-07,2.3980129501706994e-07,-1.6408181379910323e-08,5.514050436512488e-07,-3.215328580655694e-07,-1.0935627422559032e-06,-3.7104282414898827e-07,-8.273978872535163e-07
-5.827358826932344e-08,-3.1025939196550463e-07,6.637020284814601e-07,-2.645954303968841e-07,7.004210261242578e-07,6.202161956014366e-07,-8.512036835872174e-07,2.6276654429201813e-07,2.484053918966248e-07,-5.35992201756245e-07,9.625231739001934e-07,2.1612601049755213e-07,-8.919765193818136e-08,5.510863099892305e-07,-3.2463807982011016e-07,-1.087767151773665e-06,-3.3378265423042553e-07,-8.436652491826695e-07
-5.184412638888501e-08,-2.857419195349478e-07,6.937702029351459e-07,-2.434768487962462e-07,7.052637389590931e-07,5.979249917334642e-07,-8.871259874029841e-07,2.7945296599289243e-07,3.2532454225670505e-07,-5.63594332232342e-07,9.4562956290899e-07,1.8272178527372947e-07,-1.7920134542424918e-07,5.530742514471534e-07,-3.590506418859778e-07,-9.830856994814242e-07,-3.200799434467462e-07,-8.661910155208604e-07
-4.473771799725397e-08,-2.5538126363419446e-07,7.132064361688296e-07,-2.2439602452695624e-07,7.171870452367396e-07,5.693074611183134e-07,-9.109032026846068e-07,2.847268913209315e-07,3.7649523624374585e-07,-5.230284626528905e-07,9.39799910137638e-07,1.4227834432773026e-07,-2.6220820606217346e-07,5.532190902593569e-07,-4.1759796123742243e-07,-9.66906966413073e-07,-2.449968753815813e-07,-9.480709347194659e-07
-3.114186566907502e-08,-2.1922538457940619e-07,7.192291601848788e-07,-2.0454441181801462e-07,7.334831314768723e-07,5.323771646913166e-07,-8.542490640555532e-07,2.8039970808873305e-07,3.88598160865515e-07,-4.211833176987453e-07,9.478456536992135e-07,9.933211318570985e-08,-3.2700429307833627e-07,5.44695973547885e-07,-5.33973797123104e-07,-9.30903645056469e-07,-2.2351459100467615e-07,-1.0778281290441532e-06
-3.870804015251463e-09,-1.7886602260224268e-07,7.119096930970134e-07,-1.8012053533440938e-07,7.504042552887823e-07,4.870318666891706e-07,-7.652767351196971e-07,2.728401232211276e-07,3.734320197202881e-07,-3.5613258551404276e-07,9.68076369431577e-07,5.9095745244548513e-08,-2.2990405363869185e-07,4.4875852615446054e-07,-6.494638810983623e-07,-9.322016461670434e-07,-2.2803533004326382e-07,-1.2131165527825921e-06
4.233522027807278e-08,-1.3756845276316544e-07,6.942755834452267e-07,-1.4854277679816364e-07,7.639035802744451e-07,4.3493790700600587e-07,-7.041777709312812e-07,2.691502235232086e-07,3.5884544666887636e-07,-3.0059757095438554e-07,9.949110662495623e-07,2.5696508447478755e-08,-1.3434614189610264e-07,3.269714954928527e-07,-7.450790259533985e-07,-9.952700801728344e-07,-3.175282881064709e-07,-1.299596791636719e-06
1.0740656452776406e-07,-9.991339543558546e-08,6.71691141868253e-07,-1.1032283432450797e-07,7.702955608205287e-07,3.791518267856243e-07,-6.644349964074309e-07,2.7418689033383616e-07,3.4693958705565943e-07,-2.349767638342093e-07,1.020859483999337e-06,1.2643828858845088e-09,-9.713811520392624e-08,2.3042945503045328e-07,-8.229133310855793e-07,-1.0363542354685024e-06,-4.701944946161889e-07,-1.3088951423156297e-06
1.8497579347662263e-07,-7.060632911571878e-08,6.505658873939481e-07,-6.937013682006374e-08,7.669352885563926e-07,3.2344076655807667e-07,-6.419207745159834e-07,2.886483305480706e-07,3.420397853388874e-07,-1.7679297388877713e-07,1.0388411708762424e-06,-1.4033410277424634e-08,-7.666027631098691e-08,1.53259435477573e-07,-8.488415787252501e-07,-1.037833968717731e-06,-5.496737002947842e-07,-1.2957964352372834e-06
2.6422672963224484e-07,-5.3152229785681565e-08,6.363987097906609e-07,-3.182782949419367e-08,7.525250190123061e-07,2.709614095003881e-07,-6.430698302258936e-07,3.0893694395352234e-07,3.465561073942441e-07,-1.3738092621261708e-07,1.0440070634465316e-06,-2.1413477776972064e-08,-1.2359816031153334e-07,1.257372189084237e-07,-8.371746496826098e-07,-1.1136954748462498e-06,-6.351216859709116e-07,-1.2916530499660128e-06
3.3370396181654336e-07,-4.888588247029858e-08,6.323121354106119e-07,-4.070822315143611e-09,7.274523273331546e-07,2.235485171686361e-07,-6.606715402913906e-07,3.293038830325074e-07,3.6254221418911816e-07,-1.13981967896201e-07,1.0348590333993802e-06,-2.2410076918722836e-08,-1.983944447623494e-07,1.2283374511701477e-07,-8.042231897067056e-07,-1.178655574841301e-06,-6.631541940462776e-07,-1.2660924821753848e-06
3.8531344761162837e-07,-5.6355926653259074e-08,6.389010665051929e-07,9.783731967200248e-09,6.942319989490054e-07,1.8185794085565226e-07,-6.857910281685162e-07,3.442123286279962e-07,3.8190649120355826e-07,-1.0182684788068732e-07,1.0133461700357538e-06,-1.7981864816494754e-08,-2.834101526435318e-07,1.2616801647967436e-07,-7.563128645447495e-07,-1.2849606648040833e-06,-6.819164511188034e-07,-1.20937790129911e-06
4.1606657534685116e-07,-7.187438134427895e-08,6.546502243936945e-07,8.82356597893756e-09,6.56947118628911e-07,1.454457652571139e-07,-7.087597091008879e-07,3.503930462277904e-07,4.039058941977985e-07,-9.422338861811378e-08,9.83600969144983e-07,-8.646093714240022e-09,-3.734969206621973e-07,1.3238803752259827e-07,-7.076398937849661e-07,-1.3634577838729606e-06,-6.539183697167633e-07,-1.0156702817145654e-06
4.2691896767539646e-07,-9.135723295298227e-08,6.76332688042689e-07,-5.582869677688779e-09,6.195987455453046e-07,1.1245371214818047e-07,-7.217897233697643e-07,3.466922804423218e-07,4.2863187843817706e-07,-8.520880154919086e-08,9.498595384152403e-07,4.792052040825252e-09,-4.4046241219184627e-07,1.2350467527327192e-07,-6.629936351066863e-07,-1.3929274191042607e-06,-5.807615386650857e-07,-8.173188602651539e-07
4.2064978333590654e-07,-1.119453631259834e-07,6.99747576339389e-07,-3.1044955076469334e-08,5.847598341624742e-07,7.988690974553089e-08,-7.205222302925907e-07,3.3365818425200216e-07,4.5222410380054e-07,-7.123793102052748e-08,9.151343679733332e-07,2.0811167723360986e-08,-4.911201286782532e-07,1.0250367879170858e-07,-6.264940817307394e-07,-1.3889035366988806e-06,-4.838780668912222e-07,-6.885787570098819e-07
4.002974883184781e-07,-1.3260603969956822e-07,7.205611324277368e-07,-6.496322495423128e-08,5.529648409869676e-07,4.4375135835724063e-08,-7.047106960215928e-07,3.1291221515495626e-07,4.7193240394143837e-07,-5.202864328865382e-08,8.807186478943901e-07,3.7021590186745493e-08,-5.291166902377281e-07,6.983706786972362e-08,-6.023306260418068e-07,-1.3423552667966546e-06,-4.7283788780576153e-07,-6.20577166186465e-07
3.6803648316688503e-07,-1.5407381809673326e-07,7.347297058508181e-07,-1.052539426430352e-07,5.223847916230354e-07,2.6881008986152646e-09,-6.789143657669982e-07,2.859594091169068e-07,4.81920163322508e-07,-3.083906383765785e-08,8.46125426845195e-07,5.021938315054262e-08,-5.566290697345533e-07,2.388988714139133e-08,-5.909911477694904e-07,-1.1661965699158202e-06,-4.7024884104626086e-07,-5.468184145564049e-07
3.247207328469457e-07,-1.7862457776794403e-07,7.390831636875166e-07,-1.5044743567648079e-07,4.893512944416655e-07,-4.7163811839064446e-08,-6.512446920576787e-07,2.539337291599145e-07,4.774468353899783e-07,-1.3491475538983582e-08,8.098485810827643e-07,5.709111033528258e-08,-5.798188875278095e-07,-3.280057324618632e-08,-5.895288355748018e-07,-9.547349989001729e-07,-4.767677816719238e-07,-4.915759397543527e-07
2.7046703049730806e-07,-2.0835328787589114e-07,7.324342678969129e-07,-1.9888155382929662e-07,4.5011636824531945e-07,-1.0420678144419745e-07,-6.299251145269988e-07,2.180911768342393e-07,4.5782101164745014e-07,-6.323927343690842e-09,7.706686511212678e-07,5.531683461013129e-08,-6.024852378316647e-07,-9.587133069470682e-08,-5.924369133801064e-07,-7.324525035949946e-07,-5.484102877948498e-07,-4.87010887708889e-07
2.0544377887574044e-07,-2.4408473445832383e-07,7.161881607225215e-07,-2.4808527968655834e-07,4.0261603799748433e-07,-1.6381751693057383e-07,-6.198840438784051e-07,1.8021772205355705e-07,4.25867874288622e-07,-1.4239279589781503e-08,7.283917261336862e-07,4.42415464229922e-08,-6.258105597077138e-07,-1.6003619473370328e-07,-5.939381022181176e-07,-5.021736075500227e-07,-6.602555490691544e-07,-4.7190266199513947e-07
1.3035851524454558e-07,-2.8531993938017084e-07,6.938309178636795e-07,-2.95132705887931e-07,3.47284028911462e-07,-2.1872977385975826e-07,-6.209684562364582e-07,1.4238869170734616e-07,3.8741720088338937e-07,-3.91651442143777e-08,6.838158779912497e-07,2.5055254787194295e-08,-6.491362702426401e-07,-2.2049856606619862e-07,-5.900997218543706e-07,-2.819709801479745e-07,-7.599756713298214e-07,-5.940845291140283e-07
4.7350630561409645e-08,-3.303169189753586e-07,6.698893715508143e-07,-3.3695403081775824e-07,2.8716973908724546e-07,-2.6072363363377426e-07,-6.286146652721855e-07,1.0698490244118671e-07,3.4989788433372953e-07,-7.905983217433139e-08,6.385579151634088e-07,6.825075166959396e-10,-6.708306351992245e-07,-2.737312187008417e-07,-5.793374333854255e-07,-9.195316148511192e-08,-8.397999239911232e-07,-7.191452366906019e-07
-3.9099376318537684e-08,-3.764686463515093e-07,6.485999403785929e-07,-3.707780753822107e-07,2.2728773607622133e-07,-2.8365102851206196e-07,-6.358527819149249e-07,7.656629027943897e-08,3.2004980269709465e-07,-1.2846855247543888e-07,5.94570439997105e-07,-2.4989678462731886e-08,-6.89232053137586e-07,-3.180485133775937e-07,-5.619557447515061e-07,2.8438128684598757e-08,-9.052825816001875e-07,-8.167638668880837e-07
-1.2276575240454214e-07,-4.210741975796021e-07,6.323694775930464e-07,-3.952301300880717e-07,1.7242251606502563e-07,-2.8442237820754017e-07,-6.372938982137056e-07,5.280531534836692e-08,3.0066920769046466e-07,-1.8061079074209947e-07,5.53337347431636e-07,-4.840701726669277e-08,-7.035862165520643e-07,-3.539038344645772e-07,-5.395964732973106e-07,1.0568163048741374e-07,-9.483773281643642e-07,-9.145577360060178e-07
-1.9755718509131898e-07,-4.6215824108844843e-07,6.211469061800398e-07,-4.109949781681437e-07,1.2528576084136143e-07,-2.652265710616702e-07,-6.316178591047817e-07,3.5924920412506025e-08,2.908437082323517e-07,-2.2941636892902288e-07,5.156800246494747e-07,-6.725578014409862e-08,-7.141452977838944e-07,-3.830336866989077e-07,-5.144911478428831e-07,1.6054620651482376e-07,-9.742061901459986e-07,-9.377432055344524e-07
-2.5905268956279865e-07,-4.98313521321619e-07,6.1338606671928e-07,-4.2011371954707826e-07,8.714302735893762e-08,-2.3259002981079618e-07,-6.211574618326833e-07,2.5072031057006966e-08,2.8668691021968784e-07,-2.707970979442624e-07,4.821870100028298e-07,-8.075752845406694e-08,-7.218946649774568e-07,-4.0672159178281084e-07,-4.88798521619104e-07,1.9558069911664115e-07,-9.90097553380937e-07,-9.438411324832559e-07
-3.05108824615109e-07,-5.283722238800563e-07,6.075726305004243e-07,-4.247392166519545e-07,5.7931788541358256e-08,-1.9448733952511577e-07,-6.102722132969725e-07,1.907691598483744e-08,2.839692935467992e-07,-3.0342686023669807e-07,4.534604445792707e-07,-8.965899387225097e-08,-7.289031418074599e-07,-4.2480666969514045e-07,-4.6444521818030724e-07,2.3164100710532063e-07,-9.98513020427401e-07,-9.570704637871998e-07
-3.356259728292207e-07,-5.512401373755866e-07,6.033009635427035e-07,-4.263229373116621e-07,3.692089876494933e-08,-1.5849341154011212e-07,-6.038497803255576e-07,1.6832683555469666e-08,2.790428725349048e-07,-3.2851534088053693e-07,4.300393220083319e-07,-9.563491115702905e-08,-7.38493006870134e-07,-4.353715163004064e-07,-4.4293471936131427e-07,2.6102009985228887e-07,-9.997906480444221e-07,-9.6625296028781e-07
-3.515159998244856e-07,-5.658880471760383e-07,6.016987048908492e-07,-4.251271802415474e-07,2.3586759957919947e-08,-1.2873474556131219e-07,-6.060043256237183e-07,1.8413425004319233e-08,2.7045854996178397e-07,-3.483791007022607e-07,4.122758452421538e-07,-1.0016459796478486e-07,-7.543126822202064e-07,-4.351133563913463e-07,-4.2497090337418206e-07,2.773884906819579e-07,-9.90618679270826e-07,-9.726158452451894e-07
