0,1,2,3,4,5,6,7,8,9,10,11,12,13,14,15,16,17
-3.807818453826007e-08,-6.432768672770489e-07,1.6724897258420412e-07,-7.067960598506933e-07,4.804992915251439e-07,6.965349131292762e-07,1.3485758737978383e-06,4.626713533831509e-07,7.693330225952561e-07,2.420422532246703e-07,-3.8823117897294457e-07,1.1679775871389978e-07,-4.889457064229772e-07,3.592783642577938e-07,2.154569192344348e-07,-2.6394589268766116e-07,2.5034788730614156e-10,-7.209365937287906e-07
-1.3428338714849262e-08,-5.250003840022615e-07,2.1240518586876632e-07,-5.517349612358377e-07,4.136141683325388e-07,5.66410293707139e-07,1.2272944724529728e-06,4.173565589421538e-07,7.039752781452279e-07,2.669746657308519e-07,-3.0354255528586624e-07,1.0537668877120593e-07,-3.59980794574686e-07,3.055373401406178e-07,1.6208512683928804e-07,-3.723202187492179e-07,2.0894710289077214e-08,-7.245138448044145e-07
2.0262276562153104e-08,-3.8693949113255626e-07,2.435843049658061e-07,-3.8291368837029175e-07,3.1122990344062806e-07,4.237810412397106e-07,1.0260843465069352e-06,3.5959018135484124e-07,6.04796838835391e-07,2.6746735636005146e-07,-2.147969480401908e-07,9.235997037472358e-08,-2.269475868971315e-07,2.56296682837845e-07,1.0080420428841483e-07,-4.3852465036872754e-07,3.788387621803014e-08,-6.894563429044164e-07
5.446651291410349e-08,-2.388435944059269e-07,2.5322692102048745e-07,-2.1841210738793143e-07,1.913172817315143e-07,2.7942584415848025e-07,7.405718205726354e-07,2.8954218417986466e-07,4.7364249187715257e-07,2.385619195090958e-07,-1.279668308648588e-07,7.752181830057274e-08,-1.0957317322772742e-07,2.098851732841041e-07,3.949168483133691e-08,-4.324883064581274e-07,4.9253538281934616e-08,-6.041969315459594e-07
8.167345934318532e-08,-9.445505095205572e-08,2.3892437930246183e-07,-6.898751389088852e-08,7.642087587328106e-08,1.2805587421785604e-07,3.714598813247981e-07,2.0833933469351473e-07,3.1628240550946645e-07,1.8308847100708526e-07,-4.816695077025554e-08,6.197264543790884e-08,-1.2711491347213173e-08,1.5525853357813779e-07,-1.671702247354505e-08,-3.834642568358249e-07,5.375705044907386e-08,-5.513336087786209e-07
9.601393192328851e-08,4.1494931221239794e-08,2.022770814196543e-07,5.406958175876674e-08,-1.5232364966027323e-08,8.115943686982363e-09,-6.4994272709531e-08,1.1801524420723085e-07,1.430480065447935e-07,1.0992653878554563e-07,2.411288143432127e-08,4.6026941634831934e-08,6.726163429512235e-08,6.735433479510544e-08,-6.915160099482298e-08,-3.165390926811477e-07,5.056144343493267e-08,-4.1148711455816e-07
9.365565019826151e-08,1.5294283425695613e-07,1.4656482621808874e-07,1.4453556124380614e-07,-7.618000093728429e-08,-7.402015328016218e-08,-5.207367198751603e-07,2.180310890591285e-08,-3.233199113382199e-08,3.042716615392725e-08,8.419446788438723e-08,2.8053184479417808e-08,1.3111882099815552e-07,-1.2292326876956113e-08,-9.850388994411125e-08,-3.421728338852458e-07,3.9327976512518896e-08,-2.3324006217491596e-07
7.402352180377162e-08,2.3063919708162322e-07,7.62531782602522e-08,2.1612221521818017e-07,-1.1084486629843822e-07,-1.4431705700171045e-07,-9.106401107641814e-07,-7.453335669862067e-08,-1.9422161575304705e-07,-4.46059969507847e-08,1.2833963149504754e-07,5.983796285355292e-09,1.7171569319346148e-07,-7.411143777440129e-08,-8.933073876478716e-08,-2.799681251759823e-07,2.1009269630691888e-08,-6.743743217198695e-08
4.110778240652772e-08,2.717705671717035e-07,-1.978713995148899e-09,2.7170961505819e-07,-1.3050027528286845e-07,-1.7574780443014413e-07,-1.1368644093719585e-06,-1.618706267267033e-07,-3.262595925757638e-07,-1.0651514476621032e-07,1.5415579079144564e-07,-1.9865285618557385e-08,1.8477545893101476e-07,-9.820478053751059e-08,-6.097104975602438e-08,-1.3816306727730482e-07,-1.370082143513108e-09,9.291011069543449e-08
3.0204842446200367e-09,2.771617426420751e-07,-7.939728311375549e-08,2.9768877001416604e-07,-1.4551337490169478e-07,-2.263883957974613e-07,-1.134949177684165e-06,-2.2953864187646435e-07,-4.137738859654709e-07,-1.4977189353436734e-07,1.6274728132900055e-07,-4.569580472786907e-08,1.6993741522684664e-07,-8.387294679356369e-08,-3.4970339037929725e-08,2.1488302262884077e-08,-2.310307520418637e-08,2.463909078360154e-07
-3.108721561248381e-08,2.569816493278734e-07,-1.4746589828895473e-07,2.906843127832849e-07,-1.6029481677770511e-07,-2.8128941809550255e-07,-9.1172536732137e-07,-2.694723653214969e-07,-4.4836724682327844e-07,-1.7307942525728747e-07,1.5509922957631345e-07,-6.626675649128272e-08,1.3035437920849113e-07,-8.63922624084833e-08,-2.7211994612158834e-08,1.9892845205408543e-07,-3.9531439182493344e-08,3.7784493137019897e-07
-5.532915591395555e-08,2.2106905849508957e-07,-2.0117932743002897e-07,2.4984322251623525e-07,-1.7327255888763884e-07,-2.4817989782021645e-07,-5.480642510481642e-07,-2.799117127806194e-07,-4.3239041218972684e-07,-1.7993572978164727e-07,1.3549214051717639e-07,-7.838769804542269e-08,9.694452936166675e-08,-1.3164624862329892e-07,-2.1383945060313154e-08,3.405326870513828e-07,-4.808992095621166e-08,4.891979987694429e-07
-6.959704595846449e-08,1.7732730294484505e-07,-2.407465884845188e-07,2.0426905222826634e-07,-1.80091233978514e-07,-2.0353046216745725e-07,-1.6331366130743018e-07,-2.658943109034995e-07,-3.798244757534789e-07,-1.7730483812015767e-07,1.0847911580228086e-07,-8.272746597681162e-08,7.151351184757104e-08,-1.7830300969087153e-07,-2.6356235572541948e-08,4.562952032696116e-07,-4.9139303890358896e-08,5.836495127738129e-07
-7.815918120738342e-08,1.2861339425479176e-07,-2.6990623862799036e-07,1.3482875587812348e-07,-1.7701195759205308e-07,-2.2042625821214957e-07,1.33426419442191e-07,-2.361806052476429e-07,-3.123791627138517e-07,-1.7224891142590208e-07,7.672806670422541e-08,-8.246673260212613e-08,6.41731497036612e-08,-2.1506768141697588e-07,-4.396773300534967e-08,5.623263476386074e-07,-4.498301008251592e-08,6.650021247025777e-07
-8.548825300312451e-08,7.885365253665933e-08,-2.920137990478e-07,6.013811343461911e-08,-1.6309289286946378e-07,-2.5005939963393073e-07,2.7870187558742815e-07,-1.9915323242135644e-07,-2.5281103398909513e-07,-1.686043773883303e-07,4.322786480742413e-08,-8.050853811794864e-08,5.7542529809381896e-08,-2.3316434446601184e-07,-3.077336491690197e-08,6.488467908346077e-07,-3.7882472753657305e-08,7.386828870628269e-07
-9.305624444739073e-08,5.1661057836992374e-08,-3.0779700065152426e-07,4.955130602002438e-09,-1.410471784114176e-07,-2.783650637007119e-07,2.6517328039716313e-07,-1.6076311369026465e-07,-2.187186266097531e-07,-1.6642205354654156e-07,1.0127993592493218e-08,-7.817452241789766e-08,5.2821629894363136e-08,-2.405553903055307e-07,1.4999789450114517e-09,7.391686610080611e-07,-2.8838908490628848e-08,8.089234574569554e-07
-9.977544427712785e-08,4.2561154571707994e-08,-3.1692102446514456e-07,-3.715687616221538e-08,-1.1581321210850702e-07,-2.825454496166823e-07,1.2996270543689372e-07,-1.251258856787606e-07,-2.1864534418750299e-07,-1.6464882449745541e-07,-2.1579892062579897e-08,-7.626491322433464e-08,5.892055787172238e-08,-2.275269321551928e-07,3.942884133540319e-08,8.37512161290892e-07,-1.7999717910123304e-08,8.788698024144307e-07
-1.05226362130977e-07,4.438884186635506e-08,-3.214142041067275e-07,-5.2180000188289265e-08,-9.076517630837588e-08,-2.3232169055004297e-07,-7.026572912229904e-08,-9.592241202496607e-08,-2.50782833818918e-07,-1.6456499479486847e-07,-4.221113748171108e-08,-7.652261225070325e-08,7.039679799164071e-08,-2.1264540604826103e-07,8.19798453406728e-08,9.393897523766091e-07,-5.8690190797136624e-09,9.506793554981458e-07
-1.1234163596363753e-07,5.201739895478263e-08,-3.2706556572526946e-07,-4.5052004193728254e-08,-6.559062052597249e-08,-1.818286218408864e-07,-2.7694112533041775e-07,-7.65537640987879e-08,-3.0427186774553967e-07,-1.70830356718044e-07,-6.866658726753011e-08,-8.109946370494348e-08,8.711597187712903e-08,-2.044267280267715e-07,1.206327848546358e-07,1.0425139767714332e-06,6.150932660635411e-09,1.0252759191070558e-06
-1.2687630634881137e-07,5.115016477804094e-08,-3.4133253902115295e-07,-4.2551870895971044e-08,-3.929556836427923e-08,-1.284046163415449e-07,-4.4153242344343087e-07,-6.851752855895335e-08,-3.623627126823661e-07,-1.893150243382587e-07,-1.0532565351269111e-07,-9.013397212152234e-08,8.337015650741945e-08,-2.1584706276328606e-07,1.6229974907339912e-07,1.143676093986044e-06,1.6432783938409412e-08,1.0996217155758883e-06
-1.54109718589731e-07,3.5660861212679534e-08,-3.6875990809779844e-07,-6.435422126512261e-08,-1.4625772513808473e-08,-6.971149147082233e-08,-5.261815569642893e-07,-6.943795312883694e-08,-4.063287943923723e-07,-2.237402910981822e-07,-1.5141672696390629e-07,-1.001864629245956e-07,5.588950449071981e-08,-2.2190372219056198e-07,1.9684229755263693e-07,1.242171361590628e-06,2.401536545015269e-08,1.1742993527652923e-06
-1.957160246273904e-07,-1.5598771102291718e-08,-4.085822002315012e-07,-1.0537940217534483e-07,1.7788379579792516e-09,4.8023076610094185e-09,-5.015461872788062e-07,-7.295979551303603e-08,-4.201275167036871e-07,-2.7367861315001107e-07,-2.0979032666805207e-07,-1.0586427903777971e-07,-7.270385337407321e-09,-2.1275963309403204e-07,2.3454493797756022e-07,1.3396417785592637e-06,2.854477917705023e-08,1.2456791965204358e-06
-2.491913795331855e-07,-9.318289087449142e-08,-4.5611836967379395e-07,-1.766957640570746e-07,2.6922722015076716e-09,8.894424247531316e-08,-3.5044475958394865e-07,-7.128368303818769e-08,-3.954740840508412e-07,-3.348314401346652e-07,-2.7228944573447694e-07,-1.0385824576552862e-07,-8.259791413349903e-08,-1.9352623094126107e-07,2.791700601293404e-07,1.4373397329895851e-06,2.9306623420588858e-08,1.309139187831649e-06
-3.0964434618714335e-07,-1.887379757845056e-07,-5.05926602454394e-07,-2.716620854052128e-07,-1.66576017686721e-08,1.77437720270952e-07,-7.788578505429156e-08,-5.8781750683818324e-08,-3.3490658414589065e-07,-4.007239718596699e-07,-3.3244613359608254e-07,-9.591696898153081e-08,-1.5859283818752877e-07,-1.6295677722547078e-07,3.196504709843641e-07,1.5331589838798105e-06,2.450400142959777e-08,1.3615291196013664e-06
-3.7185510286425447e-07,-2.9245341296953714e-07,-5.539474325162175e-07,-3.8555601015409567e-07,-5.6048035872270024e-08,2.699794429614341e-07,2.881113245117838e-07,-3.415747185916142e-08,-2.5055324517713015e-07,-4.64360717080787e-07,-3.8520003928684873e-07,-8.773041266872731e-08,-2.3375039789940356e-07,-1.228206352968923e-07,3.583414465994106e-07,1.6211165548592664e-06,1.190215169327295e-08,1.3985200835711026e-06
-4.3097000494276674e-07,-3.892361786730837e-07,-5.973596026608818e-07,-4.891791564492524e-07,-1.0745500779530944e-07,3.4339014902105694e-07,7.024711502434738e-07,5.653309527552171e-11,-1.590920619649483e-07,-5.193232989623251e-07,-4.293713962918825e-07,-8.442248000678424e-08,-2.968262489668812e-07,-8.391175130751961e-08,3.9190236662747705e-07,1.6939610687563797e-06,-9.38144771164736e-09,1.4191980088688414e-06
-4.823856271447344e-07,-4.766275120176985e-07,-6.338772877334499e-07,-5.663738516944771e-07,-1.5411769728527875e-07,4.1485621756751285e-07,1.112222146813002e-06,3.956262949351747e-08,-7.542942332245015e-08,-5.61019033744341e-07,-4.6078183934179503e-07,-8.671045475689635e-08,-3.4938113293585954e-07,-5.1331536387167574e-08,4.096228087561514e-07,1.747087733636409e-06,-3.735737890582945e-08,1.4267588193993752e-06
-5.225777021146679e-07,-5.528398449367531e-07,-6.622280618914995e-07,-6.160071618426666e-07,-1.7469221750225828e-07,4.892373061260556e-07,1.47290808175282e-06,7.991797213598187e-08,-7.867648165219992e-09,-5.884164255986106e-07,-4.825257524294365e-07,-9.096631643312085e-08,-3.871107024708656e-07,-2.2198824297624213e-08,4.191820010690975e-07,1.781093266043502e-06,-6.7309121296511e-08,1.4260282021899628e-06
-5.510810935335829e-07,-6.190240826830137e-07,-6.837226043428483e-07,-6.621784415473632e-07,-1.5240178509637036e-07,5.594753147343263e-07,1.7619337312595352e-06,1.167862361242739e-07,4.315799133337654e-08,-6.049923818136992e-07,-5.013161921019555e-07,-9.260838300930594e-08,-4.130106047823398e-07,1.7714700820377158e-09,4.367420513166778e-07,1.8015045215362483e-06,-9.36528736494321e-08,1.4219624952351094e-06
-5.713922158557891e-07,-6.718560353834735e-07,-7.023719997744967e-07,-7.059633702977578e-07,-8.38986078600586e-08,6.218038045327694e-07,1.9790753338784723e-06,1.4563640323719935e-07,8.253854827158134e-08,-6.171020761462511e-07,-5.218372443193719e-07,-8.94898117223651e-08,-4.3811979414155435e-07,1.6656981421864864e-08,4.611948006093087e-07,1.8162554631547574e-06,-1.1221655065616086e-07,1.4200236782657927e-06
-5.887339351504484e-07,-7.109922623615108e-07,-7.220686242818343e-07,-7.46967353163997e-07,1.8806497691813782e-08,6.735390193376185e-07,2.132151273139638e-06,1.625426391609142e-07,1.1609683984516551e-07,-6.298031401780824e-07,-5.472907005433024e-07,-8.247163776331828e-08,-4.6669191614046344e-07,3.03029703785336e-08,5.01757075663989e-07,1.8326556054691102e-06,-1.2120023523164218e-07,1.4235334081134159e-06
-6.058141845468929e-07,-7.482771033515286e-07,-7.426348424360583e-07,-7.81297857799699e-07,1.3498740459614274e-07,7.098079475857972e-07,2.223246119389558e-06,1.6647773793967372e-07,1.469651948632399e-07,-6.428257090340941e-07,-5.746895178680185e-07,-7.34936768805965e-08,-4.947028250434842e-07,4.404100176967578e-08,5.537434603837034e-07,1.8552565557794616e-06,-1.20523327273114e-07,1.4336777435993937e-06
-6.202465412425995e-07,-7.726729371928366e-07,-7.583823261904447e-07,-7.899526952559183e-07,2.450929265778115e-07,7.282607847526629e-07,2.246208218307902e-06,1.6113414652112783e-07,1.747879148803782e-07,-6.499770903562854e-07,-5.966768193579432e-07,-6.382948938080974e-08,-5.166428497056897e-07,5.112554158178109e-08,6.055718712190653e-07,1.8852140855751264e-06,-1.1093617447717222e-07,1.4507133344922928e-06
-6.260981025118365e-07,-7.772921540653512e-07,-7.610591526957965e-07,-7.634577508888696e-07,3.3648236280659226e-07,7.303634876749654e-07,2.194114805176715e-06,1.5401287379748918e-07,1.982338575069962e-07,-6.427907294798896e-07,-6.135478575288177e-07,-5.421663600265759e-08,-5.2778948355863e-07,6.667558076458098e-08,6.54027503129011e-07,1.9212282182748008e-06,-9.402415432768377e-08,1.4736082502712168e-06
-6.183783724763297e-07,-7.649020189950922e-07,-7.452430003449118e-07,-6.987343967826356e-07,4.0292193803855366e-07,7.35679382557043e-07,2.066758355667481e-06,1.5300610542329463e-07,2.1846935977883446e-07,-6.159008829526386e-07,-6.100007578339466e-07,-4.587980275025914e-08,-5.269705114132117e-07,8.783654233249897e-08,6.971172751924795e-07,1.961554640689219e-06,-7.269407299259852e-08,1.5005337528030488e-06
-5.967544907763587e-07,-7.394350434202067e-07,-7.119631613307e-07,-6.0101919752424e-07,4.421340553746224e-07,7.440423186161314e-07,1.8775776204214016e-06,1.6306010023388758e-07,2.402495737079585e-07,-5.703759477195896e-07,-5.854403701072324e-07,-4.040066434499503e-08,-5.172359272127785e-07,1.0925808400166983e-07,7.316127843428759e-07,2.0060259837627526e-06,-5.0780917767186883e-08,1.5304054905765254e-06
-5.654971252907434e-07,-7.126728632117058e-07,-6.678803483623459e-07,-4.884159008316376e-07,4.553060222920033e-07,7.376098535178128e-07,1.6563846253209827e-06,1.852743822003284e-07,2.702797594302878e-07,-5.130289033337198e-07,-5.458792014900606e-07,-3.790121999773422e-08,-5.031725123940645e-07,1.317961303988867e-07,7.560439555760454e-07,2.056951013872583e-06,-3.141514937121836e-08,1.5622574469325272e-06
-5.30072847771291e-07,-6.785857985368968e-07,-6.21059214823585e-07,-3.9046616161494113e-07,4.477586530300185e-07,7.233454433440613e-07,1.4435584625728417e-06,2.1845328402558627e-07,3.150188213127013e-07,-4.5301684498253556e-07,-4.938975526488306e-07,-3.533509839496812e-08,-4.7492975316262337e-07,1.5425977055648854e-07,7.669362946302194e-07,2.1182310705091017e-06,-1.5408917680130683e-08,1.598650792240973e-06
-4.939461303823071e-07,-6.439400131078625e-07,-5.774314446290633e-07,-3.1905262127030983e-07,4.2848687988953796e-07,7.081215019197611e-07,1.2786405211941908e-06,2.6112791001319026e-07,3.7884717478316126e-07,-3.988331584686934e-07,-4.382322424701624e-07,-2.7101940647750676e-08,-4.374292368080468e-07,1.7779374639894094e-07,7.71140404938314e-07,2.193295000030826e-06,-1.1250575358074463e-09,1.6446896668616376e-06
-4.586331270627237e-07,-6.073656534546449e-07,-5.410443378930459e-07,-2.786724539029671e-07,4.08553298033868e-07,6.911277650260026e-07,1.1902745993561692e-06,3.1218075736383054e-07,4.622304594819227e-07,-3.573062759936896e-07,-3.8520806132109304e-07,-8.105768949176396e-09,-3.955075653551042e-07,2.0503579972614493e-07,7.827417226356462e-07,2.2835864830247853e-06,1.4146041846237467e-08,1.705460301412784e-06
-4.2600937392402797e-07,-5.682473489190701e-07,-5.159397955553831e-07,-2.5401909310407847e-07,3.990209401915855e-07,6.811294659649199e-07,1.1873162246232113e-06,3.6993087932377405e-07,5.604980061476328e-07,-3.3332016415232673e-07,-3.404862969582952e-07,2.3026577700847686e-08,-3.523775151440175e-07,2.295283349134016e-07,8.075006275420163e-07,2.3886074991785377e-06,3.2521025311104576e-08,1.7839892628110804e-06
-3.9912661504016567e-07,-5.341100052204897e-07,-5.054278789560407e-07,-2.5641742051209524e-07,4.0740218221136493e-07,6.868168963295913e-07,1.2542059799937483e-06,4.3104516798516674e-07,6.64399139360453e-07,-3.2840448290631923e-07,-3.070731987730387e-07,6.313662507548221e-08,-3.147519893695152e-07,2.5308499777958986e-07,8.485391516301962e-07,2.506850532365669e-06,5.477777486069079e-08,1.8794694203437183e-06
-3.799644635602595e-07,-5.056633683227488e-07,-5.084073281162257e-07,-2.8636405257473384e-07,4.330253006554667e-07,7.087293955451605e-07,1.3559491519598797e-06,4.905393516791355e-07,7.628794675274356e-07,-3.387915570301719e-07,-2.888650805746174e-07,1.06446328358984e-07,-2.81428208362679e-07,2.766445810208701e-07,9.030900597612335e-07,2.6363913993743e-06,8.065703332208642e-08,1.9877254933764406e-06
-3.6667766791702604e-07,-4.809807165149243e-07,-5.169973444357337e-07,-3.2972499135058907e-07,4.6586127553489187e-07,7.514939516285854e-07,1.4523201596397399e-06,5.427527133367893e-07,8.473866384794386e-07,-3.5555315906576856e-07,-2.8152865444622876e-07,1.4704812873555975e-07,-2.4703335236001345e-07,2.9756229832266423e-07,9.644522344857048e-07,2.774341980800324e-06,1.0927298426995742e-07,2.1004615726881884e-06
-3.5385028298560513e-07,-4.5311900678476816e-07,-5.191949252336652e-07,-3.6528126116371465e-07,4.919054808277122e-07,8.147662626430548e-07,1.515177996287298e-06,5.82364396218252e-07,9.151492877975755e-07,-3.6827502809706746e-07,-2.759374095505886e-07,1.8000891174729895e-07,-2.0426366076741404e-07,3.1586427912444744e-07,1.0251785055656226e-06,2.9152898676842633e-06,1.388754705417897e-07,2.208753472376989e-06
-3.3646578105963037e-07,-4.1876981903142007e-07,-5.056317250334257e-07,-3.732886778725765e-07,5.016931342767441e-07,8.824682386509361e-07,1.5380934555174607e-06,6.05191132483779e-07,9.685153707104226e-07,-3.7056056975835787e-07,-2.6504908282715823e-07,2.0147184134271218e-07,-1.4909215288632997e-07,3.2910055228313637e-07,1.07995347235614e-06,3.0501001015919232e-06,1.665776814910104e-07,2.304181165097349e-06
-3.147144521931521e-07,-3.7729490983564303e-07,-4.756709841861256e-07,-3.5084837164334843e-07,4.962110668262755e-07,9.374758342960861e-07,1.5328188185982694e-06,6.092782314113452e-07,1.0106527109811635e-06,-3.636108077627852e-07,-2.45989043195169e-07,2.094811231136124e-07,-8.653601555353262e-08,3.357769330823751e-07,1.1208883322033258e-06,3.166640011207574e-06,1.8900370029874978e-07,2.3795006461926257e-06
-2.955150692821978e-07,-3.3510792362517344e-07,-4.3814642208097077e-07,-3.128408027849149e-07,4.871551884524525e-07,9.704125652865995e-07,1.5156098295803462e-06,5.96242396943071e-07,1.041180088119303e-06,-3.553029630829182e-07,-2.2387795855723923e-07,2.057966254817961e-07,-2.8103847056708034e-08,3.3779266074403726e-07,1.1458612746176395e-06,3.25258118283722e-06,2.0373523561845737e-07,2.429738813310922e-06
-2.8923576949139057e-07,-3.135883728882178e-07,-4.063751311624776e-07,-2.920662398152136e-07,4.908973086805973e-07,9.786867418649692e-07,1.4944259952894235e-06,5.717963133181699e-07,1.0570206946960973e-06,-3.555878077313569e-07,-2.0834795865223171e-07,1.9664381726219873e-07,1.3866541909653355e-08,3.4288915490616365e-07,1.158705938375242e-06,3.2989243840250152e-06,2.1032152306135172e-07,2.451672363667619e-06
-3.0414124479802074e-07,-3.32012978816207e-07,-3.915234817128296e-07,-3.19774684736637e-07,5.181282904043079e-07,9.70022742638643e-07,1.4663222272169396e-06,5.445253588863857e-07,1.0490447811098506e-06,-3.7144953358408396e-07,-2.0574894660030854e-07,1.9050201549105668e-07,1.799710844817987e-08,3.5248366701094097e-07,1.1634188890263027e-06,3.30250803560988e-06,2.099658697967675e-07,2.4434604207774864e-06
-3.424223025031302e-07,-3.985248391980798e-07,-3.9870848328632165e-07,-4.1154601108135787e-07,5.652307790770431e-07,9.492147245858857e-07,1.4232841700418146e-06,5.232129608530228e-07,9.96577036584662e-07,-4.043385765912037e-07,-2.2275201380645033e-07,1.9388405323566272e-07,-7.663778209757913e-09,3.7045542048275516e-07,1.164359029263985e-06,3.266666441307586e-06,2.0436876005252284e-07,2.4045964762189387e-06
-3.9970488059814394e-07,-5.067977098245412e-07,-4.2677878459054973e-07,-5.600760420687071e-07,6.143009220347541e-07,9.246849516656644e-07,1.3627865385976063e-06,5.14137708348923e-07,9.527748977761501e-07,-4.50693178635458e-07,-2.5826695596470913e-07,2.0838620136204836e-07,-6.316772787978757e-08,3.983079671213378e-07,1.162001299002551e-06,3.2004761604860898e-06,1.9490457504763576e-07,2.3375004945374313e-06
-4.6726915488775176e-07,-6.370125676194742e-07,-4.701792610434951e-07,-7.426240237897223e-07,6.440148047199471e-07,9.074975083019445e-07,1.293502624876531e-06,5.198958348418398e-07,8.630150265399388e-07,-5.039924109357488e-07,-3.071607542294295e-07,2.3133804153270952e-07,-1.3521392400000534e-07,4.319064133216177e-07,1.157379695617423e-06,3.1169102444753465e-06,1.8278398103068789e-07,2.2467460335906242e-06
-5.350289608180704e-07,-7.707582307099455e-07,-5.207401086109265e-07,-9.296497818721529e-07,6.402119650127802e-07,8.984462953750737e-07,1.2323158799812906e-06,5.399977149086814e-07,7.737439103310429e-07,-5.566686634868172e-07,-3.639444768494132e-07,2.589316218741466e-07,-2.138628910791352e-07,4.673601803290775e-07,1.1546959881082726e-06,3.0299854283644743e-06,1.696514247732078e-07,2.141352485985974e-06
-5.940135203444462e-07,-8.894656907580706e-07,-5.693052277331648e-07,-1.0922613626890974e-06,6.038047324933368e-07,8.965318371592045e-07,1.195399292732578e-06,5.719079582827275e-07,6.938018752952388e-07,-6.017112524893822e-07,-4.2053096050434174e-07,2.885615994126597e-07,-2.865210271071735e-07,5.005823276827506e-07,1.1558556162582127e-06,2.9512986454299764e-06,1.5760333258182746e-07,2.03233244517745e-06
-6.381928766598452e-07,-9.824463553789297e-07,-6.079461775801761e-07,-1.2144655568704176e-06,5.520037707060273e-07,9.002134591401206e-07,1.1903405721616567e-06,6.113103164608824e-07,6.366042927651387e-07,-6.344116608936655e-07,-4.6943730069309667e-07,3.186369149177186e-07,-3.4456708741581847e-07,5.273527457867937e-07,1.1599868084528466e-06,2.887476762276836e-06,1.4840869282502418e-07,1.9295382570274994e-06
-6.65499482279638e-07,-1.044208416586653e-06,-6.321199972905947e-07,-1.2943670336651381e-06,5.073902308612156e-07,9.053903530484875e-07,1.2119310887311022e-06,6.519410992874562e-07,6.07054197892918e-07,-6.536627625579076e-07,-5.049927317416644e-07,3.472099863431291e-07,-3.8394891173716506e-07,5.459108826995099e-07,1.164069356002077e-06,2.8399353141020235e-06,1.4278245444920721e-07,1.8405626286352141e-06
-6.774211239090002e-07,-1.0712474511409203e-06,-6.412113491539606e-07,-1.3255458190570713e-06,4.886405250806867e-07,9.09534519861185e-07,1.2436911786338297e-06,6.8634575118272e-07,5.998683895051554e-07,-6.616057201882886e-07,-5.248788698308562e-07,3.717494844165787e-07,-4.0286498788395467e-07,5.53302139598137e-07,1.1629368244235864e-06,2.8066106168291e-06,1.4053516195813417e-07,1.7691285241582116e-06
-6.771368545431312e-07,-1.065058477615227e-06,-6.370764317231611e-07,-1.3113820041405662e-06,5.038038372631342e-07,9.134234149223456e-07,1.2636693779661265e-06,7.081491790392342e-07,6.038119295296349e-07,-6.617817984518551e-07,-5.285728344731379e-07,3.9045229767883383e-07,-4.03457861850907e-07,5.490081405176979e-07,1.1502514102646094e-06,2.784092619295635e-06,1.4134329741404957e-07,1.7156339812445124e-06
-6.675846392350883e-07,-1.0313554704114357e-06,-6.224317120296972e-07,-1.2624031424193507e-06,5.448307843516103e-07,9.167248166403106e-07,1.2530994143321755e-06,7.145563611510023e-07,6.084684952598077e-07,-6.576169874787125e-07,-5.187303248572579e-07,4.0331984627466765e-07,-3.8967454986521584e-07,5.353187658543003e-07,1.1237760631349857e-06,2.7685277437973314e-06,1.4517895338829446e-07,1.6786154280089194e-06
-6.511360349097364e-07,-9.807278239741893e-07,-6.007944070618418e-07,-1.1915235921516597e-06,5.919696317738273e-07,9.174746970286631e-07,1.208774748584975e-06,7.069740596123756e-07,6.080480368018199e-07,-6.525025087834296e-07,-5.004538239865397e-07,4.115292283414978e-07,-3.672768365600461e-07,5.154513437854056e-07,1.0855042804045297e-06,2.755119576926988e-06,1.5181613960474305e-07,1.6552289518868655e-06
-6.309556777694554e-07,-9.268498748630239e-07,-5.774611500190861e-07,-1.119201192132505e-06,6.222352625584066e-07,9.132688218748666e-07,1.1505976388614073e-06,6.891990549956992e-07,6.007604146549763e-07,-6.50535000075588e-07,-4.80595598513384e-07,4.1581180754799554e-07,-3.4291950221743965e-07,4.930680618517321e-07,1.0399873448127821e-06,2.7377051155337846e-06,1.5994793433179098e-07,1.6407255921142352e-06
-6.121324577481462e-07,-8.861478716341541e-07,-5.592121315205476e-07,-1.0668722877206381e-06,6.200348628049841e-07,8.986361208321052e-07,1.1147541278625665e-06,6.649650536613224e-07,5.871182703497621e-07,-6.55969578635104e-07,-4.671516643580869e-07,4.1578860427956535e-07,-3.239219482189867e-07,4.6976215814882987e-07,9.942427939067236e-07,2.709992478659879e-06,1.6704412556201475e-07,1.6292888339933484e-06
-6.004989830210034e-07,-8.716834088906405e-07,-5.515499578722258e-07,-1.0492131707385305e-06,5.845442024550922e-07,8.679887806346788e-07,1.1335526364088014e-06,6.370209457019059e-07,5.698672874269128e-07,-6.709204773825451e-07,-4.657652968701904e-07,4.11013670539336e-07,-3.1581225667565986e-07,4.4586968121416817e-07,9.542534467468387e-07,2.6682147896792424e-06,1.7040941367970396e-07,1.6153640088751442e-06
-5.994919152027681e-07,-8.882757830670373e-07,-5.553363156391979e-07,-1.062123033163378e-06,5.284696286978028e-07,8.206081564755466e-07,1.2139409176481344e-06,6.079606285524138e-07,5.546853950825665e-07,-6.932240752947424e-07,-4.773074932447265e-07,4.0238113973271964e-07,-3.1977934982347626e-07,4.214190514611027e-07,9.23146107959474e-07,2.6132261054931286e-06,1.6858550160872149e-07,1.5950344449844947e-06
-6.079630300332457e-07,-9.310209894825743e-07,-5.659785535781108e-07,-1.0996657209974846e-06,4.69502308402785e-07,7.609405954772012e-07,1.3270139095061978e-06,5.810613535660577e-07,5.492941815027839e-07,-7.168804344133195e-07,-4.978699354956179e-07,3.9212868557213894e-07,-3.329208665597667e-07,3.981476898261742e-07,9.011080272641095e-07,2.550248423549007e-06,1.618281533580777e-07,1.5671057974376606e-06
-6.212125478768504e-07,-9.86312270883667e-07,-5.762707480820776e-07,-1.148374743667439e-06,4.1701867848142397e-07,6.969752276559331e-07,1.4154302639727672e-06,5.595391697946534e-07,5.599476283207638e-07,-7.353554529755527e-07,-5.210872403763312e-07,3.8224083933180524e-07,-3.501686551472168e-07,3.7752857842407975e-07,8.859785199629227e-07,2.4861844751986997e-06,1.5134172769275854e-07,1.5320798587643089e-06
-6.343751266924697e-07,-1.0378854610096652e-06,-5.808693587924214e-07,-1.1950921901971902e-06,3.6965091000211525e-07,6.379457825717779e-07,1.4148842608498498e-06,5.44637425182831e-07,5.869203100675943e-07,-7.453639080082692e-07,-5.412467612428815e-07,3.7285007007496797e-07,-3.672679465297413e-07,3.594520882048159e-07,8.742548542897212e-07,2.42640738567112e-06,1.3817542102235425e-07,1.4917416723528426e-06
-6.451876767487216e-07,-1.0739316462101777e-06,-5.788257833594455e-07,-1.2316672560339224e-06,3.0834276231533944e-07,5.920882859290733e-07,1.27963660785502e-06,5.345888107291231e-07,6.22215975479341e-07,-7.481688084518181e-07,-5.55188962183603e-07,3.62492501282957e-07,-3.82324327180431e-07,3.4233681782579585e-07,8.62234341924569e-07,2.3731922471374154e-06,1.2302178018953458e-07,1.4496729602836921e-06
-6.539732747167329e-07,-1.0911087290960536e-06,-5.72289867649436e-07,-1.254083778906925e-06,2.2689414738957994e-07,5.652616885990353e-07,1.0017173342036734e-06,5.257736964293254e-07,6.515831578512582e-07,-7.476377647039446e-07,-5.624425605466502e-07,3.502131994240199e-07,-3.9616086314926883e-07,3.243464870696609e-07,8.483248405601877e-07,2.3262628870216775e-06,1.0711377421654719e-07,1.4104180305767694e-06
-6.614521410790239e-07,-1.0937415506713481e-06,-5.631669655555707e-07,-1.265714008356571e-06,1.4061895960936956e-07,5.599260486852572e-07,6.17531203875049e-07,5.150151784293678e-07,6.601238373190854e-07,-7.471695217711448e-07,-5.64368088504329e-07,3.3730427862229355e-07,-4.1028485166222504e-07,3.0537603343742275e-07,8.332792849229277e-07,2.2842722921112605e-06,9.300186339921357e-08,1.3791287523360982e-06
-6.670249124471352e-07,-1.089873679390871e-06,-5.514613323825256e-07,-1.2716991330596016e-06,6.115396751194987e-08,5.752058720934118e-07,1.9932331301901686e-07,5.007195427202327e-07,6.385478248251779e-07,-7.482030773949475e-07,-5.633404361448271e-07,3.2661404932103243e-07,-4.253720264054094e-07,2.873969351252628e-07,8.186155845286434e-07,2.245865785293204e-06,8.398316961856325e-08,1.3599283273157343e-06
-6.693744385545359e-07,-1.0871033056424806e-06,-5.367865568823476e-07,-1.2796140948043735e-06,2.398813469001882e-09,6.061729788812895e-07,-1.6727951864556552e-07,4.819198131465919e-07,5.869038293764937e-07,-7.510301302899143e-07,-5.622705359556563e-07,3.198366771980361e-07,-4.406921422639952e-07,2.724777141633172e-07,8.047638004412784e-07,2.209740872424785e-06,8.237938914643017e-08,1.3513064800416781e-06
-6.685483952085498e-07,-1.0901645755460596e-06,-5.20700472491215e-07,-1.292860368706695e-06,-2.6797760108711943e-08,6.444821696206852e-07,-4.1342109872261664e-07,4.567616088958166e-07,5.140991818184384e-07,-7.562127290582935e-07,-5.646162847055209e-07,3.1536849332934757e-07,-4.5418698706775564e-07,2.6033539948727587e-07,7.895675820516649e-07,2.1745213546856463e-06,8.785908086221958e-08,1.3503393398575396e-06
-6.669210732076912e-07,-1.0998632945442971e-06,-5.06631987295065e-07,-1.3086000390661078e-06,-3.271072798530009e-08,6.797463732166265e-07,-5.09768404900237e-07,4.228883351853355e-07,4.3328161625320235e-07,-7.615228180319939e-07,-5.697980005219829e-07,3.0903054952605345e-07,-4.6303056136067505e-07,2.4812746089264655e-07,7.698714223852443e-07,2.139275691440012e-06,9.78653633607354e-08,1.3576864187688541e-06
-6.673888239562626e-07,-1.1123733191669479e-06,-4.968976272887084e-07,-1.3174666307094707e-06,-2.369020287069255e-08,7.015969104615224e-07,-4.670222462968546e-07,3.8009636534816905e-07,3.554651161878376e-07,-7.661699935053928e-07,-5.767001912208525e-07,2.9721050595063093e-07,-4.632388352207171e-07,2.3240480425912358e-07,7.430187983329385e-07,2.1043123033040774e-06,1.0862608708427653e-07,1.3648517620548502e-06
-6.700142381112642e-07,-1.119501533889858e-06,-4.895709771203443e-07,-1.3056740600890826e-06,-2.374590553100565e-09,7.024782370131989e-07,-3.182448779792721e-07,3.327158773961629e-07,2.858908645191311e-07,-7.681668650813081e-07,-5.815881329464056e-07,2.794797532196601e-07,-4.496240377590901e-07,2.111860567913934e-07,7.085470649164246e-07,2.0712236807236818e-06,1.1724647310291814e-07,1.368036856712238e-06
-6.701533779392023e-07,-1.110154328157765e-06,-4.783345727676786e-07,-1.258883838549439e-06,-6.751330976787315e-09,6.788578930133963e-07,-1.0147303200445455e-07,2.8896872968239883e-07,2.256034049392298e-07,-7.578528211652833e-07,-5.755423830685559e-07,2.583147907129517e-07,-4.16643196004419e-07,1.8473861832371147e-07,6.684728544304845e-07,2.041945054088487e-06,1.213637768113168e-07,1.3691020424095497e-06
-6.599704149535151e-07,-1.0730831229684101e-06,-4.5587199672584287e-07,-1.1662793421368614e-06,-8.09123917464203e-08,6.310141608932958e-07,1.4679198907630461e-07,2.5722163660076476e-07,1.7565514390318433e-07,-7.270699477097083e-07,-5.51470299203068e-07,2.3646072693948924e-07,-3.604361449318114e-07,1.5478830112079458e-07,6.259482287474399e-07,2.0176729292945613e-06,1.198511378460443e-07,1.3711782677676627e-06
-6.323931314246101e-07,-1.0006429584043597e-06,-4.182870118138234e-07,-1.0241955826768292e-06,-2.1750512189247264e-07,5.627357971095452e-07,3.9060160493887844e-07,2.419824396570352e-07,1.3968185254180276e-07,-6.708717863874646e-07,-5.03762548823111e-07,2.1464011275372637e-07,-2.798500298346505e-07,1.2314551093842236e-07,5.843003439935575e-07,1.9983258910420497e-06,1.1303866048687845e-07,1.3803208761369073e-06
-5.847315999879677e-07,-8.923354017895555e-07,-3.6721309707034627e-07,-8.362261607130511e-07,-3.671976192405418e-07,4.818575588429709e-07,5.934577149478121e-07,2.429483130160057e-07,1.2308562823010645e-07,-5.922977792637044e-07,-4.3636014465004947e-07,1.9175966738358255e-07,-1.8280188025521475e-07,9.15068343233475e-08,5.467661136600231e-07,1.9827864647817398e-06,1.0263219632101073e-07,1.4032307779453808e-06
-5.177756443655257e-07,-7.567962212409791e-07,-3.0870646211056633e-07,-6.281996248247388e-07,-4.7171715324134006e-07,3.996044960526022e-07,7.240221941599205e-07,2.57321738274975e-07,1.2954023357039652e-07,-5.009559721303569e-07,-3.5605471767949166e-07,1.6706017034850916e-07,-8.330596718854213e-08,6.227863458904598e-08,5.168448806827967e-07,1.972896017658725e-06,9.227891315176038e-08,1.4397876374882502e-06
-4.4222189422917174e-07,-6.111044689140917e-07,-2.509866968694949e-07,-4.2610045262191487e-07,-4.5618114675469077e-07,3.2754166411801645e-07,7.679558671182075e-07,2.820572556574442e-07,1.569594081188939e-07,-4.376350839401263e-07,-2.884433223304982e-07,1.4162671366119563e-07,3.113510367531573e-09,3.881215994087338e-08,4.976111667894787e-07,1.9639135409140167e-06,8.615295016067137e-08,1.4845939081780028e-06
-3.6778010837406896e-07,-4.774873005798518e-07,-2.0311474170272944e-07,-2.638824894491202e-07,-4.1685997858504107e-07,2.731390785056255e-07,7.353287725829901e-07,3.132954331117469e-07,1.9596798902565052e-07,-4.248141652112607e-07,-2.725871317637065e-07,1.1762179165857548e-07,2.4662979418802382e-08,2.4005635575696063e-08,4.905941121311783e-07,1.9547244165655514e-06,8.670936777598461e-08,1.5344542629178637e-06
-3.0791269898157116e-07,-3.7856459418981157e-07,-1.742773099126389e-07,-2.640341559134173e-07,-4.1651597211058976e-07,2.367745345559118e-07,6.561790938996505e-07,3.444201158917845e-07,2.3286782159164357e-07,-4.5541878393619483e-07,-2.9225672094571166e-07,9.63430592611194e-08,6.20147271850595e-09,1.815854497079355e-08,4.938391732830158e-07,1.943089283222548e-06,9.276436189549205e-08,1.5723353824803562e-06
-3.121386236612553e-07,-3.32221276086444e-07,-1.7178993198913182e-07,-2.970492257649974e-07,-4.29359505842124e-07,2.1247459466590155e-07,5.671441544223243e-07,3.6643082611279245e-07,2.5552770566596695e-07,-4.979754700258141e-07,-3.166932277856713e-07,7.748114331637776e-08,2.9996365065185723e-09,1.8231148204721412e-08,5.028794109532063e-07,1.922184888569428e-06,1.0016529710755372e-07,1.5923392765487706e-06
-3.290160530527635e-07,-3.466053086997522e-07,-1.973909769889508e-07,-2.864757402563338e-07,-4.186320419983149e-07,1.9282556049043732e-07,4.969387461379295e-07,3.716114095248999e-07,2.579677075529144e-07,-4.880457203804106e-07,-3.086604408693452e-07,6.031458870039043e-08,-2.6450701298578138e-08,1.96422276995096e-08,5.128876329880922e-07,1.8878465316095646e-06,1.0439124879181638e-07,1.5921874571673215e-06
-3.39219666755224e-07,-4.1669493628326605e-07,-2.445871810427621e-07,-4.073292850502437e-07,-3.3138358622633163e-07,1.7261413280713607e-07,4.5883640441111986e-07,3.5746690461600283e-07,2.4120689188849815e-07,-4.587631789152398e-07,-3.4990938922871043e-07,4.517395311239737e-08,-1.1287939197197926e-07,1.9151889067090336e-08,5.200069292278207e-07,1.8393856717342712e-06,1.0259484302610557e-07,1.5691657708895327e-06
-3.990348774688303e-07,-5.25123019610926e-07,-3.0042134359643114e-07,-6.086798283611431e-07,-1.7857801095334218e-07,1.5193614291212563e-07,4.5453538725201606e-07,3.275658758254684e-07,2.1149921706505179e-07,-4.933838342798841e-07,-4.1355451954486043e-07,3.3270793867935766e-08,-2.2551664842611878e-07,1.6339082001912684e-08,5.218405099148796e-07,1.7814758562002071e-06,9.484694327758845e-08,1.5282500565268862e-06
-4.926008984855051e-07,-6.479556383072759e-07,-3.513272390798648e-07,-7.707817177070679e-07,-1.9936730739202637e-08,1.3482405814403625e-07,4.847272063889503e-07,2.8886931498538034e-07,1.77588556613722e-07,-5.564716247503122e-07,-4.396095310175128e-07,2.4921188600069363e-08,-3.088911624655933e-07,1.264368090899041e-08,5.164851082502731e-07,1.7211629344350193e-06,8.290057834937765e-08,1.4744942552798847e-06
-5.704978113217323e-07,-7.622617588598577e-07,-3.8877060302003855e-07,-8.66101203489138e-07,6.67582058779938e-08,1.2578492727801833e-07,5.555293911127963e-07,2.4790387232195347e-07,1.4739118948151385e-07,-6.179001451191542e-07,-4.7201567239563473e-07,1.810688079479755e-08,-3.626731537150405e-07,9.140024157603128e-09,5.030070379748842e-07,1.6659201485498966e-06,6.812034048460274e-08,1.4126072832596568e-06
-6.222683848498762e-07,-8.508441568792224e-07,-4.105308832793968e-07,-9.08097351579227e-07,9.250524448355886e-08,1.282036197199817e-07,6.736979307500745e-07,2.0873538060407782e-07,1.2500606814292284e-07,-6.747838691788833e-07,-4.875480296529934e-07,9.244196842602098e-09,-3.8990877797005536e-07,5.23260075967784e-09,4.81470226086634e-07,1.6182031227452714e-06,5.040095607414887e-08,1.3504662339737131e-06
-6.53645418941588e-07,-9.023079752802797e-07,-4.175404047999348e-07,-8.901522824368335e-07,1.4726349341042884e-07,1.4359318671954384e-07,8.346526271641779e-07,1.7376906487711415e-07,1.0996614592783848e-07,-6.915070965220668e-07,-4.661357780230999e-07,-4.298901246730569e-09,-3.8711142412372013e-07,-7.917169332243997e-10,4.537363881345849e-07,1.5805543287748345e-06,3.031737200802682e-08,1.299257868973936e-06
-6.609310725740302e-07,-9.091560050788108e-07,-4.10195844516772e-07,-8.186750229697137e-07,2.056484929791922e-07,1.7119829943633168e-07,1.015520202850441e-06,1.4570943084128397e-07,9.947354193166881e-08,-6.816416955328827e-07,-4.2601486227699316e-07,-2.2432130834716725e-08,-3.5558236769854423e-07,-1.0424763794243316e-08,4.235434233465452e-07,1.5480943144582893e-06,9.48522725546859e-09,1.2635114888027137e-06
-6.441524260561098e-07,-8.67999669960289e-07,-3.879304550336581e-07,-7.061845183699395e-07,1.7773146329722e-07,2.0750603910920638e-07,1.1801202543118512e-06,1.2838923912300712e-07,9.174991250889507e-08,-6.489215914677963e-07,-3.775896636908517e-07,-4.293007905721585e-08,-2.9962176964888435e-07,-2.4188120011524985e-08,3.952262940294124e-07,1.5196041106715778e-06,-1.0123026839080399e-08,1.2453534415229227e-06
-6.05934635474841e-07,-7.824665205571116e-07,-3.518487944060793e-07,-5.714791753581056e-07,1.321600361044287e-07,2.4736658917841445e-07,1.2916589127323416e-06,1.269237812057489e-07,8.78935805696675e-08,-5.988934248727299e-07,-3.191262975902631e-07,-6.339512634322376e-08,-2.270327587378606e-07,-4.165487453126246e-08,3.724759465978142e-07,1.495945807255357e-06,-2.6915977114544818e-08,1.24277490235987e-06
-5.530747830883312e-07,-6.650563598530206e-07,-3.068675202513995e-07,-4.3869400640375614e-07,7.805579336897617e-08,2.8553427218711935e-07,1.3269901241420952e-06,1.4361034285392448e-07,9.142939583555067e-08,-5.522751547175449e-07,-2.6631431072121936e-07,-8.241242610230919e-08,-1.4797417665152173e-07,-6.162498679882065e-08,3.5732646060745556e-07,1.4756562591978321e-06,-4.106027998880579e-08,1.2317127488325149e-06
-4.95621758703607e-07,-5.344220767997154e-07,-2.6055093693294543e-07,-3.277338256070064e-07,-5.750515587953915e-09,3.182944229476165e-07,1.2876262063053462e-06,1.7843336476401632e-07,1.0610452079859136e-07,-5.126929746151461e-07,-2.2702587045156665e-07,-9.898493101584123e-08,-7.19209266672538e-08,-8.209601561039214e-08,3.5029752974820156e-07,1.4323251407694134e-06,-5.40101854895496e-08,1.204221146431335e-06
-4.434085365558276e-07,-4.0881595763860226e-07,-2.1961263393796925e-07,-2.5006219202764336e-07,-8.650587231943143e-08,3.442173418181623e-07,1.1994566646594986e-06,2.2929239638721933e-07,1.3275185800403488e-07,-4.816138724444935e-07,-2.0099009436039915e-07,-1.1151496565972501e-07,-4.933807357400759e-09,-1.0043671655306457e-07,3.5099163767790477e-07,1.4044702789388973e-06,-6.734260343345585e-08,1.1616209924524616e-06
-4.02710732324966e-07,-2.9961141811644943e-07,-1.8754234780362734e-07,-2.0552784521602102e-07,-1.6086588338595006e-07,3.630831014659565e-07,1.0985239245191968e-06,2.9161114234970164e-07,1.6694253949719096e-07,-4.6031290851311084e-07,-1.852232283603102e-07,-1.1817698405575913e-07,5.107308040129991e-08,-1.1443059420692473e-07,3.5846385897963126e-07,1.389547538679192e-06,-8.235782450007887e-08,1.100122205549666e-06
-3.753026703269001e-07,-2.0849606264114116e-07,-1.6525545358045348e-07,-1.840846804076782e-07,-1.9589664674471074e-07,3.7406682491919055e-07,1.014283678339437e-06,3.604124016031313e-07,1.9954504940550093e-07,-4.471539941802799e-07,-1.742744131511166e-07,-1.1876459836953513e-07,9.754482723672607e-08,-1.239688896996965e-07,3.708467281426275e-07,1.3393411603927974e-06,-1.0080948395774176e-07,1.0376611676339877e-06
-3.5986943546961346e-07,-1.2968735768297536e-07,-1.5312384716928712e-07,-1.713825451392652e-07,-1.9894839482743146e-07,3.754247724224557e-07,9.618060399476978e-07,4.295071353098474e-07,2.2038471198169087e-07,-4.4063764019605623e-07,-1.6373538202795562e-07,-1.1595183527451932e-07,1.3645055644099864e-07,-1.3189479019970417e-07,3.8462311883679125e-07,1.2563356603084148e-06,-1.247619887889257e-07,9.445556776163743e-07
-3.5407443660139545e-07,-5.5814128791134874e-08,-1.5148297347142806e-07,-1.5517940226082923e-07,-1.8739759575708965e-07,3.6683456356657297e-07,9.415343649309336e-07,4.938172051035891e-07,2.229448000429557e-07,-4.4029605293217105e-07,-1.5232763190367353e-07,-1.1396871238837246e-07,1.6877484661573244e-07,-1.4262590833750592e-07,3.95287582195904e-07,1.0904588559456076e-06,-1.5561346034391725e-07,8.11428647558739e-07
-3.558169022195466e-07,1.594893185993058e-08,-1.5918277802515631e-07,-1.3095429861413205e-07,-1.7243924075137505e-07,3.532749060235476e-07,9.425854318057326e-07,5.528113001161113e-07,2.077923488856075e-07,-4.459687134271228e-07,-1.4199064765667625e-07,-1.1537482058294715e-07,1.9322956274661342e-07,-1.5924543081388288e-07,3.9881391342058327e-07,8.06848174694738e-07,-1.9285337009918362e-07,6.186662618709934e-07
-3.6367175709888013e-07,8.067820243401486e-08,-1.72690613126832e-07,-1.027684046544952e-07,-1.4703136360714145e-07,3.4502221319462126e-07,9.510399610747743e-07,6.121028847790587e-07,1.8292080701613123e-07,-4.571297742514652e-07,-1.365736595607625e-07,-1.1894271838394526e-07,2.0679016715339823e-07,-1.8139512482646505e-07,3.9268988250000117e-07,6.061228973265598e-07,-2.3381090046938371e-07,3.782568102877146e-07
-3.77299759005029e-07,1.2632363763015868e-07,-1.877026225211086e-07,-8.269399917319495e-08,-7.14081703077392e-08,3.544252289380661e-07,9.607815684227897e-07,6.804991284568385e-07,1.6009272569504917e-07,-4.735068288456818e-07,-1.404190890395384e-07,-1.2060396830877776e-07,2.0495721456689883e-07,-2.0539646433203153e-07,3.763320927194013e-07,4.883506020060111e-07,-2.7474769275013724e-07,2.1245970474894404e-07
-3.979917667684997e-07,1.3721484396297046e-07,-2.0204277322215168e-07,-8.686890511198975e-08,5.771903136936311e-08,3.909527802398782e-07,9.779158194430017e-07,7.661025979269945e-07,1.4895907933796702e-07,-4.961503727139958e-07,-1.5729020441042913e-07,-1.1630610344845396e-07,1.8281326874948692e-07,-2.2599978067184714e-07,3.50489860008608e-07,3.716730524749871e-07,-3.125420375312918e-07,7.079086300750952e-08
-4.284896750370491e-07,9.947033576600676e-08,-2.1679432919093807e-07,-1.3087558574553187e-07,2.3346978091887863e-07,4.5766403910226395e-07,1.0166663024130165e-06,8.633394576072578e-07,1.5265238874869545e-07,-5.270834585196995e-07,-1.8917127592717318e-07,-1.0414505520717571e-07,1.3739502869508113e-07,-2.3830472406711237e-07,3.1672286811956243e-07,2.0460129227918534e-07,-3.4528479251438945e-07,-5.583369797019402e-08
-4.711986687729118e-07,7.457724513313498e-09,-2.3414736099567285e-07,-2.2390748964654241e-07,4.343192489964597e-07,5.511789740775931e-07,1.094461546081949e-06,9.619741685066707e-07,1.6695659971701038e-07,-5.671126834509531e-07,-2.3488981099372953e-07,-8.45150020524753e-08,6.993033437613931e-08,-2.3890687844732585e-07,2.7705258302498626e-07,-9.89410315480441e-08,-3.72495003156329e-07,-2.4596736057799117e-07
-5.255443167495644e-07,-1.309575018007625e-07,-2.539468518107239e-07,-3.6300314868679056e-07,6.219619021176986e-07,6.633559428769879e-07,1.2286148330488136e-06,1.0451762936272453e-06,1.8279759860264652e-07,-6.137517291605194e-07,-2.894630869923358e-07,-5.9287343245833817e-08,-1.2493415631476113e-08,-2.2636906500543777e-07,2.340059478312152e-07,-4.286851559599602e-07,-3.939036826319562e-07,-5.138625318986381e-07
-5.869027638431845e-07,-2.939863191361075e-07,-2.7251616949595964e-07,-5.310652313560539e-07,7.710974823194136e-07,7.836116247202783e-07,1.428209769044415e-06,1.0574500271960895e-06,1.9094614395707643e-07,-6.614662973878031e-07,-3.4501714874345017e-07,-3.1494214821720274e-08,-9.80311487759669e-08,-2.0150158445787899e-07,1.9061690346560537e-07,-6.107198945545669e-07,-4.095376704943887e-07,-7.599597505643832e-07
-6.484107863359547e-07,-4.522333632023641e-07,-2.849042181180302e-07,-7.016647392872299e-07,8.774323825368396e-07,9.01206861067842e-07,1.6814796553316184e-06,1.0557218962503261e-06,1.871169063673937e-07,-7.040524080741629e-07,-3.931462745453207e-07,-5.375426860270395e-09,-1.7443922881824169e-07,-1.6737352979974896e-07,1.4986653123851727e-07,-7.133154025743755e-07,-4.2033044190155626e-07,-9.152690299597526e-07
-7.038311528333454e-07,-5.791395874021645e-07,-2.881045334444896e-07,-8.4752931913389e-07,9.477623038645781e-07,1.0080509160496736e-06,1.950400306008163e-06,1.070143732180542e-06,1.7481493696947365e-07,-7.368713094031785e-07,-4.276573776658493e-07,1.4617591619884596e-08,-2.3265157072871715e-07,-1.2852429602917098e-07,1.1411427034255308e-07,-7.480579681158252e-07,-4.2765789244086316e-07,-1.0621563386878848e-06
-7.487804021918242e-07,-6.596822371535942e-07,-2.8208663739301655e-07,-9.500730400744513e-07,9.92880004688338e-07,1.1011160456690133e-06,2.181625059586658e-06,1.0337368129095294e-06,1.6432013050139462e-07,-7.573498274697784e-07,-4.463148589793874e-07,2.6239551735640208e-08,-2.6848270204776873e-07,-8.931217543104691e-08,8.495017903159713e-08,-8.438349387618981e-07,-4.325731992928305e-07,-1.1426635861822196e-06
-7.801819162352506e-07,-6.930899163689154e-07,-2.682230517384275e-07,-1.0033678417053221e-06,1.0255395865041023e-06,1.1829273916463373e-06,2.330019140371849e-06,9.717391709637858e-07,1.689160461269234e-07,-7.644138515643764e-07,-4.507819839533834e-07,3.1457262045326664e-08,-2.8250975903899086e-07,-5.225125429973982e-08,6.351484305902e-08,-9.829617503219866e-07,-4.3499585705521286e-07,-1.2182386891215671e-06
-7.958955061421209e-07,-6.897797657709432e-07,-2.4758999698790866e-07,-1.0129047770631977e-06,1.0474138711528119e-06,1.258942161885121e-06,2.381759053713698e-06,9.387540814037991e-07,2.0031918245813183e-07,-7.58424570087148e-07,-4.4518888705731233e-07,3.578597670121636e-08,-2.7868473906987566e-07,-1.7572931445364453e-08,5.057253675254573e-08,-1.0919475202947934e-06,-4.340126112184068e-07,-1.3391815769067737e-06
-7.955101883403366e-07,-6.653083427543754e-07,-2.2126062288431136e-07,-9.912489002367013e-07,1.0537384426396205e-06,1.333053428048872e-06,2.3634523462672563e-06,9.492219686405829e-07,2.6408667515551365e-07,-7.419207994650808e-07,-4.3451364867982625e-07,4.496087521122997e-08,-2.632223269505191e-07,1.5541226334777933e-08,4.624046717341239e-08,-1.184494391896412e-06,-4.288633850992795e-07,-1.4273223199269923e-06
-7.813240013458755e-07,-6.342522767288639e-07,-1.9182751969742881e-07,-9.528491697319548e-07,1.03982624830533e-06,1.4045038380686745e-06,2.3301310199581458e-06,9.964220511054435e-07,3.565423440352361e-07,-7.198430158190753e-07,-4.2347798194404465e-07,6.150694802524936e-08,-2.431220992862915e-07,4.720402801682305e-08,4.992342974024e-08,-1.263761942107845e-06,-4.1997839983585666e-07,-1.5024955844753795e-06
-7.580720947079764e-07,-6.062956403731923e-07,-1.6369016349651802e-07,-9.108182477823885e-07,1.002529458433964e-06,1.4678690549924415e-06,2.3364246484820954e-06,1.076300801321226e-06,4.6628685921821206e-07,-6.979822416432313e-07,-4.1566780427458526e-07,8.393179442099457e-08,-2.2463963760444746e-07,7.632915495978719e-08,6.080045401117895e-08,-1.3184953330806948e-06,-4.088149018880707e-07,-1.564673503183495e-06
-7.312012355240326e-07,-5.855626037686347e-07,-1.4115626630415837e-07,-8.751332551063603e-07,9.455218178385281e-07,1.5165474549322082e-06,2.407218320645475e-06,1.1754820385270939e-06,5.805223581347547e-07,-6.803858158315911e-07,-4.125993633513749e-07,1.0873779014769124e-07,-2.1134957144900619e-07,1.016897069619823e-07,7.833354048936462e-08,-1.3565566017273771e-06,-3.966581271547564e-07,-1.5678177144247186e-06
-7.050829194021493e-07,-5.725666092483987e-07,-1.261814472331699e-07,-8.520951460675512e-07,8.790326360776047e-07,1.5469791817455052e-06,2.5260254699930318e-06,1.2792461137817168e-06,6.910588453723101e-07,-6.680565920112745e-07,-4.134198062130151e-07,1.3285605277894088e-07,-2.0362226339261136e-07,1.2290267190066617e-07,1.0188480230322097e-07,-1.3306565448322528e-06,-3.841145008765312e-07,-1.565977008968903e-06
-6.826797049123291e-07,-5.670223493827216e-07,-1.1807684496900873e-07,-8.444659662231152e-07,8.153509264123043e-07,1.5612389518081257e-06,2.647560220070056e-06,1.375841522885061e-06,7.946206155700967e-07,-6.601811315603859e-07,-4.160551098403653e-07,1.543618547424248e-07,-1.9938733073979115e-07,1.4003349384206233e-07,1.2974441097542917e-07,-1.2483649014368575e-06,-3.7143532148022365e-07,-1.5652060308791896e-06
-6.665449087338027e-07,-5.698387137624505e-07,-1.1524145137411602e-07,-8.529910195013333e-07,7.655297030573371e-07,1.5667161336540676e-06,2.724463137378542e-06,1.458176400138493e-06,8.886216016156314e-07,-6.564290327257305e-07,-4.192335201999815e-07,1.718597581426723e-07,-1.9612968968747715e-07,1.5258520198928133e-07,1.5874745458959374e-07,-1.1928969496838545e-06,-3.591781062231426e-07,-1.5190650091033177e-06
-6.595054176828686e-07,-5.834949621401998e-07,-1.167330096230152e-07,-8.777331435128643e-07,7.380425765197975e-07,1.5735045429618025e-06,2.7290099611811046e-06,1.523876479788421e-06,9.6861777550241e-07,-6.578433514794044e-07,-4.235906492925911e-07,1.844185967057261e-07,-1.9289637509998035e-07,1.5955991894193685e-07,1.8513314351883122e-07,-1.1467976707252122e-06,-3.4817023457856197e-07,-1.492013462012646e-06
-6.637433149699058e-07,-6.108245505583102e-07,-1.2190649919472244e-07,-9.178630210920714e-07,7.36741633378464e-07,1.5916019521140179e-06,2.659188157800613e-06,1.5750872481185487e-06,1.0303487620481667e-06,-6.656569996883585e-07,-4.308399399165359e-07,1.9266224224851622e-07,-1.9059509737564215e-07,1.6094327408208734e-07,2.0619416973182967e-07,-1.109347508141989e-06,-3.391059107387131e-07,-1.4919315880224323e-06
-6.789734440739188e-07,-6.530130903276126e-07,-1.2904108238224003e-07,-9.705160828271687e-07,7.576264839762302e-07,1.6283127544470043e-06,2.5359760770450337e-06,1.6174069051506873e-06,1.0732804556361619e-06,-6.797005138622235e-07,-4.421135002844108e-07,1.9948929923059405e-07,-1.91206437719039e-07,1.5912882772641898e-07,2.215200586460114e-07,-1.0445296219626226e-06,-3.317004996678741e-07,-1.4567045870100956e-06
-7.017568274619004e-07,-7.082350432680917e-07,-1.353595885054543e-07,-1.0302928809976946e-06,7.879571889971378e-07,1.6857429417676372e-06,2.3992279191656936e-06,1.6573392924562105e-06,1.1019645041885688e-06,-6.9821862198829e-07,-4.573721467978658e-07,2.0881984316732588e-07,-1.96812100645476e-07,1.5851380403568808e-07,2.327982265373382e-07,-9.463494750559181e-07,-3.2481137719008656e-07,-1.4120952802206244e-06
-7.270188421527337e-07,-7.71847224901558e-07,-1.3901437974266054e-07,-1.0905238968950068e-06,8.099539150848601e-07,1.7594769616322678e-06,2.2963879290251314e-06,1.6888548534200346e-06,1.1241619378083893e-06,-7.191415976494708e-07,-4.763067899301182e-07,2.2282788904845178e-07,-2.0879696317190315e-07,1.6311940457995076e-07,2.4229223018654945e-07,-8.37282718158744e-07,-3.175127666702469e-07,-1.3543220665996901e-06
-7.505927087928033e-07,-8.378172692909782e-07,-1.409027049218436e-07,-1.1459486293959843e-06,8.075577053153621e-07,1.839873523572517e-06,2.2610832473818943e-06,1.7134658568546203e-06,1.1464119828253491e-06,-7.412913935391113e-07,-4.993806660545148e-07,2.3991961640661084e-07,-2.2757362195585857e-07,1.741530758993535e-07,2.517030727233099e-07,-7.667285030615592e-07,-3.095531569488228e-07,-1.2797840375999395e-06
-7.70535964848642e-07,-9.00406294505448e-07,-1.4398406984913516e-07,-1.194447939877625e-06,7.732820923472603e-07,1.9149666476375237e-06,2.2946461898350205e-06,1.7298440600410797e-06,1.1697329824452568e-06,-7.641135867622252e-07,-5.275666006953358e-07,2.5528966147043876e-07,-2.5227451541286227e-07,1.8959626314473628e-07,2.613765841367932e-07,-7.349086877081132e-07,-3.010522679296835e-07,-1.1927457397166342e-06
-7.862767903322428e-07,-9.551456864398205e-07,-1.503488346700029e-07,-1.23620405063444e-06,7.131488026629383e-07,1.9733469924373807e-06,2.3653921803417357e-06,1.7375905786132866e-06,1.1890306512914675e-06,-7.86275817830719e-07,-5.60871426351133e-07,2.634717551149828e-07,-2.803653492002087e-07,2.0569208261469876e-07,2.7119131252806107e-07,-7.26723719566242e-07,-2.9191141245124093e-07,-1.1334464495085072e-06
-7.969382979290272e-07,-9.985852586383144e-07,-1.5879885596929707e-07,-1.2712104828749057e-06,6.485207413424861e-07,2.0068219511150386e-06,2.4269932103756e-06,1.7459828486870305e-06,1.1965566459345555e-06,-8.049802662258138e-07,-5.971338622327117e-07,2.6051313063239524e-07,-3.076779817270996e-07,2.1841485074620625e-07,2.806439016892572e-07,-7.387769532732182e-07,-2.8181581524158473e-07,-1.092404652949417e-06
-8.008248672265684e-07,-1.0272438128590127e-06,-1.6530425703549154e-07,-1.296453141596796e-06,6.119715582611453e-07,2.0125856744454787e-06,2.4443086790332544e-06,1.7539278515300632e-06,1.1861876670328302e-06,-8.171368271602937e-07,-6.322905820931563e-07,2.443381293441299e-07,-3.2917699613633747e-07,2.2384183554593599e-07,2.87971109342393e-07,-7.5573183707419e-07,-2.7090895080751313e-07,-1.0568764752944036e-06
-7.964744841946441e-07,-1.037098612462692e-06,-1.6576189325197362e-07,-1.3045979527749894e-06,6.341156335726005e-07,1.9934042485580156e-06,2.41065016090366e-06,1.759986626234845e-06,1.1560317515958116e-06,-8.213847709366447e-07,-6.619150165508645e-07,2.1423945800497797e-07,-3.4024215460115385e-07,2.1826929638754478e-07,2.8968620471005347e-07,-7.888483644758267e-07,-2.606371442282688e-07,-1.0461686445329603e-06
-7.839355499284279e-07,-1.0246916070739547e-06,-1.5823621206630933e-07,-1.285677533108005e-06,7.255634860038202e-07,1.9549386434717074e-06,2.347206548161242e-06,1.7620458595009686e-06,1.109191777536503e-06,-8.189088581575271e-07,-6.828243425971742e-07,1.7128545462889647e-07,-3.3854013349125975e-07,1.9927268904336795e-07,2.8198918415403374e-07,-8.36858267326894e-07,-2.5358680414662245e-07,-1.0482523533444934e-06
-7.648609685301145e-07,-9.894345469919323e-07,-1.427872656601095e-07,-1.2316715860597896e-06,8.692116154729509e-07,1.9019247704453829e-06,2.288032281118168e-06,1.7578559146348536e-06,1.0528386553618966e-06,-8.122623758184109e-07,-6.936444754283093e-07,1.1969845528232908e-07,-3.2508324425251424e-07,1.6739150486172518e-07,2.6222173713900613e-07,-8.947742272918151e-07,-2.5218374230434973e-07,-1.0618300322694075e-06
-7.414186324592405e-07,-9.354158557385061e-07,-1.1987283791043127e-07,-1.1410855177452785e-06,1.0207295641021813e-06,1.8370190693302073e-06,2.261050503195076e-06,1.7457302830556146e-06,9.95797693779491e-07,-8.034429505367067e-07,-6.943293481883466e-07,6.716285448887002e-08,-3.0395539172776217e-07,1.2679862892072396e-07,2.3064616545694701e-07,-9.503060300860625e-07,-2.5732021154794276e-07,-1.0876182354234016e-06
-7.15232481117168e-07,-8.712439469113975e-07,-8.971029002698668e-08,-1.0205670427585664e-06,1.1068939044114152e-06,1.7626249473872324e-06,2.2729542644897746e-06,1.7266218321643906e-06,9.460250868722421e-07,-7.930457889033267e-07,-6.857142449537638e-07,2.245825576513703e-08,-2.8062929108663714e-07,8.389001729558239e-08,1.9081312677446296e-07,-1.0016767813295238e-06,-2.6767367493919765e-07,-1.1227283112421067e-06
-6.874685201771242e-07,-8.080906958003245e-07,-5.3612846537787004e-08,-8.842157512141039e-07,1.14386830639477e-06,1.6835601513692948e-06,2.303464055200151e-06,1.7033064181881168e-06,9.091721474017562e-07,-7.812049288260367e-07,-6.700529467720404e-07,-8.522088505373973e-09,-2.6028309235926187e-07,4.456930002435321e-08,1.4798357868030972e-07,-1.0513364115577628e-06,-2.815858895175409e-07,-1.1587476637874309e-06
-6.599856003461193e-07,-7.573850617083924e-07,-1.5872026824407096e-08,-7.526631765645712e-07,1.1104275155140695e-06,1.6080574837873382e-06,2.315393653737546e-06,1.6770405373738272e-06,8.876009346265543e-07,-7.69267779497606e-07,-6.519811177687606e-07,-2.539297991436163e-08,-2.472377587358733e-07,1.2244665353887735e-08,1.0659452039165346e-07,-1.099476932844457e-06,-2.974940254246348e-07,-1.1950787319088018e-06
-6.36121548541386e-07,-7.288460960951655e-07,1.635582044821516e-08,-6.510000821711981e-07,9.895323346425314e-07,1.5463615567501646e-06,2.2778718872150774e-06,1.6497810849448787e-06,8.793473943367436e-07,-7.601559897309951e-07,-6.38053631782011e-07,-3.251681362826872e-08,-2.4482019547128697e-07,-1.2159661481549625e-08,6.909704078734482e-08,-1.14958357226114e-06,-3.149963204965769e-07,-1.2327507383079444e-06
-6.198272043728191e-07,-7.284490467913119e-07,3.586748874885411e-08,-6.02810662712282e-07,8.476143476633497e-07,1.5080511274940704e-06,2.1861087305637367e-06,1.619349288916818e-06,8.784592196674379e-07,-7.566984725636545e-07,-6.341614564370213e-07,-3.5833015880798455e-08,-2.548148445395149e-07,-2.8951827527852074e-08,3.657259305405007e-08,-1.2007126969302756e-06,-3.319271963589444e-07,-1.268964797854768e-06
-6.138419968330483e-07,-7.567791614394115e-07,3.853932775290998e-08,-6.215643834344034e-07,7.070832902857581e-07,1.498997231809402e-06,2.064647171040832e-06,1.5796152152939684e-06,8.775621176376493e-07,-7.596590634206918e-07,-6.426651013605183e-07,-4.00996585437315e-08,-2.766532253813248e-07,-3.892360047995117e-08,8.390353859113643e-09,-1.2505940140964106e-06,-3.4562666571784897e-07,-1.302918348485662e-06
-6.1871185662516e-07,-8.090639253299807e-07,2.4221211171390433e-08,-7.045412989179368e-07,5.905384107900459e-07,1.518781553562147e-06,1.9549128387609353e-06,1.54406424981142e-06,8.707733857423548e-07,-7.674209209397646e-07,-6.615055530266559e-07,-4.8136611079877524e-08,-3.0731512700523295e-07,-4.361072149311487e-08,-1.6638250363889457e-08,-1.2969138348874184e-06,-3.5410910097688765e-07,-1.3307133533352597e-06
-6.33098008029933e-07,-8.769941958986335e-07,-4.189279689672137e-09,-8.330241649956335e-07,5.109127994841694e-07,1.5595175113235447e-06,1.894188269179018e-06,1.4987492868440217e-06,8.547534389031944e-07,-7.77181242997216e-07,-6.857209469441612e-07,-6.11460052585584e-08,-3.4267573745750774e-07,-4.554280932839377e-08,-3.94166389787858e-08,-1.3368366841165786e-06,-3.559394576031002e-07,-1.3479231330647275e-06
-6.543369072110626e-07,-9.509997114727626e-07,-4.152250270638237e-08,-9.781669808196142e-07,4.7466041972755014e-07,1.6072212054133065e-06,1.8961193698764434e-06,1.4351706506871278e-06,8.281068702568057e-07,-7.86062688068957e-07,-7.101307171123328e-07,-7.847744425235167e-08,-3.7905370730008334e-07,-4.743065720169511e-08,-5.99620754480947e-08,-1.3666876709996453e-06,-3.511050616640145e-07,-1.34988802356999e-06
-6.786251117041297e-07,-1.0219060122680683e-06,-8.05522776806754e-08,-1.1093328285671722e-06,4.825520691393548e-07,1.6452300934132307e-06,1.9431121410108013e-06,1.3512480595709555e-06,7.906510945070558e-07,-7.914072424611126e-07,-7.314422501987106e-07,-9.692045236072028e-08,-4.140778515540046e-07,-5.0451096064244257e-08,-7.679282962111892e-08,-1.3810302082285175e-06,-3.3978559582111375e-07,-1.3311890299678308e-06
-7.014093627098934e-07,-1.0822913608805858e-06,-1.1295949616675458e-07,-1.2020458291961254e-06,5.267764842860847e-07,1.657939625085366e-06,1.993327059170089e-06,1.2389952437731983e-06,7.434753493097518e-07,-7.910573382826263e-07,-7.486855578871983e-07,-1.1117892343992594e-07,-4.4700474511933686e-07,-5.307911074710402e-08,-8.708415013717739e-08,-1.3730912231398765e-06,-3.2211510574947265e-07,-1.291294172289331e-06
-7.186363467682862e-07,-1.1280007269363984e-06,-1.318117889380199e-07,-1.2435432632114194e-06,5.929636304446191e-07,1.6341725443822294e-06,1.9981397127511247e-06,1.1175566171680617e-06,6.898881775952899e-07,-7.84255705000709e-07,-7.622523712710921e-07,-1.1623012335116601e-07,-4.78422803073839e-07,-5.187858499164668e-08,-8.784014025340447e-08,-1.3372446398389098e-06,-2.985700828653051e-07,-1.224751275502294e-06
-7.283189174610797e-07,-1.158749232541203e-06,-1.3441422370086033e-07,-1.2343096891090706e-06,6.621772341161161e-07,1.570269720472455e-06,1.9241653052156914e-06,1.0037374070325812e-06,6.33843456339526e-07,-7.723166744228915e-07,-7.72628281509825e-07,-1.099704130839203e-07,-5.094271682944269e-07,-4.384624643678133e-08,-7.739639117572945e-08,-1.2714877415217807e-06,-2.713100463903113e-07,-1.135032112192934e-06
-7.310097242759386e-07,-1.176639366515012e-06,-1.2332930224034008e-07,-1.18532803227112e-06,7.166903707699837e-07,1.4718773605351316e-06,1.7699538145126565e-06,9.063056736745777e-07,5.847835556135217e-07,-7.579496487884476e-07,-7.796797719785959e-07,-9.389875428250518e-08,-5.403122023705821e-07,-2.8258348690428817e-08,-5.613512010651657e-08,-1.1785501393446934e-06,-2.4379848759398166e-07,-1.028832766979401e-06
-7.286443667576414e-07,-1.1838098230550044e-06,-1.0459964566719343e-07,-1.112975396470479e-06,7.466234016780007e-07,1.3530267239703775e-06,1.565109478393254e-06,8.253533998470095e-07,5.469625976621933e-07,-7.436862309803009e-07,-7.828385411899968e-07,-7.151651507659172e-08,-5.712214650041224e-07,-6.709042942489171e-09,-2.6025472445179726e-08,-1.0652590981343867e-06,-2.1899849479829235e-07,-9.108797417853571e-07
-7.229959673501568e-07,-1.1816660820462656e-06,-8.484329067004248e-08,-1.03449440962101e-06,7.470000376307097e-07,1.2324415825532554e-06,1.350813880510496e-06,7.58702440122183e-07,5.200888514650074e-07,-7.31995041209128e-07,-7.815883337035494e-07,-4.637313001514064e-08,-6.017590098759943e-07,1.789564371667425e-08,1.0295734064382726e-08,-9.406676582550521e-07,-1.9808324050033928e-07,-7.880989919486199e-07
-7.152775565693326e-07,-1.1719386643680701e-06,-6.970303944682106e-08,-9.65353723572815e-07,7.156994742463188e-07,1.128002469442349e-06,1.1567518698316217e-06,6.9945842879857e-07,5.026040606820502e-07,-7.23401012312274e-07,-7.767455732175204e-07,-2.1522190347969532e-08,-6.314468377338875e-07,4.2042622859829266e-08,4.9630217735230734e-08,-8.140976364763523e-07,-1.808670816898986e-07,-6.640919435625862e-07
-7.067476648966501e-07,-1.157300246938564e-06,-6.380803602526552e-08,-9.115580080826448e-07,6.507456648341641e-07,1.0507495596541782e-06,9.89287678082218e-07,6.385496449375111e-07,4.891082058149366e-07,-7.180299782018865e-07,-7.708439601085945e-07,2.5404314043346416e-12,-6.590594990163546e-07,6.188862683100798e-08,8.770865879743264e-08,-6.930975164668979e-07,-1.665711671232429e-07,-5.399834689172025e-07
-6.987347126283023e-07,-1.1397055140181576e-06,-7.011943602780903e-08,-8.795322235558543e-07,5.514138466859275e-07,1.0011163549485014e-06,8.345110260145425e-07,5.69743551263043e-07,4.712783128064744e-07,-7.153013282054278e-07,-7.639799716054516e-07,1.5292274359801067e-08,-6.805409411045567e-07,7.380368915179797e-08,1.1946171882783304e-07,-5.835577782957784e-07,-1.5328339854484492e-07,-4.1793263139591575e-07
-6.911516289786533e-07,-1.1170871089699536e-06,-8.75798404584011e-08,-8.66186412210949e-07,4.236954239599762e-07,9.697513740713308e-07,6.726809491179364e-07,4.843123714178973e-07,4.384573332619896e-07,-7.126263721704496e-07,-7.540872676300705e-07,2.266843200662299e-08,-6.883964691181374e-07,7.529994112872136e-08,1.4032987104293387e-07,-4.887870434129883e-07,-1.4100167874720657e-07,-3.012535194795106e-07
-6.807341705700206e-07,-1.0811775312926815e-06,-1.0913665919932161e-07,-8.574739306210352e-07,2.8378570843031256e-07,9.422104413059671e-07,4.951335471665687e-07,3.8083479557302677e-07,3.823961339260098e-07,-7.027842865584345e-07,-7.368006488277902e-07,2.243098471518465e-08,-6.734069977496573e-07,6.57478322603168e-08,1.4758823736221794e-07,-4.0877394606920783e-07,-1.3008174675854627e-07,-1.9069617447773452e-07
-6.613865280037922e-07,-1.0193343170506325e-06,-1.2326198332678558e-07,-8.245554475424399e-07,1.5423099652523e-07,9.043307512061335e-07,3.13351435506224e-07,2.659442279023495e-07,2.9999472113897524e-07,-6.803139604442416e-07,-7.085566935011851e-07,1.608510159352877e-08,-6.291591487184059e-07,4.6473186062091335e-08,1.414304138139062e-07,-3.41554223765498e-07,-1.2041285356308742e-07,-8.813723724080968e-08
-6.274438092934294e-07,-9.208333523987086e-07,-1.193367448532696e-07,-7.34414208616665e-07,5.410420434701277e-08,8.430993191657119e-07,1.5709496431849412e-07,1.299552553204545e-07,1.9558110238725302e-07,-6.43123195734025e-07,-6.688534191132335e-07,4.843672729738387e-09,-5.565920287198503e-07,2.0433656481660262e-08,1.249083199399611e-07,-2.8412101933700066e-07,-1.1274045203776021e-07,3.757489601820753e-09
-5.777820935037579e-07,-7.814306349137139e-07,-9.35378881150326e-08,-5.750293013387978e-07,-7.737631818202246e-09,7.567383782804102e-07,6.351638093612146e-08,6.073150084478241e-09,7.76505313361719e-08,-5.933032580808682e-07,-6.209920081351679e-07,-1.0731122632111477e-08,-4.661816161084228e-07,-8.15909537231115e-09,1.0333075210294112e-07,-2.3288287525846298e-07,-1.0796720870886521e-07,8.314898587968305e-08
-5.1757013926931e-07,-6.186262080618152e-07,-5.107491318745726e-08,-3.5780717739621213e-07,-3.447089562720697e-08,6.533635948208946e-07,5.9455210380376946e-08,-9.197633817005908e-08,-4.4284354676737226e-08,-5.383461790545533e-07,-5.717140592910468e-07,-2.9498427428751327e-08,-3.7475258753564204e-07,-3.430124391450986e-08,8.371219783061091e-08,-1.835849601880849e-07,-1.0710769829567382e-07,1.4871649996577678e-07
-4.5643139768622623e-07,-4.551722815653168e-07,-3.6772078402766124e-09,-1.7456150022939906e-07,-3.833601580181251e-08,5.477714683757545e-07,1.4354280400115682e-07,-1.5699189289102473e-07,-1.5996229430436612e-07,-4.868777175866288e-07,-5.28405731854367e-07,-4.865843106649802e-08,-2.99976115233835e-07,-5.3104785836741986e-08,7.308158771240675e-08,-1.3182239200019632e-07,-1.0967189887660748e-07,2.0165483756147782e-07
-4.048210753157371e-07,-3.2008653049997386e-07,3.6698869745265834e-08,-9.302814886113248e-08,-2.4795080119361875e-08,5.087651694565949e-07,2.8105458379833093e-07,-1.8698520230864437e-07,-2.5957910633925473e-07,-4.466316712697991e-07,-4.975068776508954e-07,-6.451614841532011e-08,-2.5431450202538646e-07,-6.117010043749988e-08,7.634272947009742e-08,-7.485698686828574e-08,-1.1451815233208937e-07,2.4674021553537393e-07
-3.7117993161087284e-07,-2.9355847166601274e-07,5.619404042426432e-08,-1.610761837666323e-07,-9.854123074038435e-09,4.999992697354496e-07,4.193647831776227e-07,-1.8972611255322858e-07,-3.352835072317982e-07,-4.2542629435172336e-07,-4.82018802920344e-07,-7.439506670796811e-08,-2.4214442875375174e-07,-5.770559793567931e-08,9.472749116421296e-08,-1.3800190818926474e-08,-1.2027220480440247e-07,2.8731929118358505e-07
-3.605793330582959e-07,-3.0352091542226476e-07,3.303411270207799e-08,-2.520043272857919e-07,-3.8658517962482185e-09,4.514834221077876e-07,5.141406325088164e-07,-1.7919859983575536e-07,-3.6510225790007885e-07,-4.267436458489088e-07,-4.84438189409832e-07,-7.74421017375131e-08,-2.5977011512684143e-07,-4.4506889886039725e-08,1.2565062796401028e-07,4.666847823691582e-08,-1.2649475655785207e-07,3.263538313613007e-07
-3.739245023757361e-07,-3.070773907447676e-07,1.1648865343491965e-08,-2.6493152748220644e-07,-7.459925212488731e-09,4.2372694904522726e-07,5.463129823354524e-07,-1.705137668180793e-07,-3.7538200851642095e-07,-4.4968348633237957e-07,-5.021526196358431e-07,-7.350196816965827e-08,-2.9941051942457916e-07,-2.4807678984221252e-08,1.6369560782186174e-07,1.0125216639959058e-07,-1.3483791524839312e-07,3.639311931544867e-07
-4.0726019249580525e-07,-4.0282225953885085e-07,-5.377702761910947e-08,-1.8780812599140343e-07,-2.920645938097181e-08,4.6278308498456535e-07,5.207065088290504e-07,-1.5503703509744138e-07,-3.754068485089465e-07,-4.901525764730298e-07,-5.292102643011273e-07,-6.176485842630124e-08,-3.447994019906105e-07,-2.054377015732675e-09,2.0268330239483668e-07,1.4626904384764829e-07,-1.435751222504824e-07,3.96440312072472e-07
-4.522321200371395e-07,-5.524092167980711e-07,-1.194352779637682e-07,-2.62190748481719e-07,-6.037957421034063e-08,5.319798815873895e-07,4.5470371383304715e-07,-1.657926799452969e-07,-3.7166152067092806e-07,-5.317305091693719e-07,-5.622986884828914e-07,-4.1072342752898704e-08,-3.8316510158081354e-07,1.908935854950939e-08,2.378603907127628e-07,1.7966241401557765e-07,-1.5308567787561395e-07,4.192451880610824e-07
-4.988326283428632e-07,-6.731916575484139e-07,-1.7548373850496056e-07,-4.384451342284498e-07,-9.065672988277783e-08,5.624618747286687e-07,3.6862088073931353e-07,-1.8887931058300951e-07,-3.780794323429909e-07,-5.726763037005471e-07,-5.950242997997238e-07,-1.1524341961323613e-08,-4.0860821907726047e-07,3.785473485352586e-08,2.67858300371847e-07,2.001132047807086e-07,-1.5871525299162466e-07,4.29570665943573e-07
-5.394094920774966e-07,-7.411108740669039e-07,-2.1142541763551504e-07,-6.448626439597496e-07,-1.1538100529374093e-07,5.601824440091637e-07,2.801571418637621e-07,-2.036491174061608e-07,-3.9097353379203157e-07,-6.170296187688239e-07,-6.16853141414169e-07,2.4501394447324706e-08,-4.2321852556653364e-07,5.5994677270909366e-08,2.9554679772882537e-07,2.0563571162385908e-07,-1.589449343877439e-07,4.2753960333261784e-07
-5.709575000270317e-07,-7.65129889128296e-07,-2.2633898686971048e-07,-8.366176761220302e-07,-1.464369915479557e-07,5.399219545658899e-07,2.0055046186448353e-07,-1.7915725101832583e-07,-4.015177626481363e-07,-6.634670388474628e-07,-6.380489350953021e-07,6.28411242349645e-08,-4.3710588364603676e-07,7.471573213235117e-08,3.2686883322915583e-07,1.9827223999215667e-07,-1.463022427256367e-07,4.203444301403005e-07
-5.939822348545894e-07,-7.574859776954113e-07,-2.2831034226707677e-07,-1.018120010878667e-06,-1.664493833062183e-07,5.113568831653473e-07,1.3372324265779416e-07,-1.2200867843297358e-07,-3.943245632168717e-07,-6.880397867742854e-07,-6.719550688562551e-07,9.864269123781375e-08,-4.6065592666656484e-07,1.1577683393405216e-07,3.675573766280157e-07,1.9090035957560238e-07,-1.0959969061676684e-07,4.187321639826144e-07
-6.095954388587897e-07,-7.456713405948192e-07,-2.2945628329990663e-07,-1.1414285278990848e-06,-1.5899765161222507e-07,4.964263236201455e-07,8.039026082248883e-08,-4.32246919040901e-08,-3.824522915376769e-07,-6.936842791340102e-07,-7.085084735253965e-07,1.2699802013335888e-07,-4.988073136286679e-07,1.9301866088162686e-07,4.2025775358924904e-07,1.9139604729368786e-07,-7.092900760171225e-08,4.3175898348557647e-07
-6.176692000825509e-07,-7.408437629620034e-07,-2.472239425945596e-07,-1.2397339900707374e-06,-1.182135145679892e-07,5.294929534974853e-07,4.3953413789560186e-08,4.6912090841115945e-08,-2.975211696784605e-07,-6.275497026350388e-07,-7.509588339092224e-07,1.4348012236601782e-07,-5.441433368633687e-07,2.5138140646670047e-07,4.795212388583133e-07,2.1704199032980915e-07,-2.8338049355741468e-08,4.833351192390045e-07
-6.168038125801067e-07,-8.213833628043093e-07,-3.1015221472390966e-07,-1.3593964453256691e-06,-2.5889378645902376e-08,5.521452045483238e-07,3.325449116262275e-08,1.2017076345609745e-07,-1.2958007052610795e-07,-5.305428043865156e-07,-7.732054923800276e-07,1.4551487740219435e-07,-5.917891406301186e-07,3.042358418281029e-07,5.392173956441739e-07,3.337721289324764e-07,1.418008884384584e-08,5.984238788035768e-07
-6.050098959412875e-07,-9.310976711310421e-07,-3.7568879500017975e-07,-1.5063767564967065e-06,9.003699075772684e-08,6.316976131147227e-07,5.98511478602046e-08,1.9094226759200811e-07,9.7211160363501e-08,-4.5767116204035347e-07,-6.991125989974461e-07,1.3407606522896485e-07,-6.22890615212065e-07,4.0248000866519823e-07,5.900461256335798e-07,4.0607023046713366e-07,5.454084256178536e-08,6.783330355571106e-07
-5.806505516745789e-07,-1.1304302588041365e-06,-4.851405448018615e-07,-1.6818904383952164e-06,1.8543582486555869e-07,7.128981671168806e-07,1.2873760462419612e-07,2.486390351605236e-07,3.4181903472523746e-07,-4.257899146026739e-07,-6.477486862658983e-07,1.1384193052511779e-07,-6.214610517887961e-07,4.900212418866756e-07,6.098247730508644e-07,4.887652399446892e-07,1.0610127283731207e-07,8.256065863952591e-07
-5.441565360521387e-07,-1.3024332634978733e-06,-5.882595874277762e-07,-1.842772936363005e-06,2.2770402396323244e-07,7.88427410041925e-07,2.2632573755412221e-07,2.858406892690675e-07,5.501992202268503e-07,-3.907861385493208e-07,-6.182699184865628e-07,9.092729484090198e-08,-5.784932185159913e-07,5.219465651795327e-07,6.277936883072838e-07,6.303327428191684e-07,1.5107720802285002e-07,1.0103367751960932e-06
-4.991687534600801e-07,-1.4387838476151569e-06,-6.317954117425396e-07,-1.9050007440909266e-06,2.2437485516509008e-07,8.391730033389895e-07,3.1822413815227924e-07,2.8729560342666153e-07,6.262164462771548e-07,-3.12390913861837e-07,-5.995038072081394e-07,6.971771027703472e-08,-4.93829212125737e-07,5.465321737814443e-07,6.451778213261457e-07,8.205904823957378e-07,1.8637594138745299e-07,1.1869712570670982e-06
-4.5390743262569775e-07,-1.540951287677685e-06,-6.464538487596778e-07,-1.934788268433673e-06,2.728303626848093e-07,8.361266592306409e-07,3.6542869957746625e-07,2.7181941224839405e-07,6.336250985384787e-07,-2.0618550060856258e-07,-5.752891397671985e-07,5.141778382186772e-08,-3.930931194449569e-07,5.662607101155982e-07,6.288214433902941e-07,9.903462103803002e-07,2.164666723067445e-07,1.3392361399232135e-06
-4.169610136054286e-07,-1.5951715774961116e-06,-6.583078209588403e-07,-1.915102545755323e-06,3.8172207605581324e-07,8.407370990597235e-07,3.4900829217518274e-07,2.5400323430393184e-07,6.867643178875307e-07,-1.3788329554901452e-07,-4.771215614714206e-07,3.53154899886691e-08,-3.0780860776767054e-07,5.909990623962493e-07,6.084462743051389e-07,1.1378853535719796e-06,2.5027137261627945e-07,1.4685353774701536e-06
-3.9268757170220464e-07,-1.601614527047783e-06,-6.894855885999034e-07,-1.801781311795253e-06,4.4204901696479763e-07,7.899794145002101e-07,2.828853310783482e-07,2.3950201141347583e-07,7.838399568165885e-07,-8.344296127371357e-08,-3.81442751563066e-07,2.104923555757993e-08,-2.6653643513248446e-07,5.88126085701519e-07,6.111660661959014e-07,1.2731315828953402e-06,2.7283839803134277e-07,1.5724957355164759e-06
-3.806126063368766e-07,-1.572337750610046e-06,-6.425043839388146e-07,-1.684575323231007e-06,4.441596853894669e-07,7.387666026306525e-07,2.040524315294812e-07,2.42361675566695e-07,8.126003794451368e-07,1.5472221047724724e-08,-3.178290672580766e-07,9.426376660197029e-09,-2.552828637879381e-07,5.665645591771964e-07,6.259900627308437e-07,1.3943806592007277e-06,2.8387231378129185e-07,1.6545364986160463e-06
-3.7583180894084824e-07,-1.5183087717622296e-06,-5.713732713842379e-07,-1.5705466898319391e-06,4.520663531864402e-07,6.94385304887108e-07,1.4796486059481423e-07,2.5455788044296187e-07,7.525391646166747e-07,8.856461249131913e-08,-2.43183134862128e-07,1.4004862542800009e-09,-2.5732119017167596e-07,5.540736469511458e-07,6.493394871998907e-07,1.504439900422746e-06,2.860998606223965e-07,1.7209767752534554e-06
-3.7406617526441135e-07,-1.451263384358862e-06,-5.18810780963299e-07,-1.475975024088747e-06,4.4282290006325237e-07,6.680625962412196e-07,1.272673363405078e-07,2.744566894832555e-07,6.280030119107601e-07,9.886340148726584e-08,-2.0574090230639546e-07,-2.960963027001267e-09,-2.684005016330651e-07,5.395916602265268e-07,6.839124117707654e-07,1.605751555811995e-06,2.7455037280601575e-07,1.7778889350822615e-06
-3.740219653420459e-07,-1.3849013059581559e-06,-4.814430374936745e-07,-1.4093975808110532e-06,4.0726056129553973e-07,6.640165975884543e-07,1.277877491997489e-07,3.004384904100808e-07,5.268741681650233e-07,9.410425629690899e-08,-2.0311999479433555e-07,-3.965085187656027e-09,-2.825827989620807e-07,5.232844579229375e-07,7.256240880646755e-07,1.7004960995498222e-06,2.6840242992418544e-07,1.8303115402471208e-06
-3.762678001883923e-07,-1.3348652596135735e-06,-4.5558528107921674e-07,-1.3724253973980457e-06,3.802326193867737e-07,6.801063967698406e-07,1.2376400277693743e-07,3.3343312041696476e-07,4.5363849585590114e-07,1.0685075185058308e-07,-2.1980090427270342e-07,-9.216648137283582e-10,-2.9351198905133454e-07,5.254225656063927e-07,7.713700971523588e-07,1.7918559797156673e-06,2.6622572982129144e-07,1.8826585982001875e-06
-3.814974568000416e-07,-1.3093558019587206e-06,-4.436612572736498e-07,-1.3612920452619083e-06,3.5107150837811286e-07,7.107517650664061e-07,1.0255876281309715e-07,3.676813758723085e-07,4.463780566114902e-07,1.3571002753780857e-07,-2.329079884946776e-07,8.122744496654265e-09,-2.9859175571321184e-07,5.404673526091767e-07,8.189809779267733e-07,1.883734404072394e-06,2.6795182688786604e-07,1.9384745637570263e-06
-3.8972649958206933e-07,-1.3091012586222279e-06,-4.420567551974241e-07,-1.3689819280464594e-06,3.22993849896855e-07,7.495539650600419e-07,8.115662609618727e-08,4.0010208378827186e-07,4.952300120949853e-07,1.515654849374814e-07,-2.4054039298880027e-07,2.4836731819503354e-08,-3.0535584111536925e-07,5.665536135220397e-07,8.672801240169612e-07,1.9787788215863875e-06,2.814470695059558e-07,1.9991424781148418e-06
-4.003485870129275e-07,-1.3273818592462036e-06,-4.4572895619138025e-07,-1.3867103717591019e-06,2.9985079163999833e-07,7.901996737126113e-07,1.009432979989933e-07,4.3015028332199067e-07,5.830273336001592e-07,1.5781620888037532e-07,-2.5644091265505914e-07,4.877286366487153e-08,-3.1333071237107937e-07,5.998093709296039e-07,9.155643623974347e-07,2.0768529763190355e-06,3.020465907800849e-07,2.0647280649140892e-06
-4.116341091537015e-07,-1.3509780391751134e-06,-4.496925366613648e-07,-1.4042818807098608e-06,2.7658390105337607e-07,8.266167127821563e-07,2.0437208771228707e-07,4.5496847156834017e-07,6.887576381969546e-07,1.596119956378271e-07,-2.7471031923687144e-07,7.728673202172325e-08,-3.2475084599608707e-07,6.310809078727777e-07,9.635367917538495e-07,2.175138855580133e-06,3.233998606497748e-07,2.1343887227885485e-06
-4.2053043420451405e-07,-1.3630146222363178e-06,-4.4902711422052593e-07,-1.4106646809099678e-06,2.484491376684784e-07,8.536821073488448e-07,4.0984138104360965e-07,4.76037583187232e-07,7.737881093993878e-07,1.4879059908971445e-07,-2.879810492670118e-07,1.0722278176408431e-07,-3.360394006496617e-07,6.58753321176561e-07,1.0092724213650405e-06,2.2699166283745497e-06,3.438768744282219e-07,2.2069328685921364e-06
-4.226057610828838e-07,-1.3529096590649346e-06,-4.392005756496043e-07,-1.3960899994077785e-06,2.087954258348111e-07,8.681325393212811e-07,6.991647764951707e-07,4.964290558032302e-07,8.271576101760978e-07,1.3502162470927597e-07,-2.953385064281892e-07,1.3629434650966833e-07,-3.4676283449072057e-07,6.828786286808527e-07,1.0547430460053949e-06,2.35845155749201e-06,3.6198657706204156e-07,2.2790939838814257e-06
-4.140114541495286e-07,-1.3176737123879875e-06,-4.179166898636029e-07,-1.3552433105744304e-06,1.544139678241701e-07,8.68608782030798e-07,1.0226460602223101e-06,5.203169058764269e-07,8.444567344640739e-07,1.2253716408978482e-07,-3.001588562294136e-07,1.6272346377345787e-07,-3.586738336764185e-07,7.033653961185257e-07,1.101425618457848e-06,2.4396300720236023e-06,3.790800837096758e-07,2.349528232071416e-06
-3.94384202484978e-07,-1.2618828055001161e-06,-3.87103866828738e-07,-1.289731314151018e-06,8.783432338369335e-08,8.549343614573804e-07,1.3166265332200094e-06,5.514897517067594e-07,8.319425120442108e-07,1.1269010136520337e-07,-3.0375497222507173e-07,1.8415112566221027e-07,-3.7473958446965934e-07,7.20057896491416e-07,1.147728917887388e-06,2.5130456947650637e-06,3.9608966168013165e-07,2.4145574502906167e-06
-3.6698026873695767e-07,-1.198854061696622e-06,-3.5253722469296564e-07,-1.2077451939895327e-06,1.7535161885324242e-08,8.276883017466457e-07,1.5227966542555185e-06,5.903840320843124e-07,8.049464012871183e-07,1.0510388171951267e-07,-3.087039001122782e-07,1.977446504413576e-07,-3.9476733054592516e-07,7.318713073999015e-07,1.1898847189667622e-06,2.5775927407121764e-06,4.111845504715359e-07,2.4684664369983117e-06
-3.3680956642214504e-07,-1.1421442442357998e-06,-3.205281328729791e-07,-1.1204883835594418e-06,-4.5832161673322674e-08,7.887935952017028e-07,1.6031987027071695e-06,6.337514485233508e-07,7.784729794285698e-07,1.0530412834063723e-07,-3.139315769873528e-07,2.016733182892056e-07,-4.1625783130934465e-07,7.375387865805026e-07,1.2236551843749877e-06,2.6308082713507537e-06,4.2194431898578263e-07,2.5057203278533062e-06
-3.0761730307056087e-07,-1.1013150735936613e-06,-2.9431741725075707e-07,-1.0378312060785866e-06,-8.953010093716109e-08,7.428517428750524e-07,1.5505550217381124e-06,6.7562843100056e-07,7.63084277231821e-07,1.1157470453541768e-07,-3.189027269602644e-07,1.9612582496368303e-07,-4.365033632366998e-07,7.364936182275054e-07,1.241789387152331e-06,2.6695406743399283e-06,4.2671681589072956e-07,2.521588858647766e-06
-2.8042969642715965e-07,-1.083887846554683e-06,-2.734890802851694e-07,-9.662963499856327e-07,-9.87939518999906e-08,6.979528446514138e-07,1.3891060903381968e-06,7.08884892464631e-07,7.621373905320682e-07,1.2190703240872505e-07,-3.231945530333248e-07,1.8253040124083143e-07,-4.5517550265175074e-07,7.289576782174094e-07,1.2409060094170618e-06,2.6915697143384572e-06,4.2493212877915567e-07,2.5144516104468224e-06
-2.545376266053578e-07,-1.0883043407870172e-06,-2.5673871106166187e-07,-9.159959692696815e-07,-5.906562773205064e-08,6.647005512226688e-07,1.1599568873922187e-06,7.257512761262555e-07,7.714190683866681e-07,1.3589111766907425e-07,-3.271020627606347e-07,1.6193544360475346e-07,-4.7302783275921767e-07,7.156684166529753e-07,1.2223495785174588e-06,2.6969740402469e-06,4.168157821618532e-07,2.4856671482174313e-06
-2.3612972061750642e-07,-1.1119039939697139e-06,-2.449833864472664e-07,-8.91367213435069e-07,3.462734500609953e-08,6.533342791081647e-07,9.000540009063029e-07,7.185914421605319e-07,7.814874797970181e-07,1.4842642895689325e-07,-3.3640579873353216e-07,1.3462162644616192e-07,-4.968825052545585e-07,6.980314027393123e-07,1.1898804043877502e-06,2.688560084836665e-06,4.029158824973286e-07,2.441499828049853e-06
-2.2907861575082762e-07,-1.1547141016751773e-06,-2.4171029025943116e-07,-8.986257887606658e-07,1.7078231113670084e-07,6.699900930520541e-07,6.344065143929451e-07,6.820952824486804e-07,7.822797561459785e-07,1.558815684627726e-07,-3.552253188894303e-07,1.0156785185730586e-07,-5.22019061869948e-07,6.786816334091871e-07,1.1489149546962195e-06,2.6716016512723615e-06,3.852765742807371e-07,2.3917814919331614e-06
-2.3502083475137921e-07,-1.195081150370741e-06,-2.5052639864647166e-07,-9.42027858858057e-07,3.230364375242839e-07,7.137170214472978e-07,3.8673310328922263e-07,6.163301716532123e-07,7.674126024384724e-07,1.5653908834416396e-07,-3.879183525524492e-07,6.61131096128123e-08,-5.525123427805399e-07,6.616865577388975e-07,1.109304239035144e-06,2.65297183962673e-06,3.674026711695491e-07,2.3481050472254944e-06
-2.5747632748702713e-07,-1.24220085654954e-06,-2.7252746181860665e-07,-1.0293287641230328e-06,4.5505611366112344e-07,7.756041663080437e-07,1.9191547588986527e-07,5.284365520952809e-07,7.353398382991556e-07,1.5085777397993282e-07,-4.353278880930583e-07,3.3755386066708944e-08,-5.973538933597416e-07,6.516924694540138e-07,1.082331679866884e-06,2.639423906322531e-06,3.551977828971085e-07,2.315196384414953e-06
-2.9433805370811404e-07,-1.3069638256269144e-06,-3.056647905061266e-07,-1.1620740168988549e-06,5.333872646472471e-07,8.406043287578519e-07,9.158356588735097e-08,4.306255607682248e-07,6.870515247567579e-07,1.411740657353164e-07,-4.851440504383106e-07,9.952278699686541e-09,-6.556261900039827e-07,6.521341580125345e-07,1.071231271758831e-06,2.6356865037376203e-06,3.512992159886872e-07,2.2995008587616903e-06
-3.4283013904787434e-07,-1.3820345557827166e-06,-3.4584663345602317e-07,-1.3347048566245826e-06,5.385226896904079e-07,8.919323245630563e-07,1.1382016253412643e-07,3.3581211445300363e-07,6.231039029827599e-07,1.295876893026314e-07,-5.375326608131858e-07,-2.103841664717532e-09,-7.264632737942395e-07,6.636283415413213e-07,1.0779029725159704e-06,2.6431275152217953e-06,3.568625275337349e-07,2.3023618021537893e-06
-3.9628835357173773e-07,-1.4171298806048558e-06,-3.8789329237144633e-07,-1.521485600023302e-06,4.7076001981072184e-07,9.168436522619757e-07,2.5632032204380464e-07,2.5357869321678146e-07,5.432850193053617e-07,1.1680607968728303e-07,-5.874953757455129e-07,-1.7417258764265572e-09,-7.733479735769262e-07,6.83834825770082e-07,1.100782185667438e-06,2.660309429866865e-06,3.725125216029007e-07,2.324012541925179e-06
-4.4358685213606306e-07,-1.4274193272084845e-06,-4.254607267584326e-07,-1.6464904402593923e-06,3.5078271452633237e-07,9.111543534922314e-07,4.868306604876491e-07,1.887082757723405e-07,4.4924245697482775e-07,1.0253529159139664e-07,-6.379873611851179e-07,1.0660011762426106e-08,-7.805769062184543e-07,7.087364190287404e-07,1.1363612025283371e-06,2.684843727587768e-06,3.964811664322065e-07,2.3623369112210553e-06
-4.533918827195716e-07,-1.3484260805547607e-06,-4.512886641116224e-07,-1.6816630245117272e-06,2.1311869892815124e-07,8.795264627009858e-07,7.551403399169071e-07,1.419594193237136e-07,3.471558865083195e-07,8.649825160599823e-08,-6.639005940491658e-07,3.468217286729069e-08,-7.185363035058938e-07,7.338218356329108e-07,1.181824892964049e-06,2.7143024148677036e-06,4.3011902836889567e-07,2.4146758661455095e-06
-4.034628585451181e-07,-1.142560027531516e-06,-4.590946994924057e-07,-1.5298925027220254e-06,9.255978579733302e-08,8.307451697401781e-07,1.0051939506540056e-06,1.1132671934154998e-07,2.4566231556354195e-07,6.906557357318228e-08,-6.669379598705263e-07,6.902833614996885e-08,-6.458385530857503e-07,7.541324811744889e-07,1.231512512655917e-06,2.745424733408578e-06,4.727635712466876e-07,2.4783603917438523e-06
-3.0596669307071227e-07,-1.0508596526613626e-06,-4.460209205065974e-07,-1.3583012235338587e-06,9.227840001315055e-09,7.710986761577658e-07,1.1853237829850114e-06,9.255327863061582e-08,1.5866101268455343e-07,5.1604286927214034e-08,-6.29274583008076e-07,1.0999151296446729e-07,-6.080810855002852e-07,7.639996814444592e-07,1.279211375409835e-06,2.772895532472714e-06,5.201499315977216e-07,2.5518194209676077e-06
-2.2504107212870298e-07,-9.909892536521717e-07,-4.134779991456046e-07,-1.2470272437130856e-06,-3.6983471415692e-08,7.008623592635959e-07,1.2595035425424097e-06,7.941781011686964e-08,1.1015282665987032e-07,3.6963785652901096e-08,-5.397514792644724e-07,1.5144576700925266e-07,-5.681786110216847e-07,7.580183902458488e-07,1.3170981560085797e-06,2.7897308148570444e-06,5.591819911208479e-07,2.6334407307773164e-06
-1.9358725140916144e-07,-9.241998568388676e-07,-3.6599504301624825e-07,-1.2600108760890332e-06,-6.078095417517288e-08,6.161784398934904e-07,1.2173754521105758e-06,6.496766076454148e-08,4.799765854013426e-08,2.9538118005255403e-08,-5.361345343044223e-07,1.8684851901710944e-07,-5.459499813175756e-07,7.33361078263208e-07,1.3269860743243804e-06,2.7899148280994812e-06,5.784190333457821e-07,2.719980881096382e-06
-1.4174356003777623e-07,-8.818093366343547e-07,-3.096919617478206e-07,-1.2002396773172344e-06,-7.864860700522218e-08,5.140347608214536e-07,1.0762531460469695e-06,4.3846254664978226e-08,2.820101279325204e-08,3.385733971705828e-08,-5.668315356794006e-07,2.114000071633771e-07,-5.158209247234991e-07,6.915936172847048e-07,1.3286622509611013e-06,2.771678857233893e-06,5.684395213338131e-07,2.807472505037963e-06
-1.6678712479363104e-08,-7.342814596517127e-07,-2.5182106003051957e-07,-1.0133531692773221e-06,-9.792046727009019e-08,3.96326288995217e-07,8.729059341656738e-07,1.408652265658185e-08,1.0549284676428966e-08,5.175542477431761e-08,-5.40339358826923e-07,2.2258641634590169e-07,-4.207173240435679e-07,6.381408734116906e-07,1.3317179420147752e-06,2.738708773156294e-06,5.613775091663526e-07,2.889116732498918e-06
1.0483834826982554e-07,-5.513764087872975e-07,-2.01002361773389e-07,-6.948549545103577e-07,-1.1591436297109885e-07,2.706987173255982e-07,6.512115986470904e-07,-2.2694688181631193e-08,-2.186183811374044e-11,7.986174190903464e-08,-4.711813030281546e-07,2.1954833116528883e-07,-3.295744928509538e-07,5.797105800007333e-07,1.313538931587721e-06,2.698433084281501e-06,5.646070650550022e-07,2.9583018438088086e-06
1.7304941304965198e-07,-4.853088458522735e-07,-1.6632487855834361e-07,-4.934269450478542e-07,-1.259551144909166e-07,1.484704212702412e-07,4.523255800777422e-07,-6.262332741015862e-08,-1.4657400532475925e-09,1.0989393602198545e-07,-3.87956244434217e-07,2.0295695529651156e-07,-3.0321042703119965e-07,5.218228071602606e-07,1.2780220916514302e-06,2.6590805005427458e-06,5.68011438391578e-07,3.008968820990137e-06
2.0051993762953821e-07,-4.342120780569098e-07,-1.542084819448717e-07,-3.468253077165683e-07,-1.2426002568207658e-07,4.1629548783061615e-08,3.0726120259509065e-07,-1.01128586396328e-07,8.652030600220166e-09,1.3255169781466482e-07,-3.3775044447378305e-07,1.7571144425697524e-07,-2.710313601501646e-07,4.6799129564061974e-07,1.2397490365345421e-06,2.6272961831152503e-06,5.634334640885134e-07,3.0378507462413985e-06
1.9327361707005643e-07,-3.246128556506623e-07,-1.6479672319741582e-07,-1.7809601855504607e-07,-1.1217638364543196e-07,-3.757585231966032e-08,2.2797795900065048e-07,-1.3396477276803232e-07,2.993813071215233e-08,1.4244876314409398e-07,-2.8032466695227393e-07,1.4287656409344245e-07,-2.171408821369327e-07,4.2007782571354843e-07,1.2016083984889142e-06,2.6073380120126744e-06,5.597309751637687e-07,3.0454013576811155e-06
2.3625844524738338e-07,-2.060328590596381e-07,-1.9131866361018251e-07,-1.0605712929552e-07,-9.305333817109704e-08,-8.194507510715066e-08,1.9912803721176876e-07,-1.581200277756784e-07,5.875502154446491e-08,1.4024377719293302e-07,-2.821148485095014e-07,1.0976065438279575e-07,-1.7790389141870676e-07,3.7850973627524676e-07,1.1622958687136684e-06,2.600374775824423e-06,5.245299859734336e-07,3.036731904253485e-06
2.5363117578764154e-07,-1.1720917444604305e-07,-2.2355907389473922e-07,-1.9398612416090092e-07,-6.993575119620697e-08,-8.93870934319467e-08,1.8109065089226595e-07,-1.7284375821793976e-07,8.886117539034348e-08,1.3075892386194644e-07,-2.9013470891571355e-07,7.895013005133753e-08,-1.8432207211692734e-07,3.421167533346351e-07,1.1250576943273567e-06,2.6038096424058838e-06,4.850307765189659e-07,3.0158813919293046e-06
2.403278800582678e-07,-4.301492920109314e-08,-2.5271306178343817e-07,-3.7436994149105854e-07,-4.505807489404281e-08,-6.36242507274934e-08,1.303833299120614e-07,-1.8014619283427858e-07,1.1172556342844844e-07,1.1936027116847836e-07,-2.9576281250579903e-07,5.124016360734898e-08,-2.2280653302613186e-07,3.085220332544977e-07,1.0896274593094079e-06,2.6115845141687515e-06,4.474980312963092e-07,2.986254392895504e-06
1.9294941310637504e-07,-8.917629552222494e-08,-2.739278940587358e-07,-4.953130927556561e-07,-2.0543478967229584e-08,-1.4842877102560814e-08,2.7473778677856764e-08,-1.8361772048465038e-07,1.1769823011502621e-07,1.0948593376228765e-07,-2.8994572864228765e-07,2.5027130164285995e-08,-2.524345370076827e-07,2.756302856716042e-07,1.0545288273924292e-06,2.6155118301722045e-06,4.0034419154695554e-07,2.9495457710969967e-06
1.5470225800257997e-07,-1.6780600556399898e-07,-2.8577917898182876e-07,-5.727103074761509e-07,1.2020835423992118e-09,4.410804156349881e-08,-1.0877729516773754e-07,-1.85974773613228e-07,9.955845180970221e-08,1.0196156394682645e-07,-2.8015713055573975e-07,-1.455201219568817e-10,-2.665054280234971e-07,2.4331944204548924e-07,1.0242313426272362e-06,2.6076606536925785e-06,3.6362341277733274e-07,2.90679736180805e-06
9.684729208452615e-08,-2.5044465529985375e-07,-2.8913695272489573e-07,-6.265775889643397e-07,1.7808161632148336e-08,9.943825823220607e-08,-2.3366922844089045e-07,-1.8735845812869773e-07,5.7271063111014336e-08,9.484942344562335e-08,-2.7195090743725186e-07,-2.1670487582255296e-08,-2.7834738177673565e-07,2.1391322938338088e-07,9.993184198511272e-07,2.5827824188988697e-06,3.3311630182060815e-07,2.860156947506923e-06
1.848751514638364e-08,-3.5540716477080407e-07,-2.873885866628012e-07,-6.59329478896237e-07,2.6912637119655955e-08,1.4354824713016565e-07,-3.062475940716165e-07,-1.8605821029146767e-07,-3.212115557729833e-10,8.316421946403992e-08,-2.6704465216794263e-07,-3.7842557651198914e-08,-2.6375826292046776e-07,1.9111162352487782e-07,9.808609904879676e-07,2.5397495771099243e-06,3.046729288448811e-07,2.811033607234293e-06
-3.246985471581179e-08,-4.281924564003062e-07,-2.8698479793068447e-07,-6.88389866469451e-07,2.62687493086335e-08,1.7266270573467888e-07,-3.102394762791047e-07,-1.8098535218637082e-07,-5.991160414121798e-08,5.9523733104918936e-08,-2.752682897783269e-07,-4.689959590573124e-08,-2.448116444444113e-07,1.7844810235795865e-07,9.727704092406797e-07,2.4817623430173387e-06,2.8157012850963245e-07,2.7602597018550864e-06
-7.448276587792862e-08,-4.6856170909307184e-07,-2.9611658843459814e-07,-7.339223451134456e-07,1.4638001431368554e-08,1.8724274539078048e-07,-2.5401281565737245e-07,-1.733913952316719e-07,-1.1150333433710306e-07,1.700895899410354e-08,-3.009489236812426e-07,-4.877499474579784e-08,-2.4447960690258314e-07,1.7851090820797868e-07,9.763464491247156e-07,2.4158158801818887e-06,2.5999644622358787e-07,2.7082783502754344e-06
-1.1388645163737902e-07,-5.116730925863294e-07,-3.2139571982342385e-07,-8.117003876818484e-07,-7.028388700662325e-09,1.9307907363319313e-07,-1.601241024033979e-07,-1.6638764163620408e-07,-1.5342479645990335e-07,-4.6605881903988984e-08,-3.5299216556933733e-07,-4.4460860055888106e-08,-2.949477178696703e-07,1.9298237497669226e-07,9.911625967234716e-07,2.3512546088489743e-06,2.4154595652109285e-07,2.6550563885613457e-06
-1.5110877874290792e-07,-5.692924707785311e-07,-3.648782824684647e-07,-9.238574472815549e-07,-3.609520314074689e-08,1.9926167526987405e-07,-5.629326167333053e-08,-1.6280796172709915e-07,-1.9143053355577134e-07,-1.2614772211740459e-07,-4.3032921801150407e-07,-3.464521176556357e-08,-3.9314214467160055e-07,2.2242187158567496e-07,1.022883307150017e-06,2.2969774647846386e-06,2.2856345101919483e-07,2.600160948545713e-06
-2.0834325560724234e-07,-6.686021010620119e-07,-4.235834652335685e-07,-1.06597550715849e-06,-6.778632583565402e-08,2.1535849175997434e-07,3.236253500264226e-08,-1.634712911045869e-07,-2.3355789731375077e-07,-2.1000117469462662e-07,-5.224537685244917e-07,-2.042231782907053e-08,-5.199102408567881e-07,2.651925998868361e-07,1.0685822979452323e-06,2.2571881290778264e-06,2.2133129011771381e-07,2.542643870226563e-06
-2.9182997593013673e-07,-7.9015850950791e-07,-4.912564087063662e-07,-1.226895424154323e-06,-9.858876723341566e-08,2.523809993395263e-07,9.112318414001401e-08,-1.6639815102130338e-07,-2.841829143442699e-07,-2.84097210595569e-07,-6.150336463751711e-07,-4.202723364573286e-09,-6.555162897364183e-07,3.1802436943400396e-07,1.1213398059067816e-06,2.23108409712674e-06,2.1864425539873243e-07,2.477716336842434e-06
-3.721596483875119e-07,-9.217706517305942e-07,-5.603738173200145e-07,-1.3922503691624483e-06,-1.2120367851459412e-07,3.2095651310820707e-07,1.205857451202606e-07,-1.6744036976216584e-07,-3.3994160830993737e-07,-3.365744520188707e-07,-6.962428931788614e-07,1.0916277072243237e-08,-7.548811338921448e-07,3.713621303606687e-07,1.1651951533825455e-06,2.212145475806653e-06,2.1751976377221245e-07,2.399143904986382e-06
-4.490386478607939e-07,-1.0620931037060731e-06,-6.230516096558836e-07,-1.5563634968999007e-06,-1.2334566828290663e-07,4.2074969571738133e-07,1.3717715037772084e-07,-1.5612754295155728e-07,-3.8885681289017925e-07,-3.6131839753794244e-07,-7.285737317745361e-07,2.4023194559447697e-08,-8.035001990273918e-07,4.1812217237806514e-07,1.177839679708263e-06,2.1900501082796148e-06,2.1408097317507324e-07,2.2997441078945653e-06
-5.165409799816774e-07,-1.1716544036344321e-06,-6.716854469921307e-07,-1.6771104396601776e-06,-9.8774156751431e-08,5.286038843377288e-07,1.6820162416298984e-07,-1.2619462661220084e-07,-4.127243138797299e-07,-3.5994487789464926e-07,-7.422110442943676e-07,3.744299418705812e-08,-8.601331691862583e-07,4.499957180585646e-07,1.145376660042986e-06,2.153451150243159e-06,2.0511928929301738e-07,2.173290045846767e-06
-5.691318525384198e-07,-1.25743110440778e-06,-7.010740804056771e-07,-1.759567589440275e-06,-4.260485139428266e-08,6.344199919284002e-07,2.4023980302136494e-07,-7.048124571221066e-08,-3.9224033242788516e-07,-3.4204109073862003e-07,-7.777792086369581e-07,5.405896864455489e-08,-9.481246404486879e-07,4.3685859806881376e-07,1.1375883847445296e-06,2.091901295127239e-06,1.8792818605246639e-07,2.0193379312069343e-06
-6.170737049347717e-07,-1.322403949156088e-06,-7.117858263360014e-07,-1.8061133172590075e-06,3.208379403912324e-08,7.208409968257626e-07,3.650768649906627e-07,1.4620206401816192e-08,-3.139252169195904e-07,-3.228713381247515e-07,-7.648789309590299e-07,7.840916409144015e-08,-1.0252079123876993e-06,4.311227138452639e-07,1.1226054666281346e-06,1.9996961593553805e-06,1.6155894400353838e-07,1.841332199017826e-06
-6.646130497011143e-07,-1.3702691015130223e-06,-7.11629538116116e-07,-1.8263240290749165e-06,1.0015687592858794e-07,7.743143507834632e-07,5.330149022395571e-07,1.2300604659200588e-07,-1.7663979535711097e-07,-3.1816635640982685e-07,-7.229894930116168e-07,1.0006813802675371e-07,-9.864904099524225e-07,4.1801591423901044e-07,1.107013513837492e-06,1.8794676011571768e-06,1.2716972371317405e-07,1.6485993452135449e-06
-7.105608096807738e-07,-1.4310908389130312e-06,-7.123362275465558e-07,-1.8409538856276969e-06,1.3895988640485433e-07,7.944836414074473e-07,7.190079348553216e-07,2.4662160655728005e-07,5.214721899697437e-09,-3.376673241134019e-07,-6.94437415174361e-07,1.1465872527215336e-07,-9.262993361438987e-07,3.9162155484672996e-07,1.0648149154202384e-06,1.742765668474973e-06,8.810466327857143e-08,1.4544701274027438e-06
-7.598838939369687e-07,-1.5019327359134177e-06,-7.223532322564164e-07,-1.8702403233666062e-06,1.3476144809178627e-07,7.851964887742642e-07,8.951922407298022e-07,3.700947047441083e-07,2.0357739790112374e-07,-3.8092438829560066e-07,-6.877022629286608e-07,1.2298719526790795e-07,-8.662351408828165e-07,3.4273617548731294e-07,1.0031896888631575e-06,1.6057344346446813e-06,4.993683383546119e-08,1.274986134133127e-06
-7.892809691416726e-07,-1.5575371173208537e-06,-7.416517214817167e-07,-1.925593983477696e-06,8.904155410748206e-08,7.394204695544983e-07,1.039824732453651e-06,4.916602325743655e-07,3.831372034028219e-07,-4.380393357779041e-07,-6.918530299892597e-07,1.2136058669035028e-07,-8.114803037893116e-07,3.080135443501474e-07,9.305089531929014e-07,1.483816924005455e-06,1.859504634384225e-08,1.1241464433574216e-06
-7.730714024484312e-07,-1.5828905870516018e-06,-7.622554287078557e-07,-1.9186776887801566e-06,1.604365064439565e-08,6.591120480950681e-07,1.1396555091937788e-06,5.767618810925469e-07,5.10211205449755e-07,-4.962826052202731e-07,-7.032844133001529e-07,1.2467412893156962e-07,-7.881945050789498e-07,2.9253665017995064e-07,8.711541550065713e-07,1.3872371458664774e-06,-1.7946157736235302e-09,1.0102067167954665e-06
-7.172038885401449e-07,-1.4977804650558735e-06,-7.731637855115572e-07,-1.8902642808959645e-06,-4.11952970748908e-08,5.778320205229504e-07,1.188672982899171e-06,6.098938555334541e-07,5.623846980750999e-07,-5.421945765977709e-07,-7.124808374540895e-07,1.250031095679059e-07,-7.737843730488345e-07,2.8819856566861486e-07,8.196548851576749e-07,1.3182821190202583e-06,-1.056766435562909e-08,9.330863953184654e-07
-6.948722948192296e-07,-1.3402847888453147e-06,-7.657027145218803e-07,-1.746506354394474e-06,-8.297723548501085e-08,4.7027030864178823e-07,1.180979762824694e-06,6.572979094805203e-07,5.369015071593444e-07,-5.65252038087972e-07,-7.115953018803053e-07,1.1686461439236698e-07,-7.549913677262567e-07,2.8893556278712595e-07,7.908217896589292e-07,1.2710376372558216e-06,-1.032477404795237e-08,8.847192327906993e-07
-7.296969486459326e-07,-1.2429916531550357e-06,-7.351425150017514e-07,-1.4823992492398142e-06,-6.502888621452044e-08,4.0868086881082605e-07,1.1245999033835564e-06,6.816868360333522e-07,4.533872117727757e-07,-5.620125153676229e-07,-6.922714072887262e-07,9.875086691463864e-08,-7.301889717362257e-07,2.878479071929933e-07,7.64317207977972e-07,1.2328582831589297e-06,-5.773885690714607e-09,8.524168840375424e-07
-7.734999620434904e-07,-1.2887393017892793e-06,-6.809008956404366e-07,-1.5018881967735062e-06,-3.719453400169964e-08,4.1014868405104103e-07,1.0354596757547288e-06,6.668835452991061e-07,3.4667170352085374e-07,-5.340568297788168e-07,-6.458998990977485e-07,5.991693849373983e-08,-6.682172348202163e-07,2.7580300990054444e-07,7.241871172218233e-07,1.1872798930407066e-06,-2.2396177100962666e-09,8.222438316115288e-07
-7.898401951749011e-07,-1.3169645911464387e-06,-6.051057104651315e-07,-1.5820858571232616e-06,2.7354975093317287e-08,5.239900755146559e-07,9.132399012146102e-07,6.187346827787769e-07,2.541651812753015e-07,-4.831774486676132e-07,-5.727842339924523e-07,1.8089558747318697e-08,-5.656763970513991e-07,2.453331592106442e-07,6.544678520137693e-07,1.118299777076982e-06,-4.429331727340722e-09,7.825079955951997e-07
-7.37378147096701e-07,-1.3451341623010593e-06,-5.197784264274738e-07,-1.5922311940233583e-06,1.1838954815993625e-07,6.218243275376793e-07,7.47019359151274e-07,5.642555661935055e-07,1.96279446075884e-07,-4.2042455353669913e-07,-4.794789171845538e-07,-8.838560958409802e-09,-4.492634696717866e-07,1.9246983631508804e-07,5.848923793674786e-07,1.0144747293233331e-06,-1.6020782728743775e-08,7.254674068107449e-07
-6.537636132062546e-07,-1.2394492399285335e-06,-4.385646408842394e-07,-1.509019572925557e-06,2.108555690751556e-07,5.951115177586426e-07,5.146198434327237e-07,5.349545276770981e-07,1.7188616861852078e-07,-3.615277675042692e-07,-3.959104721051698e-07,2.5529226569058256e-09,-3.252153477070923e-07,1.2010362532595457e-07,4.831742348636543e-07,8.731596990743317e-07,-3.880424420398993e-08,6.475736428692128e-07
-5.921786789606438e-07,-1.144526546958561e-06,-3.730973894474767e-07,-1.4596611458855543e-06,2.595590019677765e-07,5.195061318516951e-07,2.1481875155000315e-07,4.796906834020275e-07,1.7177014557769744e-07,-2.9083399876403443e-07,-3.5272022197823677e-07,-2.84399053981404e-08,-2.886388564569944e-07,3.693826728028071e-08,3.986395833616586e-07,7.019976801570725e-07,-7.186470731228534e-08,5.493684464215317e-07
-5.683211204775339e-07,-1.128270444203919e-06,-3.532934392217175e-07,-1.49695184014979e-06,2.912046077892215e-07,5.228436068594544e-07,-1.2460399310227745e-07,4.417138780765317e-07,1.5592374530020384e-07,-2.613486793742038e-07,-3.713150375460695e-07,-8.417914084661838e-08,-3.2939017533351754e-07,-4.193297022904145e-08,3.381306069845488e-07,5.16733210487174e-07,-1.1169659564176612e-07,4.344521134393174e-07
-5.894509016371195e-07,-1.0850703067260043e-06,-3.7359506595345724e-07,-1.4662212224845758e-06,2.644823106707929e-07,5.544740447929744e-07,-4.0432935600541377e-07,4.2381093011542954e-07,9.214287639525165e-08,-2.898447683158192e-07,-3.8249405886199174e-07,-1.2255587955935852e-07,-3.404523125733223e-07,-6.124402348577966e-08,3.2499056134749227e-07,3.364857447524354e-07,-1.5410643752480347e-07,3.0713296586410207e-07
-6.196746111911887e-07,-1.1071963222572396e-06,-3.5576115550007863e-07,-1.4530347449983712e-06,1.9176215102287734e-07,5.783128921252023e-07,-4.779262158253228e-07,4.047385303347412e-07,8.53207149781956e-08,-2.827994016041469e-07,-3.8900436452641346e-07,-1.4798163324214954e-07,-3.125790670972567e-07,-5.5428169024248e-08,3.1083240437577126e-07,1.798026594110574e-07,-1.9537889733875782e-07,1.7237340299432132e-07
-5.809640968735547e-07,-1.1590066239473418e-06,-3.909336087828905e-07,-1.4312178245679725e-06,9.783517020885904e-08,5.453180083931838e-07,-4.810194531101901e-07,4.053271251058902e-07,1.071113465819565e-07,-3.2826881377856076e-07,-3.924186200033767e-07,-1.5980764914031103e-07,-2.79328308109255e-07,-4.5955633778867134e-08,2.702773768831093e-07,5.971182771055869e-08,-2.326800074712836e-07,3.535092762798156e-08
-5.672862508816019e-07,-1.1128172703262611e-06,-4.5796626187046665e-07,-1.3096275355646067e-06,-1.7525962180998118e-08,4.534825265815305e-07,-5.314740372631627e-07,4.218751369004919e-07,7.000103554684025e-08,-4.372938145874891e-07,-4.0775591936966494e-07,-1.6408659918799746e-07,-2.7800372459255824e-07,-5.2420468219937074e-08,2.34346674869013e-07,-2.1358666840516424e-08,-2.6420170190001255e-07,-9.973894167256011e-08
-5.95969464235885e-07,-1.0696411649655978e-06,-5.1486963456648e-07,-1.2424972718196836e-06,-1.295005901927478e-07,3.260672931506861e-07,-6.073641077459687e-07,4.561094917626922e-07,4.132395996764114e-08,-5.428122818866264e-07,-4.539848900273017e-07,-1.8481141239374264e-07,-3.4968903016578037e-07,-5.5003429640563055e-08,2.1277983726350146e-07,-6.648611856546338e-08,-2.8899453611244456e-07,-2.2952083617351533e-07
-6.634804664588093e-07,-1.0976180427871095e-06,-5.522615977718919e-07,-1.3470849471701064e-06,-2.2282175068237602e-07,2.8641399647896883e-07,-5.949352467658206e-07,5.140035425603732e-07,7.2682389933047e-08,-5.982791265012636e-07,-5.373555109502387e-07,-2.0723056929403426e-07,-4.698671721064448e-07,-2.1905830253261e-08,2.0567776640363806e-07,-8.460121512635268e-08,-3.07281226390137e-07,-3.430967861944016e-07
-7.496779572848929e-07,-1.249050473932592e-06,-5.760704313752024e-07,-1.4875337231925801e-06,-2.8526253838848393e-07,3.1641514321259964e-07,-4.565322420896855e-07,5.903774168142302e-07,1.5332682311848442e-07,-6.181621475064332e-07,-5.991758421569995e-07,-2.3032025560767977e-07,-5.680370351601081e-07,2.4587193467763456e-08,2.147365733841156e-07,-8.864204525425077e-08,-3.2033246094002143e-07,-4.394565722818485e-07
-8.379530227585105e-07,-1.4048569121290703e-06,-5.860065610725263e-07,-1.6046291423525155e-06,-3.035171876796311e-07,3.5369890000323977e-07,-3.798912173222478e-07,6.783683592550876e-07,2.5961749229995364e-07,-6.117797158430105e-07,-6.472766136829055e-07,-2.200684364446356e-07,-6.419560615252893e-07,4.8263197831758945e-08,2.1808085048410785e-07,-9.025313348538952e-08,-3.294451110821765e-07,-5.183108760171769e-07
-9.151531056879354e-07,-1.535494572142009e-06,-5.850423189589242e-07,-1.733830614912364e-06,-2.696629378696163e-07,4.254407012237045e-07,-2.813139955968528e-07,7.732953323348496e-07,3.706892113160894e-07,-6.01056287090481e-07,-6.651573083299753e-07,-2.0314849155937118e-07,-6.599119110969354e-07,8.047093379352887e-08,2.3028568683887906e-07,-9.725656124152944e-08,-3.347214139382339e-07,-5.772525571222094e-07
-9.52321236028737e-07,-1.6325883844142767e-06,-5.745394108644548e-07,-1.7471591838794741e-06,-1.825167427027392e-07,5.113758042382302e-07,-1.3177613933236165e-07,8.710013637784733e-07,4.639291929612319e-07,-5.83347120510062e-07,-6.542969703055153e-07,-1.8515096580133048e-07,-6.514680101452567e-07,1.0161674737158345e-07,2.365843280196897e-07,-1.1135419922760462e-07,-3.351470164099417e-07,-6.178517941536236e-07
-9.512345749293033e-07,-1.6306419741758052e-06,-5.544452242628042e-07,-1.7259032147242012e-06,-5.0155134715614036e-08,5.621475476747855e-07,-3.8793184719620135e-09,9.69424454148479e-07,5.268402327215446e-07,-5.622485336215812e-07,-6.315737311727266e-07,-1.4997339718379575e-07,-6.375630018240566e-07,1.1459078586873287e-07,2.3716359766545578e-07,-1.2769677317676458e-07,-3.297190990333723e-07,-6.381989958349775e-07
-9.272972689561458e-07,-1.5948573994810481e-06,-5.259414122777414e-07,-1.718464884741375e-06,1.0652134495407246e-07,6.305342697438841e-07,1.6328922274698508e-07,1.065631732055677e-06,5.613203185702154e-07,-5.414900112370445e-07,-6.006032874068696e-07,-1.213524332277094e-07,-6.225500841516865e-07,1.3024708766767622e-07,2.4513235020818675e-07,-1.3638238569790663e-07,-3.1858385101694074e-07,-6.373408556694908e-07
-8.843385156701206e-07,-1.566443236233231e-06,-4.926045095109685e-07,-1.7136368759662584e-06,2.60139002116218e-07,7.174693162048144e-07,3.804932019920619e-07,1.1559129232663154e-06,5.816135228169089e-07,-5.179491034473453e-07,-5.740315255790528e-07,-9.785376954976955e-08,-6.21034857064574e-07,1.416651712385617e-07,2.5757546151359854e-07,-1.2929999941687713e-07,-3.031293585240331e-07,-6.173815072604262e-07
-8.385641386774617e-07,-1.5323239345274198e-06,-4.588292622819546e-07,-1.7298276789448637e-06,3.832888566429326e-07,8.059073817142086e-07,6.34472086806119e-07,1.2357918085688333e-06,6.080093942875123e-07,-4.962914734359646e-07,-5.545566248680614e-07,-7.322209213907874e-08,-6.128295052587889e-07,1.5579314001991507e-07,2.769060242780136e-07,-1.0018342944005332e-07,-2.85021606318915e-07,-5.795514323893962e-07
-7.957554451191434e-07,-1.4859146524275024e-06,-4.272884592980558e-07,-1.7168431457242843e-06,4.5845729982840324e-07,9.053186942201899e-07,9.207506886739117e-07,1.3013770896396894e-06,6.586120886708928e-07,-4.780911934798769e-07,-5.421700866418256e-07,-5.461685300945243e-08,-6.015586150040238e-07,1.718522942981229e-07,2.9748435259029525e-07,-4.8787970313307975e-08,-2.657283130727047e-07,-5.28145890564412e-07
-7.560158244639281e-07,-1.4325259020039266e-06,-3.978255639203175e-07,-1.6801912149132198e-06,4.878315832927388e-07,9.968237051938145e-07,1.198479936645894e-06,1.3516088250066941e-06,7.411030122250196e-07,-4.6117799167122657e-07,-5.37478181885164e-07,-3.5115629031265474e-08,-5.934349071882515e-07,1.876154232397279e-07,3.184187809262101e-07,2.0417254144583348e-08,-2.465984233859133e-07,-4.7284717310116386e-07
-7.202550405169637e-07,-1.3752389654356032e-06,-3.6902375987775736e-07,-1.6318101977178132e-06,4.887757739697335e-07,1.048801901048513e-06,1.4388771834126476e-06,1.3873833561208263e-06,8.478704188927302e-07,-4.441167276397742e-07,-5.391514833588144e-07,-1.3448749584300386e-08,-5.879605891902359e-07,2.0343358227544854e-07,3.443795564327214e-07,9.614525250657801e-08,-2.2931066591595886e-07,-4.106550244148807e-07
-6.872835326643747e-07,-1.3156601710764718e-06,-3.4066992775363586e-07,-1.5714300754289456e-06,4.860756634906129e-07,1.073455502487617e-06,1.628675928375024e-06,1.4116638799129136e-06,9.58061302956818e-07,-4.272381326461151e-07,-5.452408739292603e-07,7.097245757957092e-09,-5.851535677223646e-07,2.185422140503301e-07,3.7070807971520787e-07,1.661777389501741e-07,-2.1523788580357753e-07,-3.48853487682263e-07
-6.559532915764351e-07,-1.2599555805714934e-06,-3.143033568452664e-07,-1.5000907826519971e-06,4.994272680990951e-07,1.078919956233465e-06,1.752832397983329e-06,1.4283775198035306e-06,1.0467271212618925e-06,-4.1197737059585645e-07,-5.533886604281435e-07,2.520800836272245e-08,-5.83813566465905e-07,2.3154506708169016e-07,3.9651070473738195e-07,2.2321811366076283e-07,-2.0476989785542757e-07,-2.918899924698927e-07
-6.252317215811291e-07,-1.1973386858213187e-06,-2.917352737580969e-07,-1.421589039348741e-06,5.340081573389334e-07,1.0607102763572773e-06,1.795602002408176e-06,1.4423238239318534e-06,1.0965519697716078e-06,-3.990138190419083e-07,-5.605598882366671e-07,3.9380571279844465e-08,-5.81232265279946e-07,2.4121673879286255e-07,4.212416936910123e-07,2.6646023411939826e-07,-1.9650346005700897e-07,-2.440805211079417e-07
-5.94677718704096e-07,-1.1289660709473005e-06,-2.729079679096212e-07,-1.3449312680941142e-06,5.816217874333641e-07,1.0352973137633113e-06,1.7516741859404263e-06,1.4583648036373465e-06,1.1051825482923723e-06,-3.875197524892283e-07,-5.630641029499363e-07,5.0327948318793425e-08,-5.734882606673458e-07,2.4709620928905565e-07,4.449035602845679e-07,3.013219670083816e-07,-1.8747583530164422e-07,-2.0357397513270786e-07
-5.632580083499317e-07,-1.0629492302540433e-06,-2.558663209578981e-07,-1.2778344164268129e-06,6.299850279059239e-07,1.0113912507292547e-06,1.6365084212741772e-06,1.4801262126239556e-06,1.083576782985774e-06,-3.764788338222498e-07,-5.575972177921398e-07,6.000530542344054e-08,-5.623347295771979e-07,2.491614721416306e-07,4.687306173922575e-07,3.345501611027295e-07,-1.7508379040137221e-07,-1.6756951812253844e-07
-5.304735983003983e-07,-1.0116762883973732e-06,-2.3900442439696645e-07,-1.2344327839069942e-06,6.733731955600534e-07,9.925338073100703e-07,1.4840369244571056e-06,1.5082361379216188e-06,1.0474866370548223e-06,-3.665132359355785e-07,-5.429480902569206e-07,6.901280015791516e-08,-5.459391204942468e-07,2.4703730654800426e-07,4.93021199955775e-07,3.7094426903692533e-07,-1.588642728266007e-07,-1.3046125799981763e-07
-4.980008827204782e-07,-9.764684900537084e-07,-2.2287063120280883e-07,-1.2083378985662718e-06,7.153056732013478e-07,9.824959299209883e-07,1.3315620506122791e-06,1.5395553913883903e-06,1.0094017969060472e-06,-3.598867868961317e-07,-5.208786658178177e-07,7.623844257109848e-08,-5.262726311882543e-07,2.3998077837655805e-07,5.160065044553053e-07,4.1091887007926683e-07,-1.4078395444346597e-07,-8.816240842056919e-08
-4.6862254171633246e-07,-9.547902923665485e-07,-2.0942461352275523e-07,-1.191422119288264e-06,7.631600687973063e-07,9.850560787846433e-07,1.211037242791915e-06,1.5688429319113275e-06,9.762433605795275e-07,-3.582681448446471e-07,-4.950594963148796e-07,8.059150676066059e-08,-5.087137721107121e-07,2.280587465461858e-07,5.344908888040183e-07,4.5071716860492044e-07,-1.2358751791451538e-07,-4.451434635529303e-08
-4.4424181257517504e-07,-9.437683205181352e-07,-1.996749165251795e-07,-1.1802842332440709e-06,8.174792952010582e-07,9.937663625446827e-07,1.1389697072882147e-06,1.5926485320675632e-06,9.514726828102093e-07,-3.603886663074031e-07,-4.688111212831865e-07,8.259114978805231e-08,-4.957238277991042e-07,2.132852755113553e-07,5.477445557241002e-07,4.865490419222278e-07,-1.0901636160001849e-07,2.230154974959834e-10
-4.248243865799918e-07,-9.358612526394732e-07,-1.9233496097650555e-07,-1.1689281482747112e-06,8.665074837369466e-07,1.0032769369183315e-06,1.1119262772632354e-06,1.6085495002180925e-06,9.372285016722375e-07,-3.6204145808583834e-07,-4.436383967280749e-07,8.37151131183035e-08,-4.875247245108714e-07,1.9915014384506799e-07,5.557716806397805e-07,5.133486156026792e-07,-9.751565616569066e-08,4.3185068628911456e-08
-4.0826937542252386e-07,-9.254816388449357e-07,-1.850316252257299e-07,-1.1544874551173099e-06,8.934731600024933e-07,1.0115058765407351e-06,1.1144074630272047e-06,1.6173920812096823e-06,9.34501672587353e-07,-3.586960525401427e-07,-4.1970263441365236e-07,8.406573878235357e-08,-4.808395404517662e-07,1.8842490596099117e-07,5.570433229839206e-07,5.257361871603057e-07,-8.912813753766898e-08,8.05042013017449e-08
-3.919646702164014e-07,-9.077356804362807e-07,-1.76780680088099e-07,-1.1323944476169217e-06,8.862802091078126e-07,1.015092396764009e-06,1.1246601241029088e-06,1.6194308560002183e-06,9.422232673099173e-07,-3.486067282373014e-07,-3.9746050735039736e-07,8.094922151452418e-08,-4.7083263212028747e-07,1.8103956935457978e-07,5.491170889744966e-07,5.2089918962129e-07,-8.464076077448865e-08,1.0844835263382083e-07
-3.74523044346298e-07,-8.797929153014932e-07,-1.6880220530232997e-07,-1.097053057701715e-06,8.451110047797685e-07,1.0135769446058076e-06,1.1215260559528851e-06,1.6130008590113074e-06,9.567359828060378e-07,-3.338726280421503e-07,-3.787211747615544e-07,7.036073728958839e-08,-4.545148721568084e-07,1.7424022535891436e-07,5.296037385367487e-07,4.97337885428571e-07,-8.523962834785903e-08,1.209926820096575e-07
-3.554630108431452e-07,-8.434691280565096e-07,-1.6297673947558716e-07,-1.046302599942867e-06,7.831737402729851e-07,1.006081219604235e-06,1.0924914753059009e-06,1.5981219503652586e-06,9.723091417157191e-07,-3.189331566111816e-07,-3.662929599170126e-07,5.0521630576837876e-08,-4.326511938767266e-07,1.651532874171783e-07,5.004195431195021e-07,4.506447349886167e-07,-9.123561259351071e-08,1.1266848938431543e-07
-3.3494992838483303e-07,-8.054666121629635e-07,-1.5988297251503199e-07,-9.843643483510781e-07,7.172971811639774e-07,9.921539901479294e-07,1.0440058239025447e-06,1.5749549589330943e-06,9.822795435858117e-07,-3.083163590889549e-07,-3.6301453028078654e-07,2.4277646903032433e-08,-4.09863927228094e-07,1.53391975157684e-07,4.6558153852511033e-07,3.830400827797147e-07,-1.0130238769037992e-07,8.242582402778702e-08
-3.1387828707201467e-07,-7.74601067255043e-07,-1.5842225731450433e-07,-9.233932532308562e-07,6.60774156187504e-07,9.763244568187485e-07,9.982384765458023e-07,1.5476680465838337e-06,9.80004190840115e-07,-3.054958962901776e-07,-3.7124775710974827e-07,-2.0058535466606987e-09,-3.930189934795955e-07,1.41412517384322e-07,4.30688196450935e-07,3.027150076675388e-07,-1.1371502215780746e-07,3.0717198844959933e-08
-2.942835674135272e-07,-7.661792316602669e-07,-1.5709675537611442e-07,-8.814153423530488e-07,6.227204878306093e-07,9.62892818417972e-07,9.824312748999455e-07,1.5226636586691212e-06,9.599395480189191e-07,-3.1283394596089264e-07,-3.9260598861427854e-07,-2.2174169378866506e-08,-3.887352090351235e-07,1.325478066462872e-07,4.0309043154960423e-07,2.1369403378052995e-07,-1.2740044820425252e-07,-4.031822515918866e-08
-2.80054541313942e-07,-7.867980241819904e-07,-1.5518298479267404e-07,-8.765111675327464e-07,6.124739554537966e-07,9.558229534662132e-07,1.0198710030188585e-06,1.5052804663811967e-06,9.190960689684876e-07,-3.313214141418528e-07,-4.268644951740377e-07,-3.344422784062736e-08,-4.009292091331499e-07,1.2859071238181244e-07,3.8595462666060013e-07,1.0711255705916294e-07,-1.423546012778896e-07,-1.1655992948588201e-07
-2.7552826523748494e-07,-8.336458091928386e-07,-1.5305051656129523e-07,-9.202729899819948e-07,6.401489365743296e-07,9.57461949470136e-07,1.1100206451942928e-06,1.4978057495424783e-06,8.600677584383606e-07,-3.595944520267053e-07,-4.70293679480107e-07,-3.671616905014142e-08,-4.292545158095656e-07,1.289855393792603e-07,3.7955693468914726e-07,8.002704323539501e-09,-1.5907814240116656e-07,-1.8529701643939133e-07
-2.8351417359877794e-07,-9.014999746432364e-07,-1.5100755999067127e-07,-1.0124218727089568e-06,7.110077988165783e-07,9.7246920960046e-07,1.221645612724629e-06,1.4990735564004615e-06,7.919213321570007e-07,-3.933725960566674e-07,-5.153290273606707e-07,-3.473839383945661e-08,-4.690590776570915e-07,1.319706007461404e-07,3.83349755925176e-07,-6.95237646712983e-08,-1.769929097137041e-07,-2.307301458408651e-07
-3.0416878345786497e-07,-9.781577023510283e-07,-1.4868274407714414e-07,-1.1394319438516071e-06,8.179553104599066e-07,1.003653015882597e-06,1.3060822626681429e-06,1.505511723686486e-06,7.269133976507582e-07,-4.266705363133827e-07,-5.527547247638089e-07,-3.0465838094736345e-08,-5.128088228291566e-07,1.3603198020975526e-07,3.9380717406871615e-07,-1.1757860092088655e-07,-1.9403735349771962e-07,-2.615358945379199e-07
