0,1,2,3,4,5,6,7,8,9,10,11,12,13,14,15,16,17
5.913286450671253e-06,2.514522136748077e-06,-2.92588521597096e-08,8.267657807358813e-08,1.588797114448153e-07,6.23240507017262e-07,1.46127176608668e-07,2.116675001246209e-08,-1.1240598900849944e-07,-2.6214568099415823e-07,3.206966378538123e-07,-4.333182647889345e-07,-2.5789551132022967e-07,-2.0837369100785398e-07,-3.7267243178205556e-07,-2.6279353003226145e-07,-2.604795777191348e-07,-1.29488476733739e-07
6.0601580387103045e-06,2.157102441960424e-06,-7.124092656683034e-08,6.089167327384077e-08,1.4801512066690097e-07,6.143290142196231e-07,2.2553577956557775e-07,5.792678548287813e-08,-7.187722582610602e-08,-2.0152980730099948e-07,2.678802834801014e-08,-3.259954503413128e-07,-1.697579110264773e-07,-1.5346107182463792e-07,-2.9018199805576994e-07,-1.7459065597289788e-07,-2.2461711083041766e-07,-1.4283920363598333e-07
4.568508738934553e-06,1.052414241910182e-06,-5.3995566536612885e-08,5.27127902759842e-08,1.1457588920774079e-07,5.816057937586576e-07,2.914531869060308e-07,8.121876280714081e-08,-3.600847418115429e-08,-1.3792802258988422e-07,-8.871243013423045e-08,-2.3662187360767544e-07,-9.610524861623288e-08,-8.54588089833086e-08,-2.3171065974638506e-07,-1.0470167882607987e-07,-1.7108681496319554e-07,-1.4848411635642696e-07
2.455660219315345e-06,1.3806103843072594e-06,-1.6570399320192973e-08,5.5254474436408367e-08,6.459709218712665e-08,5.272730786417291e-07,2.4732068727984436e-07,7.539484382035584e-08,-3.4897215470493805e-09,-7.306011889296573e-08,-9.856642594028372e-08,-1.4548709490600469e-07,-3.947031609590439e-08,-3.7972728253132605e-08,-1.7558330451298505e-07,-2.1612048893389165e-08,-1.1969681147975916e-07,-1.431231091708658e-07
8.297719851746315e-07,1.489471378126991e-06,-1.1279996958313824e-08,6.415064301862102e-08,7.400533533222859e-09,4.6168213426438265e-07,1.692909743247915e-07,5.68087944008178e-08,2.5255010253037918e-08,-2.133315459331218e-08,-3.4409824088955716e-08,-7.427178182415151e-08,2.1178448482782141e-10,-3.0233826956484886e-09,-1.1248283931920099e-07,7.186553762404224e-08,-7.303182770583644e-08,-1.2820070529301076e-07
2.5826773491365186e-07,1.5224759595323718e-07,-5.4580677654344146e-08,7.252983542408728e-08,-4.7423371059009116e-08,3.897711468274523e-07,1.3886500003513413e-07,3.934905191629273e-08,5.1382171896598524e-08,1.0296324659304399e-08,-5.820844104811459e-09,-1.9724376440952315e-08,2.192213710407268e-08,3.467826938022598e-08,-6.279089363069629e-08,1.2353568549315097e-07,-4.066933114354886e-08,-1.0415906913968215e-07
6.697366832016623e-07,-1.3248652580695552e-06,-1.3960678235677964e-07,7.308887767991015e-08,-9.247105467856603e-08,3.013467762742653e-07,1.001327974129227e-07,3.1403471492517996e-08,6.73182360016621e-08,2.2995985822107694e-08,-8.672735017642495e-08,1.8635531623239168e-08,2.654867802259815e-08,5.8804210463488404e-08,-2.23355724121738e-08,1.4434359968393581e-07,-1.773666759338007e-08,-7.975704167757647e-08
1.2605522345029068e-06,-2.2398133184818834e-06,-2.3813756038503198e-07,6.039826317225843e-08,-1.2332132885192871e-07,1.860388233796549e-07,6.210267946311144e-08,2.641031567656901e-09,7.069936795363326e-08,1.9454853424064657e-08,-1.9133993401849135e-07,4.481746963389074e-08,8.520079657301579e-09,7.99170793640643e-08,2.1578726921129645e-08,1.43601104713441e-07,3.619030878521454e-10,-6.197172736676648e-08
1.1692501257525305e-06,-2.439624564568985e-06,-3.0402113726621e-07,3.264619372415967e-08,-1.3809263175346593e-07,5.047277663610746e-08,3.5942422907607014e-08,-4.4466242170407994e-08,6.36940049372072e-08,1.1240041738120647e-08,-3.887044353263259e-07,8.407023893921692e-08,-1.3862869430279335e-08,8.832966781786974e-08,7.22068207705457e-08,1.4265691840049234e-07,2.099342685011897e-08,-3.845023003157513e-08
-7.735303878421825e-08,-1.947292685692191e-06,-2.890432349133733e-07,-7.1776405164426625e-09,-1.3656899656765138e-07,-9.584233128045211e-08,4.82157398808601e-09,-6.05166417249987e-08,4.8983952350251825e-08,8.330463820426816e-09,-6.034835334301699e-07,1.1840348393433016e-07,-7.31681177705691e-09,9.886415116993045e-08,1.275270195108919e-07,1.1640613514944295e-07,5.2113683757631665e-08,-6.010473896091991e-09
-1.8181666751898262e-06,-1.3447341472086461e-06,-1.8092843125246822e-07,-5.142725311856843e-08,-1.194765659872836e-07,-2.394404365897843e-07,-2.8290471845096165e-08,-5.1445450738048937e-08,3.6485501923901786e-08,1.907881446789582e-08,-5.649033604751334e-07,1.5619414853404536e-07,3.267757601833119e-08,8.797495458583783e-08,1.759075777878048e-07,8.709002145407117e-08,7.973626652961646e-08,3.944938079765437e-08
-3.5855829821963544e-06,-6.702008164291226e-07,2.793516453282677e-09,-9.08183786319822e-08,-8.781586213675969e-08,-3.849680334188869e-07,-7.668441710312293e-08,-5.295835399456249e-08,2.413611909247361e-08,4.5637519863117776e-08,-3.408736822249074e-07,1.9372664610886844e-07,9.405914201782956e-08,7.477194827674933e-08,2.1686061521025497e-07,3.8425122473746475e-08,1.1145395841235138e-07,1.1017773532595293e-07
-3.866426242855554e-06,-3.386437041879896e-08,2.1137058337974233e-07,-1.1699549291744119e-07,-4.189673384724638e-08,-5.293840407425905e-07,-1.5146897668643694e-07,-6.060488369884315e-08,5.99558004707839e-09,8.377938823049076e-08,2.1811552215485314e-08,2.0258204515337528e-07,1.3602706662026823e-07,5.46292363314714e-08,2.2450780215614238e-07,-6.865469199273357e-08,1.43094933733465e-07,1.610683928260578e-07
-3.31339501190919e-06,3.4832261896090203e-07,3.123842252201245e-07,-1.2342350438387267e-07,1.8952199966125228e-08,-6.7811952256052e-07,-2.49843394138667e-07,-6.176584811856156e-08,-2.0951002976833938e-08,1.261691666254502e-07,6.465226221869812e-07,1.910184687254218e-07,1.3839542932803229e-07,-3.0747766753595184e-08,1.7137385965147628e-07,-1.2958675663438778e-07,1.6306968664520523e-07,1.8505980395004308e-07
-4.1760125620778855e-06,5.023943516343045e-07,3.823530908649312e-07,-1.0520186181479058e-07,9.451802080158025e-08,-8.317791179898162e-07,-3.7877408608303887e-07,-3.6534823679781814e-08,-5.5678517647662356e-08,1.6298000190166435e-07,6.958520101188565e-07,1.5038587192807512e-07,8.928096590128146e-08,-4.180196895360746e-08,1.4306087133146553e-07,-9.011443269723616e-08,1.715517191183166e-07,2.2108499205008667e-07
-6.348255698163818e-06,4.0331001126780356e-07,4.797621494517852e-07,-5.930519769576066e-08,1.801279770743995e-07,-9.76226568437087e-07,-5.36530932635411e-07,2.3827526250820744e-09,-9.353901326853866e-08,1.8603422381867656e-07,6.918709691965899e-07,7.558493732856848e-08,3.6765809111637594e-08,-1.713009891785306e-08,1.147344061195553e-07,-1.5870329943336436e-08,1.649425633007162e-07,2.6564384835192363e-07
-7.075450290486485e-06,1.2104747401848092e-07,4.635378420312466e-07,1.3418824263981517e-08,2.655182611146852e-07,-1.1069828506781663e-06,-6.857102860226198e-07,3.587045332537894e-08,-1.2758889654692802e-07,1.884952450465958e-07,1.009583450214261e-06,2.6880788029626287e-08,6.518494200049796e-08,9.120678924365324e-09,1.0062733046864191e-07,5.328952501338121e-09,1.4117227485142537e-07,3.2489409592717844e-07
-7.3870193315785765e-06,-7.760807927644369e-08,3.891079356972368e-07,1.0535798545750085e-07,3.3866375765968717e-07,-1.2211508226257492e-06,-8.146801192567352e-07,6.3347345099412e-08,-1.5573761821914291e-07,1.6544889728296593e-07,1.4012854077651451e-06,-9.533246042361311e-09,6.743087958069334e-08,9.520487379249038e-09,1.0333703528255348e-07,-7.598697456321324e-08,1.0219037292119933e-07,3.753915501615053e-07
-8.352184067472567e-06,-8.410643512968245e-08,3.5640919157802474e-07,2.0280337708946088e-07,3.9194364132402375e-07,-1.3192616722021856e-06,-8.962396796680317e-07,7.442904200213567e-08,-1.791664036400495e-07,1.1968748630840413e-07,1.5114813756640835e-06,-9.43190242021768e-08,-1.8448912047098963e-08,-2.094473138888909e-08,2.7882533302099905e-08,-1.2946609174021321e-07,5.666597247857853e-08,4.227504967099225e-07
-9.832307826054736e-06,-3.684192013883604e-08,3.858134949689835e-07,2.8965212682447195e-07,4.261464486409045e-07,-1.3997563207953166e-06,-8.861870882852237e-07,7.378388852700432e-08,-1.9993382713774027e-07,6.988502106279241e-08,1.448635230054287e-06,-1.736984134438e-07,-1.0161391648410134e-07,-2.3224976916577836e-08,-3.215731468181697e-08,-8.937794825300185e-08,8.855633267350626e-09,4.483980675400777e-07
-1.1066199247150766e-05,-1.7750725611789402e-07,4.560378219677686e-07,3.535816175820681e-07,4.4962517271821103e-07,-1.4669422272384875e-06,-9.285258849602479e-07,7.000262885059125e-08,-2.2302307383344048e-07,4.282682593633733e-08,1.2580440894846367e-06,-1.898920398253496e-07,-1.53568563305898e-07,-1.6374601708894706e-08,-1.2880234070794804e-08,-7.689179978653262e-08,-1.9705420223836098e-08,4.4351599518303283e-07
-1.196630360538729e-05,-6.935191028324616e-07,5.541258759092211e-07,3.919918798418675e-07,4.7312749005033684e-07,-1.5232454802012759e-06,-9.899775561038714e-07,7.39590090485098e-08,-2.4508169227938065e-07,5.558711801314068e-08,1.1176397703336301e-06,-1.929033271112129e-07,-1.2909419693193236e-07,-8.04443117228493e-09,3.806686380559312e-09,-5.2780278569166306e-08,-1.166008458690868e-08,4.3964390307834786e-07
-1.1893699137630557e-05,-1.4967301288117994e-06,6.548933519093508e-07,4.1105391898033236e-07,5.035625370405266e-07,-1.5667245626375474e-06,-1.020088772551269e-06,9.65690723502515e-08,-2.5994053935686115e-07,7.444585089411287e-08,1.0783127693366132e-06,-2.0702579532430272e-07,-7.380545672045539e-08,-1.0312376372691169e-08,-2.8183271705706657e-08,7.197354218439046e-09,-1.7845175384815153e-08,4.593923259336395e-07
-1.0949377729836568e-05,-2.2175251058803555e-06,7.356797713856576e-07,4.234183608117413e-07,5.408407602061676e-07,-1.6050619609716024e-06,-1.0662580380220105e-06,1.356775165914091e-07,-2.6655014279553377e-07,7.813374027644646e-08,1.1382438096929921e-06,-2.3946875082502764e-07,-7.167760144325986e-08,-1.3473829432162265e-08,-2.421209892081257e-08,5.535685410872929e-08,-2.7357550791850876e-08,4.7553178736679597e-07
-1.0068251368052118e-05,-2.420903786947546e-06,7.832135408273479e-07,4.3758031198095684e-07,5.794363643066825e-07,-1.648359173069453e-06,-1.0964448160603813e-06,1.819736555708866e-07,-2.6682470420050474e-07,1.0024707507567459e-07,9.695475377958535e-07,-2.3192024470602474e-07,-1.4642423930462273e-07,-2.9301997390243903e-08,-2.6505825304053865e-08,1.0986639694614731e-07,6.150759116913985e-09,4.896035324258526e-07
-1.0252530122866079e-05,-1.8749912077897585e-06,7.949839509477486e-07,4.5533389823691304e-07,6.127150883141814e-07,-1.7025798322798217e-06,-1.0756518499703604e-06,2.2569484465894727e-07,-2.6118454904595895e-07,1.5419477736333912e-07,6.802383524219929e-07,-2.0251582138449687e-07,-2.0257227063616168e-07,-8.491505609118464e-09,3.0547921740042814e-08,1.8890218019216178e-07,5.208815388672005e-08,5.075615652413966e-07
-1.194277035233803e-05,-7.03667996619921e-07,7.763956418396077e-07,4.745381789262272e-07,6.367381813596773e-07,-1.7671533873810414e-06,-9.994830943753269e-07,2.61183423352573e-07,-2.4833208152346766e-07,2.1293424997181614e-07,3.000578394304151e-07,-1.288500016110123e-07,-2.5799123066821366e-07,3.7147112329670693e-08,1.5876995757947931e-07,2.612581432358934e-07,8.310934394481243e-08,5.044148979946612e-07
-1.4778117236043813e-05,6.531226882974398e-07,7.372161507557008e-07,4.932131327344453e-07,6.514460856844507e-07,-1.830503178426486e-06,-9.289056099961748e-07,2.8842929265251233e-07,-2.2866468098863403e-07,2.653368754367649e-07,-1.6248462015905885e-07,-4.9175258758542725e-08,-2.0137406563446636e-07,9.025692978821804e-08,2.8269179687771206e-07,3.577656421704195e-07,1.0548936283149544e-07,4.869272699459885e-07
-1.7887536407207345e-05,1.6191446609484716e-06,6.887198504786787e-07,5.131492460345668e-07,6.588292004110917e-07,-1.8826925173562022e-06,-8.778515763347119e-07,3.098613600652254e-07,-2.039606211745137e-07,3.13687201060518e-07,-6.222018863056929e-07,2.4846338084725865e-08,-9.62269477309718e-08,1.569768476044308e-07,3.7929952325543425e-07,4.4398202701816603e-07,1.2675204962143865e-07,4.591244768188716e-07
-2.023683482457325e-05,1.7210481113407354e-06,6.417030343257099e-07,5.36695900809535e-07,6.596207268948587e-07,-1.917937742017335e-06,-8.331735319942829e-07,3.2593649666862866e-07,-1.7298278216625376e-07,3.428488025421198e-07,-9.370547976460431e-07,9.705475868691745e-08,1.6880683912202946e-08,1.9953425450154294e-07,4.667242594437024e-07,5.375449377318864e-07,1.4519721706208494e-07,4.335128422646186e-07
-2.112926070080281e-05,8.044265620111416e-07,6.05362010274803e-07,5.630120461716614e-07,6.515867281061965e-07,-1.938272086506427e-06,-8.109940923243185e-07,3.336304520010245e-07,-1.4047541139445988e-07,3.5348435272190715e-07,-1.1061696239366767e-06,1.3978656982310035e-07,1.4111053574625295e-07,1.965206243706813e-07,5.31373743283359e-07,6.305794544388613e-07,1.57209867858854e-07,4.1442777226264533e-07
-2.0300566093526797e-05,-8.723383181961212e-07,5.864137648144909e-07,5.842443072243724e-07,6.317469695385905e-07,-1.9525703373119474e-06,-8.032465308705804e-07,3.286706644614005e-07,-1.1175241227392706e-07,3.4238335313567696e-07,-1.1669568701671116e-06,1.56186672520821e-07,2.0963968547903947e-07,2.527281655115392e-07,5.285153887650494e-07,6.988931095990518e-07,1.5855285601063782e-07,4.0595020151412205e-07
-1.8151662564339425e-05,-2.7184525685343717e-06,5.888487690261989e-07,5.967101614777115e-07,6.01033613742331e-07,-1.9666573658742697e-06,-8.005068980946796e-07,3.0942191007336784e-07,-9.434203982039955e-08,3.076652042369638e-07,-1.1273025562366224e-06,1.4809485389142698e-07,2.5120563956222346e-07,3.1393415472543045e-07,5.093821981592019e-07,8.252531500778958e-07,1.483167770218074e-07,4.109484167597209e-07
-1.530693078675209e-05,-4.029856522487597e-06,6.150191201606542e-07,5.930150443971468e-07,5.669878108779672e-07,-1.9849917765631374e-06,-7.854789684172238e-07,2.792480537580843e-07,-8.75810758327006e-08,2.709001280243075e-07,-1.0400916086063344e-06,1.202986263480394e-07,2.7061342648153294e-07,3.499830418097017e-07,4.977257094436786e-07,9.513408094516868e-07,1.3044321319048395e-07,4.220649735309899e-07
-1.2825017934458507e-05,-4.253184782689715e-06,6.666067317836514e-07,5.718957231526025e-07,5.410456549688249e-07,-1.9998956466021563e-06,-7.791761810873722e-07,2.453868068358248e-07,-8.546149148980615e-08,2.396828404772104e-07,-9.4485052659771e-07,8.589090777598789e-08,2.7172999018350786e-07,3.538091841263559e-07,4.797470972286352e-07,1.0355837713608254e-06,1.1196112340301748e-07,4.357792807192163e-07
-1.1717668441165906e-05,-3.169541169288504e-06,7.429041551180132e-07,5.388390127986613e-07,5.315975806631149e-07,-2.0203094740529754e-06,-7.688409105510348e-07,2.1523611931092495e-07,-8.232771315384944e-08,2.1338622596388913e-07,-8.070027485555082e-07,5.2219246110986136e-08,2.570727277698377e-07,3.5868966455263557e-07,4.644781807002936e-07,1.0521403717917525e-06,9.912191442986066e-08,4.431585655865301e-07
-1.2301892646694171e-05,-9.206219480853552e-07,8.368946584131296e-07,4.968448433135468e-07,5.38243965075268e-07,-2.0124760569894782e-06,-7.434969800894159e-07,1.9287402582496715e-07,-7.83777683965373e-08,2.033630449139997e-07,-6.898985821811437e-07,2.506887484825854e-08,2.372180050135407e-07,3.5209083178800414e-07,4.428575249077244e-07,1.0380894868616985e-06,9.452782243162303e-08,4.5917172407355047e-07
-1.4221999668380886e-05,2.075196448125568e-06,9.328590607737101e-07,4.441863614750218e-07,5.526692133277791e-07,-1.998874775582771e-06,-7.177378723424141e-07,1.786532029843749e-07,-8.3559219772103e-08,2.1789277012632998e-07,-6.358727959261863e-07,7.750411788944813e-09,2.2659190653572965e-07,3.36089036170113e-07,4.0517677028862453e-07,1.0254281680748875e-06,9.738581489655135e-08,4.977788483423284e-07
-1.6406060919699673e-05,5.22569562331042e-06,1.0120709275568356e-06,3.9205667455848724e-07,5.661936949138027e-07,-2.0270545904408437e-06,-6.881380824933895e-07,1.7167491251962907e-07,-1.0965084486621133e-07,2.448782829396093e-07,-6.364711812314208e-07,2.512097929623554e-09,2.2374101071969282e-07,3.301414319738057e-07,3.6498660390190205e-07,9.929443239096965e-07,1.0566458773540096e-07,5.234342978023743e-07
-1.807200611740074e-05,7.874277597840217e-06,1.05548433215901e-06,3.772585788522561e-07,5.776405554951947e-07,-2.094128186645365e-06,-6.66198101206823e-07,1.7246743692606432e-07,-1.7195940519892473e-07,3.061665287903195e-07,-7.285637734266073e-07,1.0883386368521062e-08,2.32879538030417e-07,3.3351514470638953e-07,3.307172023948177e-07,9.881245882658567e-07,1.1761627068108774e-07,5.649245980850272e-07
-1.8721974930163305e-05,9.45402382340669e-06,1.056015191966448e-06,3.8084062159325255e-07,5.946138454248549e-07,-2.2534843919415944e-06,-6.654633734021557e-07,1.832974391325617e-07,-2.2196889947029244e-07,4.0579409336859873e-07,-9.110610157533422e-07,3.800839847921013e-08,2.4862704401041e-07,3.496237411602444e-07,3.0538996850585877e-07,9.83638300920865e-07,1.3115901666343739e-07,6.434607443653405e-07
-1.8153597824081045e-05,9.672148650117822e-06,1.0325565389751202e-06,4.3244824095176905e-07,6.268305848139288e-07,-2.4420444761209513e-06,-6.939393474069299e-07,2.0601981429725631e-07,-2.676856083790703e-07,4.437508688370411e-07,-1.1599586179193073e-06,8.234128173020272e-08,2.7343055219118425e-07,3.7913984464667716e-07,2.989563724991081e-07,9.751807438693833e-07,1.4261485969937554e-07,6.87867766071706e-07
-1.6362247553209018e-05,8.639568120670963e-06,1.0188591197572074e-06,5.132500315043055e-07,6.773498883939889e-07,-2.6132168919183554e-06,-7.504237372751694e-07,2.397086512218256e-07,-3.199239470893628e-07,4.5486809542138213e-07,-1.4457607729717532e-06,1.383497426343149e-07,3.115205967195207e-07,4.160178389111338e-07,3.1894570384271833e-07,9.636169270565183e-07,1.4714973835400391e-07,7.224097494405232e-07
-1.3240080477310385e-05,6.8505397873107284e-06,1.0502608118849783e-06,5.324255708231146e-07,7.385034991718331e-07,-2.7140405701198308e-06,-8.32800900498674e-07,2.803602693606808e-07,-3.6081404555419346e-07,5.009653388809667e-07,-1.7368570037359008e-06,2.006397432654183e-07,3.544638437498181e-07,4.568417866656294e-07,3.647414152409245e-07,9.246014838500878e-07,1.414750864251671e-07,7.514966813763535e-07
-8.933066556331319e-06,4.981917796287873e-06,1.1484496869960764e-06,5.918040375490287e-07,7.95650674423306e-07,-2.8769270826207546e-06,-9.280025408011424e-07,3.229082152170521e-07,-4.0961010368087804e-07,5.949941789381962e-07,-1.995709871884036e-06,2.515228336677081e-07,3.980632762325089e-07,5.019668276834391e-07,4.1919407397039524e-07,8.766060411788625e-07,1.2643637421263575e-07,7.669592598857133e-07
-3.9845029695493676e-06,3.609727339599786e-06,1.3079244927422002e-06,7.115615391496145e-07,8.351977544993208e-07,-3.14899534009856e-06,-1.0212912991759806e-06,3.63540803102631e-07,-4.828242179068663e-07,6.748463499216716e-07,-2.1743693522980045e-06,2.8822968799324625e-07,4.373342360012981e-07,5.399546917301049e-07,4.827822985846947e-07,8.133762249548709e-07,1.0680680390309868e-07,8.025113343804666e-07
5.91706812455821e-07,3.0166999129688028e-06,1.4697685211245625e-06,8.181625198182401e-07,8.506355620053761e-07,-3.4200127636740367e-06,-1.0992361199725737e-06,4.002015421602615e-07,-5.381796838889488e-07,7.404373975245156e-07,-2.3138644380661287e-06,3.1602720955724566e-07,4.62470041921455e-07,5.727403213145275e-07,5.51340526911642e-07,7.60986107002981e-07,8.80942430731804e-08,8.424228981015663e-07
3.7485875728951082e-06,3.1686479758482646e-06,1.5926890913988326e-06,9.248329697908539e-07,8.432882573564129e-07,-3.661923834832218e-06,-1.1494667859474206e-06,4.313356189071081e-07,-5.75350357343441e-07,7.964991691838466e-07,-2.4489046259776934e-06,3.3575955307374613e-07,4.72642374057808e-07,6.032263362971416e-07,5.98406034326902e-07,7.606711502793298e-07,7.276978966977157e-08,8.624404261525626e-07
5.015021891870562e-06,3.799297013997421e-06,1.6682156561595401e-06,1.0016429783647414e-06,8.18727644372102e-07,-3.850505007506665e-06,-1.1684937539287983e-06,4.5480832426507773e-07,-6.031099247336815e-07,7.665595032597581e-07,-2.618798580426226e-06,3.2591745442375303e-07,4.567685753902598e-07,6.277754239687461e-07,5.91973186107522e-07,7.860117315461737e-07,5.910315161269365e-08,8.724603771456978e-07
4.4071726779373154e-06,4.52056738510814e-06,1.665191730699672e-06,1.0535362873427747e-06,7.826635239254252e-07,-3.9365756403871985e-06,-1.1586883843855239e-06,4.686436384562937e-07,-6.503718955907927e-07,7.274439183139492e-07,-2.781744827318714e-06,2.9148732260593396e-07,4.146278887534979e-07,6.449458056431054e-07,5.144458706987441e-07,9.326934404249474e-07,4.350517108256782e-08,8.929186145945372e-07
2.5757672246611173e-06,4.92030956832927e-06,1.6340424445742658e-06,1.09498539456342e-06,7.393184398162369e-07,-3.965286429617234e-06,-1.1241209246461282e-06,4.7298527754544525e-07,-6.774701541924062e-07,7.057637042453293e-07,-2.8596692250497932e-06,2.3207374569185717e-07,3.2727964717623277e-07,6.496037198320402e-07,4.281969768810497e-07,1.054781227209063e-06,2.358988793959102e-08,8.960197886400625e-07
3.971522976754379e-07,4.663661826554299e-06,1.5831523530341363e-06,1.1083917705824642e-06,6.921244561638163e-07,-3.953883037618193e-06,-1.069020250651923e-06,4.7097586324866227e-07,-7.094150796800805e-07,6.761380302533375e-07,-2.8131261639647497e-06,1.3612102081214188e-07,2.2411507902839653e-07,6.3024350336958e-07,3.4752090685817316e-07,1.120402404534929e-06,-8.367067991607776e-10,8.942147685048086e-07
-1.494776371669153e-06,3.6276048200459815e-06,1.4638104778856882e-06,1.112011891902983e-06,6.4446653060225e-07,-3.9276919350135286e-06,-1.0052595412404358e-06,4.672506450048465e-07,-7.618317695784507e-07,6.530234800303814e-07,-2.6196682972526007e-06,5.990004773440092e-08,1.1461516865443878e-07,5.878691746859506e-07,2.533689351644189e-07,1.1257212749151623e-06,-2.9195764707560035e-08,9.063893204756724e-07
-2.8750914569702874e-06,1.999488179175786e-06,1.3132408694488257e-06,1.1005559230004004e-06,5.990246564553746e-07,-3.897074343260726e-06,-9.315382592807569e-07,4.6549921936602687e-07,-7.92437928810142e-07,6.001059326068723e-07,-2.391159888456376e-06,3.0133497155742253e-09,3.216591797301486e-09,5.527878364819743e-07,1.7909638765509722e-07,1.0795089299340667e-06,-6.196502935599157e-08,9.074630895356565e-07
-4.161249798930003e-06,2.0581494504882987e-07,1.1183272005612321e-06,1.0844404750405334e-06,5.564706727232147e-07,-3.9399351594050235e-06,-8.448217698029584e-07,4.6595266839884415e-07,-8.168309860745314e-07,5.570533733206444e-07,-2.1394135508880103e-06,-4.9648501015409395e-08,-7.36646348707129e-08,5.268678181725025e-07,1.6616427041198836e-07,1.0031512375547437e-06,-1.0068013475957741e-07,8.993681757537108e-07
-5.735884919084273e-06,-1.3094361272919506e-06,8.967202500196192e-07,1.0674047492431784e-06,5.15126113247962e-07,-4.013945739536035e-06,-7.543398235467784e-07,4.660343733628278e-07,-8.522872044415234e-07,5.131165795947828e-07,-1.8330862757314559e-06,-8.670162518274682e-08,-1.2916177155073197e-07,5.035668765366843e-07,1.360806044984263e-07,9.064536819374085e-07,-1.461091783856396e-07,8.835284598802062e-07
-7.832582681562241e-06,-2.2679451648122125e-06,7.154469150377616e-07,1.0454966829449203e-06,4.724324261573117e-07,-4.0050149653078666e-06,-6.666794588129823e-07,4.6319775433868265e-07,-8.576162942093729e-07,4.54437729002872e-07,-1.3799387877456834e-06,-1.311618417229102e-07,-1.726094990734978e-07,4.818307759548494e-07,8.209348642116417e-08,8.412103827604569e-07,-1.966496251841066e-07,8.62516783336011e-07
-1.0368177208904234e-05,-2.59496251434608e-06,5.695445442559231e-07,1.008756788522365e-06,4.27457681517738e-07,-3.965916640240008e-06,-5.868805704138526e-07,4.5518308791787487e-07,-8.419746577230597e-07,3.862789417368367e-07,-8.001346784151831e-07,-2.1407189482147682e-07,-2.237305500024523e-07,4.294824763212251e-07,-2.7372625203553253e-08,7.728317238188181e-07,-2.4873403771143887e-07,8.3922059474832e-07
-1.3005550769981856e-05,-2.387121393945438e-06,4.5970111177563207e-07,9.575292577629385e-07,3.8240505705177543e-07,-3.882434908245577e-06,-5.148895765038886e-07,4.3989798957683735e-07,-8.249506339346215e-07,3.2929080084557483e-07,-2.5345385561495777e-07,-3.0401694941912656e-07,-2.3008266395285333e-07,3.5472485382014687e-07,-1.3410504101033445e-07,6.846329517186441e-07,-2.9875227630945533e-07,8.031186288910031e-07
-1.5423919258956605e-05,-1.8884978526864504e-06,3.7988040239809555e-07,9.241194373807442e-07,3.420772180534931e-07,-3.746864162352644e-06,-4.461260673722807e-07,4.160041451052526e-07,-8.110500846404127e-07,2.5887394990632506e-07,9.058185935021252e-08,-3.7151663405965923e-07,-2.3194944985472308e-07,2.945707103530579e-07,-1.9561303800711238e-07,5.78878385006741e-07,-3.444931665677411e-07,7.481677059683966e-07
-1.7188110075851014e-05,-1.4490512905663058e-06,3.056996409430212e-07,8.937490014027732e-07,3.1213114175061994e-07,-3.602477127619512e-06,-3.6584558091425075e-07,3.829791285753516e-07,-7.786638769037008e-07,1.9394566573487436e-07,4.949275687938801e-08,-4.1200942561345093e-07,-2.147728693633892e-07,2.479462627969034e-07,-2.1200124802802988e-07,3.8406765284007153e-07,-3.848042587437069e-07,6.918546391959494e-07
-1.7755646151325833e-05,-1.4370152615544317e-06,2.3171288621692746e-07,8.556760118360542e-07,2.9813331008070993e-07,-3.5094395731931215e-06,-2.630373973658797e-07,3.4026432433399067e-07,-7.443540025355195e-07,1.7189778857875725e-07,-4.551718664910285e-08,-4.373904310509152e-07,-1.5170796749593388e-07,2.4297498300168447e-07,-2.532797279815973e-07,1.722393905458495e-07,-4.178198252703803e-07,6.317464763584265e-07
-1.664042994235998e-05,-2.1290908199244885e-06,1.5508904365274616e-07,7.79369755262081e-07,3.055870818295206e-07,-3.427899281798542e-06,-1.334430062424635e-07,2.9648628371255217e-07,-7.072178389233715e-07,1.3530434508354242e-07,-2.907980202492719e-08,-4.513670217682819e-07,-1.8513884049010703e-07,2.7947054009968847e-07,-2.753616326231466e-07,9.303255861248184e-09,-4.4090522833765983e-07,5.678070235675104e-07
-1.3760217195341343e-05,-3.5964485352199016e-06,7.644418189205861e-08,6.753476768613313e-07,3.389137177278923e-07,-3.415395515707406e-06,1.3171064251138492e-08,2.604294200664382e-07,-6.685756494982377e-07,1.1265707404740048e-07,8.946027451242872e-08,-4.7178338111276125e-07,-2.5082708555690356e-07,2.467822110783679e-07,-2.7236629285481294e-07,-9.236658859026654e-08,-4.5262286601249533e-07,5.086439396912838e-07
-9.725235298026554e-06,-5.61339999461203e-06,8.524835644682747e-09,5.62604873362948e-07,3.984264326259361e-07,-3.503591420453799e-06,1.5976457325126e-07,2.3448677492745267e-07,-6.400622916142342e-07,8.03744821751343e-08,2.4163343346158466e-09,-5.028184963525614e-07,-2.963786775948118e-07,2.206022544091618e-07,-3.434958071485607e-07,-1.3060578242626264e-07,-4.5500055842615455e-07,4.543020533799355e-07
-5.537776691487746e-06,-7.67427469566204e-06,-2.589212757481002e-08,4.861959852630815e-07,4.774129748882557e-07,-3.4619532645400834e-06,2.836888415473579e-07,2.4657550312446257e-07,-6.227617776950432e-07,1.971271393277337e-08,-2.0072158555501208e-07,-5.550496830943494e-07,-3.350828023614989e-07,2.0058723127635716e-07,-4.450574729036881e-07,-1.3375387243114004e-07,-4.5358002239632745e-07,4.092349147304085e-07
-2.309412623186811e-06,-9.181107385791964e-06,-3.1866384815475457e-09,4.984697286699509e-07,5.626797237462939e-07,-3.421302714189411e-06,3.076987211853617e-07,2.7356344609636024e-07,-6.199494958700992e-07,-1.2170654305853498e-08,-6.412910053868689e-07,-5.56677185262334e-07,-3.342275836341066e-07,1.7866548640380393e-07,-4.937825565245122e-07,-1.1274601447296281e-07,-4.5441854351308573e-07,3.786735060919582e-07
-9.401522404945439e-07,-9.724097173005969e-06,8.704199382433622e-08,5.122556195836252e-07,6.390010891516374e-07,-3.4061704936252163e-06,3.096197251023298e-07,2.922598007534982e-07,-6.279100428613382e-07,-1.6757285804013478e-08,-1.0618045039707553e-06,-4.926738315480098e-07,-2.573729084659854e-07,2.3013972813109372e-07,-5.358654674505296e-07,-1.109592304407753e-07,-4.603667563167603e-07,3.7007887402178593e-07
-1.8354840737903527e-06,-9.280292905331763e-06,2.3147828568582604e-07,4.966984710064543e-07,6.944232196331518e-07,-3.482851750929177e-06,3.306463654029626e-07,3.0388336801512836e-07,-6.587698835508801e-07,2.493832729076496e-08,-1.38966289784496e-06,-4.4870166159292537e-07,-1.8547289909323627e-07,2.947565771247971e-07,-5.434215671979774e-07,-1.5680583872388476e-07,-4.698344155221604e-07,3.759733644177656e-07
-4.775630950053745e-06,-8.20639347267097e-06,3.9501660449223595e-07,4.137586011470617e-07,7.234916134892809e-07,-3.6557831289685834e-06,2.946225052077014e-07,3.123787459520699e-07,-6.904724698895457e-07,8.364397049867147e-08,-1.6837556429995845e-06,-4.277642331897549e-07,-1.5319059705795667e-07,3.618640957082942e-07,-5.087826086041588e-07,-1.8946015862784014e-07,-4.791944343405438e-07,3.909014859025121e-07
-8.820404305991019e-06,-7.027401325083237e-06,5.355566968091401e-07,4.069603099000448e-07,7.275778049135819e-07,-3.7606227802925907e-06,2.3608630016426628e-07,3.168330699506383e-07,-7.122463479522285e-07,1.3191715507494e-07,-1.7973766128430024e-06,-3.5857019920318335e-07,-7.482341888822494e-08,4.415953021840636e-07,-4.6377858932735743e-07,-1.560565002675985e-07,-4.862487823866343e-07,4.0225898983560254e-07
-1.2658974722722945e-05,-6.144849413215203e-06,6.227258502992816e-07,4.6981697695401606e-07,7.131087385960265e-07,-3.790716840210945e-06,2.2238417741600135e-07,3.21651662960443e-07,-7.209731516490569e-07,1.5607886115573183e-07,-1.7935331090551973e-06,-3.522985127211595e-07,1.2830341812688252e-08,4.835109702730925e-07,-4.4341034670863264e-07,-2.7366283100875618e-08,-4.915778647029162e-07,4.046151869067912e-07
-1.4970726073311732e-05,-5.656546861804073e-06,6.498155175323392e-07,5.265707959533387e-07,6.896172734254119e-07,-3.843585080953958e-06,2.625421287538545e-07,3.2286620745037884e-07,-7.117471842980813e-07,1.6860875084524453e-07,-1.7410704481971657e-06,-3.859106000638016e-07,4.975328350619644e-08,5.04219560673584e-07,-4.4954130739490107e-07,1.0739401126335557e-07,-4.967381139201215e-07,3.964895745103771e-07
-1.4919942956460121e-05,-5.404758450368861e-06,6.331518750516016e-07,5.940139927302996e-07,6.68946546645345e-07,-3.875895879493553e-06,3.3707497092262e-07,3.1905815383672447e-07,-6.965266623018955e-07,1.7013370042462786e-07,-1.6922170747134251e-06,-4.0035875190825267e-07,6.222826689314648e-08,5.07601304570465e-07,-4.704303217350432e-07,2.0036944526638608e-07,-5.01493793472712e-07,3.755863104808212e-07
-1.2458067688618594e-05,-5.169950272924647e-06,6.003665536869557e-07,6.565578849306597e-07,6.645830009439711e-07,-3.754135958371884e-06,4.373791760162226e-07,3.127210614307043e-07,-6.793147646881376e-07,1.567756427541125e-07,-1.733073768600316e-06,-3.8214287123687826e-07,9.269491373344805e-08,5.063368765292242e-07,-4.865993482184967e-07,2.8029387375900573e-07,-5.031973863413162e-07,3.5541751278823337e-07
-8.254335450362955e-06,-4.819080195007211e-06,5.748017813526092e-07,6.716099947555295e-07,6.888033276273587e-07,-3.60294457474383e-06,5.471118044273318e-07,3.0719126316346213e-07,-6.581850653501967e-07,1.6188844368992633e-07,-1.8738486269434079e-06,-3.213621298507777e-07,1.7068900997226132e-07,4.975132668074954e-07,-4.6542212461548286e-07,2.9139491527815975e-07,-4.992245911127509e-07,3.3624088933292566e-07
-3.3507331161677136e-06,-4.327710437044284e-06,5.648549564801374e-07,6.543688311118901e-07,7.472337310836309e-07,-3.4919499427820156e-06,6.438638901353897e-07,3.072509060138373e-07,-6.449444118622331e-07,1.922140737820958e-07,-2.0955646941160612e-06,-2.465724142297072e-07,2.716235924625908e-07,4.840896105851193e-07,-3.8382497761012663e-07,2.6954030525047337e-07,-4.902319063224233e-07,3.196765918244464e-07
1.276123827244406e-06,-3.750148507525612e-06,5.639681566625439e-07,6.131183083452622e-07,8.342358841585264e-07,-3.4403801409111073e-06,7.140546109479156e-07,3.1327161799305893e-07,-6.422721491719779e-07,2.3666322652482035e-07,-2.3633259118448573e-06,-1.5927585192486838e-07,3.580344371448001e-07,4.739571212778674e-07,-3.146342258404346e-07,2.405044101743441e-07,-4.809969690408857e-07,3.115849416220816e-07
4.9638623622523985e-06,-3.204943046411612e-06,5.606887756826281e-07,5.546138648685203e-07,9.336324900436387e-07,-3.4310449276372427e-06,7.504984047929949e-07,3.2073032588618594e-07,-6.510659626550131e-07,2.7865173273192017e-07,-2.643688932212356e-06,-8.138118224989982e-08,4.1931371322352335e-07,4.646307062991052e-07,-1.8975717701229797e-07,2.1243330002322698e-07,-4.775400001750845e-07,3.124301211086182e-07
7.3764287370448264e-06,-2.850256749527603e-06,5.506569471460855e-07,5.013037413434965e-07,1.0253677092886578e-06,-3.4641055167796605e-06,7.523990799260255e-07,3.241743024511601e-07,-6.76241369043733e-07,3.2557961238539957e-07,-2.9187512815885156e-06,1.3652344466093007e-08,4.472394462559223e-07,4.6212123729307906e-07,-5.996568331802952e-08,2.1526758957106224e-07,-4.831765876694467e-07,3.2089979686609587e-07
8.423921621974311e-06,-2.82128786445861e-06,5.40719173282523e-07,4.5707089362111424e-07,1.0934865208389074e-06,-3.5377273386463944e-06,7.290804659338535e-07,3.2083428901133816e-07,-7.147815084765868e-07,3.632189946454414e-07,-3.176679088606053e-06,9.048261028224942e-08,4.438830974250965e-07,4.683904647683698e-07,5.976183540374314e-08,2.558166990608311e-07,-4.969114600670932e-07,3.3572817832143874e-07
8.207609029297369e-06,-3.1566190083362275e-06,5.426770711932031e-07,4.2286540575463746e-07,1.1300362102510136e-06,-3.636394220248251e-06,6.926980273556836e-07,3.11647059448891e-07,-7.605781237040224e-07,3.9618232208051424e-07,-3.4014721229575274e-06,1.3545639569705303e-07,4.154024364096442e-07,4.840944467895226e-07,1.4393074724322784e-07,3.394026928923331e-07,-5.152126013436882e-07,3.548305152481334e-07
6.96931849975374e-06,-3.7573735463469767e-06,5.628557548486612e-07,4.040664309017288e-07,1.1335895656294566e-06,-3.7456101878192274e-06,6.569829040398925e-07,2.9916576002429044e-07,-8.08047812869612e-07,4.1514519277359645e-07,-3.5748816261569665e-06,1.4881470511740733e-07,3.736743717657197e-07,5.036801390724703e-07,1.7025296762954598e-07,4.63230236237516e-07,-5.354265762127757e-07,3.715998054675637e-07
5.0282899388330615e-06,-4.414044256886528e-06,5.958081760290927e-07,4.006422831924369e-07,1.1057995095127727e-06,-3.852092127165601e-06,6.319067758635852e-07,2.847131039294636e-07,-8.518764460770889e-07,4.1523686974952916e-07,-3.6708947768627585e-06,1.3215935654952965e-07,3.2236412116345423e-07,5.269672210137345e-07,1.2463007689536847e-07,6.101495075036532e-07,-5.578645032799603e-07,3.8021252106705656e-07
2.7779249471176174e-06,-4.901615028883812e-06,6.260605109471685e-07,4.0933822226164297e-07,1.0501823900218606e-06,-3.946578092328758e-06,6.266941225346255e-07,2.675785939228462e-07,-8.857966840129247e-07,4.0157536523820366e-07,-3.6762402389683993e-06,6.951516510052231e-08,2.6134196670056604e-07,5.444578056189954e-07,8.445697885645926e-08,7.563015439625378e-07,-5.847897086026302e-07,3.7568136153790737e-07
7.523581542827085e-07,-5.090291389864117e-06,6.362538722620878e-07,4.234688926659142e-07,9.73841913022658e-07,-4.021635733744247e-06,6.393671891020921e-07,2.4675346055503476e-07,-9.093738312440014e-07,3.677260771165988e-07,-3.5953171606821467e-06,5.8247909699267064e-08,2.268052695187821e-07,5.466434384331151e-07,7.876120267663294e-08,8.776308620195462e-07,-6.173157693890995e-07,3.542483275033821e-07
-4.41718791237655e-07,-5.008766692764498e-06,6.167714053680471e-07,4.340005681799848e-07,8.891517826451962e-07,-4.0697970870037055e-06,6.648032828979468e-07,2.2299590930352553e-07,-9.225049111701538e-07,3.2876894268704444e-07,-3.456865167442697e-06,6.460949294334917e-08,2.0847833310229983e-07,5.334978965463182e-07,1.0119882002145491e-07,9.600014784320175e-07,-6.532011425384278e-07,3.2052704683932797e-07
-3.648879551021955e-07,-4.833437087832093e-06,5.71130564718193e-07,4.3362592485265416e-07,8.11916775837511e-07,-4.085383571124988e-06,7.014121758955131e-07,1.9893439203667445e-07,-9.256926142074533e-07,2.871195959807154e-07,-3.2971204979201546e-06,2.7385142207863727e-08,1.9354222395798822e-07,5.080166849654931e-07,1.1424372974149632e-07,1.0031731189874501e-06,-6.874999110305481e-07,2.801901972593781e-07
9.929909692482978e-07,-4.81955060650786e-06,5.139763498267984e-07,4.1869000254776123e-07,7.55685981829808e-07,-4.067572154036625e-06,7.458058205819488e-07,1.7708809642692592e-07,-9.229768544892484e-07,2.293765988668541e-07,-3.138359589861759e-06,-2.6136006832625405e-08,1.8034652216631924e-07,4.771814321907107e-07,1.6506103095257304e-07,1.0171114088146624e-06,-7.15501861327524e-07,2.392373514901495e-07
3.158383293325898e-06,-5.20659215464705e-06,4.63511270550474e-07,3.9122381290355793e-07,7.256313042343132e-07,-4.021446074689686e-06,7.955510552882969e-07,1.5773708246032586e-07,-9.191246178275759e-07,1.6879609577583819e-07,-2.991454935809112e-06,-1.0271336927032553e-07,1.509425288437768e-07,4.459078406121809e-07,1.8472122724998264e-07,1.0154190243712067e-06,-7.35441295054072e-07,2.026671259648971e-07
5.330663591005744e-06,-6.108112330570071e-06,4.3377143986266296e-07,3.5796476291227765e-07,7.167168192593498e-07,-3.957337872307188e-06,8.459506945297707e-07,1.388259108369582e-07,-9.147326086413775e-07,1.0006008201659211e-07,-2.8418891485288915e-06,-1.8933586552738178e-07,8.285599436841027e-08,4.145961724144058e-07,1.5283037310489725e-07,1.0088855043694283e-06,-7.4875048487739e-07,1.696713687356084e-07
6.610616331712529e-06,-7.405694257512894e-06,4.3012559530572787e-07,3.2741004057859617e-07,7.177364234328759e-07,-3.88635010558613e-06,8.955574709620711e-07,1.1812614491838197e-07,-9.133605042301336e-07,2.5251895961614955e-08,-2.665320564069895e-06,-2.5831959100315175e-07,5.632269714580973e-09,3.8139125593776775e-07,8.304075296731081e-08,1.002489387135471e-06,-7.580964165277703e-07,1.4150953470991208e-07
6.237351421333018e-06,-8.728825469273787e-06,4.472228400488649e-07,3.063541107203017e-07,7.180388062516634e-07,-3.8175173685989105e-06,9.435290465199974e-07,9.552410983906584e-08,-9.117820028072182e-07,-3.8972850953236254e-08,-2.446055257133247e-06,-3.239324564720234e-07,-8.19437559385391e-08,3.454104173252939e-07,-6.076042470631458e-09,9.961613058090247e-07,-7.654471813196116e-07,1.1887825684381061e-07
3.848558522379857e-06,-9.590888192165411e-06,4.686319248018807e-07,2.9583690317431824e-07,7.126036094273811e-07,-3.75291516882182e-06,9.909883780268652e-07,7.319032765583141e-08,-9.080511762977056e-07,-9.770047551028774e-08,-2.1940033085866578e-06,-3.806939487542421e-07,-1.9287058541387825e-07,3.084742457747234e-07,-7.117610819885347e-08,9.877342162621236e-07,-7.719633505147603e-07,9.907304252056625e-08
-3.134656362863301e-07,-9.626982989504923e-06,4.698017106655009e-07,2.8923074090338143e-07,7.030949527977225e-07,-3.690372233046437e-06,1.040674324198055e-06,5.3596669666839887e-08,-9.031409055719118e-07,-1.510928971345516e-07,-1.9522200032638325e-06,-4.480775361417062e-07,-3.007486215541343e-07,2.740129154342684e-07,-1.0941257007219209e-07,9.743619167901393e-07,-7.788073597420034e-07,7.782200635952797e-08
-5.444389057835891e-06,-8.780571466185722e-06,4.25064439349811e-07,2.7398620341141287e-07,6.948358217748576e-07,-3.626909745711571e-06,1.0916363878288457e-06,3.76741413410727e-08,-8.971693727298381e-07,-1.9905140002301894e-07,-1.781705766846862e-06,-5.291013365098638e-07,-4.0477402972176974e-07,2.455607329125854e-07,-1.5662615255308423e-07,9.536018456641149e-07,-7.87094397449959e-07,5.065253672154754e-08
-1.0361036110730911e-05,-7.320529656056828e-06,3.168314337264369e-07,2.380876591810181e-07,6.921040235440819e-07,-3.5613489293408122e-06,1.1401252550142862e-06,2.498951308373439e-08,-8.930883251149734e-07,-2.4526131241165384e-07,-1.730676593516525e-06,-6.112332628255104e-07,-5.018136926986577e-07,2.2559143297445577e-07,-2.0052764706988175e-07,9.253205223267206e-07,-7.964356647068413e-07,1.5353233718232896e-08
-1.3946551325855288e-05,-5.688555108995247e-06,1.4400165325206973e-07,1.7677528102165139e-07,6.951960668152822e-07,-3.494791373182854e-06,1.1798890001136043e-06,1.5448742234496292e-08,-8.927308944060789e-07,-2.853891975621687e-07,-1.8038715791116717e-06,-6.654696974155987e-07,-5.799465684193281e-07,2.1519758825592778e-07,-2.382564562419994e-07,8.921140716899333e-07,-8.0367614517719e-07,-2.5510319747238213e-08
-1.5610157479528015e-05,-4.265985365524205e-06,-7.444204728574687e-08,9.701418756413375e-08,7.004978766391976e-07,-3.429046699663332e-06,1.208089314623485e-06,1.0220035190329378e-08,-8.965850322820061e-07,-3.1439797931413724e-07,-1.95712497255549e-06,-6.983678717878709e-07,-6.208959110814163e-07,2.1374148781067292e-07,-2.452120482978628e-07,8.591186341703835e-07,-8.042201208165464e-07,-6.442324356774619e-08
-1.5460617176314498e-05,-3.189253560222992e-06,-3.036936951404169e-07,1.4418850221110384e-08,7.021904832883263e-07,-3.366789990001637e-06,1.2244073664967625e-06,1.0509760408225712e-08,-9.01629610636813e-07,-3.296748430083241e-07,-2.1167498161598333e-06,-7.131673419722133e-07,-6.363819856639485e-07,2.1783126398361342e-07,-2.2644128293462457e-07,8.314262908826899e-07,-7.953730803699115e-07,-9.352952265628197e-08
-1.412687296516406e-05,-2.3416768378247324e-06,-5.037956903925828e-07,-5.391827193205417e-08,6.942351539457616e-07,-3.311152278975714e-06,1.2298144400810663e-06,1.5528780526390057e-08,-9.061502823523033e-07,-3.322968920509541e-07,-2.2094644607296435e-06,-7.097343669733152e-07,-6.310843191062503e-07,2.2159445957001055e-07,-2.030716461435854e-07,8.109912437529329e-07,-7.787008208871542e-07,-1.073514948626336e-07
-1.2347046659833106e-05,-1.5411308418972333e-06,-6.414358293770061e-07,-9.62709807832716e-08,6.727579071506298e-07,-3.2658975207404006e-06,1.2283342118109852e-06,2.2161519524860484e-08,-9.07096025591373e-07,-3.270334392533703e-07,-2.1971457625174083e-06,-6.997536303193958e-07,-6.036866434053295e-07,2.1959621344977953e-07,-1.849198876926731e-07,7.966446771814551e-07,-7.587821563527286e-07,-1.041216488015328e-07
-1.0666102343078967e-05,-7.678692958679651e-07,-6.97504671012628e-07,-1.1039466511488187e-07,6.39069432290228e-07,-3.23268337610459e-06,1.2240459576282327e-06,2.7235099719276166e-08,-9.000158843954197e-07,-3.1867539873709323e-07,-2.0889559058233138e-06,-6.795485421316554e-07,-5.672567838244976e-07,2.0951049293807828e-07,-1.8206868130811657e-07,7.867684685721398e-07,-7.391323533257036e-07,-8.577483100023633e-08
-9.396355216182972e-06,-2.2817964674593116e-07,-6.680619928723353e-07,-1.0236588657818489e-07,6.016454593779545e-07,-3.208403766366631e-06,1.220784610724032e-06,3.035958085638586e-08,-8.891285852469516e-07,-3.085404675811494e-07,-1.9315639943419103e-06,-6.492156234414739e-07,-5.223491943339189e-07,1.952605914585169e-07,-1.8590778439233328e-07,7.822680181654773e-07,-7.19091721256201e-07,-5.544005855791597e-08
-8.738834561644886e-06,-2.0095072187732637e-07,-5.604052102421888e-07,-8.175221563661301e-08,5.744013886199823e-07,-3.185518965296957e-06,1.2227915235135906e-06,3.4402700437404734e-08,-8.743869206390941e-07,-2.940145792135789e-07,-1.7806193573274102e-06,-6.082886020535542e-07,-4.7007956128854107e-07,1.8509169560533533e-07,-1.8502750500237975e-07,7.858254833128147e-07,-6.946031267181435e-07,-1.62900807913635e-08
-8.821391957858195e-06,-8.046400310049625e-07,-3.892982169509539e-07,-5.699934028410685e-08,5.710824781750651e-07,-3.155758206793264e-06,1.232511962002247e-06,4.292108653591265e-08,-8.543548293874394e-07,-2.719301961392255e-07,-1.6682907733472933e-06,-5.610444485944175e-07,-4.117749531349781e-07,1.8590643680821487e-07,-1.7390496190664724e-07,7.988863980853168e-07,-6.62229828364243e-07,2.7724633060049564e-08
-9.64807426755587e-06,-1.8718777470963691e-06,-1.772215124109134e-07,-3.32135466680909e-08,5.989230709920149e-07,-3.1144306136601963e-06,1.251106042939174e-06,5.690014816545486e-08,-8.315688300623734e-07,-2.427231285921145e-07,-1.5989616435954794e-06,-5.07772363392067e-07,-3.582901443463981e-07,1.9906462857113813e-07,-1.545310431481238e-07,8.187898614934707e-07,-6.22801693320706e-07,7.103308338405298e-08
-1.1048353858395968e-05,-3.0151280173044017e-06,4.441703451452398e-08,-1.2156725023236763e-08,6.556930368169765e-07,-3.061672345759557e-06,1.275027356579494e-06,7.386583768394157e-08,-8.078835232437847e-07,-2.1133894981010944e-07,-1.5614791635448464e-06,-4.544028242038047e-07,-3.2453783817293084e-07,2.203477925146042e-07,-1.29273268618344e-07,8.395915822997655e-07,-5.815148027336816e-07,1.0709750950065636e-07
-1.2632667833220708e-05,-3.824839105470552e-06,2.400811753305461e-07,6.4142295296972985e-09,7.31968751228197e-07,-3.0010035129587826e-06,1.3024920485903538e-06,9.005669836216457e-08,-7.854427980653501e-07,-1.8388646567626452e-07,-1.5453112403332183e-06,-4.089740213159865e-07,-3.015732528522588e-07,2.437026010958491e-07,-1.0195811201550311e-07,8.561511169541776e-07,-5.445853385402482e-07,1.3101097161992121e-07
-1.3775068963184646e-05,-4.075257847421958e-06,3.8132372616509534e-07,2.3936069781787186e-08,8.165862007785398e-07,-2.9352627883075596e-06,1.3322174115951015e-06,1.0336417068910506e-07,-7.665233492216702e-07,-1.63263437289898e-07,-1.5451944317356478e-06,-3.73319684409685e-07,-2.91442984433677e-07,2.6522914378494317e-07,-7.599656682607582e-08,8.670803030785964e-07,-5.156502573349434e-07,1.4206726690887332e-07
-1.3687619503167575e-05,-3.837740163586767e-06,4.561307225991475e-07,4.2579767739175375e-08,9.010363455273326e-07,-2.8664927682505884e-06,1.3632329529409113e-06,1.1425974125853445e-07,-7.528038633179852e-07,-1.4795086143335852e-07,-1.5574047682528252e-06,-3.473656251769155e-07,-2.9479721673144676e-07,2.847553923041221e-07,-5.122393297428082e-08,8.746603761094447e-07,-4.949757517685049e-07,1.4381985515711967e-07
-1.1632820267647202e-05,-3.4477760610364763e-06,4.690410962801272e-07,6.390895667911766e-08,9.799814198271071e-07,-2.796823481164029e-06,1.3957021496921133e-06,1.2409308990674314e-07,-7.420786198415176e-07,-1.3477426067593576e-07,-1.5780257051371752e-06,-3.2748823905627787e-07,-2.9995119873009755e-07,3.0367023063618893e-07,-2.6151455078539446e-08,8.822914933393209e-07,-4.813092934203391e-07,1.4130489448880635e-07
-7.298681159384051e-06,-3.320163439493905e-06,4.337507331638216e-07,8.770323553038247e-08,1.0491252424438429e-06,-2.7305661083985197e-06,1.427777473120612e-06,1.328274407026712e-07,-7.341031183113494e-07,-1.225188640536812e-07,-1.6038569654605524e-06,-3.0963599516761865e-07,-3.0292581777424994e-07,3.222998870867854e-07,-8.067652876370659e-10,8.920994615815108e-07,-4.7378546229765713e-07,1.3784450667483084e-07
-1.1462135634816537e-06,-3.7513715860107152e-06,3.653017948877514e-07,1.1228943929852934e-07,1.1038669086943332e-06,-2.673321016988423e-06,1.4567298676784003e-06,1.387948328727092e-07,-7.303379593716867e-07,-1.1273590471380612e-07,-1.6335065396336291e-06,-2.9196457364253806e-07,-3.0110421551633647e-07,3.3921505681981783e-07,2.4706116655840545e-08,9.035496333128505e-07,-4.718980531191158e-07,1.3427963270229412e-07
5.506145845927951e-06,-4.79307140827077e-06,2.7650269669602376e-07,1.3564815291811568e-07,1.1409059552066098e-06,-2.629360045845563e-06,1.4790022842686615e-06,1.4075322128732625e-07,-7.32090564306924e-07,-1.0721836794676318e-07,-1.66361889618537e-06,-2.742864164744868e-07,-2.908621506275448e-07,3.5260161994446266e-07,4.923638241100211e-08,9.149522553027294e-07,-4.7413865809268614e-07,1.3079219700231388e-07
1.0869242580065648e-05,-6.3142546228675e-06,1.7892141827451319e-07,1.56820242774918e-07,1.1614502695675215e-06,-2.600009055085961e-06,1.493293103894708e-06,1.398997197306375e-07,-7.388992944289411e-07,-1.0511158891680818e-07,-1.6914215905723651e-06,-2.5708382766252634e-07,-2.7075701134328216e-07,3.621901403372216e-07,7.219047967584223e-08,9.252509441374872e-07,-4.776438610468835e-07,1.2874816916095708e-07
1.3448655880954407e-05,-8.104732154488469e-06,8.55331157448926e-08,1.7643323788325712e-07,1.1724053198696552e-06,-2.5832253436880875e-06,1.5027127802958337e-06,1.3962026598114763e-07,-7.493065185180143e-07,-1.0281057590875575e-07,-1.7134148921389257e-06,-2.411321281721106e-07,-2.48186846478555e-07,3.693346717979316e-07,9.357772336068415e-08,9.338616065660432e-07,-4.798009373683816e-07,1.303850120653694e-07
1.2731247813213249e-05,-9.892886694528898e-06,1.0584379136210398e-08,1.9596207364738894e-07,1.1833069594872626e-06,-2.5758206441576586e-06,1.5082887190123416e-06,1.4319016628184896e-07,-7.619318972317927e-07,-9.679113051040278e-08,-1.7268701535466242e-06,-2.2798191367000376e-07,-2.289268984681461e-07,3.7531148823573635e-07,1.1251552226790912e-07,9.401727733847732e-07,-4.80265829180496e-07,1.3685490214587523e-07
9.345813659507215e-06,-1.1331303274497128e-05,-3.5182979891000874e-08,2.162847435198405e-07,1.2011626941099381e-06,-2.5750418154451405e-06,1.5081414251168057e-06,1.515223557460873e-07,-7.76061322403706e-07,-8.653903169606481e-08,-1.7275384063533484e-06,-2.2015253796066974e-07,-2.1738504274144937e-07,3.803182417596621e-07,1.2743694596180754e-07,9.423706707464305e-07,-4.810808453817479e-07,1.469164654560897e-07
4.6768620350678834e-06,-1.2022215168957224e-05,-5.044471912586347e-08,2.3614205858669027e-07,1.2273732897931878e-06,-2.5789586603827638e-06,1.505721802165251e-06,1.628926345184071e-07,-7.905847601255522e-07,-7.476498599031146e-08,-1.710968943877795e-06,-2.200329398438763e-07,-2.187149115798838e-07,3.835951557126401e-07,1.3594082394051881e-07,9.38362538146892e-07,-4.844094142669444e-07,1.575555530066605e-07
1.8018247965561542e-07,-1.1643587844207705e-05,-4.427678270540602e-08,2.5248497859770065e-07,1.2579970455270856e-06,-2.5853701772410113e-06,1.5045025826453574e-06,1.7460242421891666e-07,-8.043050289610475e-07,-6.515250851593947e-08,-1.6757894212725707e-06,-2.2810648602248693e-07,-2.3319389480017638e-07,3.8473606174825487e-07,1.3629544205149937e-07,9.281720528122594e-07,-4.900108544858398e-07,1.6556150910996815e-07
-3.2255352103674297e-06,-1.011663565622757e-05,-2.967827741823568e-08,2.6261225270038646e-07,1.2857180968152538e-06,-2.59128079619204e-06,1.5088671307902488e-06,1.8453455043319315e-07,-8.125161634265016e-07,-6.039833308801465e-08,-1.6225601832381347e-06,-2.422114560222598e-07,-2.6050764384037227e-07,3.8427302786890636e-07,1.2787195664984844e-07,9.147123014164121e-07,-4.949912026571117e-07,1.6850799371048657e-07
-5.394264785565153e-06,-7.720154932850057e-06,-1.4581166395313992e-08,2.6605980604408073e-07,1.3024405604425999e-06,-2.593973050186372e-06,1.5252805936129544e-06,1.912672708272447e-07,-8.13738058198975e-07,-6.232839350082566e-08,-1.5582210334687543e-06,-2.5856473721663533e-07,-2.983836510544877e-07,3.827109419834878e-07,1.1081780764201071e-07,9.021823719282102e-07,-4.961233977904457e-07,1.6477766797943005e-07
-6.740907640562126e-06,-5.048156952785166e-06,6.568028433242138e-10,2.6423784267478625e-07,1.3028009280473568e-06,-2.5930180862912474e-06,1.5614607591475591e-06,1.9324882785128907e-07,-8.057003262554246e-07,-7.300833188580287e-08,-1.4941794171461795e-06,-2.734279127730274e-07,-3.4096076284154694e-07,3.7904896649232165e-07,8.59383488889622e-08,8.935592194552728e-07,-4.923522093535597e-07,1.533958607852789e-07
-7.789604068035655e-06,-2.8192768350054936e-06,1.6912236780575135e-08,2.584624298179842e-07,1.2879663619870213e-06,-2.5912673025375536e-06,1.6167249335310948e-06,1.8883361177189297e-07,-7.893678165606494e-07,-9.457426140221359e-08,-1.4452823491754535e-06,-2.8388417925593735e-07,-3.875981108830755e-07,3.717311716578534e-07,5.515599091645732e-08,8.899122860372695e-07,-4.849503149906994e-07,1.34623714143938e-07
-8.836249203626188e-06,-1.6325492584922898e-06,2.998696609217198e-08,2.486612818380788e-07,1.26737153245836e-06,-2.593408776575598e-06,1.6877231014621897e-06,1.7772835503823116e-07,-7.68051236780704e-07,-1.2722952650333467e-07,-1.4276924414299784e-06,-2.8761147639637693e-07,-4.317749852755013e-07,3.611007600503339e-07,2.28313898411261e-08,8.919079730684395e-07,-4.754271823860774e-07,1.1122692946997067e-07
-9.893432676230251e-06,-1.7814723720132793e-06,3.250908050109719e-08,2.3394429098368428e-07,1.2558928433126175e-06,-2.602027595631801e-06,1.7696605591510268e-06,1.6236829761965855e-07,-7.433098115611521e-07,-1.673554639060426e-07,-1.4529855309830064e-06,-2.8288520092256454e-07,-4.63293207932247e-07,3.507180950575833e-07,-4.233841934227984e-09,9.013225494138189e-07,-4.636195148235223e-07,8.888599086836882e-08
-1.0815087829776029e-05,-3.199550477825853e-06,2.0090779708071405e-08,2.146414796049055e-07,1.2690466453668152e-06,-2.614941668677013e-06,1.8534084905997828e-06,1.4741932449824444e-07,-7.183597525705695e-07,-2.0806038161869698e-07,-1.5206917197914153e-06,-2.697222041870464e-07,-4.760603778200948e-07,3.460018542795733e-07,-1.927747420129701e-08,9.196938400737568e-07,-4.4838392300658466e-07,7.435798066582932e-08
-1.1401925001464918e-05,-5.525497695203866e-06,-7.005882828529617e-09,1.9366205195936654e-07,1.3089093319379003e-06,-2.6256090970543827e-06,1.9317311851527772e-06,1.3722257980332032e-07,-6.945628104358864e-07,-2.4244484524436386e-07,-1.6129879047209633e-06,-2.516859853275695e-07,-4.675381268012185e-07,3.500944830771695e-07,-1.9313999842655282e-08,9.44870322992977e-07,-4.3023528802213003e-07,7.197426179416409e-08
-1.1386796842956069e-05,-8.22369527228595e-06,-4.680609911369254e-08,1.7551845737666013e-07,1.363616807538814e-06,-2.6267221068487157e-06,1.99587810868549e-06,1.331195920188493e-07,-6.744601033683243e-07,-2.67327746092418e-07,-1.6963113431537019e-06,-2.3675109564317345e-07,-4.430115660441562e-07,3.603152364793393e-07,-7.390906340019539e-09,9.693543480134183e-07,-4.1316860953319885e-07,8.082515221414762e-08
-1.0424329496411052e-05,-1.0724004358510329e-05,-9.64229568376431e-08,1.6356039611505997e-07,1.4127917032561624e-06,-2.6136236870106103e-06,2.0431036393750354e-06,1.3295902528189246e-07,-6.58737277494587e-07,-2.843880540736849e-07,-1.7283794547163788e-06,-2.3558344172485738e-07,-4.147493674856819e-07,3.6855597159420315e-07,8.264347524346106e-09,9.822955041927797e-07,-4.0344792478751217e-07,9.483069513313737e-08
-8.239525979762554e-06,-1.2540733901181533e-05,-1.4872894976757526e-07,1.582860676508952e-07,1.3911302441378467e-06,-2.5849958307985134e-06,2.0713492378529624e-06,1.3325480069340738e-07,-6.476261401783792e-07,-2.9788023610906584e-07,-1.669897400001962e-06,-2.572274940520259e-07,-3.960380597615597e-07,3.6589709904779397e-07,1.770320072670726e-08,9.74478334083443e-07,-4.0584734660994557e-07,1.0577462932144459e-07
-4.862931147407365e-06,-1.3387048017788961e-05,-1.903407782940684e-07,1.5825393523937899e-07,1.3279719198138815e-06,-2.54176065709672e-06,2.0819959022509368e-06,1.3192358312419113e-07,-6.38996484430439e-07,-3.113411348865521e-07,-1.4999253425920642e-06,-3.0458233271487234e-07,-3.9309621250397774e-07,3.477774912532918e-07,1.330906641303125e-08,9.429126323892556e-07,-4.2037820723093746e-07,1.0705339638476665e-07
-7.625149247630135e-07,-1.3257181385061434e-05,-2.0577907893967143e-07,1.6181897803789546e-07,1.2912831982627848e-06,-2.4858923586265234e-06,2.0799746337716057e-06,1.2919499281284994e-07,-6.295718282247486e-07,-3.2627518352760457e-07,-1.227987494789279e-06,-3.726393774661225e-07,-4.037675680423917e-07,3.159792767110157e-07,-7.276485379529415e-09,8.919332538098774e-07,-4.4231658628637306e-07,9.56378628224115e-08
3.24242073111172e-06,-1.2397585497872102e-05,-1.857904422444357e-07,1.6729440007298198e-07,1.238518569442199e-06,-2.4207312134168584e-06,2.071412135630506e-06,1.2621927224472638e-07,-6.204246292333802e-07,-3.4324495018365713e-07,-8.987363388948573e-07,-4.504913820409575e-07,-4.186653694800799e-07,2.7716294788719197e-07,-4.108513658463332e-08,8.311423161988868e-07,-4.6540291910020424e-07,7.172011235476254e-08
6.236537902430221e-06,-1.1163882994155688e-05,-1.3252340668094614e-07,1.7185891791301464e-07,1.145161075004157e-06,-2.351722627280106e-06,2.0594189793139134e-06,1.231645444056306e-07,-6.092385008649171e-07,-3.631979181136755e-07,-5.804628297195845e-07,-5.255802054110855e-07,-4.2658073915856137e-07,2.389500861868676e-07,-8.078114167795868e-08,7.715447821869708e-07,-4.852265957418157e-07,3.756778522163853e-08
7.515355169936185e-06,-9.854815552107929e-06,-5.705857616206941e-08,1.7142079580064366e-07,1.0495025361635046e-06,-2.2858444563895044e-06,2.045388292388326e-06,1.1913758996097533e-07,-5.986218779202473e-07,-3.8681322755031774e-07,-3.3981734890786764e-07,-5.875344853557665e-07,-4.219066050785555e-07,2.0721495631920018e-07,-1.1737626429266636e-07,7.221006481816866e-07,-4.999447547476614e-07,-2.787176037476351e-09
6.793630849059118e-06,-8.63278482634631e-06,2.8034342161022334e-08,1.627172675132798e-07,1.0127303451706665e-06,-2.22876504299052e-06,2.0312520934476947e-06,1.1419697346165051e-07,-5.93260707133249e-07,-4.121643544834959e-07,-2.157774478288742e-07,-6.299786408802764e-07,-4.055548920801587e-07,1.856899720256476e-07,-1.4323133913713647e-07,6.881272867531832e-07,-5.085756778240999e-07,-4.320711920575643e-08
4.241275688374551e-06,-7.528152614282881e-06,1.1461181340449026e-07,1.461822350873383e-07,1.0305572022244973e-06,-2.1814953689191683e-06,2.017178665014882e-06,1.1109896751500227e-07,-5.933413677031191e-07,-4.3347268312554253e-07,-2.0405166402619373e-07,-6.508007765013621e-07,-3.8286347991860156e-07,1.7626455653269145e-07,-1.541002450430621e-07,6.71240832981067e-07,-5.096418177718551e-07,-7.613625676589187e-08
3.6749001022660953e-07,-6.49638576550663e-06,1.9866643476961893e-07,1.2700466984033732e-07,1.091019707330117e-06,-2.1397316041424285e-06,2.005418267832316e-06,1.1456150113311767e-07,-5.979268834585616e-07,-4.432746355105189e-07,-2.6215800124881637e-07,-6.521448532346876e-07,-3.6105182302059843e-07,1.788567304355767e-07,-1.5055192731092198e-07,6.698461281485583e-07,-5.020071592496528e-07,-9.518509500087638e-08
-4.1316933463896444e-06,-5.3639823925496315e-06,2.750763087762254e-07,1.1328908744867558e-07,1.1831633125235632e-06,-2.097727896469075e-06,1.9995825990557165e-06,1.2825555943825892e-07,-6.04015823373342e-07,-4.3713290546727975e-07,-3.3012498130808167e-07,-6.402201182221838e-07,-3.46398753499236e-07,1.9031989099029382e-07,-1.3790944527642647e-07,6.796981485818015e-07,-4.86907993084374e-07,-9.822194387040756e-08
-8.432681621590264e-06,-3.924310141256755e-06,3.3300487522480597e-07,1.1248512427578772e-07,1.2859260134255088e-06,-2.0520241018086616e-06,2.000610669224705e-06,1.5196769314454527e-07,-6.090270461188086e-07,-4.171289072580455e-07,-3.565666527683445e-07,-6.238325111201753e-07,-3.419641572259359e-07,2.0427402631569551e-07,-1.2430995248969001e-07,6.949980297239405e-07,-4.6853484091529195e-07,-8.845244354214906e-08
-1.1623293466236545e-05,-2.1751633068321896e-06,3.5620865439263685e-07,1.2826738651878546e-07,1.377427399579159e-06,-2.0045345311206285e-06,2.0060663009788324e-06,1.8147729055731107e-07,-6.119473093301198e-07,-3.907689677837108e-07,-3.1769713306222285e-07,-6.11054080120405e-07,-3.4627260936308907e-07,2.132381870561739e-07,-1.1670313220074433e-07,7.105714538021402e-07,-4.518317109159876e-07,-7.233904397748899e-08
-1.2908039233657753e-05,-3.286243776336461e-07,3.293404076667412e-07,1.5908846639926364e-07,1.442765518667885e-06,-1.960167642418211e-06,2.012072114939215e-06,2.1138493951788029e-07,-6.140990714939331e-07,-3.6590699371204747e-07,-2.215847588064282e-07,-6.054151298282075e-07,-3.5331447990241014e-07,2.1258198342373046e-07,-1.1724714758591497e-07,7.246787879785003e-07,-4.3905717860190833e-07,-5.591210756196615e-08
-1.1951031716579437e-05,1.1510472064580555e-06,2.482366697255064e-07,1.9925986286199957e-07,1.4779174650616458e-06,-1.9235296958853736e-06,2.014977948780556e-06,2.3843539034998937e-07,-6.15649813023404e-07,-3.460662624319616e-07,-1.008960401052053e-07,-6.041912543203615e-07,-3.5439848046474134e-07,2.0350064457426343e-07,-1.2247148885145423e-07,7.404421634970632e-07,-4.282823470631523e-07,-4.2228535706685525e-08
-9.073368209590396e-06,1.827685256212779e-06,1.26759065144986e-07,2.415468422227558e-07,1.4879621547249962e-06,-1.896152211204905e-06,2.0151115878420594e-06,2.6248831380714795e-07,-6.147006765158657e-07,-3.2996038200906927e-07,-2.2416305755830106e-09,-6.000959213132557e-07,-3.421300037504236e-07,1.925034536271835e-07,-1.2570782846171672e-07,7.630822210917958e-07,-4.15349105607517e-07,-3.13878513838729e-08
-5.079398797644386e-06,1.4753775407146817e-06,-7.70998916267958e-09,2.7938771795651825e-07,1.4817199239884444e-06,-1.877085171015629e-06,2.0152173990830235e-06,2.845029063917016e-07,-6.099552715261075e-07,-3.148915180474171e-07,2.614267612690699e-08,-5.854752913471362e-07,-3.1490182800112524e-07,1.8753216239234417e-07,-1.2129108712669122e-07,7.951338009823466e-07,-3.978235650787408e-07,-2.244905486949441e-08
-8.324553922507904e-07,3.8982371450189773e-07,-1.2774286208952192e-07,3.076279122822021e-07,1.4661740169317437e-06,-1.8659065212721087e-06,2.01849230760797e-06,3.035824094209197e-07,-6.017454321504266e-07,-3.0036113632509084e-07,-5.389256148895849e-08,-5.567734436308517e-07,-2.787893169663326e-07,1.931451867903028e-07,-1.0767330123050273e-07,8.323144170500148e-07,-3.777217801929347e-07,-1.537258230368943e-08
3.0573131242425116e-06,-1.1180474116453898e-06,-2.167218751472434e-07,3.225155936809832e-07,1.443831437566286e-06,-1.8634531379513783e-06,2.023831742952547e-06,3.1614492965235996e-07,-5.92565701349541e-07,-2.8848413247131254e-07,-2.5193251064316954e-07,-5.166506853912861e-07,-2.450497795006013e-07,2.0833478364072518e-07,-8.756881377136952e-08,8.640244742558685e-07,-3.6045244452188183e-07,-1.121629708016495e-08
6.219341956447081e-06,-2.056726756999847e-06,-2.6933242021980635e-07,3.2192877526398483e-07,1.4145932771662485e-06,-1.8706752690807806e-06,2.0280096250023306e-06,3.183642071402153e-07,-5.855152251753898e-07,-2.8120369274812565e-07,-5.436611685336553e-07,-4.723334464860562e-07,-2.242535950713668e-07,2.2843114470690287e-07,-6.53212181795905e-08,8.801837620518761e-07,-3.5064050120602556e-07,-1.0561911868332445e-08
8.339833556739331e-06,-3.0748933049103324e-06,-2.854769512264362e-07,3.0544988110648074e-07,1.3800402831408303e-06,-1.8859313481645116e-06,2.0285720110536893e-06,3.0965765579457286e-07,-5.812005852664764e-07,-2.774999418071584e-07,-8.78518689537175e-07,-4.3159994788764166e-07,-2.2050348534313388e-07,2.4878315349621703e-07,-4.362610395598769e-08,8.776790253795293e-07,-3.485620699450031e-07,-1.2139687849790891e-08
9.063739050046772e-06,-4.8700483054762165e-06,-2.6696145132514135e-07,2.7420153476824137e-07,1.3459601055312702e-06,-1.9045008423632082e-06,2.0244579032974718e-06,2.9377074738557604e-07,-5.788376083156101e-07,-2.735485519494373e-07,-1.2003609313750476e-06,-3.9952215559993083e-07,-2.296991826040858e-07,2.6695004407518274e-07,-2.3149826831147072e-08,8.619066947286912e-07,-3.503572396109576e-07,-1.3464931998418338e-08
8.091931626318185e-06,-5.217974007139281e-06,-2.1982483543153675e-07,2.304810786252937e-07,1.3207058777755357e-06,-1.920799250933597e-06,2.0177057483715725e-06,2.7627053622520294e-07,-5.742792115723622e-07,-2.6581335444026593e-07,-1.4661930607058693e-06,-3.77873159680001e-07,-2.4308151642638386e-07,2.818486244602488e-07,-3.646824074830778e-09,8.424925932599414e-07,-3.5164367054939136e-07,-1.3134055013252682e-08
5.418144095791492e-06,-2.8411506462377015e-06,-1.5722903762645687e-07,1.773396645114033e-07,1.3104285362080012e-06,-1.932060604385726e-06,2.0104980123565382e-06,2.60622608064897e-07,-5.673956332644599e-07,-2.5441249711490004e-07,-1.6518374711053674e-06,-3.665719815396074e-07,-2.5314672929075164e-07,2.916708397175538e-07,1.3942657993644068e-08,8.269279230170849e-07,-3.511926312598681e-07,-1.2627187731485439e-08
1.546830915006056e-06,-3.0713939231393175e-07,-9.80274930922908e-08,1.1816968537200176e-07,1.3149716085372781e-06,-1.9403206304580487e-06,2.004128657878568e-06,2.461930550842199e-07,-5.601127483109009e-07,-2.437476630526168e-07,-1.7564683247010476e-06,-3.65025830527362e-07,-2.5745867198924467e-07,2.933326999753192e-07,2.68005442689522e-08,8.170852365371413e-07,-3.513890705140368e-07,-1.5732978227618478e-08
-2.5333801390608485e-06,3.838379349438427e-06,-6.078787723172305e-08,5.652104360470021e-08,1.3283568114252868e-06,-1.9507412324049676e-06,1.9968506235936143e-06,2.29795946589627e-07,-5.5587572470512e-07,-2.3962649494026673e-07,-1.7958926737723088e-06,-3.718871027932779e-07,-2.5812292712905454e-07,2.843625840165328e-07,3.1817579633471446e-08,8.104205488288239e-07,-3.553325307644003e-07,-2.5811618962325074e-08
-5.7033760201716454e-06,8.118014575385137e-06,-5.6367331447695215e-08,-3.6538329545903425e-09,1.3436815506763991e-06,-1.9674505851983146e-06,1.988057279128376e-06,2.091877465427745e-07,-5.578912545395993e-07,-2.452134725279295e-07,-1.793876414473453e-06,-3.839243483133261e-07,-2.583259712210204e-07,2.651711454002532e-07,2.776255126976615e-08,8.037774690225472e-07,-3.6364145864056235e-07,-4.315781917724649e-08
-7.184270057776727e-06,1.1218463737241585e-05,-8.346256145816023e-08,-5.7842757469306005e-08,1.3575847482763844e-06,-1.9905209396644792e-06,1.9779644765176344e-06,1.8532926984320846e-07,-5.661087588220612e-07,-2.591814060722939e-07,-1.7737853380978541e-06,-3.960198293146868e-07,-2.5941016716694335e-07,2.394664124599489e-07,1.6346502987816448e-08,7.958220071123723e-07,-3.7405135583624967e-07,-6.477065336730937e-08
-6.8164899140719e-06,1.2802031080092786e-05,-1.3003767807645802e-07,-1.0166418585924331e-07,1.3701436299811155e-06,-2.0160274054826055e-06,1.9667825656199664e-06,1.6156164685100978e-07,-5.787423893119313e-07,-2.7748150402776486e-07,-1.7521728696061515e-06,-4.0323358463810017e-07,-2.6089862850809204e-07,2.1216085478322489e-07,1.3224072639994083e-09,7.865750981270832e-07,-3.840675839322881e-07,-8.670077745529768e-08
-5.0037009178478045e-06,1.2758690453784916e-05,-1.7997514378535705e-07,-1.3226855149117793e-07,1.3809740216886396e-06,-2.039672394096719e-06,1.9549081502346034e-06,1.4051144910734464e-07,-5.92687024229912e-07,-2.9703815441965103e-07,-1.7370619824013564e-06,-4.0369902087387726e-07,-2.6262602664387077e-07,1.8623874755943706e-07,-1.3525003328180018e-08,7.749695404260014e-07,-3.9389710947128775e-07,-1.0670524900515736e-07
-2.457034622166454e-06,1.1398765986307382e-05,-2.2018453824316156e-07,-1.495720502220365e-07,1.385602832080292e-06,-2.0600644917775996e-06,1.9406877684275496e-06,1.215984343706782e-07,-6.06895245263714e-07,-3.1798352908612285e-07,-1.7299764539638445e-06,-4.0001957376420815e-07,-2.6595865083423466e-07,1.6138249101638007e-07,-2.6499123329608228e-08,7.576009675072758e-07,-4.0662130176691785e-07,-1.247151135841413e-07
4.260483473032259e-08,9.08197978559179e-06,-2.429866117244164e-07,-1.564282021550546e-07,1.3755024714223742e-06,-2.078991637148801e-06,1.9221121946246514e-06,1.015785733804057e-07,-6.209153095582841e-07,-3.4246941887624164e-07,-1.729838496541679e-06,-3.977854239479318e-07,-2.72566909372476e-07,1.3548831056354962e-07,-3.7966499876695314e-08,7.308861502689636e-07,-4.25184437494453e-07,-1.4103526607082538e-07
1.7931121923179584e-06,6.1340814707580235e-06,-2.451452598667576e-07,-1.575896977074526e-07,1.3421291959984087e-06,-2.0984460789060955e-06,1.8965802319742278e-06,7.77002692642345e-08,-6.347109030409967e-07,-3.7151913643509337e-07,-1.734309903608017e-06,-4.021362360815608e-07,-2.824403957980212e-07,1.074900988322704e-07,-4.8755646428320735e-08,6.943861831142198e-07,-4.49235203315353e-07,-1.5455495528322086e-07
2.305617228856955e-06,2.944115999955089e-06,-2.2881052216316558e-07,-1.5819601388994053e-07,1.2818622366132855e-06,-2.1177084728496514e-06,1.864512852212148e-06,5.045119844575073e-08,-6.476736973711732e-07,-4.0318477780770156e-07,-1.7405873864422343e-06,-4.1485400697079845e-07,-2.93571352740765e-07,7.879086100242276e-08,-5.8664924972924104e-08,6.522085316096069e-07,-4.7471311243062547e-07,-1.6301444088566553e-07
1.4409847101576515e-06,-1.6016051050964995e-07,-2.039297208911128e-07,-1.6297484161574686e-07,1.1980333593942123e-06,-2.1338347401803236e-06,1.8288989354116856e-06,2.3207297275345684e-08,-6.572171221140902e-07,-4.3369027966088525e-07,-1.7492170965188988e-06,-4.3379555963791996e-07,-3.03763124219267e-07,5.2252533550455066e-08,-6.603697174598488e-08,6.111357625327246e-07,-4.965242679310638e-07,-1.6513135404364868e-07
-5.369226520454843e-07,-2.8598158830744235e-06,-1.8629818698971168e-07,-1.7636209802737786e-07,1.0992855427890845e-06,-2.1445103801094434e-06,1.793631944865252e-06,-4.73497789169463e-10,-6.622394246860286e-07,-4.602161842515068e-07,-1.767374798067239e-06,-4.5444792122889046e-07,-3.130577713235564e-07,2.9898332450575015e-08,-6.866869278562646e-08,5.770749833300876e-07,-5.11886601082257e-07,-1.6242462766084473e-07
-3.0539278720384087e-06,-4.972995321503892e-06,-1.892660851252788e-07,-2.022987779458142e-07,9.963681779247164e-07,-2.150640756659999e-06,1.7621765677461806e-06,-1.931241156383401e-08,-6.623327318582943e-07,-4.824173697027718e-07,-1.8108498122051877e-06,-4.71898350544217e-07,-3.243747598576416e-07,1.2308698320858434e-08,-6.472287056300135e-08,5.535850288543545e-07,-5.212340833967731e-07,-1.5864440930652386e-07
-5.410609417461174e-06,-6.408531170822926e-06,-2.15418482872226e-07,-2.429933665619495e-07,8.994062258237482e-07,-2.1559903874874956e-06,1.737401234228023e-06,-3.430976598242656e-08,-6.602945516587937e-07,-5.011794017272293e-07,-1.899965347846549e-06,-4.817491068959783e-07,-3.4098159624354473e-07,-4.254665650165586e-10,-5.2838424300470945e-08,5.431937248303708e-07,-5.261029681865657e-07,-1.5704645951196266e-07
-6.957612615863692e-06,-7.185038490576687e-06,-2.566631846551603e-07,-2.9760421590925615e-07,8.163954941139955e-07,-2.1645397559581744e-06,1.7216113123977621e-06,-4.668118625196195e-08,-6.593730999709451e-07,-5.162083932376411e-07,-2.051403970336246e-06,-4.801826738427324e-07,-3.625990328048936e-07,-7.153716905507153e-09,-3.226965503481731e-08,5.491261677548656e-07,-5.264425084188276e-07,-1.5808835932270223e-07
-7.226386858862553e-06,-7.359990988065186e-06,-3.025629655287234e-07,-3.6214255378435916e-07,7.526122059910478e-07,-2.1781810563824515e-06,1.7168112398227538e-06,-5.635198441020368e-08,-6.601626465319543e-07,-5.253371779395443e-07,-2.270696667477203e-06,-4.6457403404550135e-07,-3.838108945239192e-07,-5.688345032865975e-09,-3.3899435774023532e-09,5.746437226118775e-07,-5.202415821226012e-07,-1.5972128505347383e-07
-6.040826438168988e-06,-7.123272942552996e-06,-3.4762283774187524e-07,-4.3107948160409055e-07,7.100043329255078e-07,-2.1966238831291117e-06,1.7240148290039802e-06,-6.272223470355635e-08,-6.625952542729542e-07,-5.26512166871993e-07,-2.54631882381029e-06,-4.352495035946624e-07,-3.964156156997209e-07,4.889308114755035e-09,3.1280021715682386e-08,6.198827432498696e-07,-5.058723338580001e-07,-1.5989073091056482e-07
-3.61308394792755e-06,-6.657086940446117e-06,-3.9182044259467577e-07,-4.993213809322631e-07,6.86579222870414e-07,-2.218825613290278e-06,1.7418570565426219e-06,-6.682543793896713e-08,-6.656373834758496e-07,-5.205203888623169e-07,-2.851678441859743e-06,-3.970276815703533e-07,-3.9405492747067635e-07,2.19314566042208e-08,6.652590170277877e-08,6.790466200898139e-07,-4.848824517736511e-07,-1.5892499008665096e-07
-5.635773003958823e-07,-6.205765740749165e-06,-4.383672188753852e-07,-5.632131613959832e-07,6.77363926992778e-07,-2.243644129292931e-06,1.7644633827865384e-06,-7.217599122449965e-08,-6.693864447967281e-07,-5.115193078714109e-07,-3.1526070400190026e-06,-3.5837081620537324e-07,-3.7606252509548427e-07,3.951183921028439e-08,9.555055688992356e-08,7.411311534839724e-07,-4.6226172803533195e-07,-1.5960333775049616e-07
2.215085233229348e-06,-5.878245090453972e-06,-4.92426445822966e-07,-6.203002896878694e-07,6.777902422343188e-07,-2.269375207573127e-06,1.7836264216845358e-06,-8.280619684450924e-08,-6.742657067086773e-07,-5.044624763525763e-07,-3.416543204064176e-06,-3.277965186801205e-07,-3.4827115905700754e-07,5.175659283770443e-08,1.1272244425207202e-07,7.944702647751257e-07,-4.435416584519464e-07,-1.6472427164465403e-07
3.830645480078255e-06,-5.627043407256083e-06,-5.574226204677729e-07,-6.684370849809976e-07,6.871887235133729e-07,-2.2924154055706666e-06,1.7931275048683744e-06,-9.994008845199235e-08,-6.792449074749899e-07,-5.016679149885177e-07,-3.6197608934716753e-06,-3.099886176741133e-07,-3.206949957354256e-07,5.6287988686409114e-08,1.1629351955865195e-07,8.316021396318308e-07,-4.313129610856562e-07,-1.7440739580374351e-07
3.6478977168486186e-06,-5.32738184574129e-06,-6.280896017363258e-07,-7.051035980829135e-07,7.087941778301351e-07,-2.30793197049674e-06,1.7909749681370753e-06,-1.2044919890852441e-07,-6.82562700566005e-07,-5.016288276081079e-07,-3.750715428247857e-06,-3.0450324916726327e-07,-3.0383156771506443e-07,5.476847341004131e-08,1.0905686865353522e-07,8.509859144271612e-07,-4.243019426903519e-07,-1.8570387815314225e-07
1.4089791520192236e-06,-4.850598898038001e-06,-6.873289654172549e-07,-7.276893333438733e-07,7.457445186895395e-07,-2.312201700259145e-06,1.7796764163911669e-06,-1.3879148620479304e-07,-6.823501512247437e-07,-5.010203397576803e-07,-3.809198526037992e-06,-3.0772030073828036e-07,-3.0524474777745217e-07,5.0016441370055567e-08,9.631243945569928e-08,8.549409127918138e-07,-4.1963833504709833e-07,-1.9490488297836464e-07
-2.705777900250003e-06,-3.7964825981667327e-06,-7.117944495384281e-07,-7.348277083076962e-07,7.963670987403216e-07,-2.3055658558694013e-06,1.7630015559836057e-06,-1.5103965346773712e-07,-6.78517211713526e-07,-4.980479520867982e-07,-3.800997057225434e-06,-3.162530533335065e-07,-3.2739580621889805e-07,4.2475989568200265e-08,8.218374197647102e-08,8.462176795783487e-07,-4.1609625172254005e-07,-2.004231212829094e-07
-7.986856009942264e-06,-2.1530673346977896e-06,-6.826794094502645e-07,-7.276231984263135e-07,8.521195053023921e-07,-2.29359765981897e-06,1.7434474648006224e-06,-1.577617212671907e-07,-6.727540089619325e-07,-4.941153170840781e-07,-3.7307190242905773e-06,-3.292289227121578e-07,-3.67504802975165e-07,2.9257308740394676e-08,6.724869627347166e-08,8.258617099533819e-07,-4.1522301992956517e-07,-2.0360397838371755e-07
-1.323088427328534e-05,-5.306164143162217e-07,-5.950281083027282e-07,-7.090509253533714e-07,8.99461906446331e-07,-2.2849230952517085e-06,1.7208027410775465e-06,-1.6330683299234012e-07,-6.693127398565901e-07,-4.923203994832576e-07,-3.5943492450698076e-06,-3.480079595651702e-07,-4.1923033009922134e-07,6.3873066589257574e-09,4.9031872341184716e-08,7.940387461861934e-07,-4.1948728191940444e-07,-2.0686079656405667e-07
-1.7064260337677978e-05,1.2079693918869292e-06,-4.609403336313278e-07,-6.812099665452566e-07,9.252194989814318e-07,-2.2867757426411147e-06,1.6935340208435429e-06,-1.7206145895679853e-07,-6.70812233775814e-07,-4.94329171825951e-07,-3.3793125695834928e-06,-3.7409745384359147e-07,-4.74852696097167e-07,-2.7852511079494338e-08,2.426234623522158e-08,7.523986244754089e-07,-4.29551967589747e-07,-2.1114099997031438e-07
-1.844393991672464e-05,1.3141048379965113e-06,-3.0536984551425213e-07,-6.430717814226713e-07,9.227256679941059e-07,-2.3009018438164426e-06,1.6636094989899532e-06,-1.8503178175071255e-07,-6.765695478986127e-07,-4.986114275999202e-07,-3.0718933618521127e-06,-4.073141933256496e-07,-5.271890502645059e-07,-7.12338878999594e-08,-8.95837479473297e-09,7.049444556299056e-07,-4.4339765088460893e-07,-2.151347976310384e-07
-1.7071124166682253e-05,1.0088060854455426e-06,-1.5737099674227016e-07,-5.908135587030503e-07,8.94290252028399e-07,-2.323189406525017e-06,1.6370047249003312e-06,-1.9956815759666734e-07,-6.841424202690558e-07,-5.016218917434634e-07,-2.6706124431177908e-06,-4.45562543268252e-07,-5.711409720296955e-07,-1.1859586311957656e-07,-5.0185579660821434e-08,6.570510512972012e-07,-4.579118223086591e-07,-2.167332352883779e-07
-1.3540143549372509e-05,2.0596975429758126e-06,-4.2080432499700465e-08,-5.215095322884083e-07,8.480588862113841e-07,-2.3466568839663535e-06,1.6194788496429113e-06,-2.121036145014688e-07,-6.89542703312686e-07,-5.009165292068403e-07,-2.197131858097687e-06,-4.85895075669441e-07,-6.046038631872442e-07,-1.6402469415597986e-07,-9.665135264299911e-08,6.137928300783031e-07,-4.71096368454447e-07,-2.1521696348826143e-07
-9.118880779443193e-06,1.245774480464857e-06,2.3579689058996573e-08,-4.3779573258504634e-07,7.928727919968137e-07,-2.3650883119229005e-06,1.6153149501911673e-06,-2.211599361601106e-07,-6.911109776377118e-07,-4.973270535484039e-07,-1.6982335231316931e-06,-5.254591815642348e-07,-6.284966618450475e-07,-2.0248090342743873e-07,-1.439917735641135e-07,5.79209376361245e-07,-4.826674928891243e-07,-2.120899350339247e-07
-5.181987929564628e-06,-7.754439049887597e-07,3.333831143742096e-08,-3.493661463496856e-07,7.364383317310516e-07,-2.3745718833948155e-06,1.625450113308778e-06,-2.277769845978966e-07,-6.892358384516004e-07,-4.938564639327915e-07,-1.2368511475669857e-06,-5.613595953971638e-07,-6.457067022252716e-07,-2.299656809193206e-07,-1.8667865253645943e-07,5.567030286431924e-07,-4.926948152024127e-07,-2.0973762014288175e-07
-2.5627610176311588e-06,-2.148195071428315e-06,-6.162642388966104e-09,-2.692418082179363e-07,6.870553738545966e-07,-2.3727380778800813e-06,1.6477095235281278e-06,-2.3332846087690972e-07,-6.852196482442163e-07,-4.922110102461524e-07,-8.72304879088948e-07,-5.899452687350224e-07,-6.588958498951833e-07,-2.428911662741731e-07,-2.184400407746764e-07,5.493927490228125e-07,-5.00034146237059e-07,-2.092730637793436e-07
-1.2967242417086989e-06,-3.201359755810146e-06,-7.693402356469762e-08,-2.070887416320899e-07,6.541754222179163e-07,-2.357511378618725e-06,1.678329603893411e-06,-2.3730717189024508e-07,-6.808034966628334e-07,-4.905864268875561e-07,-6.419675134506269e-07,-6.069780325047279e-07,-6.683098824256262e-07,-2.3833639078075226e-07,-2.3360410482415653e-07,5.593254039729683e-07,-5.024360740525023e-07,-2.098513828107816e-07
-9.593750974401059e-07,-3.170752366741143e-06,-1.5824223010783323e-07,-1.6499761706968693e-07,6.451900940913523e-07,-2.3272499487304633e-06,1.7146132419668378e-06,-2.3754623717601595e-07,-6.746706322701693e-07,-4.851112827836306e-07,-5.517184144775915e-07,-6.093612997486797e-07,-6.715433018460612e-07,-2.1577180075190185e-07,-2.2937526317837416e-07,5.855446446639702e-07,-4.984463177493822e-07,-2.1017583188465647e-07
-1.1961978059127272e-06,-2.1085145519271493e-06,-2.3678969390978098e-07,-1.3886557712553539e-07,6.610882596788478e-07,-2.2824027641728864e-06,1.7527991264735346e-06,-2.3266393440746498e-07,-6.657755666563797e-07,-4.735513347004302e-07,-5.78936759810842e-07,-5.973022972544161e-07,-6.654509768059727e-07,-1.7895192543646847e-07,-2.076606571030242e-07,6.226052441861948e-07,-4.89450285189218e-07,-2.104164043978575e-07
-1.917371235190493e-06,-6.494425470787809e-07,-3.1015331010188165e-07,-1.233103929260968e-07,6.951002651927964e-07,-2.2270769115366018e-06,1.7879077224863904e-06,-2.2418373487602464e-07,-6.5486504690692e-07,-4.575422373419332e-07,-6.851190183566266e-07,-5.748135701650986e-07,-6.480452421406743e-07,-1.356456182345822e-07,-1.7466919018980197e-07,6.61700850977102e-07,-4.793469459435224e-07,-2.1219044872752807e-07
-3.142429052291792e-06,9.005705385796402e-07,-3.818179946184615e-07,-1.1510279705704275e-07,7.359943689176439e-07,-2.168309876894356e-06,1.8164876458359212e-06,-2.1591545992903358e-07,-6.432782071480193e-07,-4.410150504868851e-07,-8.302108673731869e-07,-5.476343890318025e-07,-6.189820125724952e-07,-9.44979507846292e-08,-1.3811881742763598e-07,6.948439056143863e-07,-4.7177612389297196e-07,-2.1651517575370882e-07
-4.830816277784504e-06,1.775606035041311e-06,-4.5158474713588773e-07,-1.122493335342137e-07,7.741789839006095e-07,-2.113495739042462e-06,1.837476503636919e-06,-2.1086595174493862e-07,-6.325930415168861e-07,-4.2628685760814395e-07,-9.801322724164727e-07,-5.201903122242973e-07,-5.796658839165641e-07,-6.11190478310728e-08,-1.038462602938477e-07,7.187588258276128e-07,-4.6739616344371463e-07,-2.220310013627554e-07
-6.808295322161515e-06,1.568490478806437e-06,-5.076838724027125e-07,-1.1050113076765591e-07,8.06647292085472e-07,-2.067990772972689e-06,1.8538942450175564e-06,-2.085834281744752e-07,-6.222991154662887e-07,-4.116509255717405e-07,-1.104214639807991e-06,-4.94267494626184e-07,-5.33897233131385e-07,-3.650592517512077e-08,-7.430682125668988e-08,7.347098728810549e-07,-4.638132975887249e-07,-2.2543165062466348e-07
-8.731612904109675e-06,3.0653215067796284e-07,-5.278033871664252e-07,-1.0165385103922589e-07,8.377692822182148e-07,-2.034347214587959e-06,1.8691747425918836e-06,-2.0549377544941247e-07,-6.11038284951169e-07,-3.9290095387738054e-07,-1.1711997406948042e-06,-4.702668196623942e-07,-4.880835361188143e-07,-1.874525861712087e-08,-4.942724868460676e-08,7.449087094982992e-07,-4.5829963092448464e-07,-2.2378269467551665e-07
-1.0141862087468638e-05,-1.6651905403493009e-06,-4.903864583791084e-07,-7.631844702229498e-08,8.757400967898321e-07,-2.01274642856199e-06,1.886446039994216e-06,-1.9804608257002552e-07,-5.970722559061118e-07,-3.6764149711499897e-07,-1.1549346736121158e-06,-4.49383201104281e-07,-4.4999203895158085e-07,-6.029110119175235e-09,-2.8523284405762413e-08,7.491926516149156e-07,-4.5079912368655846e-07,-2.1681477757835075e-07
-1.0663539453783662e-05,-3.7371750637131173e-06,-3.886169064831057e-07,-2.963390139908227e-08,9.269771174147269e-07,-2.001607721569252e-06,1.9044585182487234e-06,-1.8581412960915837e-07,-5.815408002936448e-07,-3.385498337396323e-07,-1.049455774749421e-06,-4.34265713435298e-07,-4.2638285667612464e-07,1.8031674599083806e-09,-1.1421002474822087e-08,7.450680601773822e-07,-4.4436860128021746e-07,-2.0731149261727521e-07
-1.0224288742449457e-05,-5.255628339688424e-06,-2.3713426125911093e-07,3.451116139310088e-08,9.920074580254476e-07,-1.9979379230695105e-06,1.919161992841728e-06,-1.716881106132104e-07,-5.67444929106422e-07,-3.123106905834036e-07,-8.819815522842212e-07,-4.270231152479492e-07,-4.2020807941725504e-07,4.48315969524489e-09,2.5895368964538155e-09,7.314354000818433e-07,-4.4245978467103487e-07,-1.9917760067185668e-07
-9.139361748972633e-06,-5.809612205343462e-06,-6.657244185734277e-08,1.0406175976728749e-07,1.0651752400490828e-06,-1.9971574421622772e-06,1.9272877965587855e-06,-1.590376126326749e-07,-5.569769633864474e-07,-2.948650919732793e-07,-7.107151319719725e-07,-4.2606471162548887e-07,-4.2820716142510044e-07,3.7728423556200325e-09,1.562846652215075e-08,7.127876145170823e-07,-4.455552143420019e-07,-1.946909586808508e-07
-8.039384041859683e-06,-5.387651577003654e-06,9.023183947664406e-08,1.6415967649989364e-07,1.137098215664924e-06,-1.993216517374665e-06,1.9310414657188834e-06,-1.4882740442513309e-07,-5.500548746933321e-07,-2.872392983265199e-07,-6.051309626021191e-07,-4.250473912768594e-07,-4.4069519247532694e-07,4.555139684447545e-09,3.1348443639739444e-08,6.994895922113167e-07,-4.501099518929913e-07,-1.9314697297222278e-07
-7.664932655078033e-06,-4.285951518526953e-06,2.111477135915904e-07,2.0375231784793114e-07,1.196987352271942e-06,-1.9802523786547545e-06,1.936028990764904e-06,-1.395507201081918e-07,-5.437081844108757e-07,-2.85639353479751e-07,-6.169549353993577e-07,-4.158134814870519e-07,-4.4519542971448376e-07,1.2580015838099396e-08,5.262980337008529e-08,7.024911141800326e-07,-4.508104962892284e-07,-1.919771061677441e-07
-8.552644445864297e-06,-3.009887624731753e-06,2.900848910313181e-07,2.1916056094753227e-07,1.233941575892732e-06,-1.955928452459625e-06,1.9462002727858977e-06,-1.2988609008030935e-07,-5.353654947031923e-07,-2.8555506223495953e-07,-7.567398185588703e-07,-3.937677027534076e-07,-4.328495395470671e-07,3.005689894354844e-08,7.843304306768783e-08,7.258775833537694e-07,-4.446277627997378e-07,-1.8941916643929855e-07
-1.07376255845406e-05,-2.017847166138415e-06,3.336882983584816e-07,2.1317725188819633e-07,1.238565350098106e-06,-1.924230304885833e-06,1.961366381780192e-06,-1.2141628168363624e-07,-5.251026939921239e-07,-2.86145880554124e-07,-9.886306047477435e-07,-3.6198395608679877e-07,-4.032727740814608e-07,5.2710435673028573e-08,1.0295254603050134e-07,7.630427172326073e-07,-4.3359700472335163e-07,-1.8640892384867402e-07
-1.367048499984094e-05,-1.5574105179479781e-06,3.532174293427305e-07,1.9160286555162254e-07,1.205714796492971e-06,-1.8945547440727497e-06,1.975065314359592e-06,-1.1863673059598753e-07,-5.159833038550233e-07,-2.909879202127142e-07,-1.2431715417739592e-06,-3.309224203576455e-07,-3.6382344128605703e-07,7.113013159771743e-08,1.1781196859329596e-07,7.996307507658022e-07,-4.2390615418437844e-07,-1.858529331141528e-07
-1.6461571435726934e-05,-1.4967184739728338e-06,3.5792207527987316e-07,1.6053700675583733e-07,1.1375203211213807e-06,-1.8764701730546009e-06,1.9779466527486e-06,-1.2588410943434387e-07,-5.123473574416133e-07,-3.046471428342256e-07,-1.4409180657827133e-06,-3.1351292882915376e-07,-3.2411321868980053e-07,7.5909484938048e-08,1.164931544926615e-07,8.210932159546865e-07,-4.218026665661765e-07,-1.8981022283723478e-07
-1.832267675349852e-05,-1.3218185935294627e-06,3.525865485169738e-07,1.257998081596934e-07,1.0450216800204656e-06,-1.8736113630731284e-06,1.962912409512881e-06,-1.4365550200823509e-07,-5.16127382251639e-07,-3.284176487851433e-07,-1.5172562891175794e-06,-3.1870112025247395e-07,-2.9076811983145904e-07,6.273111644635212e-08,9.81417607227331e-08,8.19407170503308e-07,-4.295144052637743e-07,-1.9716846101499046e-07
-1.888697267821525e-05,-4.578852236304393e-07,3.372920897866566e-07,9.340507268118867e-08,9.466962890267408e-07,-1.8814370849820936e-06,1.9291432796577552e-06,-1.6748201442985637e-07,-5.254452144701175e-07,-3.590130901672318e-07,-1.4404056985807225e-06,-3.4752856716664604e-07,-2.661795290006572e-07,3.386480924231174e-08,6.786193345695479e-08,7.95046121603221e-07,-4.44307614158864e-07,-2.0401020703715123e-07
-1.823977841534153e-05,1.4705690193391023e-06,3.0966261143182563e-07,6.890319274058719e-08,8.632041167524926e-07,-1.8906000776469023e-06,1.8827510509098833e-06,-1.9047055608816678e-07,-5.356290083308089e-07,-3.9104290426233917e-07,-1.2184525210140998e-06,-3.936534418086601e-07,-2.5068409190346586e-07,-4.3102853749086195e-09,3.321476479692994e-08,7.543649919413883e-07,-4.6104435937341817e-07,-2.0652645614428141e-07
-1.67651668536221e-05,3.8605919157319546e-06,2.7052611589295554e-07,5.510666124960111e-08,8.098649629688225e-07,-1.8934900700576126e-06,1.834584346364997e-06,-2.0766200686391544e-07,-5.421166484282517e-07,-4.208670777865762e-07,-8.958819761768843e-07,-4.471113268149171e-07,-2.452069227103409e-07,-4.51858099919871e-08,5.447809064398531e-10,7.055931022035503e-07,-4.7577150988865773e-07,-2.0409854105826338e-07
-1.4959489403508137e-05,5.6016060402136105e-06,2.2751642344949371e-07,4.981338911402361e-08,7.904673183531667e-07,-1.8891851773843602e-06,1.7951451125404216e-06,-2.1872657799999677e-07,-5.43240602422712e-07,-4.483807381373325e-07,-5.41471479613323e-07,-4.984698358698053e-07,-2.5194727211668713e-07,-8.426951644068789e-08,-2.6494634493403404e-08,6.555062770833253e-07,-4.871748432239321e-07,-1.9982914915582e-07
-1.3285907503793696e-05,5.22229276047318e-06,1.9037409830144785e-07,4.639762995589843e-08,7.962637939237851e-07,-1.8830467118149577e-06,1.7708325699457334e-06,-2.2675286759440443e-07,-5.400725987407894e-07,-4.7527402635909537e-07,-2.2854308011249213e-07,-5.411785091388239e-07,-2.72695220544139e-07,-1.1892759093926325e-07,-4.613583985216242e-08,6.091976988822923e-07,-4.951319201086484e-07,-1.9804313445686567e-07
-1.2112724429909057e-05,4.574855407277938e-06,1.6181767543200153e-07,3.760307224122857e-08,8.110262219084683e-07,-1.8814190262925195e-06,1.7624193006741933e-06,-2.3433395532161302e-07,-5.342579092697951e-07,-5.017953990463224e-07,-1.3218680867323553e-08,-5.718826216547907e-07,-3.063900569712794e-07,-1.4685810688798714e-07,-5.699872031610566e-08,5.710330689977318e-07,-4.986898854415329e-07,-2.0112415624108387e-07
-1.1701398603314222e-05,4.508204841557465e-06,1.345767706994233e-07,1.9571782655485355e-08,8.189489173239245e-07,-1.8862189675973424e-06,1.7670472112542133e-06,-2.4063184289283786e-07,-5.266054856824119e-07,-5.254543792917125e-07,7.91593310286693e-08,-5.898830704676137e-07,-3.4824504193205115e-07,-1.6554148325589296e-07,-5.788347292418391e-08,5.448135585244759e-07,-4.960395483930675e-07,-2.0841356175960258e-07
-1.2144528139256115e-05,4.201309137001981e-06,9.82395474360613e-08,-6.767949883967526e-09,8.107739036979696e-07,-1.894123637997828e-06,1.7791202828946452e-06,-2.4208557165422045e-07,-5.170599078146125e-07,-5.429713436941071e-07,5.4046998336888985e-08,-5.968462020227295e-07,-3.9166227052710186e-07,-1.7356378671271218e-07,-4.8877410055703024e-08,5.333228054171143e-07,-4.866585874253483e-07,-2.177219606358908e-07
-1.3262629366478773e-05,1.6441968914109216e-06,4.888428305068584e-08,-3.757115482548357e-08,7.851939262893775e-07,-1.900372971363668e-06,1.791742082740273e-06,-2.3606476376875586e-07,-5.059643115638227e-07,-5.535621846250006e-07,-6.168578220596947e-08,-5.967696474717798e-07,-4.321402169196667e-07,-1.7251191413063682e-07,-3.248579128631828e-08,5.361019235484024e-07,-4.734249170211599e-07,-2.2774314710062268e-07
-1.4595092074973766e-05,-1.2342440960061785e-06,-6.337605025337174e-09,-6.900249750843994e-08,7.46028357687416e-07,-1.9029808517834836e-06,1.7982034065709225e-06,-2.2402092044439093e-07,-4.954614175494726e-07,-5.603499228296474e-07,-2.3164439889567608e-07,-5.952191475871787e-07,-4.705606843222901e-07,-1.672587481929085e-07,-1.3774556995097536e-08,5.487572306031677e-07,-4.622302137523385e-07,-2.3906146572261783e-07
-1.556834830504718e-05,-3.1500069107623354e-06,-5.156556516069537e-08,-9.895533819393011e-08,6.989740390677148e-07,-1.903610241938221e-06,1.7934073241826863e-06,-2.1106058117161637e-07,-4.892894680495816e-07,-5.683166949338574e-07,-4.207218177617955e-07,-5.971664085922323e-07,-5.127413210174255e-07,-1.6365255421999917e-07,1.930107325724259e-09,5.651943136126699e-07,-4.587189347431035e-07,-2.528916441553995e-07
-1.571873945966828e-05,-3.905079107582011e-06,-6.996555655895552e-08,-1.2679126141593712e-07,6.508653848325938e-07,-1.9051781896157847e-06,1.776076260658036e-06,-2.022531332496442e-07,-4.895924384085642e-07,-5.803905407117001e-07,-6.025431891332252e-07,-6.04382926533186e-07,-5.646725085650772e-07,-1.6526163432781547e-07,1.1553279338187153e-08,5.811507077122707e-07,-4.646350972929533e-07,-2.6896227650957623e-07
-1.4767326537481952e-05,-3.915604534634333e-06,-5.347627251683701e-08,-1.5197161328912827e-07,6.099974023601008e-07,-1.9090293611932666e-06,1.749028462657843e-06,-1.9900812075253582e-07,-4.957993319901274e-07,-5.950507085350514e-07,-7.61095609000965e-07,-6.1440746506025e-07,-6.272565752927727e-07,-1.7183868552342634e-07,1.5623214710335113e-08,5.960447694986406e-07,-4.769358210218188e-07,-2.847909986625508e-07
-1.2541992530304646e-05,-3.1069146157122544e-06,-8.933158441081484e-09,-1.729096080411814e-07,5.847329161754924e-07,-1.914186504122961e-06,1.7179307354727374e-06,-1.9861834775623218e-07,-5.048162393082592e-07,-6.075660884649826e-07,-8.873786289648058e-07,-6.221712077693697e-07,-6.952374682317928e-07,-1.8061278422618158e-07,1.7451882932031928e-08,6.114119932686337e-07,-4.905065601971757e-07,-2.9726028618038205e-07
-8.987068217285428e-06,-2.1519069025853103e-06,4.355280870479331e-08,-1.868926879865487e-07,5.803549376565516e-07,-1.918974170914784e-06,1.6874341201314712e-06,-1.9716084776952493e-07,-5.135268781102495e-07,-6.139322627135031e-07,-9.764377629258954e-07,-6.233143698182851e-07,-7.606431421015543e-07,-1.8930657143682754e-07,2.0505510513583354e-08,6.274073542364628e-07,-5.021964112192733e-07,-3.051986676142484e-07
-4.380237379097666e-06,-1.6643585036201878e-06,7.916531309794044e-08,-1.912468796369571e-07,5.96252483158172e-07,-1.9230816193781237e-06,1.6593355002679296e-06,-1.9310200814979397e-07,-5.206414178753422e-07,-6.141702563322454e-07,-1.0289658791527567e-06,-6.168271586141381e-07,-8.169678550974687e-07,-1.9830078584560693e-07,2.6304443097398963e-08,6.405475946599795e-07,-5.126460796831892e-07,-3.104804326976697e-07
4.998218915759398e-07,-1.7500910216973795e-06,7.99552255976855e-08,-1.8511021284499856e-07,6.25517331137994e-07,-1.9278081793501072e-06,1.6326271618854709e-06,-1.8843065580516874e-07,-5.266887242032574e-07,-6.119542858482239e-07,-1.0547496700050485e-06,-6.050725382132957e-07,-8.607310034879157e-07,-2.0989498715510798e-07,3.4183769631646444e-08,6.455493517166776e-07,-5.245299581835032e-07,-3.1635904631272424e-07
4.567801419604749e-06,-2.371492202129486e-06,4.454399502734676e-08,-1.7072429821501715e-07,6.576542919185917e-07,-1.934460270008632e-06,1.6052916511963473e-06,-1.8640760034638408e-07,-5.327248986168544e-07,-6.108878040669918e-07,-1.0713404318508294e-06,-5.914352690717434e-07,-8.902067242550699e-07,-2.2539036941521632e-07,4.286623242495353e-08,6.396900930210853e-07,-5.391937064475166e-07,-3.2451315170329583e-07
6.939206020925053e-06,-3.093716919353437e-06,-9.038364884999639e-09,-1.5337472623391238e-07,6.828665831706536e-07,-1.9428239025534364e-06,1.5771376630111224e-06,-1.8853244127450662e-07,-5.381129571274907e-07,-6.110632242245575e-07,-1.096526755383303e-06,-5.77843610439945e-07,-9.037335795279064e-07,-2.430929410443507e-07,5.2056369453056346e-08,6.255087360356028e-07,-5.549906792920586e-07,-3.3358658125403465e-07
7.360857937396103e-06,-3.4894452011934017e-06,-5.042002670464643e-08,-1.397344831823204e-07,6.949097890029489e-07,-1.951108000100904e-06,1.5506976667704502e-06,-1.938521947035051e-07,-5.409013342931027e-07,-6.092084914938143e-07,-1.1410401128226274e-06,-5.6420252865611e-07,-9.001724928489707e-07,-2.5935000568817903e-07,6.276108874419202e-08,6.093681727836092e-07,-5.687312276748366e-07,-3.404649443612279e-07
6.211185772764393e-06,-3.2768267384517484e-06,-5.142102340102449e-08,-1.3570880305234758e-07,6.905828897601908e-07,-1.957425223380383e-06,1.530559566934769e-06,-2.010268281248333e-07,-5.390817951293307e-07,-6.02225139217916e-07,-1.2072874534498734e-06,-5.498429890200463e-07,-8.812134500851244e-07,-2.7166519132954274e-07,7.580799962321586e-08,5.967535128261581e-07,-5.786295720058459e-07,-3.4305016176495164e-07
4.121929338530128e-06,-2.20090793065413e-06,-8.007683468722612e-11,-1.4513986109193766e-07,6.673943814658558e-07,-1.9619951469941833e-06,1.5195587698485793e-06,-2.1068805445514137e-07,-5.327276570587073e-07,-5.907116669589019e-07,-1.2924943688358492e-06,-5.353571584894518e-07,-8.522352427987283e-07,-2.80937541206777e-07,8.977980274607654e-08,5.887967564917542e-07,-5.859313168092975e-07,-3.421381648773868e-07
1.633249761586447e-06,-3.297856920056354e-07,9.350555972828034e-08,-1.6931145736411783e-07,6.232958876774314e-07,-1.968297065574552e-06,1.5168736234287634e-06,-2.2526591730951565e-07,-5.247022149567599e-07,-5.790201290137332e-07,-1.3916258827586866e-06,-5.228782720076403e-07,-8.196950585224049e-07,-2.905777574649491e-07,1.0063473505751149e-07,5.830039786476408e-07,-5.935643875408295e-07,-3.408330017678371e-07
-8.715461103659926e-07,2.1107478853402132e-06,2.01960990168069e-07,-2.065637911439109e-07,5.599254065644765e-07,-1.9814814970892676e-06,1.518250849337204e-06,-2.462748059878533e-07,-5.18888802618207e-07,-5.717629506190017e-07,-1.4985905070425377e-06,-5.143064215478025e-07,-7.874337508628113e-07,-3.0318667717820003e-07,1.0374268555189909e-07,5.768506577314946e-07,-6.030478976969369e-07,-3.4203578411225867e-07
-3.1190190795299262e-06,4.520463782765172e-06,2.9311265274939117e-07,-2.5208097050296995e-07,4.860574717218005e-07,-2.00467094436831e-06,1.5187159128216585e-06,-2.717052874658731e-07,-5.179695046335504e-07,-5.701509017425068e-07,-1.6065687814530306e-06,-5.091355804916147e-07,-7.555489856269945e-07,-3.1786595528371646e-07,9.732739676174455e-08,5.709897206158963e-07,-6.126658274267059e-07,-3.462457928395735e-07
-4.9847462149849266e-06,5.044075613184397e-06,3.4343644099846615e-07,-2.9847800184290854e-07,4.1693835448993056e-07,-2.036175194753293e-06,1.5146569715627695e-06,-2.962109724738391e-07,-5.22140434798751e-07,-5.714823765487058e-07,-1.7084165191813727e-06,-5.041782201250303e-07,-7.223838775394544e-07,-3.306365279301484e-07,8.3974173434929e-08,5.689460054805677e-07,-6.187048888673437e-07,-3.516692396727954e-07
-6.556487370842536e-06,5.096093432985859e-06,3.451587258531017e-07,-3.3765455089387106e-07,3.685860187785449e-07,-2.070105889799095e-06,1.5046967162279202e-06,-3.1424095336750187e-07,-5.296896643377936e-07,-5.719962062296315e-07,-1.7981294563148535e-06,-4.957864025097175e-07,-6.877249765418556e-07,-3.3760973171551466e-07,6.891059076133335e-08,5.738973817293583e-07,-6.188038888607849e-07,-3.5656639035379915e-07
-8.079957342188568e-06,5.621152909498655e-06,3.040318499266034e-07,-3.6406773690073303e-07,3.501541205373595e-07,-2.0998851910687526e-06,1.4887324052982424e-06,-3.237006204793586e-07,-5.39036509098771e-07,-5.702892363037636e-07,-1.8728735036415906e-06,-4.827861742535877e-07,-6.551729984719703e-07,-3.3811131562180896e-07,5.664876980939362e-08,5.857220830047522e-07,-6.145221434404757e-07,-3.6164485901997775e-07
-9.767707919191571e-06,4.714539365325371e-06,2.313090718604028e-07,-3.7779851257049025e-07,3.5948506787884126e-07,-2.121742296470099e-06,1.4663517261734978e-06,-3.2718039743305063e-07,-5.498838163040709e-07,-5.68072316044825e-07,-1.9331847617105807e-06,-4.675598725974582e-07,-6.31599697117947e-07,-3.350395424153618e-07,4.8582555850008984e-08,6.008475968555822e-07,-6.106707648298651e-07,-3.7006964634135085e-07
-1.1601639665605879e-05,3.068412271575938e-06,1.367080558002244e-07,-3.8464712062954594e-07,3.851687262543994e-07,-2.135557460125151e-06,1.437281501449654e-06,-3.2976035049606284e-07,-5.626510030976883e-07,-5.677320387097725e-07,-1.980679869746404e-06,-4.5437917951711214e-07,-6.22720077044866e-07,-3.32414354347574e-07,4.3349069007762626e-08,6.146955902112846e-07,-6.118157066666362e-07,-3.8480318481779444e-07
-1.3327899185752993e-05,1.8702679644714225e-06,2.655310474210422e-08,-3.925082674258103e-07,4.133704001579502e-07,-2.1430675198975465e-06,1.4026470566579599e-06,-3.35416144179222e-07,-5.765176542262704e-07,-5.694087548475607e-07,-2.0155592323540434e-06,-4.465842844751437e-07,-6.277422774580248e-07,-3.326422425800734e-07,3.883784580135481e-08,6.244090043337028e-07,-6.191377458767705e-07,-4.0567793409033584e-07
-1.4677379131781286e-05,1.0774966581290664e-06,-9.369186227996347e-08,-4.066774956645154e-07,4.3440466442761093e-07,-2.1458877600818477e-06,1.3659359744270208e-06,-3.449733862991012e-07,-5.886307184572458e-07,-5.705380748147531e-07,-2.035455195986821e-06,-4.4496275988385414e-07,-6.384542847177941e-07,-3.3589052306514167e-07,3.3649040056205935e-08,6.297682618992236e-07,-6.303577102560975e-07,-4.290089055727392e-07
-1.5594004712412142e-05,2.3167497265758492e-07,-2.157348122336312e-07,-4.27432017490724e-07,4.4537198273778085e-07,-2.1454337683529814e-06,1.3324013006063805e-06,-3.567741107774058e-07,-5.954989008873978e-07,-5.681313364641339e-07,-2.0353798963117987e-06,-4.482901887206772e-07,-6.446177089614153e-07,-3.41658960414387e-07,2.7048606346270986e-08,6.316532810718924e-07,-6.423743587837825e-07,-4.500789233990821e-07
-1.6266167798550076e-05,-6.482027154710728e-07,-3.268749963420679e-07,-4.5066534211920775e-07,4.483611561306496e-07,-2.1442086728068233e-06,1.3068534333410238e-06,-3.688929187925397e-07,-5.950590548358963e-07,-5.615262893289384e-07,-2.0094939134236425e-06,-4.550686674588419e-07,-6.415314552296629e-07,-3.5046135037479064e-07,1.8186763464194645e-08,6.298568163890272e-07,-6.538818721542888e-07,-4.6603053205149385e-07
-1.694305240162067e-05,-1.4063693828415665e-06,-4.1275837007773085e-07,-4.704272919079636e-07,4.4646669394373306e-07,-2.1460094089521338e-06,1.291058755494423e-06,-3.8069424708027575e-07,-5.885317037715284e-07,-5.529884438731451e-07,-1.9558145666233083e-06,-4.645228731399448e-07,-6.334223734206872e-07,-3.634465083336316e-07,6.112283127643997e-09,6.229185772548779e-07,-6.65389130848578e-07,-4.764723744154736e-07
-1.7646161901702507e-05,-1.7255650818179589e-06,-4.6283959324054924e-07,-4.816866877467754e-07,4.4148759944484957e-07,-2.1537924902403334e-06,1.283526648631621e-06,-3.9242959077696926e-07,-5.795393049459323e-07,-5.455296650671518e-07,-1.8814476622524632e-06,-4.7573803437362715e-07,-6.298147633325558e-07,-3.8011601840851123e-07,-8.591285942244793e-09,6.106979835458067e-07,-6.767606544063789e-07,-4.816654829434304e-07
-1.7995791835417947e-05,-1.30661346606025e-06,-4.733330785184519e-07,-4.817908101489009e-07,4.3521482679150674e-07,-2.167164342836946e-06,1.2815156430877262e-06,-4.0363392374440994e-07,-5.716976365885024e-07,-5.399716245254817e-07,-1.8025057353866094e-06,-4.860191963469868e-07,-6.380094592673053e-07,-3.966663151941027e-07,-2.2285298213497784e-08,5.966447530859504e-07,-6.851575470326631e-07,-4.806831545583434e-07
-1.7371313724497674e-05,-8.707819139468576e-08,-4.452094006380061e-07,-4.6994799356670344e-07,4.314842845190786e-07,-2.1823393553412535e-06,1.2831926430965337e-06,-4.124225224672641e-07,-5.661199114802409e-07,-5.340862037265278e-07,-1.7358180322877093e-06,-4.908205099800603e-07,-6.57899711379163e-07,-4.071583840967424e-07,-2.938116987944367e-08,5.872060196825356e-07,-6.859253175508229e-07,-4.7176502189015485e-07
-1.5359806173913667e-05,1.6553738425347391e-06,-3.8062149472985493e-07,-4.461642253747099e-07,4.35017909654391e-07,-2.194654292807861e-06,1.2875300680279942e-06,-4.1691003092181245e-07,-5.620075961423692e-07,-5.247865126101724e-07,-1.6879154583967241e-06,-4.861876483697383e-07,-6.8300134662921e-07,-4.07067323339969e-07,-2.5916927288136018e-08,5.88441213796539e-07,-6.760558953587245e-07,-4.5472616535325706e-07
-1.2160719831840111e-05,3.4075916589371494e-06,-2.826118797188056e-07,-4.114605793138211e-07,4.4739093449537963e-07,-2.201263892732166e-06,1.2931118581775718e-06,-4.1755277358660714e-07,-5.583909648615642e-07,-5.114232359910083e-07,-1.651015180484025e-06,-4.718643626662698e-07,-7.061652186907932e-07,-3.964341165341738e-07,-1.2694072349323201e-08,6.020995700675668e-07,-6.572244327949588e-07,-4.33135748651761e-07
-8.624346337673588e-06,4.67262977593677e-06,-1.586237720540046e-07,-3.689810653084207e-07,4.6446259613925016e-07,-2.2018847258506667e-06,1.2974556223397704e-06,-4.1785930195519166e-07,-5.554568662235249e-07,-4.968894899679772e-07,-1.6089542211049633e-06,-4.52145114958684e-07,-7.245850880494453e-07,-3.7992625698235547e-07,4.854701633688145e-09,6.247865834812429e-07,-6.354151461093536e-07,-4.138323545368593e-07
-5.87059606922305e-06,5.2053889237156225e-06,-2.2652869282790194e-08,-3.2356144200197746e-07,4.784644891434683e-07,-2.197280704680747e-06,1.2978864963634244e-06,-4.2213923146273363e-07,-5.544534534669004e-07,-4.851995386380832e-07,-1.5458706800264794e-06,-4.3356387664245194e-07,-7.397724386499535e-07,-3.636835921952103e-07,2.012018766428672e-08,6.508486239746852e-07,-6.171131245344864e-07,-4.0351738870099955e-07
-4.737243422475371e-06,5.094482705188178e-06,1.085818564774402e-07,-2.7893583815457226e-07,4.829660770860672e-07,-2.187122979124276e-06,1.2930282140403779e-06,-4.3190854758189584e-07,-5.555975320371266e-07,-4.778278848229461e-07,-1.451228137579368e-06,-4.2127706800322987e-07,-7.532969670720017e-07,-3.515487999114549e-07,2.9166444519929695e-08,6.76359580400639e-07,-6.053094607911931e-07,-4.048551216885989e-07
-5.398153380798686e-06,4.639503829789883e-06,2.2246575476665747e-07,-2.3557337616946895e-07,4.7621120915827773e-07,-2.169405866439618e-06,1.2839261719814993e-06,-4.441691480568124e-07,-5.573252930913543e-07,-4.72356186843384e-07,-1.3241899714626357e-06,-4.165868092126534e-07,-7.629356412420414e-07,-3.435422806651641e-07,3.2684390616007115e-08,7.006824039863621e-07,-5.986816428876404e-07,-4.150812184303106e-07
-7.3054714681355626e-06,4.107578076244812e-06,3.1349370410703053e-07,-1.9131305513859513e-07,4.608039059080779e-07,-2.1421010991871334e-06,1.2741715587510776e-06,-4.5337584136235974e-07,-5.568320541442572e-07,-4.6466400561312755e-07,-1.1805813774095608e-06,-4.1678552611404646e-07,-7.62650222015569e-07,-3.3737052260423227e-07,3.4863936042947985e-08,7.246034356291803e-07,-5.942880236045885e-07,-4.281259045517885e-07
-9.413598980161465e-06,3.583835601969512e-06,3.810007710311611e-07,-1.442160296504969e-07,4.409803382724955e-07,-2.105736853013905e-06,1.268373877763845e-06,-4.5569729776437045e-07,-5.520696317316488e-07,-4.527109643460491e-07,-1.0561526239011314e-06,-4.1714011636591933e-07,-7.460725040958328e-07,-3.3136305719237425e-07,4.0120907305030705e-08,7.471394115014191e-07,-5.911143563369927e-07,-4.385262480929431e-07
-1.059403933622711e-05,3.0373968193598784e-06,4.261431611283476e-07,-9.535083255161858e-08,4.1971107478385014e-07,-2.0647836616241905e-06,1.2700527761036808e-06,-4.5211402257041027e-07,-5.440073820556224e-07,-4.385585901190087e-07,-9.98249306044561e-07,-4.136733695090023e-07,-7.108642490770028e-07,-3.261245448832175e-07,5.034211948960535e-08,7.641581274438467e-07,-5.91197361730941e-07,-4.440942410997372e-07
-1.0107438995727265e-05,2.471139258231618e-06,4.515614490313318e-07,-4.942321555465109e-08,3.980136094069571e-07,-2.026463008795421e-06,1.2803142766248028e-06,-4.4764381881030405e-07,-5.354204947126513e-07,-4.2663460948640866e-07,-1.046741370094304e-06,-4.0482935251213823e-07,-6.610693235668688e-07,-3.234101918357081e-07,6.449271987047425e-08,7.704879488245436e-07,-5.973332856321166e-07,-4.4555102215595445e-07
-7.958401179764838e-06,1.9759069857969617e-06,4.624093334416812e-07,-1.2723603279200659e-08,3.772206448452862e-07,-1.9974752854172962e-06,1.2981652327808966e-06,-4.47318697656109e-07,-5.286500934055307e-07,-4.196542268166722e-07,-1.2134554599283034e-06,-3.910815558349166e-07,-6.059758674092468e-07,-3.235532915593697e-07,8.025363202829425e-08,7.637823681296979e-07,-6.097032913696923e-07,-4.440858844140199e-07
-4.978066090701025e-06,1.6780528074710927e-06,4.657110544803059e-07,1.0186082314572303e-08,3.6131760203408714e-07,-1.980789399072625e-06,1.321856007580435e-06,-4.525344101630514e-07,-5.236899443709077e-07,-4.159706340211913e-07,-1.4731573855271527e-06,-3.7334288183871953e-07,-5.564165891344956e-07,-3.2417013536588063e-07,9.589584920141918e-08,7.468743195584759e-07,-6.245540935590698e-07,-4.3943904445637087e-07
-2.518181151682986e-06,1.6674840020749594e-06,4.6734750716126504e-07,1.856582735034028e-08,3.558069123975261e-07,-1.9746750811997478e-06,1.350207250788693e-06,-4.6076360142637705e-07,-5.182230437992875e-07,-4.1080135607519757e-07,-1.7740316490429346e-06,-3.5188650110665624e-07,-5.208012469890768e-07,-3.2144145393143324e-07,1.1099197427814545e-07,7.267278959738744e-07,-6.361173967581223e-07,-4.303100251635127e-07
-1.7926408682775558e-06,1.9594384502288706e-06,4.688322556028804e-07,1.5175975858947966e-08,3.6372890836878104e-07,-1.9747835757930646e-06,1.3828133796368183e-06,-4.6852021951885783e-07,-5.093254829217856e-07,-4.0031075522310197e-07,-2.0611701020737817e-06,-3.2679003436608356e-07,-5.023508472714448e-07,-3.1298568373287467e-07,1.2544101281744257e-07,7.10755328417694e-07,-6.403547851640438e-07,-4.166730244189676e-07
-3.2300540579507207e-06,2.484173196844625e-06,4.6654918301866014e-07,4.233445184191267e-09,3.82567032230746e-07,-1.9778784669805674e-06,1.4187924764696977e-06,-4.7479888133563136e-07,-4.957185155954617e-07,-3.8511369393365095e-07,-2.2969814103565758e-06,-2.993437392464041e-07,-4.978945604334401e-07,-3.001022003116966e-07,1.3787712235597333e-07,7.034178751957592e-07,-6.376463848449255e-07,-4.0174082795402483e-07
-6.311662397083729e-06,3.0800004555767187e-06,4.539617156964309e-07,-1.0556492500281895e-08,4.04379003817299e-07,-1.984064342865338e-06,1.4551059132173834e-06,-4.819537407994116e-07,-4.795813408437996e-07,-3.7008915088610953e-07,-2.4675699353571135e-06,-2.7275686017312825e-07,-4.987666200855728e-07,-2.875049576953416e-07,1.4535592261892438e-07,7.054071137327584e-07,-6.320946453689497e-07,-3.913369714159532e-07
-9.947399085134004e-06,3.5003863335563103e-06,4.2484271107702756e-07,-2.634807929874475e-08,4.1914711456134277e-07,-1.995493527448337e-06,1.487383251396844e-06,-4.933574035140827e-07,-4.6492337951290464e-07,-3.60559039061765e-07,-2.5761022230459057e-06,-2.511195728578723e-07,-4.940734387551655e-07,-2.8060460836072073e-07,1.44956050979171e-07,7.151122012709821e-07,-6.279664414610926e-07,-3.90619845064605e-07
-1.2996883845993981e-05,3.4817041565798193e-06,3.757205648380346e-07,-3.9978043758742745e-08,4.199881955208845e-07,-2.0129715720169998e-06,1.5116024934576228e-06,-5.100734839621871e-07,-4.5526874593716887e-07,-3.5825232947403405e-07,-2.6316296011979152e-06,-2.3742279779705101e-07,-4.75000081164357e-07,-2.824563457360699e-07,1.3585985141356504e-07,7.303154355794278e-07,-6.265223374234884e-07,-4.0065072174047366e-07
-1.4629244425613249e-05,2.883879599301045e-06,3.073709241424562e-07,-4.6989359852243606e-08,4.0741462712515597e-07,-2.033688484731786e-06,1.5266113241830107e-06,-5.29429687373374e-07,-4.518538771354213e-07,-3.604272687208142e-07,-2.6416808358417065e-06,-2.323566571938204e-07,-4.3833566722119545e-07,-2.9259592591702053e-07,1.2023731163080127e-07,7.486418346942504e-07,-6.259695270209064e-07,-4.1768881429740535e-07
-1.4514806452910236e-05,1.8218010006504128e-06,2.251743367739051e-07,-4.26537819157336e-08,3.8948860593689536e-07,-2.0519624413998347e-06,1.5342778262271142e-06,-5.464748252856767e-07,-4.534309009166667e-07,-3.624279467958998e-07,-2.6119799461505144e-06,-2.3468405934409627e-07,-3.882909334217443e-07,-3.082388811043434e-07,1.0180965916453606e-07,7.670623323584394e-07,-6.241302148934811e-07,-4.358274524772347e-07
-1.287877914072671e-05,6.593843951541398e-07,1.3724819414326586e-07,-2.4930553719191422e-08,3.770393811002516e-07,-2.062248767870683e-06,1.5379308063792864e-06,-5.570150191532556e-07,-4.578927745880155e-07,-3.611395784004184e-07,-2.550754029866532e-06,-2.4248610075214094e-07,-3.354862013725597e-07,-3.2639964221928183e-07,8.357659443408497e-08,7.815255432110212e-07,-6.208944977804681e-07,-4.506623195492463e-07
-1.0368119559570285e-05,-1.6274370107148457e-07,5.0751755319573e-08,2.965572687997228e-09,3.76786607152123e-07,-2.0617844800368357e-06,1.5401964330710777e-06,-5.597397784295329e-07,-4.6358665843611327e-07,-3.563508297661032e-07,-2.4716243064920567e-06,-2.5396143559790065e-07,-2.922503171052332e-07,-3.448613156095749e-07,6.658893088434477e-08,7.879482999620819e-07,-6.179254272893929e-07,-4.6086110263032453e-07
-7.756158773903804e-06,-3.4698986567744414e-07,-3.013968379157166e-08,3.287407235158411e-08,3.874644624043579e-07,-2.0506630002951204e-06,1.5421611350959936e-06,-5.557064803365082e-07,-4.6948181502486424e-07,-3.491395683141252e-07,-2.390158877979363e-06,-2.6722202758074106e-07,-2.6669396442623544e-07,-3.613865817173133e-07,5.060173834456244e-08,7.845716399092833e-07,-6.160482646145532e-07,-4.667400388656733e-07
-5.646202781379734e-06,1.3571941374088526e-07,-1.013151470910465e-07,5.548412321211512e-08,4.0215804787345255e-07,-2.0298408632861147e-06,1.5445523351452795e-06,-5.460539432028858e-07,-4.7410674403585337e-07,-3.393656791271062e-07,-2.314769209749774e-06,-2.798933064911604e-07,-2.600145942668041e-07,-3.727955747410314e-07,3.58078898946876e-08,7.73711323425201e-07,-6.132475887386279e-07,-4.679242480570127e-07
-4.330873612588576e-06,1.07150376336276e-06,-1.5298592394387775e-07,6.533349847412423e-08,4.1455769355823973e-07,-1.999733831154224e-06,1.5478599856934456e-06,-5.306146616176079e-07,-4.748107359971639e-07,-3.2516608105831575e-07,-2.2390403791606403e-06,-2.896805466692736e-07,-2.682796079160157e-07,-3.758145519224013e-07,2.366927370429526e-08,7.608267985579898e-07,-6.05552530276359e-07,-4.627562737265031e-07
-3.818250215396967e-06,2.14067286821146e-06,-1.6844826749612558e-07,6.361254267627519e-08,4.2324385567385873e-07,-1.961149488956208e-06,1.551280278555638e-06,-5.089831568176202e-07,-4.6880047664816374e-07,-3.0513164007218367e-07,-2.142582361592527e-06,-2.959710032848814e-07,-2.863604483481059e-07,-3.6959067547973276e-07,1.5714355542113952e-08,7.509660511952196e-07,-5.90294759578133e-07,-4.50033867992847e-07
-3.924402475855204e-06,3.055629648748232e-06,-1.3138748001388338e-07,5.7042664442323876e-08,4.305761588340002e-07,-1.917466254818643e-06,1.5514950885787332e-06,-4.827821296765122e-07,-4.549168438780921e-07,-2.8096275862043146e-07,-2.000093428063893e-06,-3.011723229462343e-07,-3.1139688379726406e-07,-3.5767935472886724e-07,1.1359022299703335e-08,7.451830365985885e-07,-5.688993474322708e-07,-4.311027697099768e-07
-4.366496931968946e-06,3.6039478841803193e-06,-3.5672883603660506e-08,5.3957794075207294e-08,4.3845730346608976e-07,-1.8752698444175512e-06,1.5435210726000753e-06,-4.5637959696406175e-07,-4.3488685474619327e-07,-2.576783688797669e-07,-1.7932010870210795e-06,-3.100953220228738e-07,-3.437206329481811e-07,-3.4709195518093986e-07,7.524231173760398e-09,7.401927023997083e-07,-5.464647915536418e-07,-4.0978711141040877e-07
-4.86685316060298e-06,3.604792864023686e-06,1.1133293738605035e-07,6.02440992072046e-08,4.46037581427805e-07,-1.8418581362142064e-06,1.5237533467456246e-06,-4.347562264577264e-07,-4.123840581438698e-07,-2.407297717319882e-07,-1.5208586596474586e-06,-3.2700272595785444e-07,-3.841502028822884e-07,-3.4425561081921495e-07,1.0762658930041692e-09,7.318606151070771e-07,-5.281727162553561e-07,-3.8991543894937524e-07
-5.247403455248385e-06,2.8722913606330928e-06,2.917916609239803e-07,7.72581462944828e-08,4.5170520015996335e-07,-1.8211624628281484e-06,1.4933044742512102e-06,-4.201568910796738e-07,-3.9092165587599764e-07,-2.3250954369861487e-07,-1.2052838676896334e-06,-3.521692665838421e-07,-4.29602829428963e-07,-3.5074557515485883e-07,-7.911242443073903e-09,7.193733513173628e-07,-5.156936208001212e-07,-3.7284220460540075e-07
-5.435217322760336e-06,1.214539136588176e-06,4.800552901119904e-07,1.0201563610621924e-07,4.567373785990169e-07,-1.8114146431855665e-06,1.4587389875639632e-06,-4.105957114789903e-07,-3.7238306366028934e-07,-2.3143099678359618e-07,-8.905079176514559e-07,-3.806137662026654e-07,-4.712203230480456e-07,-3.622412215101591e-07,-1.5286368135501767e-08,7.05770423399504e-07,-5.067743911972757e-07,-3.573049607671433e-07
-5.386935923183639e-06,-1.2239129733415874e-06,6.441284557072696e-07,1.2852046744900347e-07,4.661745411486617e-07,-1.8063982935053926e-06,1.4291972909087407e-06,-4.0173342532908185e-07,-3.5713732498716996e-07,-2.3426539060726963e-07,-6.329794672972572e-07,-4.041692276765354e-07,-4.970500119243609e-07,-3.71579327510653e-07,-1.526163814972157e-08,6.948634234423116e-07,-4.980852059199457e-07,-3.41566931400243e-07
-5.059041174473141e-06,-4.077758287564495e-06,7.517099551759365e-07,1.4914358402185954e-07,4.856416356584792e-07,-1.7992928811549219e-06,1.4118502621507335e-06,-3.9058309787692803e-07,-3.452874589007072e-07,-2.3931509255619994e-07,-4.861096909108995e-07,-4.15680000017786e-07,-4.974594784409304e-07,-3.7347690742022404e-07,-3.989407425323841e-09,6.878750483717403e-07,-4.884240519049348e-07,-3.2565781306756737e-07
-4.4540689590581785e-06,-6.767195022246276e-06,7.827955420742165e-07,1.5633223910299136e-07,5.171582638134536e-07,-1.7863981048559398e-06,1.4090147260262763e-06,-3.777148809579395e-07,-3.3775788843698005e-07,-2.4729478802378e-07,-4.813182173693594e-07,-4.12625921930183e-07,-4.702134716075719e-07,-3.673929367530385e-07,1.846727555905485e-08,6.826428321840311e-07,-4.792606848849347e-07,-3.115193904744553e-07
-3.6266166351635723e-06,-8.104697969457908e-06,7.420869309829181e-07,1.4563761216322353e-07,5.576866738264011e-07,-1.7682882355745783e-06,1.4178718603434308e-06,-3.659560537095045e-07,-3.359644508231981e-07,-2.5917508653742206e-07,-6.110810165064596e-07,-3.9790652808069376e-07,-4.2268977067395335e-07,-3.56918997087221e-07,4.872860038112896e-08,6.760222040576999e-07,-4.7236605041768386e-07,-3.0104892882165964e-07
-2.639259716671053e-06,-8.305490746013827e-06,6.612089035050228e-07,1.1917717779152147e-07,6.012565327113561e-07,-1.7481664935965415e-06,1.4325497444537567e-06,-3.569990697583976e-07,-3.401006305304619e-07,-2.7328855654278944e-07,-8.244261230860802e-07,-3.7757761876058705e-07,-3.694798494421166e-07,-3.469320938558883e-07,8.230870548758267e-08,6.667407931869071e-07,-4.671470391564432e-07,-2.9415405182268165e-07
-1.5854463159522485e-06,-8.196403672359456e-06,5.865451472238505e-07,8.664897341692127e-08,6.422561068224761e-07,-1.7295305969199203e-06,1.4466316994242464e-06,-3.4928909543548333e-07,-3.478718762704491e-07,-2.846980183715681e-07,-1.042698621306694e-06,-3.57360445136401e-07,-3.261209570862376e-07,-3.409135234402041e-07,1.1541099835792141e-07,6.564154287472934e-07,-4.604480623600486e-07,-2.8876925652942414e-07
-6.562710305574325e-07,-6.597367925752152e-06,5.58157854968564e-07,6.203392608209206e-08,6.765932617297656e-07,-1.7154027619817763e-06,1.454747650295043e-06,-3.392100276248859e-07,-3.5510106136573166e-07,-2.878510656565269e-07,-1.190531381870578e-06,-3.4026195641814576e-07,-3.02731686163096e-07,-3.4000675669636937e-07,1.4551729371527043e-07,6.483647699822707e-07,-4.491705931495189e-07,-2.828624103144829e-07
-1.095389107804988e-07,-3.4807642190242587e-06,5.909193946966784e-07,5.7192825085338015e-08,7.000990805922417e-07,-1.7093327911301798e-06,1.4528284267391814e-06,-3.245697755394641e-07,-3.5815720712398826e-07,-2.808109326617986e-07,-1.22629044164516e-06,-3.2650305578622496e-07,-3.0097322069940215e-07,-3.437903820156292e-07,1.706967024753999e-07,6.453859101608021e-07,-4.3343860169523813e-07,-2.7659348893401933e-07
-1.3709704200741661e-07,-5.30822760934934e-07,6.68404721803982e-07,7.608954170963787e-08,7.073200064768714e-07,-1.716237094362508e-06,1.4378030540599588e-06,-3.073329825395075e-07,-3.561509612267703e-07,-2.677232196928946e-07,-1.1568331368065355e-06,-3.1503755214278885e-07,-3.148546635090633e-07,-3.514614895619876e-07,1.8873555409047087e-07,6.482466283036778e-07,-4.1734008085492383e-07,-2.724797250351021e-07
-7.781729777334824e-07,1.7586068097165797e-06,7.532336917571485e-07,1.1308412230006026e-07,6.936262497911372e-07,-1.7410731950370526e-06,1.4084185187512907e-06,-2.9290629975647556e-07,-3.5069444512917766e-07,-2.570463159935357e-07,-1.0300877294645257e-06,-3.047856814390288e-07,-3.340366841579933e-07,-3.619937476253732e-07,1.973596193761126e-07,6.559608939778791e-07,-4.0636422211893355e-07,-2.732468778277314e-07
-1.9521861476091323e-06,3.474331002023754e-06,8.068846638366786e-07,1.559648090743122e-07,6.593080285043093e-07,-1.7855029473015614e-06,1.3668304975808852e-06,-2.8621659685564877e-07,-3.4397796874850727e-07,-2.56493231933584e-07,-9.110313300369955e-07,-2.945841667092003e-07,-3.477297618044758e-07,-3.7319081334050005e-07,1.9539177844726007e-07,6.674990934445836e-07,-4.037438471788004e-07,-2.7930717549466915e-07
-3.508869502859756e-06,4.655737853375596e-06,8.066363703542449e-07,1.9150640070860896e-07,6.11625875299203e-07,-1.8449774611836613e-06,1.3194067457881572e-06,-2.8791738490980416e-07,-3.367604014613755e-07,-2.6860425466878586e-07,-8.500477982052861e-07,-2.828033281318122e-07,-3.473767754956258e-07,-3.8112902635257004e-07,1.8367558929000569e-07,6.829921617526137e-07,-4.087475680682108e-07,-2.881493544866184e-07
-5.21612167759312e-06,5.473446568079605e-06,7.515022085823109e-07,2.102435103448483e-07,5.622663200252103e-07,-1.908894363508791e-06,1.2752906964859615e-06,-2.9408024430367617e-07,-3.2816310388999666e-07,-2.901947716851559e-07,-8.795954365030991e-07,-2.6806914167267757e-07,-3.2783520734540244e-07,-3.814128247015995e-07,1.6476968466957905e-07,7.028522571354916e-07,-4.1801598205047974e-07,-2.963057146806679e-07
-6.75410466029428e-06,5.888381979023719e-06,6.569527003018645e-07,2.0833123439724875e-07,5.212424668229018e-07,-1.9643078278886804e-06,1.2428838997086196e-06,-2.9955380616670667e-07,-3.1721812047235035e-07,-3.155036915881379e-07,-1.0044008318624075e-06,-2.5101218602778756e-07,-2.884555945921565e-07,-3.7191365399104037e-07,1.4166852592621808e-07,7.254696502627303e-07,-4.285711631151585e-07,-3.024685776770417e-07
-7.77095314834716e-06,5.630301945605823e-06,5.442771234497994e-07,1.8667335535673164e-07,4.913816449234864e-07,-2.0010444531432466e-06,1.2261050647759395e-06,-3.020405927487665e-07,-3.045776607934304e-07,-3.400193115055712e-07,-1.2031610313453423e-06,-2.3531160232172667e-07,-2.346114605188782e-07,-3.5486652915686924e-07,1.1651506867494115e-07,7.462704553808751e-07,-4.397815973450159e-07,-3.091197256645574e-07
