0,1,2,3,4,5,6,7,8,9,10,11,12,13,14,15,16,17
-2.5684692744632304e-07,-2.2886729024860176e-07,-3.0479346920640277e-07,3.1299597239169727e-07,1.8577060605989812e-07,-7.533500356287692e-06,-7.176272560225475e-07,-8.645323713435348e-07,-3.723992714640261e-07,-3.256578626229558e-07,2.537006241419012e-07,-6.853498939995288e-07,4.5309026500115524e-07,-8.324816326018956e-07,-7.76601582668749e-07,-6.372919577502831e-07,-8.121564753763894e-07,-3.583734275558189e-07
-1.6098603791983838e-07,-2.1346461877342438e-07,-2.7017528519652e-07,3.138898729762116e-07,1.3215728484017757e-07,-7.607190581899182e-06,1.2167449390218223e-06,-7.714815194184659e-07,-2.784155411639521e-07,-2.5456169870515624e-07,2.4470901600375633e-07,-4.778701979360734e-07,3.5901167379086785e-07,-5.684679365753398e-07,-7.323187446513836e-07,-6.004160416907535e-07,-7.13981084780634e-07,-2.5373236309733444e-07
-7.396941082909997e-08,-1.9482793657772473e-07,-2.1331588982010508e-07,2.719730745081961e-07,9.11859709311268e-08,-7.187099060303429e-06,2.3455279531872937e-06,-6.754940492684698e-07,-1.8207779300061305e-07,-1.6775968454767804e-07,2.524447553820208e-07,-2.702674033168122e-07,2.2019448405142234e-07,-3.443983028548702e-07,-7.650081500743932e-07,-5.731618773364838e-07,-6.298134156541507e-07,-1.6233849242918531e-07
7.528532968290939e-10,-1.6977805673519878e-07,-1.3922241644506102e-07,1.2607042870553295e-07,5.73933663936945e-08,-6.322822118661534e-06,2.7004193001224235e-06,-5.679955031125219e-07,-3.3142357976183625e-08,-6.087105080414821e-08,1.982093737711124e-07,-1.1955556576956514e-07,1.1342586245502594e-07,-2.1469891403298422e-07,-7.327864294607396e-07,-5.839425815947548e-07,-5.287559816116403e-07,-1.064335096963346e-07
5.527038601070794e-08,-1.3606211060304076e-07,-5.674672721999599e-08,-2.8328946179076084e-08,2.6977325412361822e-08,-5.0753484510066e-06,2.45294183920179e-06,-3.9873602685922177e-07,1.0986013441846558e-07,4.085110586231502e-08,1.4440609299181657e-07,-1.5413191368124078e-08,9.673299352428671e-08,-9.08020991153052e-08,-6.567611296753632e-07,-4.962307589276724e-07,-4.022307697057673e-07,-6.09217277714238e-08
7.966602783437988e-08,-9.302602626784793e-08,2.3129953072899246e-08,-1.48385594287826e-07,-1.0854122513050389e-09,-3.5190049886489085e-06,1.8387412850379077e-06,-1.7497412470737867e-07,1.5700571164961483e-07,1.1060626853633575e-07,6.513669173454364e-08,7.33274091013867e-08,1.3338745819357487e-07,6.200728109182625e-08,-5.021818521891978e-07,-3.6339241888607525e-07,-2.627606710170822e-07,4.918262678043616e-09
8.16379431173785e-08,-4.234478354551413e-08,9.049620850331921e-08,-2.1784073315668363e-07,-2.5808225832263244e-08,-1.737360784138993e-06,1.0988245098543185e-06,3.53822522084329e-08,1.2712592867208544e-07,1.5149522098264107e-07,2.2641780081662997e-08,1.4692701772958154e-07,1.2697736104780394e-07,1.467585455734011e-07,-2.4289457787496275e-07,-2.3564336660971834e-07,-7.27908952744342e-08,4.248042495459557e-08
1.056190265314735e-07,1.1543335891100667e-08,1.457119275746995e-07,-2.296108333245391e-07,-4.560845781480907e-08,1.6666874023481093e-07,3.920717648381337e-07,2.058130038830318e-07,5.587954066566479e-08,1.676007464225532e-07,-4.998979099057244e-08,1.9220508440460623e-07,9.001040150407441e-08,1.455051155105785e-07,-8.02383256513282e-08,-7.793482911102289e-08,1.4465539888226661e-08,6.177966120880127e-08
1.0196724394341805e-07,6.249995596185497e-08,1.7559411354157033e-07,-2.0026857259232647e-07,-5.910394931321608e-08,2.0638445561799673e-06,-2.1976919421922806e-07,3.376616560889533e-07,-2.263095186349365e-08,1.6104300039314078e-07,-1.0450116972719184e-07,2.187620521811879e-07,3.74675771135368e-08,1.32257631523244e-07,7.131584389545617e-08,5.891971173467319e-08,1.2073180388014878e-07,6.25492259756278e-08
9.995033758896252e-08,1.0495404537763848e-07,1.6715775649502644e-07,-1.4795483470831622e-07,-6.522204630222502e-08,3.815523213815179e-06,-7.289571790997707e-07,3.870620524279446e-07,-6.87567816182799e-08,1.3439389704321737e-07,-1.4998804390619526e-07,2.2938076483098284e-07,-3.0473822145330606e-08,1.3269915254209967e-07,2.473189741320043e-07,2.2424557050690712e-07,2.1434569006934028e-07,6.25644306326496e-08
7.529041651059195e-08,1.3578280675090151e-07,1.4387908783330637e-07,-8.894536994134037e-08,-6.358654312005274e-08,5.2765080884645035e-06,-1.1842761403312387e-06,3.90065640610914e-07,-5.9362326557876324e-08,1.0206488089094906e-07,-1.592804404250904e-07,2.135102471134835e-07,-1.0643126509019553e-07,1.4058024646895389e-07,3.9141344284962204e-07,3.3910326810347594e-07,2.8971963362066214e-07,5.1868351761591226e-08
3.0531699003249925e-08,1.5447265842835106e-07,1.1931436846037783e-07,-3.653293877426629e-08,-5.560414850025772e-08,6.278858343593452e-06,-1.656639583388732e-06,3.793039341344543e-07,1.0784357899936902e-09,6.753960707370273e-08,-1.3346216743982356e-07,1.9625441883915177e-07,-1.8271824368009436e-07,1.653234826004419e-07,5.365242905911929e-07,4.1525591760231754e-07,4.0082194132771473e-07,6.807350903719745e-08
1.5688939435059646e-09,1.6200575512091227e-07,8.486545356458654e-08,1.6977694495093494e-09,-4.5264260525377444e-08,6.642175701682648e-06,-2.133985101403144e-06,3.7265784311318754e-07,8.320172984103042e-08,3.00755177474794e-08,-1.2967762720554626e-07,1.5881663846847338e-07,-2.5260929355104984e-07,2.0529910101953074e-07,6.346178924678662e-07,5.064097614035877e-07,4.7340986388033816e-07,1.004639399319154e-07
-2.3528232101887256e-08,1.5998439476261652e-07,4.568458512540235e-08,2.199183011512085e-08,-3.837071759711249e-08,6.242342338782621e-06,-2.3995686000174695e-06,3.9684854744638677e-07,1.497010999958812e-07,-9.244757450014093e-09,-1.382280444712292e-07,1.0333806682771067e-07,-3.110418779026968e-07,2.5441948548668497e-07,7.491370037396824e-07,5.757183856024273e-07,5.506248526851249e-07,1.3166626834756986e-07
-4.739596341554982e-08,1.5059390123999748e-07,9.731021339826839e-09,2.7099411032217962e-08,-4.0277530973643066e-08,5.098220616183434e-06,-2.0851828001242007e-06,4.446696022098492e-07,1.755566097703502e-07,-5.174893807530428e-08,-1.535665189249454e-07,4.4702519425027186e-08,-3.561009180298558e-07,3.0509710983321646e-07,8.754631140098033e-07,6.755678344078018e-07,6.311672715487149e-07,1.6480202750564732e-07
-6.952825606779844e-08,1.3653396921797955e-07,-2.131068762292973e-08,2.2149463785889802e-08,-5.355326140699761e-08,3.398184742009728e-06,-9.192657366573622e-07,5.037490625864372e-07,1.5737583284133916e-07,-9.582625274707818e-08,-1.6255453101621942e-07,-8.767966531488159e-09,-3.909226562825265e-07,3.609017335304178e-07,9.830002305604863e-07,7.727933825455692e-07,7.27202696519832e-07,1.9063341851645782e-07
-9.250692505232422e-08,1.2056768281225249e-07,-4.712074673083952e-08,1.099994294868154e-08,-7.680214071446804e-08,1.4325322990359426e-06,1.0715788308441002e-06,5.606723331525678e-07,1.083980610937748e-07,-1.4063397965320078e-07,-1.6604923984299961e-07,-5.1012257769081286e-08,-4.236749359547998e-07,4.1404635173435965e-07,1.0841980299303044e-06,8.644514302475667e-07,8.021196976859409e-07,2.194463142207548e-07
-1.1706365982651499e-07,1.0501693421472306e-07,-6.954845529717418e-08,-3.0850482912228375e-09,-1.0488713720391394e-07,-5.162673035861269e-07,3.5620192862906693e-06,6.013433174006977e-07,4.563769228864339e-08,-1.8645223655604552e-07,-1.7451748243680761e-07,-8.435499208710068e-08,-4.6422135979344394e-07,4.597441138940505e-07,1.1506744904297547e-06,9.556174729859727e-07,8.572650734227017e-07,2.5203304038804065e-07
-1.4404993487783927e-07,9.159562471739951e-08,-9.12617873330334e-08,-1.8341470359104888e-08,-1.303319360529121e-07,-2.2642165998398383e-06,6.0260995467140975e-06,6.206492675488968e-07,-1.908976296344151e-08,-2.3250521084966491e-07,-2.0166941488875824e-07,-1.12880320341575e-07,-5.189185229569296e-07,4.995293595069184e-07,1.2069622071416962e-06,1.0164128733850304e-06,8.883811783745919e-07,2.825008026076603e-07
-1.7543448947112934e-07,8.144973596640122e-08,-1.1414483382783227e-07,-3.292729771635499e-08,-1.454753466419728e-07,-3.750005172230708e-06,7.814392375562194e-06,6.276695634024209e-07,-7.882906068441692e-08,-2.7676247814230777e-07,-2.425632762254364e-07,-1.4678958262104487e-07,-5.872291432578097e-07,5.331578914121381e-07,1.224644828028265e-06,1.0510223381051442e-06,8.803865611260119e-07,3.063043177659434e-07
-2.0824056138782093e-07,7.47770916319623e-08,-1.393736538292108e-07,-4.574559991783174e-08,-1.4465174623540035e-07,-4.996767634974789e-06,8.267607327109179e-06,6.391330701826579e-07,-1.266852638923859e-07,-3.167120651266683e-07,-2.8390193399994073e-07,-1.849995852604156e-07,-6.63821803782944e-07,5.618825548121574e-07,1.27282075248774e-06,1.060835418934152e-06,8.960465389744678e-07,3.1821988871418686e-07
-2.3454128433905205e-07,7.015986368015922e-08,-1.67237521012501e-07,-5.656387392365824e-08,-1.256432816218251e-07,-6.0309749136589335e-06,6.939470333454643e-06,6.74490460152857e-07,-1.5287193705730215e-07,-3.5094848302607115e-07,-3.202873576226126e-07,-2.3182655642543856e-07,-7.395474651764744e-07,5.8333079105002e-07,1.334631138866648e-06,1.079098335505744e-06,9.257903625433297e-07,3.1721943092642744e-07
-2.5881437009675805e-07,6.459831634778841e-08,-1.9785515212300206e-07,-6.601843935058456e-08,-8.999709138328116e-08,-6.8206712307872864e-06,3.8418109584117185e-06,7.461783939364283e-07,-1.4681210261699312e-07,-3.7970051183561885e-07,-3.4825563447892054e-07,-2.9236556798603336e-07,-8.083988507929588e-07,5.919167315760192e-07,1.3886280027720473e-06,1.0981131888820352e-06,9.652569490551439e-07,3.0586819315640636e-07
-2.730144627074463e-07,5.502618241834984e-08,-2.3016419407999124e-07,-7.495615368139354e-08,-4.240701057995512e-08,-7.270630084637909e-06,-4.385947573962728e-07,8.514317600646585e-07,-1.0294073980553874e-07,-4.0388309799050535e-07,-3.7356922641075394e-07,-3.6533642897945027e-07,-8.686289297720755e-07,5.841267914097442e-07,1.4567216883680319e-06,1.1219454159269606e-06,1.0110167158639964e-06,2.896970414801004e-07
-2.7590559105392946e-07,4.044618398088654e-08,-2.5999514377633233e-07,-8.670926207637006e-08,1.008579038880531e-08,-7.282211746056708e-06,-4.855743657951797e-06,9.749561949292713e-07,-2.5866050307116754e-08,-4.241544573147969e-07,-3.968475458611294e-07,-4.478995563847115e-07,-9.199857394142873e-07,5.621945231840419e-07,1.5181074599698855e-06,1.1496743966868476e-06,1.0605441987167011e-06,2.7556189133666287e-07
-2.699902671413492e-07,2.2767506059714066e-08,-2.817533156438959e-07,-9.983074626281656e-08,5.870813744186929e-08,-6.835052817027063e-06,-8.175776279210455e-06,1.0926820793174487e-06,7.007086146464876e-08,-4.40683498975887e-07,-4.1721995680165636e-07,-5.321824688825012e-07,-9.62556186175434e-07,5.342386869452772e-07,1.576228654320169e-06,1.1694955004409708e-06,1.1087188134867774e-06,2.681595423547406e-07
-2.5539434760428024e-07,5.925234327743858e-09,-2.902132273239822e-07,-1.1874657591980122e-07,9.422884508266455e-08,-6.013923623125267e-06,-9.32552428575591e-06,1.1887771346182235e-06,1.6731013222357952e-07,-4.533332350013029e-07,-4.3259654395506713e-07,-6.086393324773424e-07,-9.948345796051603e-07,5.108326354137266e-07,1.6345114411669818e-06,1.185611292669302e-06,1.1514874342507286e-06,2.6766160868042195e-07
-2.3440679465108377e-07,-5.792206823653471e-09,-2.8330651356924327e-07,-1.4392880273873882e-07,1.0968407729440153e-07,-4.959898223484748e-06,-7.732087677733592e-06,1.2300794679826777e-06,2.540813807855721e-07,-4.615765081796291e-07,-4.43708453559749e-07,-6.737575639637798e-07,-1.0141398849158004e-06,5.007377519001815e-07,1.695643734752777e-06,1.1918972230257476e-06,1.1870213758854213e-06,2.7060977326590374e-07
-2.1581914414051546e-07,-8.908662125726856e-09,-2.639709311402762e-07,-1.6776687076612055e-07,1.0341285275742816e-07,-3.819658236974577e-06,-3.5072486672068875e-06,1.208362012813916e-06,3.2973018262124684e-07,-4.643854851583415e-07,-4.4992552008172333e-07,-7.167800642503139e-07,-1.0161739225568856e-06,5.081040855446113e-07,1.7381630421670952e-06,1.1839813225818375e-06,1.1984477194317998e-06,2.7301124103542624e-07
-1.9791988731833375e-07,-1.3244227932843803e-09,-2.3958828851867673e-07,-1.7715695204548513e-07,8.00987804387635e-08,-2.723647724987846e-06,2.6434086754504998e-06,1.1291149819193903e-06,4.0294259679024963e-07,-4.608256148449226e-07,-4.447896729226201e-07,-7.355005300382214e-07,-9.96853573118776e-07,5.311349191054706e-07,1.7703229100249592e-06,1.1559012838352144e-06,1.1899711300394028e-06,2.728539948624079e-07
-1.8008925551599843e-07,1.7033400933230924e-08,-2.1965847203772186e-07,-1.558801317574828e-07,4.885275168758407e-08,-1.7703058440550686e-06,9.690642021079721e-06,1.0056976829087874e-06,4.829143355438389e-07,-4.5132593638551665e-07,-4.294633414744412e-07,-7.324681586093926e-07,-9.556626956239104e-07,5.617495078519849e-07,1.7967353884950513e-06,1.113415275190954e-06,1.1713836579037916e-06,2.701386437038332e-07
-1.6162275460249017e-07,4.329648291333447e-08,-2.126793959374538e-07,-9.370317060302743e-08,1.949595793839745e-08,-1.0155740850254785e-06,1.6521296052869296e-05,8.602976015448441e-07,5.692228506952468e-07,-4.3833721118909723e-07,-3.8767017646880085e-07,-7.108273329779511e-07,-8.942277618446643e-07,5.875338138759401e-07,1.8109869402079578e-06,1.0638798478472724e-06,1.1456653802718276e-06,2.650131649125284e-07
-1.3900044769796449e-07,7.18480490198496e-08,-2.2341245466623196e-07,9.630702698381914e-09,-9.303822703571987e-10,-4.821233131542548e-07,2.211577193568439e-05,7.1979873600526e-07,6.501900765274935e-07,-4.2514389815171743e-07,-3.265010420568033e-07,-6.801173609135558e-07,-8.164228822567839e-07,5.965974660018139e-07,1.8176118755294961e-06,1.0103982988920818e-06,1.122485732922384e-06,2.5623671369948485e-07
-1.1441991561017364e-07,9.649129887126202e-08,-2.5075000659969923e-07,1.4235717691707705e-07,-9.987578709705032e-09,-1.954830363427373e-07,2.5771578716708992e-05,6.037760027089109e-07,7.108606217636669e-07,-4.1348650016580415e-07,-2.542416149852848e-07,-6.497114704326512e-07,-7.287327847629093e-07,5.831971127176409e-07,1.813978258990059e-06,9.635558787596842e-07,1.1064288915936862e-06,2.414275663657266e-07
-8.985561480675131e-08,1.13213487768657e-07,-2.878631707343131e-07,2.8665876441363485e-07,-9.739687265559926e-09,-1.944083093419718e-07,2.7218592583212666e-05,5.195814002826778e-07,7.432060635086984e-07,-4.022062112839077e-07,-1.7381870903143888e-07,-6.265860335865139e-07,-6.3973984342926e-07,5.503218069687062e-07,1.8004272907814985e-06,9.339787640225461e-07,1.1015925286563935e-06,2.1859932817053524e-07
-6.727575701916505e-08,1.213813161596611e-07,-3.244387514475515e-07,4.191340868327699e-07,-5.229774963751098e-09,-5.122429446832419e-07,2.6514195788831698e-05,4.77136225724221e-07,7.493202209872885e-07,-3.884129147593339e-07,-8.578589356189032e-08,-6.12946617236463e-07,-5.598058074038502e-07,5.07253700248124e-07,1.7885753851875785e-06,9.154422101941761e-07,1.1061022701137822e-06,1.8731314264134184e-07
-4.79737529389005e-08,1.22531874801215e-07,-3.5034462053322956e-07,5.182386622031842e-07,-2.0516110740936405e-09,-1.1491038414694907e-06,2.3850258644859687e-05,4.748161524553195e-07,7.348664258221842e-07,-3.7026948488357186e-07,3.090853988482242e-10,-6.094202440720714e-07,-4.992906470288771e-07,4.6381458266284295e-07,1.7825686117744272e-06,9.137566037372317e-07,1.1026284168875376e-06,1.4860969790225658e-07
-3.617979328414312e-08,1.1835437439646622e-07,-3.5963576213888475e-07,5.672618505680591e-07,-3.5942483560576566e-09,-2.049301408760974e-06,1.9513340120553637e-05,5.073528314686739e-07,7.016523294983344e-07,-3.487730700920728e-07,7.725406561204855e-08,-6.131569484805114e-07,-4.6687471506660517e-07,4.254535481771226e-07,1.7883818521771528e-06,9.32661790815956e-07,1.1014152000272415e-06,1.045056706364861e-07
-3.207703015538267e-08,1.0997467161288445e-07,-3.5167145810359384e-07,5.601486353071663e-07,-9.183319042386908e-09,-3.091570704122354e-06,1.4041327993521686e-05,5.707135243717551e-07,6.476172461273684e-07,-3.273261853401208e-07,1.4005321154554302e-07,-6.207041196466751e-07,-4.6568130038651657e-07,3.924010022566394e-07,1.8080215080542313e-06,9.637663443050393e-07,1.1039351186438522e-06,5.810141591819573e-08
-3.673463805679388e-08,9.876037987455825e-08,-3.2953112210612164e-07,5.027438796894828e-07,-1.4691935850771128e-08,-4.1317523703548736e-06,8.362041702162298e-06,6.512833208582266e-07,5.723997999099597e-07,-3.0992398551296587e-07,1.7702744927190536e-07,-6.29892520537859e-07,-4.928990386007855e-07,3.621893648993348e-07,1.8438457493089024e-06,1.0022476570575867e-06,1.109890156096774e-06,1.3694875469256955e-08
-4.843585853246565e-08,8.677501303930916e-08,-2.9776009399480516e-07,4.1413104758810255e-07,-1.58096979857952e-08,-5.08141865595594e-06,3.6522422598247132e-06,7.361963550164822e-07,4.817191160327803e-07,-2.996698223739197e-07,1.8956784374430977e-07,-6.38315433631421e-07,-5.415137010871223e-07,3.3276069239562087e-07,1.8966720993583262e-06,1.041795534906976e-06,1.1214201601765215e-06,-2.430598066539429e-08
-6.306268050913667e-08,7.590173327626596e-08,-2.607014190510592e-07,2.967233153730145e-07,-1.1573525769312505e-08,-5.931042232695899e-06,8.961954234913128e-07,8.10040996853829e-07,3.87144452368532e-07,-2.982282199950596e-07,1.7557166555816502e-07,-6.446367355696919e-07,-6.029184571890024e-07,3.0444425885787627e-07,1.9591063744213125e-06,1.0745156302053483e-06,1.1303956409452279e-06,-5.308940742065472e-08
-7.875755969542047e-08,6.664202711748655e-08,-2.224560067046973e-07,1.6764717604723026e-07,-4.956916164334499e-09,-6.667559124115441e-06,4.5962610624875013e-07,8.536496987904768e-07,3.014610903691606e-07,-3.0565346874049883e-07,1.419787531739975e-07,-6.486607444041628e-07,-6.70100229015171e-07,2.8010529291885044e-07,2.0296468659261713e-06,1.0954019603321782e-06,1.131274827032066e-06,-7.205196578395866e-08
-9.419550474068071e-08,5.797783518306791e-08,-1.8662107507832214e-07,3.9632640784847004e-08,-2.6406665347946955e-11,-7.145471540275759e-06,1.9517971027736875e-06,8.665977759781526e-07,2.3117621221088395e-07,-3.20215299020631e-07,9.840198081331737e-08,-6.510726068852701e-07,-7.382562697282085e-07,2.632803818159194e-07,2.1007082833890072e-06,1.1063264009049424e-06,1.1245207992463444e-06,-8.182944583874315e-08
-1.0766230480153726e-07,5.040595716168015e-08,-1.554569395719362e-07,-8.208325029602387e-08,1.426641781402371e-09,-7.065849002221371e-06,4.414306585447923e-06,8.479751990827193e-07,1.742525238430998e-07,-3.386159924260366e-07,5.4900070523468305e-08,-6.531941875777502e-07,-8.029404379273897e-07,2.5546953814546104e-07,2.1638713799597305e-06,1.1086229382939796e-06,1.1163657295532215e-06,-8.314767097849213e-08
-1.1901325377961738e-07,4.351500937338071e-08,-1.2948302551936845e-07,-1.7569290249926086e-07,8.525702286776832e-10,-6.1245458713104135e-06,6.7393579221341605e-06,8.026068871997317e-07,1.1662641389031285e-07,-3.569583595777263e-07,1.3675169372816257e-08,-6.564949309936673e-07,-8.615203461183318e-07,2.545952046540666e-07,2.2126257086097484e-06,1.1070407586896256e-06,1.1070631337023942e-06,-7.688254761294431e-08
-1.267046529557919e-07,3.8801374334419524e-08,-1.0802846749981582e-07,-2.403916607186328e-07,1.378047737497809e-09,-4.198146333726998e-06,8.177616322315508e-06,7.460195813764618e-07,4.6613020847056626e-08,-3.7201861923079116e-07,-2.1485568072991164e-08,-6.614572441221036e-07,-9.12177850596e-07,2.558947876853868e-07,2.241609199785164e-06,1.107629040091274e-06,1.0988599413809501e-06,-6.492949248676566e-08
-1.30592911932314e-07,3.542355477169409e-08,-9.079947817663827e-08,-2.761928269658685e-07,5.569803928544453e-09,-1.462886339391681e-06,8.676878362638408e-06,6.96736601633556e-07,-3.417739281102147e-08,-3.8216792310481463e-07,-4.904429793722268e-08,-6.694667365850238e-07,-9.518727283537833e-07,2.543418950942685e-07,2.2490290114548146e-06,1.1126017783069343e-06,1.0864108156515424e-06,-5.0634437403154806e-08
-1.3245251446545436e-07,3.3173597649697296e-08,-7.623120150100784e-08,-2.831243274467052e-07,1.4189252317266762e-08,1.5925829169423287e-06,8.73845605735152e-06,6.708916193856643e-07,-1.0944761921092492e-07,-3.8659554822161556e-07,-6.679972192325176e-08,-6.805709495684245e-07,-9.79900833823713e-07,2.472709370149374e-07,2.2382358212199357e-06,1.118706042000049e-06,1.069928372356796e-06,-3.828089982071246e-08
-1.328198139809871e-07,3.459632024155648e-08,-6.3573983655024e-08,-2.6272135944390235e-07,2.626244839571284e-08,4.29431937430944e-06,8.896053320422241e-06,6.781411642154731e-07,-1.580031814535935e-07,-3.852535046995938e-07,-6.801349257951093e-08,-6.923313321490071e-07,-9.980079199230233e-07,2.3622601025566503e-07,2.2182316825307413e-06,1.1259649148055079e-06,1.0531835390260664e-06,-3.2004206481093385e-08
-1.3188593670617476e-07,3.938427401247824e-08,-5.2258757899277744e-08,-2.1776873513453873e-07,3.983141778535144e-08,6.035884940900643e-06,9.288274165071008e-06,7.200266182246883e-07,-1.690733001220031e-07,-3.7909763181620845e-07,-6.0355914683221e-08,-7.011055607271669e-07,-1.010447782969016e-06,2.2716455095799357e-07,2.198123702045495e-06,1.13527994697898e-06,1.0390705016566343e-06,-3.451108238044055e-08
-1.2970186630285446e-07,4.8252649020181486e-08,-4.169859872741494e-08,-1.513323813475412e-07,5.2908731602077125e-08,6.571395585679192e-06,9.645981302353723e-06,7.825204799183376e-07,-1.4059579928067647e-07,-3.702275159540524e-07,-5.283861996286397e-08,-7.032136654925832e-07,-1.0204378916014395e-06,2.2835292920325666e-07,2.1873521785534682e-06,1.1506075191918948e-06,1.031282804757411e-06,-4.6005769173128456e-08
-1.2672440955551316e-07,6.041381317309625e-08,-3.2280476353208155e-08,-6.536559416346017e-08,6.444523255531876e-08,6.162654228220197e-06,9.651513473263579e-06,8.468972711848466e-07,-8.217472981372179e-08,-3.6169153838122526e-07,-4.902129030434568e-08,-6.967076916074428e-07,-1.0180058897855654e-06,2.46664067757748e-07,2.193158904645801e-06,1.1743784444059972e-06,1.0323888859262651e-06,-6.378891123334409e-08
-1.2430248211263336e-07,7.392672406733205e-08,-2.4498961913305067e-08,3.167245847075496e-08,7.47244870870266e-08,5.424689207364228e-06,9.239440210005666e-06,8.995951515454163e-07,-3.1862158526475567e-09,-3.559773558806401e-07,-5.0717259769106846e-08,-6.822125150714655e-07,-1.008825986273885e-06,2.8447278457749033e-07,2.2178483495847163e-06,1.2069083306066441e-06,1.0360016871531666e-06,-8.259085796262109e-08
-1.2149519088123036e-07,8.754745884402429e-08,-1.8378720290258556e-08,1.3755965883044396e-07,8.46500840122492e-08,4.939819599697784e-06,8.553966755176178e-06,9.380948627243976e-07,9.283015497145186e-08,-3.5469350600335724e-07,-5.8665390257041295e-08,-6.628662251250571e-07,-9.913226620575506e-07,3.3910952834680674e-07,2.261478598255017e-06,1.2494392427474576e-06,1.0382887197697979e-06,-9.559162860928284e-08
-1.1918672747202897e-07,1.0074385048695186e-07,-1.3489856363997994e-08,2.506277508955991e-07,9.453491819730678e-08,4.937360021386611e-06,7.698283029852284e-06,9.618836585700357e-07,2.021885121416049e-07,-3.5831564324383317e-07,-7.165744604119142e-08,-6.43089710778774e-07,-9.643288823265248e-07,4.0444766878169236e-07,2.3197733208684138e-06,1.2989252478381327e-06,1.0401198432397996e-06,-9.631812103011111e-08
-1.1776130947944497e-07,1.133342339014725e-07,-1.01500261438438e-08,3.6616770660683213e-07,1.0368898083528757e-07,5.273189432582263e-06,6.554016130697229e-06,9.75491636846785e-07,3.174712250262033e-07,-3.666940129342121e-07,-8.994298844396852e-08,-6.277716108220287e-07,-9.347752853373196e-07,4.7292139112843676e-07,2.3870616224139284e-06,1.349171178955135e-06,1.0408352143727804e-06,-8.105108311889737e-08
-1.1787283867866276e-07,1.227892218837746e-07,-8.543105563019004e-09,4.7188205649001534e-07,1.1120493980093605e-07,5.662829406659661e-06,4.867359438408063e-06,9.87828869198201e-07,4.311270605903311e-07,-3.791044700997196e-07,-1.1530239280176293e-07,-6.204347522426443e-07,-9.051557694424862e-07,5.371440948920244e-07,2.4583915034013194e-06,1.3907776681165411e-06,1.0426800350629052e-06,-5.045142197972836e-08
-1.2125603342859253e-07,1.2753779778863573e-07,-9.073478270996675e-09,5.690814497784443e-07,1.170729374173778e-07,5.93617672931117e-06,2.454715801813412e-06,1.0003600766261452e-06,5.38521946449052e-07,-3.929675628873275e-07,-1.4335276516261952e-07,-6.216347944376292e-07,-8.790109800342347e-07,5.91094337387089e-07,2.5260384057331717e-06,1.4156281656036112e-06,1.04756881709222e-06,-9.40077045360039e-09
-1.28225779336417e-07,1.2941861761933208e-07,-7.83951708126095e-09,6.642920980345727e-07,1.2260571871209625e-07,6.140604312235002e-06,-6.082632385622186e-07,1.0168343620515696e-06,6.419021587845894e-07,-4.0587196266771834e-07,-1.7068718529619986e-07,-6.294473448830553e-07,-8.576318963184312e-07,6.31018208400381e-07,2.5838593905805443e-06,1.423401509365616e-06,1.0549537489674795e-06,3.4411235788627704e-08
-1.3778989072578523e-07,1.273026119978953e-07,-2.9441781226685227e-09,7.587483320550948e-07,1.298607067768676e-07,6.413642048902739e-06,-3.982185201944003e-06,1.0224491429483126e-06,7.232796689709736e-07,-4.1600071418623847e-07,-1.978807683260081e-07,-6.409307883899481e-07,-8.441445063576126e-07,6.561533192154971e-07,2.6290423043643943e-06,1.4183591526617783e-06,1.0651680045117402e-06,7.237274458626433e-08
-1.5086558404833183e-07,1.2303743089429693e-07,5.056918314191153e-09,8.285998455997237e-07,1.4047808488086846e-07,6.7333752414539115e-06,-7.207392073474172e-06,1.0087432728981743e-06,7.920160449253979e-07,-4.2348542686265215e-07,-2.0771222347269432e-07,-6.53455505114488e-07,-8.411288239825185e-07,6.692442589146694e-07,2.662266639288225e-06,1.4068668164234918e-06,1.0791598001755324e-06,9.44863250403608e-08
-1.6720255003771327e-07,1.1297840358335403e-07,1.6894776319631358e-08,8.662044341180874e-07,1.5476885759137277e-07,6.791905547633791e-06,-9.825919118017633e-06,9.78160995267229e-07,8.503146877013019e-07,-4.2887895338176953e-07,-2.0844853542550565e-07,-6.65487287763961e-07,-8.287043956585668e-07,6.761428796614857e-07,2.6876512213085518e-06,1.3988327260513954e-06,1.0989314359355013e-06,9.698678115456698e-08
-1.8559277122239607e-07,1.1171393412918779e-07,3.661533151818895e-08,8.685589635253336e-07,1.7156567796942834e-07,6.137878576587822e-06,-1.1445340077402626e-05,9.479155031069631e-07,9.064008238650667e-07,-4.329997449850963e-07,-2.1701178763296923e-07,-6.756928700544301e-07,-8.04232400539292e-07,6.839435199948626e-07,2.71121703189113e-06,1.4006921423552362e-06,1.1293544453918861e-06,8.084916436910403e-08
-2.068429883337938e-07,1.1619654081873124e-07,5.482677173579305e-08,8.596870589234417e-07,1.8848272804451423e-07,4.482771090315993e-06,-1.1774256850913425e-05,9.328932169791187e-07,9.464561035167107e-07,-4.3630793679806316e-07,-2.441611683488097e-07,-6.828902553025164e-07,-7.705346503087397e-07,6.982306441415393e-07,2.7389793834507437e-06,1.4162804941330484e-06,1.1686091723901603e-06,5.160341718488828e-08
-2.2876139246258882e-07,1.0664541378640905e-07,7.21768606798108e-08,8.669856927156488e-07,2.0211656973634925e-07,1.9327603490704537e-06,-1.0734439478788238e-05,9.193660321821244e-07,8.929201015704093e-07,-4.4009212847115526e-07,-2.803046575051859e-07,-6.86191907707353e-07,-7.358538764578664e-07,7.20795550749644e-07,2.7753943932779056e-06,1.4470944138418248e-06,1.2106213237993525e-06,1.3754538715615651e-08
-2.4959445294423776e-07,9.576555920802245e-08,9.164975772746016e-08,9.47865555124665e-07,2.0864251364975014e-07,-9.968354345552374e-07,-8.53852585953509e-06,9.038497908196311e-07,7.505727419334402e-07,-4.5203445839326356e-07,-3.199826185719519e-07,-6.852369687258417e-07,-7.080514241063166e-07,7.489151584598466e-07,2.8229368536459485e-06,1.4930837094528973e-06,1.2453019851484185e-06,-2.891510635814012e-08
-2.676147488426272e-07,7.70392642166335e-08,8.243695434302836e-08,1.1292984779243758e-06,2.0543709525275015e-07,-3.562563315338618e-06,-5.690350733574207e-06,8.406625679822342e-07,4.792373960441769e-07,-4.7237457552000656e-07,-3.174106517472447e-07,-6.809366425349758e-07,-6.660685125533732e-07,7.760845507809334e-07,2.8799922023247455e-06,1.5559517622553442e-06,1.2594912710986401e-06,-7.439811811911587e-08
-2.819489752497014e-07,8.22110113771782e-08,5.405884531089347e-08,1.2529223011459817e-06,1.9298142668583676e-07,-5.045136363400001e-06,-2.7438287132952157e-06,7.011492795870644e-07,1.1691671024190487e-07,-5.097612871009699e-07,-2.2782837729977982e-07,-6.757597532940777e-07,-6.217372369590686e-07,7.934880765438933e-07,2.9408269424733842e-06,1.6324296124226206e-06,1.2455949633572645e-06,-1.1449642154661385e-07
-2.9128403994240937e-07,1.3423675784924524e-07,5.289274350767762e-09,1.3546991741714093e-06,1.754287630040126e-07,-4.983383582298303e-06,-2.594798060252988e-07,6.278935731444546e-07,-4.117251338884752e-08,-5.463914181704738e-07,-2.1623731585535328e-07,-6.730726055593684e-07,-4.970673771796449e-07,7.920254822082633e-07,2.9993615394759274e-06,1.7194020821879572e-06,1.1941012599440196e-06,-1.193712046552012e-07
-2.959553583295253e-07,2.46859666941119e-07,-1.0844310709318935e-07,1.4708932339430713e-06,1.592240836348117e-07,-3.382774919040982e-06,1.2528483681090328e-06,5.413437228799826e-07,-6.218977701006809e-08,-5.589825552940592e-07,-2.257143911246975e-07,-6.75487524067306e-07,-3.5899530729599005e-07,7.647427209621452e-07,3.0338667130031253e-06,1.8083210017358429e-06,1.1046070093162282e-06,-8.75156232866746e-08
-2.976630881303754e-07,3.525206146372301e-07,-1.7594575264793826e-07,1.5620023363942365e-06,1.506130233323303e-07,-6.493393880084207e-07,1.6424002430444022e-06,5.253485642144836e-07,-1.082535974375309e-07,-5.461076054979067e-07,-2.3614446040715278e-07,-6.830331459488336e-07,-2.4232158474321693e-07,7.092540182183301e-07,3.038770880011904e-06,1.8884544179553836e-06,9.873019072549447e-07,3.7186744794324177e-09
-2.9813794581122193e-07,4.1553399846006823e-07,-2.678208779074611e-07,1.6139476283295901e-06,1.5337971709944198e-07,2.4434503700832372e-06,1.068981764021112e-06,5.022451424713803e-07,-2.174943751353849e-07,-5.259970809171376e-07,-2.7875603631534593e-07,-6.919731014734038e-07,-1.8302441381325044e-07,6.297324690769492e-07,3.017347439376068e-06,1.960085562513767e-06,8.609771043346556e-07,1.5761961438184153e-07
-2.9933771313494515e-07,4.939277632166605e-07,-4.0061208713722335e-07,1.6590035478452552e-06,1.6777961662521569e-07,5.0833859429223625e-06,-4.197917895516162e-08,3.578305578563523e-07,-4.2666245901998903e-07,-5.34987978050836e-07,-2.955249256167081e-07,-6.962301107196315e-07,-1.5142563348734301e-07,5.375043698013671e-07,2.9760037657718714e-06,2.029590819108324e-06,7.527364551440914e-07,2.5337855967782337e-07
-3.0137227160009953e-07,6.191951914108288e-07,-5.168475656037634e-07,1.7616785348296839e-06,1.909749380644429e-07,6.737107925697657e-06,-1.1665402721764123e-06,2.3625607992902864e-07,-5.372291367017725e-07,-5.62598497810092e-07,-2.531797351130853e-07,-6.915753540940473e-07,-1.0384771972497439e-07,4.491427659999388e-07,2.9275544470260316e-06,2.1087809734520873e-06,6.873937106913829e-07,2.963428690960101e-07
-3.0376484481115137e-07,7.692631227042842e-07,-6.204954886205203e-07,1.857100861911405e-06,2.1878675464399951e-07,7.184021253461016e-06,-1.9541372464570626e-06,1.8586705748411821e-07,-4.7623911303730745e-07,-5.813215583591416e-07,-1.919357209956849e-07,-6.797580967805758e-07,-2.5468836432874324e-08,3.8156020726784515e-07,2.8755702868874886e-06,2.1794427067705496e-06,6.768900861046654e-07,3.760970300590384e-07
-3.062404793162829e-07,9.069287712205867e-07,-7.00179442461244e-07,1.9569516527434802e-06,2.4805177650190205e-07,6.652087358387492e-06,-2.266838546899129e-06,1.37949316160429e-07,-4.802032294040481e-07,-6.111063062254166e-07,-1.6727936569629658e-07,-6.691105237659369e-07,1.2286009408004557e-07,3.452370690423559e-07,2.80654278638713e-06,2.2379425675628226e-06,7.116072380354652e-07,4.878530322439572e-07
-3.082153522880096e-07,9.813313314532095e-07,-7.291329205831275e-07,2.067374685874373e-06,2.782571338674608e-07,5.542412952543332e-06,-2.183150028026885e-06,5.1308118758561524e-08,-6.088317085659341e-07,-6.506543101236006e-07,-1.4356220777932707e-07,-6.711455471782381e-07,2.6836488651036694e-07,3.38299758178879e-07,2.7062412714634523e-06,2.2660315575980146e-06,7.657184057871168e-07,5.55050097040084e-07
-3.092218440396727e-07,1.0741766293209948e-06,-7.715794136090372e-07,2.1822542805776786e-06,3.112944670344174e-07,4.577249267763378e-06,-1.946168285304374e-06,-3.099230297760903e-08,-6.899787433402553e-07,-6.731584146952411e-07,-1.018412408535332e-07,-6.943693495795026e-07,4.1695600080155855e-07,3.45061791790815e-07,2.558931074030639e-06,2.1941945613038063e-06,8.044141205698087e-07,5.815918316226869e-07
-3.081121685402364e-07,1.1547563588793932e-06,-8.355005032556509e-07,2.246074905505707e-06,3.4949156811207613e-07,4.2108393802266115e-06,-1.8373013854218212e-06,-7.369587148894509e-08,-7.675755374200722e-07,-6.804561823525336e-07,-7.61461031891341e-08,-7.405478375542233e-07,5.35367632103268e-07,3.412612629486861e-07,2.3564173567205903e-06,2.099488758328755e-06,7.97192120708251e-07,5.831790778062781e-07
-3.029773787027934e-07,1.2455796657174003e-06,-8.645095473094258e-07,2.39926238922692e-06,3.934636320639432e-07,4.494908696345508e-06,-1.8340454543835324e-06,-7.271225697540349e-09,-8.617103271430584e-07,-6.837829593124583e-07,-3.420389697306756e-08,-8.050813769566625e-07,5.705193881606649e-07,3.037626442494962e-07,2.108879726814751e-06,2.052311164310272e-06,7.297661826157017e-07,5.998226208317443e-07
-2.931194005785173e-07,1.2735298647218956e-06,-8.556150462414747e-07,2.52038329371446e-06,4.4144519694810755e-07,3.778943202584494e-06,-1.6983883335496092e-06,1.683464717664895e-07,-9.415960899195753e-07,-6.863032713809858e-07,2.5749360989309373e-08,-8.790557011400116e-07,5.77610276779106e-07,2.1964978322777027e-07,1.8377502526437543e-06,2.0366520470090088e-06,6.048155437893333e-07,6.083839669020645e-07
-2.7833436378026243e-07,1.2462445337949534e-06,-8.520170998702277e-07,2.6265381296107056e-06,4.903957769334819e-07,3.3513335086773155e-06,-1.1241695363782453e-06,2.8626898753837474e-07,-1.003098276481234e-06,-6.830528923369902e-07,8.861673889105651e-08,-9.533479153523911e-07,6.254670726714366e-07,9.075884838386996e-08,1.5690820239184036e-06,1.9857630838529255e-06,4.3854813509200946e-07,5.945794773399029e-07
-2.591458121615808e-07,1.241149452737428e-06,-8.36316606813567e-07,2.6785668389584816e-06,5.375464928101817e-07,3.4261480870317004e-06,7.714111439359909e-07,3.6115679393209814e-07,-1.01682790585199e-06,-6.740371125622262e-07,1.5362965237288287e-07,-1.0204302638340138e-06,6.915743290336325e-07,-6.746698047968758e-08,1.3241019032817708e-06,1.8987895404503442e-06,2.5344992638563846e-07,5.860416618182475e-07
-2.370679302094225e-07,1.212628285759864e-06,-8.023322128268492e-07,2.735420195654408e-06,5.808651437737426e-07,3.2520972056505625e-06,4.059694516599421e-06,3.907750329660108e-07,-1.0165570217553962e-06,-6.592884204010754e-07,2.055423466991628e-07,-1.075835960564571e-06,7.560305266504839e-07,-2.3163582430153983e-07,1.1140481557193585e-06,1.8504758085392743e-06,7.010964677459228e-08,5.23783733850694e-07
-2.153765465854041e-07,1.1663699227121736e-06,-7.873317618984888e-07,2.823891717654358e-06,6.183954235779818e-07,2.655914447805729e-06,8.90425586529822e-06,3.6145552138394724e-07,-1.018938285615371e-06,-6.420326765875441e-07,2.137376001213944e-07,-1.1186829872170977e-06,8.688106295008086e-07,-3.7769963302403307e-07,9.358390217868019e-07,1.7494740192338444e-06,-9.48964555616741e-08,4.549278785047803e-07
-1.982445626709415e-07,1.1475235201373062e-06,-7.763556784074242e-07,2.9155261774252197e-06,6.477737086795857e-07,2.4522638947567256e-06,1.5419526443252678e-05,2.9354970546287393e-07,-1.0145869565378027e-06,-6.232147314617731e-07,1.8767672385668343e-07,-1.150270322480456e-06,9.124965183615304e-07,-4.872145164754787e-07,7.775480235574262e-07,1.60505874229179e-06,-2.3705948838349917e-07,3.988392881933733e-07
-1.8867284153032933e-07,1.1170755732078698e-06,-7.643411268216432e-07,3.065427980343535e-06,6.66817768265922e-07,2.0874973526027877e-06,2.2012792620856236e-05,2.0191286627970606e-07,-1.0078552050794383e-06,-6.038886213368318e-07,1.5126692216626792e-07,-1.1745041147228323e-06,9.515989726568369e-07,-5.517903531966775e-07,6.287271869461604e-07,1.473451918795391e-06,-3.584059075352366e-07,3.225010280390977e-07
-1.8811933093955438e-07,1.078345721074952e-06,-7.480339548000024e-07,3.1947116402749274e-06,6.746185622813248e-07,1.6371706124661515e-06,2.641447534939227e-05,1.1076089454279812e-07,-9.871555548268646e-07,-5.847635555032136e-07,8.377684508817435e-08,-1.196951969544655e-06,9.576315076661563e-07,-5.754083531632865e-07,4.742422453373553e-07,1.3378743981460401e-06,-4.688169629201292e-07,2.5670185477640185e-07
-1.9401554074552627e-07,1.0440266153279762e-06,-7.141549029387144e-07,3.2840323241129893e-06,6.719535247383836e-07,1.3535979711850202e-06,2.648906570302164e-05,2.887912791224955e-08,-9.146750415200334e-07,-5.66043586274396e-07,1.580096997993156e-08,-1.2233029894800546e-06,9.15092442454635e-07,-5.731001203876703e-07,2.986209031451972e-07,1.2143969053859405e-06,-5.863616239755502e-07,1.8803380232795546e-07
-2.0430827952914718e-07,1.0089082453748071e-06,-6.67513909355463e-07,3.3006225415131352e-06,6.606764494121e-07,1.1402596148645544e-06,2.184827425545523e-05,-3.938873345483096e-08,-8.118517471870596e-07,-5.493484223175859e-07,-3.4223168188168107e-08,-1.2577519392133935e-06,8.911917539602936e-07,-5.65236837630417e-07,1.0017756274413182e-07,1.1057568892531458e-06,-7.229297325320181e-07,9.59656709823965e-08
-2.1759577034700388e-07,9.745847703241912e-07,-6.159340863554691e-07,3.236887179466647e-06,6.429232451518382e-07,1.1341437245973519e-06,1.8574764306604485e-05,-9.226922229041848e-08,-7.181838250464691e-07,-5.359321732350185e-07,-7.105040753520077e-08,-1.301239884965733e-06,8.92258017006337e-07,-5.698756302334619e-07,-1.223850717654561e-07,9.705937630277014e-07,-8.92773018450112e-07,-1.966629350482207e-08
-2.3205827102362047e-07,9.612677135558746e-07,-5.677548197062961e-07,3.15433484736512e-06,6.210564340831569e-07,1.2538205691040567e-06,1.8290991589143304e-05,-1.3715243770793974e-07,-6.319499557062636e-07,-5.264069077813023e-07,-8.861306590412201e-08,-1.350502248141802e-06,9.363689919893661e-07,-5.973667769274115e-07,-3.288326532852768e-07,8.289697999814406e-07,-1.0926930804605678e-06,-1.5403260472440116e-07
-2.4620188968443925e-07,9.413773453817896e-07,-5.315301590531232e-07,3.064357419291068e-06,5.98007323627525e-07,1.3955242579126065e-06,1.4298649981585645e-05,-1.8607760525644608e-07,-5.648696134017381e-07,-5.205450462772949e-07,-6.276962727989287e-08,-1.399016467364758e-06,9.683995092388831e-07,-6.491851665609421e-07,-5.446051881817019e-07,7.259362644577382e-07,-1.3068169878076758e-06,-2.8578642529902176e-07
-2.5874582878115143e-07,9.103054525326752e-07,-5.143470319832407e-07,2.9746381842175052e-06,5.767784926176355e-07,1.5524207674967645e-06,6.013764087459622e-06,-2.407661726209629e-07,-5.223801659430615e-07,-5.192656077666533e-07,-1.7279575308599514e-08,-1.4402443875006462e-06,9.91972325532216e-07,-7.19607275716357e-07,-7.008047051591839e-07,6.489226655820221e-07,-1.492942809792049e-06,-3.8506944225847076e-07
-2.698309983662252e-07,8.718804447763799e-07,-5.207881111871163e-07,2.9011732933240543e-06,5.58922275784479e-07,1.67788777856038e-06,-1.3227259153148897e-06,-3.1068030557938946e-07,-5.035307380569e-07,-5.288754405146044e-07,-7.215514600469029e-09,-1.4699100783099124e-06,1.0013290989661408e-06,-7.983448445149195e-07,-7.885642898141637e-07,5.965195463759395e-07,-1.5894419011962612e-06,-4.258716101519821e-07
-2.789563658372547e-07,8.173876491105672e-07,-5.499821660165911e-07,2.852038833645587e-06,5.434176964341033e-07,1.6199982007038393e-06,-8.137993266161708e-06,-3.8018489745018407e-07,-5.197646172943829e-07,-5.489455367623813e-07,-2.5942964300150106e-08,-1.4864494566198478e-06,1.018749008952596e-06,-8.735381805327263e-07,-7.197671164316251e-07,5.672411116285498e-07,-1.5705099671408776e-06,-4.0956690204295925e-07
-2.8690533217107686e-07,7.55144273417573e-07,-5.994541616250336e-07,2.833451702394904e-06,5.270889807468946e-07,1.1824011178935596e-06,-1.314066471316665e-05,-4.3479055493761125e-07,-5.86873540759761e-07,-5.775861279720582e-07,-9.047416568731812e-08,-1.4898454746702213e-06,1.0430601033996704e-06,-9.352579036283198e-07,-5.684078707083477e-07,5.479768956426753e-07,-1.5636003080326163e-06,-4.234059950616423e-07
-2.933534339774167e-07,6.919125813687961e-07,-6.653278556964821e-07,2.895446822031759e-06,5.061011875457617e-07,2.6188994474685556e-07,-1.2676762449650787e-05,-4.77561299986778e-07,-7.023571013128994e-07,-6.132517497548953e-07,-1.1407917666484559e-07,-1.4795647121420215e-06,1.0300132177730928e-06,-9.78622639783821e-07,-5.236234872142429e-07,5.363480490696648e-07,-1.5423762523470684e-06,-4.640897769909177e-07
-2.986770889788556e-07,6.401849392356739e-07,-7.455957510136415e-07,3.0633286879730244e-06,4.774612860151403e-07,-1.0772628038973267e-06,-1.1338888066578765e-05,-5.239321986659985e-07,-8.490811334841726e-07,-6.53314635203766e-07,-3.677033374281488e-08,-1.4548180157963436e-06,9.797267124531108e-07,-1.0045820022143692e-06,-5.458576979246791e-07,5.352343036161426e-07,-1.50664298726569e-06,-4.787256523264185e-07
-3.038250838335969e-07,6.074210163198336e-07,-8.36369473934745e-07,3.2951521150642477e-06,4.4084090213655326e-07,-2.638959500279602e-06,-1.0261142951019524e-05,-5.948485741476037e-07,-1.0159841092702562e-06,-6.98334935527857e-07,4.10448331442489e-08,-1.4167596332251182e-06,8.82281644826676e-07,-1.017512383917368e-06,-5.354547657823769e-07,5.334798094602712e-07,-1.5130419088749428e-06,-4.264863143630135e-07
-3.1066711404277133e-07,6.018369145641954e-07,-9.292164908607198e-07,3.606207903600084e-06,4.0013573475460007e-07,-4.178094360028598e-06,-9.20593679455161e-06,-6.369403953296262e-07,-1.1841267331695376e-06,-7.452117919105151e-07,1.9920463749098066e-08,-1.3703484891821179e-06,7.706799160331654e-07,-1.021376617019871e-06,-5.017329469807086e-07,5.150719044508697e-07,-1.4689350381260625e-06,-3.4380969860972123e-07
-3.219849222251772e-07,6.155860139587535e-07,-1.0121429694016327e-06,3.844876158332015e-06,3.6310191216285e-07,-5.486798227748336e-06,-6.876598131183483e-06,-6.285306931498608e-07,-1.3250073435219458e-06,-7.961732906160968e-07,-2.393485335994234e-08,-1.3256083237970236e-06,6.734374660117381e-07,-1.0173145626475193e-06,-3.1315024649217777e-07,4.820665215276213e-07,-1.3286226320854722e-06,-2.7096813623541434e-07
-3.399975254860556e-07,6.306897197442303e-07,-1.0368817399440071e-06,3.891367803619115e-06,3.3783292983923663e-07,-6.447181103534912e-06,-4.112547188797635e-06,-4.865564727243941e-07,-1.3970485383327844e-06,-8.5085544499874e-07,-4.675766715987168e-08,-1.2933391461986837e-06,6.002943054127755e-07,-1.0038307441983556e-06,-1.3149764156464566e-07,4.3739610990546954e-07,-1.19295316761124e-06,-2.0947676532840673e-07
-3.6633793851661764e-07,6.030729744708874e-07,-1.0299495514331891e-06,3.848185031397382e-06,3.278598518452686e-07,-7.0208753273452514e-06,-2.639584049775557e-06,-2.0312715221330104e-07,-1.4771039416762338e-06,-9.07120556612572e-07,-7.17143250110736e-08,-1.2818179287659833e-06,5.558303923220633e-07,-9.784329727946776e-07,1.2525754783247049e-08,3.8668909561784296e-07,-1.0953376087563563e-06,-1.5850587314268777e-07
-4.016530143627122e-07,5.377728088906839e-07,-1.0469215934692007e-06,3.6889582326397117e-06,3.299477075512314e-07,-7.201119750995811e-06,-3.3619906441865375e-06,-1.2554263856392032e-07,-1.4716988840829125e-06,-9.629842021989325e-07,-5.5719849605104357e-08,-1.2920853608946537e-06,5.385198155019402e-07,-9.390626775387615e-07,1.4544333576672203e-07,3.398019333111128e-07,-9.98623900187588e-07,-1.4821554549386955e-07
-4.438735172804675e-07,4.7122744516154333e-07,-1.0479057980310779e-06,3.662041167238989e-06,3.3642779139030006e-07,-6.9843807391990325e-06,-5.0046928935520496e-06,-2.016622445228104e-07,-1.4478113805903427e-06,-1.0138325805630621e-06,-1.4394559964446543e-08,-1.318570118586247e-06,5.505036498934907e-07,-8.851568293583335e-07,1.700811365631859e-07,3.034266754983074e-07,-9.662239413341669e-07,-1.7435931825319066e-07
-4.88246644039324e-07,4.115501982657317e-07,-1.0031714364489475e-06,3.5023621211971328e-06,3.400499304686082e-07,-6.385531649582767e-06,-5.535044579470976e-06,-3.3589898146965123e-07,-1.4094385324279372e-06,-1.0563236277630744e-06,3.993289441027248e-08,-1.3527885742767204e-06,5.851196415172396e-07,-8.190459243367304e-07,1.394893619784435e-07,2.816215764391366e-07,-9.715299986145081e-07,-2.0625020584196543e-07
-5.294329403172712e-07,2.82809548128037e-07,-9.395991754215347e-07,3.24880226558784e-06,3.3760083792597464e-07,-5.451438769953871e-06,-4.918434913939727e-06,-3.858331307701124e-07,-1.371632511546002e-06,-1.0896863285999463e-06,9.914894305435298e-08,-1.3867676579702478e-06,6.167863048694125e-07,-7.472698715861149e-07,1.5643506931015334e-07,2.7413966384683033e-07,-9.852235903470308e-07,-2.513813673313213e-07
-5.632380235135924e-07,1.4870743092759608e-07,-9.058983921451966e-07,3.0291414899604824e-06,3.3033237244220927e-07,-4.23693445971969e-06,-4.638663478190682e-06,-3.3336710413558123e-07,-1.346918486889047e-06,-1.1163436703506698e-06,1.720818174276392e-07,-1.4162662199542155e-06,6.391841140442286e-07,-6.796535951150391e-07,1.4632626584399556e-07,2.7529676627861556e-07,-1.0099299939073897e-06,-2.8174554680367104e-07
-5.883023530536533e-07,4.7175998664471557e-08,-8.954836759939716e-07,2.848979384193362e-06,3.218174242343246e-07,-2.8043819866976382e-06,-3.959422384009293e-06,-3.093146762375085e-07,-1.3430006561131623e-06,-1.138383475293729e-06,2.3781991320348659e-07,-1.4409855256309105e-06,6.077807117076055e-07,-6.271409007411323e-07,1.4321266553411764e-07,2.776518073200159e-07,-1.0276112616583324e-06,-3.0431323911686837e-07
-6.05312412982074e-07,-3.015964974548672e-08,-8.970475123549741e-07,2.6996434200303474e-06,3.152917170784627e-07,-1.26903026542488e-06,-2.3899582995308097e-06,-3.620151164521142e-07,-1.3604944003168267e-06,-1.153704925559239e-06,2.762793403372713e-07,-1.4620372206389882e-06,4.849598539819019e-07,-5.957241447742906e-07,1.7631060492531345e-07,2.7746405153287947e-07,-1.0359252447868311e-06,-3.189921495983077e-07
-6.157789079378045e-07,-8.63780032993961e-08,-9.056495985469901e-07,2.6278997244936086e-06,3.1216655412110026e-07,1.5362458152519297e-07,-5.002042552509748e-07,-3.6421522824008346e-07,-1.3913732640881295e-06,-1.1632848624301433e-06,2.7966626027564956e-07,-1.4796469218470345e-06,3.184782273261946e-07,-5.834002193129171e-07,2.3445130474482318e-07,2.7802433966278e-07,-1.0303814799576933e-06,-3.2222966918252036e-07
-6.202317774500682e-07,-1.2609684602383894e-07,-9.133787782122682e-07,2.573991897684411e-06,3.1188619575757307e-07,1.1753433717808878e-06,1.8119655569093582e-06,-3.9089770107807586e-07,-1.4196338808483742e-06,-1.1669840839435023e-06,2.3868096313625125e-07,-1.4923079918374394e-06,1.6642214620947027e-07,-5.82020995961435e-07,3.484282430398979e-07,2.870273068609246e-07,-1.0022211501721745e-06,-3.1580743368040693e-07
-6.193831378691808e-07,-1.5285967709464778e-07,-9.162818431839191e-07,2.5336766449422064e-06,3.124420813192551e-07,1.5611055237979942e-06,3.643635562729045e-06,-4.182568106840817e-07,-1.4255276732731942e-06,-1.1638321871299285e-06,1.6255918729383937e-07,-1.4956190085302005e-06,1.1044906799998046e-07,-5.805069184558616e-07,5.189463971430588e-07,3.1060209641422147e-07,-9.399162185955118e-07,-2.9879682879478725e-07
-6.139672592626261e-07,-1.714902307173316e-07,-9.122742767105723e-07,2.498247473800772e-06,3.111480862967601e-07,1.2792471549151286e-06,4.164620058298127e-06,-4.072741946511862e-07,-1.3930866861626045e-06,-1.1536303310962645e-06,6.113816179394749e-08,-1.4825564768449193e-06,-7.708674265921869e-08,-5.692040162337923e-07,7.344154565330585e-07,3.51687952061452e-07,-8.438279378495289e-07,-2.6996569045954545e-07
-6.04277317941395e-07,-1.7621948983317758e-07,-9.058375791608793e-07,2.4467932828017425e-06,3.053358163990538e-07,5.491569225682772e-07,2.9885183434269923e-06,-3.8886233287847676e-07,-1.317706097513891e-06,-1.1346272916967446e-06,-5.491634479079212e-08,-1.4445572106857565e-06,-2.9093577296113104e-07,-5.421010450146977e-07,9.67337563046348e-07,4.107539753670854e-07,-7.118901583252434e-07,-2.3407275259140177e-07
-5.88590850249371e-07,-1.6954361285924107e-07,-8.914870162464803e-07,2.3881124093715947e-06,2.9264052241010656e-07,-2.462248502204738e-07,2.728212379257723e-07,-3.474689229172667e-07,-1.2091077589100242e-06,-1.1039719662155086e-06,-1.8318758446524228e-07,-1.3742209482845388e-06,-4.480536936954264e-07,-4.96962576928735e-07,1.2232823654110806e-06,4.881152083104272e-07,-5.477959169463147e-07,-2.0122304737857636e-07
-5.638027249564731e-07,-1.5349245865844435e-07,-8.631711630242257e-07,2.333428894631051e-06,2.708879013435569e-07,-6.98385593345832e-07,-2.796246247329089e-06,-2.798922102694762e-07,-1.0886163811760893e-06,-1.0449323266463561e-06,-3.127902458209161e-07,-1.2689687785068174e-06,-6.151286088036717e-07,-4.3439349914623135e-07,1.4905166234530464e-06,5.850787796720353e-07,-3.608677157703246e-07,-1.805937206567439e-07
-5.278322856421735e-07,-1.285873737329535e-07,-8.201108273415736e-07,2.2922483397737853e-06,2.383002759310149e-07,-4.832364502326136e-07,-4.749515901094405e-06,-1.9021338360788542e-07,-9.830711829130738e-07,-9.895813571271028e-07,-4.3551921668869294e-07,-1.1307949648292082e-06,-7.041395677717226e-07,-3.5673719377034236e-07,1.755985043985491e-06,7.021660889181238e-07,-1.677348077321856e-07,-1.8219301867631031e-07
-4.794285951223642e-07,-9.786272612476228e-08,-7.55356427426529e-07,2.273310185136351e-06,1.9477468401115552e-07,5.490188222123994e-07,-4.7297427805661005e-06,-1.5765460481067338e-07,-9.162104883999308e-07,-8.988419845684381e-07,-5.453336913930576e-07,-9.721409324284994e-07,-7.375697599794124e-07,-2.6810079356964087e-07,2.018854072340977e-06,8.375014529598089e-07,8.725780072180804e-09,-2.1208807566129018e-07
-4.237537269400241e-07,-6.213649555796013e-08,-6.783976940576106e-07,2.2839663430814474e-06,1.4404087635124615e-07,2.2745697847632663e-06,-2.621898341660915e-06,-1.4190093844994568e-07,-8.983424394263829e-07,-8.004276356470611e-07,-6.037565318141268e-07,-8.134983270462798e-07,-7.586712533492984e-07,-1.7432758536566055e-07,2.2645904384008797e-06,9.860072858109807e-07,1.7178947055180577e-07,-2.6845642251651683e-07
-3.6566644293948387e-07,-2.9763346563764574e-08,-5.931872951271511e-07,2.3237610986371774e-06,9.515714984015535e-08,4.252605844746663e-06,9.543294525801782e-07,-1.4836042576385023e-07,-9.193932519081494e-07,-6.994757279750803e-07,-6.447617551655238e-07,-6.700897593306374e-07,-7.345472441971403e-07,-8.447524422270045e-08,2.480473157820326e-06,1.1391977220436885e-06,2.3865876848937993e-07,-3.4365545220239033e-07
-3.0996274624040025e-07,3.3630764079398416e-09,-5.023613580828975e-07,2.4019115475161542e-06,6.130836692683755e-08,5.805784389718416e-06,4.827516915465531e-06,-2.0094573289175453e-07,-9.515533730391999e-07,-6.061029797555288e-07,-6.627176265368323e-07,-5.859781513781694e-07,-7.314046119927891e-07,-1.151434483108788e-08,2.6511596555569775e-06,1.2857420137501917e-06,2.4728024773998955e-07,-4.268075597986882e-07
-2.6180098946576734e-07,4.29520126038213e-08,-4.184530761494076e-07,2.5035399535593935e-06,5.563311848930003e-08,6.2525792482234305e-06,7.870765934622036e-06,-2.6843204762235687e-07,-9.618854699144229e-07,-5.28792070487259e-07,-6.445841331453486e-07,-5.862372579183999e-07,-7.667097108655657e-07,3.0939673860655424e-08,2.761001172963312e-06,1.413544784922843e-06,3.2167463095225647e-07,-5.075260049799401e-07
-2.2346716271207628e-07,7.960926752033488e-08,-3.7591859365652743e-07,2.6059065020422297e-06,8.619894841865245e-08,5.208549987306498e-06,9.638653075566094e-06,-3.4313535671425966e-07,-9.274932847421307e-07,-4.713329342452641e-07,-6.565471531801417e-07,-5.290147974038383e-07,-7.545354866390992e-07,3.25500469041484e-08,2.801913861998377e-06,1.5131229510945849e-06,3.457526844465543e-07,-5.780560482222683e-07
-1.941327079962545e-07,1.1174620450574937e-07,-3.843375703250915e-07,2.683222195213798e-06,1.5264030223992558e-07,2.822787556825001e-06,1.05984510019528e-05,-4.009358007291641e-07,-8.437914593017357e-07,-4.3365699287533616e-07,-6.383233037606403e-07,-5.055127464510893e-07,-7.163737556882086e-07,-7.780605413291256e-09,2.7760880433652494e-06,1.5797875572585803e-06,2.8063299565848876e-07,-6.335740840397644e-07
-1.7027770278052259e-07,1.363188228507999e-07,-4.21354062228266e-07,2.716236984495165e-06,2.455099168683403e-07,-2.0213180629183259e-07,1.1618455154352494e-05,-4.134606366832862e-07,-7.220625604175868e-07,-4.122485099155335e-07,-5.98214075509767e-07,-5.523049234077332e-07,-6.379626013530322e-07,-8.010918130558946e-08,2.6961061004104828e-06,1.614017796336576e-06,1.6698857816597655e-07,-6.724220416164635e-07
-1.4690349308449788e-07,1.48978145669911e-07,-4.301388230534284e-07,2.6990925499362896e-06,3.485085693989842e-07,-2.878774280043872e-06,1.309624156862807e-05,-3.54471073033711e-07,-5.802993623739236e-07,-4.0010907011142545e-07,-5.542819637736236e-07,-6.378223827995486e-07,-4.954788840459086e-07,-1.6595498577094726e-07,2.5827865380037068e-06,1.6210741414481153e-06,9.839909695869591e-08,-6.964516531445709e-07
-1.1882000966947433e-07,1.5207698698416575e-07,-4.2639995423181126e-07,2.631476507165625e-06,4.4336411773469655e-07,-4.3585824186217235e-06,1.4530012323931543e-05,-2.461973580324827e-07,-4.353108908587487e-07,-3.904010414138228e-07,-4.74545421693374e-07,-6.96250631771181e-07,-3.787482315511652e-07,-2.4319081996850653e-07,2.462317665590381e-06,1.611919700072771e-06,8.079676042030731e-08,-7.102396573993564e-07
-8.381570075910648e-08,1.5159539957284528e-07,-4.020869449543812e-07,2.52244524325273e-06,5.156089752794052e-07,-4.266487855548632e-06,1.4822231957658435e-05,-1.121185857912261e-07,-3.009464551410267e-07,-3.773954234535017e-07,-4.1242827852385514e-07,-7.316075106059817e-07,-3.0126909562451506e-07,-2.9143887416714894e-07,2.3616870232723904e-06,1.6036657240875713e-06,4.7197342573944594e-08,-7.187916308348297e-07
-4.2192974335379107e-08,1.624134253605956e-07,-3.5718030080777906e-07,2.364780836563803e-06,5.584456026612342e-07,-2.779757390145115e-06,1.2978987853714912e-05,3.4241944413884894e-08,-1.893633749455062e-07,-3.565662529317841e-07,-3.6899811988042647e-07,-7.502055866170941e-07,-2.6408575825521626e-07,-2.956375493166208e-07,2.3033967993843126e-06,1.6156308245397748e-06,7.763573833433962e-08,-7.249790151307265e-07
4.2700706325660715e-09,1.8707194706544014e-07,-3.038906103135906e-07,2.182421324488593e-06,5.731429323547933e-07,-4.468354008964805e-07,8.695333500021489e-06,1.8570698923901488e-07,-1.0910613226880715e-07,-3.2564129463928444e-07,-3.357119877903582e-07,-7.491082282397673e-07,-2.448419900609536e-07,-2.495701546040442e-07,2.3031012230108466e-06,1.662336256536691e-06,1.4769341602246863e-07,-7.284118100192866e-07
5.213699205409733e-08,2.2929437456501348e-07,-1.9775507033765913e-07,1.9922853905332925e-06,5.668925495712071e-07,2.131045222482181e-06,2.5282267034338983e-06,3.284851091133207e-07,-6.027537979904453e-08,-2.8388450338857277e-07,-3.2198266444820336e-07,-7.317742512040686e-07,-2.262977450828297e-07,-1.5779099945675453e-07,2.3665095670645793e-06,1.7474135308925044e-06,2.3076279210343744e-07,-7.262179760575608e-07
9.676863632126863e-08,2.8948430377552554e-07,-8.239235713186459e-08,1.817677273460079e-06,5.497667899261989e-07,4.560385870908064e-06,-4.324758002625626e-06,4.527458224296989e-07,-3.3543195328588026e-08,-2.3411587228301138e-07,-3.173387507860218e-07,-7.024629886048372e-07,-2.0960447278069989e-07,-3.4251282759826376e-08,2.493538061743647e-06,1.8624348708651254e-06,3.3993649759276833e-07,-7.148384131839457e-07
1.3555522690848426e-07,3.6119101475565984e-07,2.0412291696698854e-08,1.661844874355162e-06,5.319145172468386e-07,6.6932974301783844e-06,-1.0471044496385546e-05,5.615987682779735e-07,-1.5989754362470737e-08,-1.803168724093084e-07,-3.1760929259645193e-07,-6.650917042270752e-07,-1.8990603157311587e-07,1.0333061777649414e-07,2.673135701924796e-06,1.9924910370009855e-06,4.445511839763315e-07,-6.919326668465942e-07
1.6747531348963825e-07,4.392974854232765e-07,1.1045891107966058e-07,1.5149208590559381e-06,5.214611093102512e-07,8.460853722189087e-06,-1.4763933001004291e-05,6.687213612254803e-07,1.4303164992170936e-09,-1.269453335410087e-07,-3.267361892820932e-07,-6.219874342642756e-07,-1.971833902651972e-07,2.403528964820992e-07,2.8886414403588126e-06,2.122889179234438e-06,5.416258427351803e-07,-6.577231895937884e-07
1.9487012041506738e-07,5.169318890929727e-07,1.9298392711405474e-07,1.3642591338550197e-06,5.231678169699251e-07,9.724046846929727e-06,-1.6574354793391424e-05,7.601814703415585e-07,2.1507684555598664e-08,-7.86290989733155e-08,-3.42857343558684e-07,-5.748007099148262e-07,-2.1698987363796807e-07,3.6872903274344386e-07,3.119026357471645e-06,2.2428250846524105e-06,6.301677175159487e-07,-6.152139555956121e-07
2.1987519170334848e-07,5.935593637072638e-07,2.58698388189019e-07,1.2117489789577632e-06,5.380411145125727e-07,1.0313233161499013e-05,-1.5853813056123152e-05,8.618487905513345e-07,4.4523609419504337e-08,-3.889819287655881e-08,-3.586741163892591e-07,-5.254044166061792e-07,-2.3881663577576406e-07,4.86274186499369e-07,3.340252373427829e-06,2.3465842751320104e-06,7.068041565108053e-07,-5.692113312534715e-07
2.4143901519062984e-07,6.582211654596021e-07,3.000746600769701e-07,1.0838519686408145e-06,5.641165092134399e-07,1.0172737565393482e-05,-1.3062001915603441e-05,9.748535196358537e-07,7.342256763707696e-08,-9.790805194545381e-09,-3.7516907178027003e-07,-4.769850360959403e-07,-2.6883098600435696e-07,5.934702108385082e-07,3.5323446115121197e-06,2.4336785167810725e-06,7.734968108131975e-07,-5.24830434965042e-07
2.5866546257400874e-07,7.066858582569577e-07,3.175667802933234e-07,9.725200467592669e-07,5.981070781530689e-07,9.427724880907853e-06,-9.063421827279357e-06,1.086288855915323e-06,1.1583564361382935e-07,9.090101480485137e-09,-3.9156985633983127e-07,-4.3353713591039195e-07,-3.1034860324757337e-07,6.894404387710876e-07,3.6829662985766885e-06,2.507474074152146e-06,8.328180191678135e-07,-4.862552822153546e-07
2.7004761046028355e-07,7.426182795606287e-07,3.225292764292168e-07,8.752571678667033e-07,6.367034617999592e-07,8.333663634927203e-06,-4.982973642685134e-06,1.200153013741485e-06,1.8176009893897498e-07,1.962845850194793e-08,-4.0716666529402275e-07,-3.9799075721520764e-07,-3.625000974933545e-07,7.695578198579569e-07,3.79086491189286e-06,2.572789357567763e-06,8.87251053096636e-07,-4.561489906240622e-07
2.7376502596261594e-07,7.694318133301405e-07,3.202200675029577e-07,7.87516483051938e-07,6.76500721557153e-07,7.154677177432909e-06,-1.9317639329975764e-06,1.3028757553190734e-06,2.768692164714302e-07,2.4421472362931326e-08,-4.2154222498312766e-07,-3.715797379570631e-07,-4.2073592551716e-07,8.260448058576992e-07,3.863393404187783e-06,2.632527063174025e-06,9.379456631862162e-07,-4.357778293159782e-07
2.684578362255667e-07,7.943506230586309e-07,3.1250399257747647e-07,7.02735614005748e-07,7.131371315761779e-07,6.02894786154673e-06,-5.943405964162733e-07,1.3849743591079981e-06,3.9407993662724513e-07,2.5388858424663202e-08,-4.38476788669094e-07,-3.5012674723708704e-07,-4.790006623407411e-07,8.518247917392822e-07,3.913649574452959e-06,2.685789334933951e-06,9.844616563145265e-07,-4.254815785522046e-07
2.5319377995775376e-07,8.217700796182266e-07,3.0240844688382625e-07,6.238593801046184e-07,7.41411838481007e-07,4.941973064603298e-06,-9.192132313191096e-07,1.4442103190134847e-06,5.113750859743086e-07,2.362918605595385e-08,-4.62348844938532e-07,-3.3058218100036847e-07,-5.229594478922504e-07,8.464302313341523e-07,3.9550281688816155e-06,2.7296080982038093e-06,1.0266175226027248e-06,-4.247384095066385e-07
2.283827748414645e-07,8.521038045109026e-07,2.886932668518583e-07,5.547706398042645e-07,7.570742555514643e-07,3.844836423226321e-06,-2.188231451660043e-06,1.491835503255336e-06,6.010339053671603e-07,2.0088201902283506e-08,-4.917571033520974e-07,-3.0872787139314705e-07,-5.549086931414232e-07,8.190698288530447e-07,3.997745064773461e-06,2.762332647381013e-06,1.066425889999702e-06,-4.3147397247152825e-07
1.9731507318974913e-07,8.820442418860052e-07,2.7113204885272203e-07,4.963650783050744e-07,7.587875581613676e-07,2.7666025917421848e-06,-3.4545568999114066e-06,1.5332499033388063e-06,6.437147832152055e-07,1.5514120191942273e-08,-5.282080254325563e-07,-2.802275176866473e-07,-5.796851080387436e-07,7.854101356033347e-07,4.047647895312817e-06,2.7850975602936048e-06,1.1071032925823966e-06,-4.4143499892716367e-07
1.65230346394912e-07,9.022042453584907e-07,2.5009254433546047e-07,4.4807126924938276e-07,7.483360923546606e-07,1.8400879723609554e-06,-4.026594284664306e-06,1.5757856123656981e-06,6.357482940575421e-07,1.0143279688558264e-08,-5.664862967441454e-07,-2.48044908544845e-07,-6.009539490833952e-07,7.610096716923349e-07,4.105492887311831e-06,2.8002432809629572e-06,1.1500116938265241e-06,-4.4903626827371586e-07
1.3547126450284165e-07,9.121868774616472e-07,2.306980191780511e-07,4.096392874170021e-07,7.290561123221536e-07,1.2669610095373522e-06,-3.681052999923508e-06,1.6224484164083154e-06,5.853217693472528e-07,3.5319732252473584e-09,-6.015245440250643e-07,-2.1508301239928592e-07,-6.25638382902991e-07,7.560365009860112e-07,4.169139613412979e-06,2.8097813913115283e-06,1.1928376874761166e-06,-4.497513613400641e-07
1.1047413683394965e-07,9.115624435972458e-07,2.092580105978417e-07,3.803793129915951e-07,7.042299688224569e-07,1.2754552574647061e-06,-2.5801538888715722e-06,1.6729049790814914e-06,5.036356413742974e-07,-4.505999642300793e-09,-6.325366256837649e-07,-1.8664048507451886e-07,-6.56655579164891e-07,7.73244967960438e-07,4.235248329508578e-06,2.814895993390586e-06,1.23121970231691e-06,-4.4216108658005246e-07
9.148617627099197e-08,9.004408780395104e-07,2.0204743151339552e-07,3.5641082115922384e-07,6.767869515616643e-07,1.9910844752181715e-06,-1.0491070289159064e-06,1.7236992873961317e-06,4.011520259073497e-07,-1.3213386907471949e-08,-6.584189661948073e-07,-1.6926436459904525e-07,-6.951302057335616e-07,8.087030716427295e-07,4.298317192025694e-06,2.8165511276232254e-06,1.2614395333911565e-06,-4.279073846252603e-07
7.800036938833348e-08,8.834889551433188e-07,2.0806329336361534e-07,3.3744779951740987e-07,6.497929431485158e-07,3.234290972509231e-06,5.991594019765609e-07,1.7666303373994692e-06,2.9228830936607635e-07,-2.1354444019621137e-08,-6.806004670498237e-07,-1.6649608674972605e-07,-7.407041963185898e-07,8.541477639933426e-07,4.353694678409185e-06,2.815337187314335e-06,1.2812576168242407e-06,-4.100349099083454e-07
6.865379208539234e-08,8.639567086973823e-07,2.1724013752772e-07,3.269946375732047e-07,6.265001014457506e-07,4.449342664358474e-06,2.074880040069639e-06,1.785100193144308e-06,1.9972147269045476e-07,-2.851317913664317e-08,-6.996124240887165e-07,-1.778460743116466e-07,-7.910043135483734e-07,9.004374780789243e-07,4.397430604923402e-06,2.809997424288271e-06,1.2899006133590023e-06,-3.91504442323131e-07
6.317332760249425e-08,8.452688631222201e-07,2.3344005415672864e-07,3.2964854121952954e-07,6.096965711083015e-07,4.926309482258136e-06,3.0621989859051615e-06,1.768778856344916e-06,1.4813045483246366e-07,-3.556383392474932e-08,-7.187776108605487e-07,-1.9941201045182868e-07,-8.42873304861137e-07,9.407879201008746e-07,4.427054066256951e-06,2.797702041687746e-06,1.287555774411191e-06,-3.7461190194718237e-07
5.8597214166963496e-08,8.269615707758195e-07,2.5221647745603597e-07,3.4728806446221333e-07,6.009756729999159e-07,4.195684819273118e-06,3.2795561465878704e-06,1.7089027800815741e-06,1.5039621925502115e-07,-4.408510542150887e-08,-7.334412211646744e-07,-2.2542193877758872e-07,-8.941122491730665e-07,9.729768991909782e-07,4.442705081590602e-06,2.7774848657150366e-06,1.2763886900790945e-06,-3.609196082880289e-07
5.299819451066491e-08,8.118106633896591e-07,2.7034882302592884e-07,3.730650565873269e-07,6.00438652192626e-07,2.275528288117629e-06,2.625322247525284e-06,1.6183902170324185e-06,1.9868862249506627e-07,-5.492869857254376e-08,-7.452432377687579e-07,-2.491611737223612e-07,-9.444692258015963e-07,9.985518453642208e-07,4.446604782887378e-06,2.753618360792862e-06,1.261174119097897e-06,-3.5152724018752173e-07
4.7368513424272754e-08,7.990921032726308e-07,2.8739479968378294e-07,4.117946704271254e-07,6.067812461672536e-07,-3.8557292726259864e-07,1.2196676856553425e-06,1.5262894683975757e-06,2.684758254201728e-07,-6.754933503478795e-08,-7.556136452329017e-07,-2.6739215538877287e-07,-9.959828406902343e-07,1.0194301183822252e-06,4.441756422995853e-06,2.7351407367802184e-06,1.2476974488741943e-06,-3.4734526108194177e-07
4.3910267198652086e-08,7.864421204982967e-07,2.8799737290063783e-07,4.7095196196138974e-07,6.176469149736364e-07,-3.1593724880250975e-06,-7.080124590552094e-07,1.4607983085925146e-06,3.335278955838451e-07,-8.079874617085585e-08,-7.571769303883444e-07,-2.8109512761866657e-07,-1.051600850850596e-06,1.0338519862441476e-06,4.429989000452145e-06,2.730144560302741e-06,1.239690224073892e-06,-3.488983936197136e-07
4.5861249406991224e-08,7.704492580889925e-07,2.6713439941753235e-07,5.585236558524563e-07,6.303861536139357e-07,-5.476519910741002e-06,-2.9238729091861617e-06,1.4464651439334751e-06,3.8419979937468473e-07,-9.404681981490718e-08,-7.481449465439085e-07,-2.942789387419276e-07,-1.1125194247976582e-06,1.0348860444388004e-06,4.41137500412032e-06,2.740472458347453e-06,1.2366331121270147e-06,-3.557070749175341e-07
5.5983194099475915e-08,7.447774909450226e-07,2.2578065385341144e-07,6.827750161596018e-07,6.430251136602745e-07,-6.9513165183034816e-06,-5.17707294120011e-06,1.4904104448653415e-06,4.244883246397076e-07,-1.0723541538574124e-07,-7.23781913505615e-07,-3.1240749105422814e-07,-1.176185166002027e-06,1.016597872608149e-06,4.384125660719689e-06,2.7615990895671313e-06,1.2342164487984284e-06,-3.6587638502411286e-07
7.493524545600391e-08,7.048113503823033e-07,1.608616054396727e-07,8.425467212449195e-07,6.546845678749271e-07,-7.4112577481761025e-06,-7.165355377747186e-06,1.583000815790087e-06,4.7241830843014005e-07,-1.2024673631981434e-07,-6.796068506298072e-07,-3.3833263196565356e-07,-1.2361856594629351e-06,9.775058067243524e-07,4.346405057977276e-06,2.7862930444062244e-06,1.2263492067868396e-06,-3.7652754165881796e-07
1.0078356752394938e-07,6.489169222721699e-07,7.768402055191104e-08,1.0287192571190878e-06,6.649381469185859e-07,-6.888598486957771e-06,-8.5910585836087e-06,1.69974400628389e-06,5.438206788114669e-07,-1.3299426264353543e-07,-6.155550401228374e-07,-3.693735418518595e-07,-1.2848405908635116e-06,9.216350503294283e-07,4.298153489722783e-06,2.808156447130796e-06,1.2075755461097758e-06,-3.8523727668159793e-07
1.3117249496452883e-07,5.800215714660042e-07,-1.5113697088115757e-08,1.2209757533578175e-06,6.723327038136838e-07,-5.598943723293345e-06,-9.236513572044464e-06,1.8145457717691202e-06,6.408595710796512e-07,-1.4393051380950333e-07,-5.356080535402733e-07,-4.010386486790364e-07,-1.3167443108216309e-06,8.582598403319422e-07,4.2418504214030806e-06,2.8225005632123568e-06,1.1752379355075047e-06,-3.918924117735085e-07
1.6122690480266405e-07,5.051915563534943e-07,-9.312455621908159e-08,1.3983689119538023e-06,6.731517721385615e-07,-3.899446454261553e-06,-8.94421564356045e-06,1.8945273112051979e-06,7.5726723058429e-07,-1.5179330208224878e-07,-4.4796594530792026e-07,-4.2908016584456204e-07,-1.3303390140160035e-06,7.969908645290689e-07,4.1815362112164464e-06,2.8254097085590626e-06,1.1285244516147322e-06,-3.9970696749744755e-07
1.8476840494130953e-07,4.3032598751747346e-07,-1.2700269339915667e-07,1.5300996966259088e-06,6.620224325207925e-07,-2.191908272726013e-06,-7.5712874655679995e-06,1.9040879205279606e-06,8.761947581846344e-07,-1.5635745154512814e-07,-3.6348793607086035e-07,-4.5328351264308983e-07,-1.3270746862459452e-06,7.457687976631268e-07,4.120613301508162e-06,2.813322224647172e-06,1.0664582586121667e-06,-4.1435071762853715e-07
1.9669106178709158e-07,3.61641800589914e-07,-1.44856399995877e-07,1.5974686886781779e-06,6.350734162788557e-07,-7.869358017527862e-07,-5.090527870890122e-06,1.8406502213182931e-06,9.751033002435433e-07,-1.577546342473627e-07,-2.931736672985239e-07,-4.780365686288842e-07,-1.3090461584999663e-06,7.081797717558864e-07,4.054964903860587e-06,2.7849663374700815e-06,9.923833320000404e-07,-4.414264694074524e-07
1.956949657473504e-07,3.053685107462559e-07,-1.6113302601727855e-07,1.5944270400324227e-06,5.934853625171251e-07,1.9877887235261552e-07,-1.8386587452570843e-06,1.7194690190847653e-06,1.007117019049978e-06,-1.5682832639422303e-07,-2.385298843774373e-07,-5.069370072919834e-07,-1.2794062125116948e-06,6.832262923089455e-07,3.980923276383969e-06,2.7430685333521376e-06,9.111183474143172e-07,-4.835058350164771e-07
1.8470163550685282e-07,2.6567637816564166e-07,-2.1573845835702004e-07,1.5326212248885395e-06,5.441942848076738e-07,8.38714143385793e-07,1.3370533281725097e-06,1.5688621631201592e-06,9.262671095768865e-07,-1.5484963218823015e-07,-2.0809686620365894e-07,-5.442173330362251e-07,-1.242330187599974e-06,6.663266515238535e-07,3.896790382950805e-06,2.6925726005283165e-06,8.282699471038672e-07,-5.399635244280735e-07
1.682583472603074e-07,2.444255102891345e-07,-2.451259865149799e-07,1.4363796695738809e-06,4.969461230624579e-07,1.295796803379808e-06,3.2571957325027514e-06,1.4262891473972266e-06,7.553818015556049e-07,-1.539370154472831e-07,-1.9704403425886787e-07,-5.81819107520926e-07,-1.2028874965429044e-06,6.503955787155076e-07,3.802252215854868e-06,2.6374699235717015e-06,7.501639427218786e-07,-6.066223661420283e-07
1.5148216645047838e-07,2.3942754496231064e-07,-2.3189103932240083e-07,1.330871999706142e-06,4.60063569093347e-07,1.6961810057473626e-06,2.9036799443344348e-06,1.3180495181553532e-06,5.556921608644416e-07,-1.568621589986499e-07,-2.0495624987633886e-07,-6.187040616047847e-07,-1.1684454790842574e-06,6.282648584809991e-07,3.6997845224354204e-06,2.5792509794381873e-06,6.81166360624107e-07,-6.764769842734773e-07
1.3504096024616144e-07,2.4558026391575623e-07,-2.0713585544542862e-07,1.2326682153556034e-06,4.3783036050070847e-07,2.0374259767071755e-06,9.442397694042092e-10,1.2529833960803045e-06,4.0137080995792705e-07,-1.6630103045068202e-07,-2.3202013217105702e-07,-6.54591279203228e-07,-1.143886387598547e-06,5.957239452844724e-07,3.5931378226157914e-06,2.5169972623224055e-06,6.232027906934142e-07,-7.415421898835714e-07
1.1886376858824162e-07,2.5687452553535606e-07,-1.8527596650219464e-07,1.1469004157422303e-06,4.3014059998608454e-07,2.1808407294947687e-06,-4.699082553970269e-06,1.2333135129383279e-06,1.4484110228087125e-07,-1.83522559697232e-07,-2.7147867469986505e-07,-6.86899121471825e-07,-1.1320847110473244e-06,5.549282112484097e-07,3.486122088221035e-06,2.4488557931438537e-06,5.755540927286748e-07,-7.947943393794325e-07
1.0352057075367326e-07,2.697254404338479e-07,-1.607505850347088e-07,1.0707103906735402e-06,4.3329139672402975e-07,1.952339639208972e-06,-9.686308127880624e-06,1.2508865926778523e-06,-9.940075624687913e-08,-2.0510443350196437e-07,-3.170764627224411e-07,-7.174513578442437e-07,-1.1336399515709271e-06,5.145091122291624e-07,3.3823494982561732e-06,2.3733805913288402e-06,5.350850197604021e-07,-8.323751559762212e-07
8.955053341123633e-08,2.8252042678877267e-07,-1.55308870869688e-07,1.0145381738075499e-06,4.411561559153103e-07,1.2949771895468617e-06,-1.3336196831457223e-05,1.2833802707447294e-06,-1.7945254716853913e-07,-2.3059437244257477e-07,-3.6027157605512674e-07,-7.472117638994013e-07,-1.146227075225347e-06,4.833647696060551e-07,3.287728194574083e-06,2.2909812836026925e-06,4.964043181515423e-07,-8.543969402254951e-07
7.766239283919966e-08,2.9417277364004493e-07,-1.478677122613402e-07,9.786617646398985e-07,4.4703754168293443e-07,3.5484966376387625e-07,-1.4512676882145787e-05,1.3077433242115687e-06,-2.20074598259906e-07,-2.5928789909783616e-07,-3.9877731673683325e-07,-7.802091587729208e-07,-1.1664240137223562e-06,4.6785080159621187e-07,3.202703899261216e-06,2.205002983077159e-06,4.5535700448283007e-07,-8.644961657436444e-07
6.751294766666305e-08,3.037186987690319e-07,-1.4348366930496916e-07,9.568789051931283e-07,4.4624129752204594e-07,-5.753745053196405e-07,-1.2885200041680834e-05,1.3047923442852023e-06,-2.3631505525967584e-07,-2.885644002290348e-07,-4.3013215610771087e-07,-8.16947088316212e-07,-1.1894662406496016e-06,4.70283789534501e-07,3.1288148494608384e-06,2.1218792755280525e-06,4.1157264888334376e-07,-8.668390490727555e-07
5.9535265005196857e-08,3.110369913305398e-07,-1.453204697218923e-07,9.461239597286027e-07,4.3820422156600034e-07,-1.2272081970998534e-06,-8.934598246863662e-06,1.2657043061600233e-06,-1.7468195586097524e-07,-3.168356344971776e-07,-4.5541162277937596e-07,-8.555694455310971e-07,-1.2128464078485237e-06,4.832875711619539e-07,3.0682864308887506e-06,2.0499474753179516e-06,3.6610019204397513e-07,-8.648795374042195e-07
5.389480865254072e-08,3.171739712323279e-07,-1.4283676690147313e-07,9.337244190382358e-07,4.2667549690957333e-07,-1.552454622015471e-06,-3.7124711329468544e-06,1.1974272698669902e-06,-9.932565931563122e-08,-3.4055052625970535e-07,-4.793841326374699e-07,-8.883784258534218e-07,-1.235852721273112e-06,5.013537969557419e-07,3.0210925205217047e-06,1.9973192938476372e-06,3.215719874539587e-07,-8.603854306952545e-07
5.1770903901183724e-08,3.240496423226146e-07,-1.3789734808221762e-07,9.143188902885086e-07,4.176632479428896e-07,-1.7968564449793449e-06,1.528915288090186e-06,1.1160389092114035e-06,-7.263667210872196e-08,-3.5683218661297004e-07,-4.966338346028871e-07,-9.074284757778767e-07,-1.2537723112810885e-06,5.190766955125528e-07,2.98754342055485e-06,1.969341482884515e-06,2.8045962288295007e-07,-8.530613020062701e-07
5.3725256061258364e-08,3.329334935079193e-07,-1.2634347839859115e-07,8.84141209334999e-07,4.1647929682684203e-07,-2.3461193042038503e-06,5.7032176768201405e-06,1.0372875910937867e-06,-1.037909717630313e-07,-3.652852776348701e-07,-5.166972718128357e-07,-9.070316539251432e-07,-1.2692825827527726e-06,5.297669217479855e-07,2.966017168628233e-06,1.9660832546591536e-06,2.447455621844323e-07,-8.417642223432586e-07
5.913091904170809e-08,3.434269202958999e-07,-1.0606343823289419e-07,8.40892089802988e-07,4.2573616994355005e-07,-3.4230789598923415e-06,8.15887617891838e-06,9.741668332766916e-07,-1.7275638313221414e-07,-3.679499460122153e-07,-5.458866631890035e-07,-8.860678504777683e-07,-1.2840239586690165e-06,5.305571501551124e-07,2.9558279300888195e-06,1.9821049507375688e-06,2.146367361171474e-07,-8.254685247380883e-07
6.735392782295282e-08,3.5458725555511574e-07,-7.948314466370923e-08,7.794959141457143e-07,4.45114244485331e-07,-4.874932718816174e-06,8.75720669989256e-06,9.289273170359336e-07,-2.5873151957466134e-07,-3.6672765549347543e-07,-5.769661187343545e-07,-8.487723004523014e-07,-1.2997364485082978e-06,5.207872386304911e-07,2.959783639386699e-06,2.00815105574998e-06,1.9522723089628012e-07,-8.039758381633512e-07
7.88561043788567e-08,3.6618960944322363e-07,-4.157206426764861e-08,6.998915733271138e-07,4.7233549114816163e-07,-6.207068560891304e-06,7.716517033597578e-06,8.988550974943388e-07,-3.373850836000052e-07,-3.6315965441887414e-07,-6.158907530867162e-07,-7.981257489157033e-07,-1.3199997368306771e-06,5.032829768414739e-07,2.9807744623066774e-06,2.0339234540162633e-06,1.9486899170009284e-07,-7.782036786046221e-07
9.515731435339902e-08,3.7895052507947555e-07,3.740416129571324e-09,6.068863289920563e-07,5.041919672320671e-07,-6.829226468002803e-06,5.347787296940006e-06,8.810090676530667e-07,-3.7911530731327735e-07,-3.581612488874536e-07,-6.571967684972814e-07,-7.339603799251649e-07,-1.344682546274669e-06,4.8386527179557e-07,3.016790540898744e-06,2.0514803228157005e-06,2.095359002559191e-07,-7.499543019428613e-07
1.1588695731695765e-07,3.946591702211902e-07,5.287211680795469e-08,5.069784741727142e-07,5.369995223559875e-07,-6.356004978026195e-06,1.926222587015279e-06,8.706567088049748e-07,-3.466502409007526e-07,-3.562836795508601e-07,-7.089033768630252e-07,-6.611389558374242e-07,-1.3693352261988637e-06,4.6918722284056544e-07,3.0588262514257796e-06,2.0575834388690387e-06,2.3911608325592663e-07,-7.212855090461169e-07
1.3835410664526772e-07,4.136216348584066e-07,1.0156276348724173e-07,4.135792808007401e-07,5.667474344518484e-07,-4.79352689257598e-06,-2.211390618883362e-06,8.643287733007241e-07,-2.3469745358238764e-07,-3.5777437826810616e-07,-7.31539168527657e-07,-5.820846867312564e-07,-1.3843858354076073e-06,4.6070565026777644e-07,3.0925247396227967e-06,2.054336195896835e-06,2.754091334689524e-07,-6.934254455982308e-07
1.6029790851132574e-07,4.325407328457234e-07,1.4274642373058423e-07,3.5309832160005445e-07,5.894758964006501e-07,-2.5427777710643114e-06,-6.54873736197397e-06,8.601637263308042e-07,-2.1875990547040664e-07,-3.6140696890067514e-07,-7.238732541222065e-07,-4.972900086860056e-07,-1.383450026680102e-06,4.570298333310358e-07,3.103492835424858e-06,2.0482062447142562e-06,3.0748968490312006e-07,-6.659561204046589e-07
1.7981069762160424e-07,4.5511269634850894e-07,1.7301739337347463e-07,3.401146967684144e-07,6.019109642404362e-07,-2.413076834691734e-07,-1.0471636129923299e-05,8.537525655667431e-07,-2.9147105637921757e-07,-3.6553352624398487e-07,-6.734281438858574e-07,-4.103192970867072e-07,-1.3561492621256453e-06,4.526644802401828e-07,3.0839556897129147e-06,2.047532390235174e-06,3.3324329111406883e-07,-6.373812146953324e-07
1.9621800722652167e-07,4.855675342012785e-07,1.9015789149984606e-07,3.8948190511779724e-07,6.019240535982503e-07,1.4750101310026543e-06,-1.3514437590119515e-05,8.392321609806136e-07,-5.050410410814646e-07,-3.6735286179394915e-07,-5.67764706039366e-07,-3.250521988930912e-07,-1.2945674061915014e-06,4.409175685308552e-07,3.0339228556126093e-06,2.0585831916037043e-06,3.5370939167685966e-07,-6.070719555456949e-07
2.0736036124923633e-07,5.286312795272729e-07,1.8816223241741252e-07,5.055114967415401e-07,5.887856076453644e-07,2.195223152087801e-06,-1.5505369662410513e-05,8.143025355715344e-07,-6.769391761239841e-07,-3.665204787004111e-07,-5.154889010434289e-07,-2.492132160429636e-07,-1.1943432610310576e-06,4.213781304207697e-07,2.9545341377368245e-06,2.07990094635236e-06,3.7582566243656765e-07,-5.770945058375188e-07
2.1173176481098058e-07,5.831464187425017e-07,1.6675606562793087e-07,6.807199182407586e-07,5.637243094730939e-07,1.837489578612282e-06,-1.669999711484064e-05,7.808887105144238e-07,-8.075101637839908e-07,-3.627442161405353e-07,-5.271689754119555e-07,-1.8904777412553686e-07,-1.0521377819268262e-06,3.943945084164367e-07,2.851902335799907e-06,2.1064481233498937e-06,3.985527253344132e-07,-5.534570410552729e-07
2.063143257776122e-07,6.433059875491836e-07,1.2851959149224374e-07,8.955080223395648e-07,5.307372581977317e-07,5.921019973186825e-07,-1.7387889435948644e-05,7.451116130151891e-07,-7.826675944008458e-07,-3.572753217672577e-07,-5.405078784919495e-07,-1.4831002529007109e-07,-8.751239681725082e-07,3.6035071930661707e-07,2.729618232726274e-06,2.1295243204273313e-06,4.2423766878968707e-07,-5.42256675822912e-07
1.8884634546694775e-07,7.035540237602598e-07,8.51146437295827e-08,1.1152749865752724e-06,4.96474072288927e-07,-1.2403297767846331e-06,-1.7689841706039553e-05,7.13426278221791e-07,-6.603925842553646e-07,-3.5098521663981603e-07,-4.568952894308304e-07,-1.1412289614061114e-07,-6.76935813502868e-07,3.238662060197215e-07,2.5879573390388627e-06,2.1397908378092247e-06,4.493870050032695e-07,-5.481111252319514e-07
1.69019931028061e-07,7.57024159229623e-07,4.875532263313137e-08,1.3002072128469239e-06,4.6831501687667706e-07,-3.3414888194227303e-06,-1.7563814819817712e-05,6.878811566759051e-07,-5.333134738859978e-07,-3.393320066294493e-07,-3.1544839001885285e-07,-9.260819372060551e-08,-4.739175780050041e-07,2.8702395388583667e-07,2.4283811108390105e-06,2.1322402868993613e-06,4.686067341812835e-07,-5.724474120126229e-07
1.4647190887106703e-07,8.001077507272643e-07,2.606491720229533e-08,1.4340551149600174e-06,4.5165910297584996e-07,-5.4191644789664305e-06,-1.687260309518328e-05,6.660097833849653e-07,-4.561197204204608e-07,-3.262770743617789e-07,-1.7454589392346048e-07,-7.962237589006469e-08,-2.883253342656533e-07,2.508980274200888e-07,2.252807839197511e-06,2.1087942191106796e-06,4.705195408599289e-07,-6.123021476364138e-07
1.2236435066635012e-07,8.309178400777196e-07,1.899355524758336e-08,1.5147236339013309e-06,4.48357972574496e-07,-7.172770978431732e-06,-1.5755741277355573e-05,6.47490158136331e-07,-2.609150257883414e-07,-3.1581958582944755e-07,-2.643598249162724e-08,-7.25878402923816e-08,-1.369140833172518e-07,2.2624745439837514e-07,2.065853188555671e-06,2.073817910302851e-06,4.47807138708144e-07,-6.620084631259993e-07
9.96773587644602e-08,8.483012960850709e-07,2.6448787122005702e-08,1.5378354219978732e-06,4.568804693953279e-07,-8.322806196533982e-06,-1.4651355149584941e-05,6.375797171321435e-07,-5.804213302699411e-08,-3.07807150871902e-07,6.852222014658505e-08,-7.743526939775953e-08,-2.86840428419613e-08,2.140469693963848e-07,1.865426005129086e-06,2.0345796883756997e-06,4.175800836247272e-07,-7.147250209063969e-07
7.831556006336658e-08,8.536568175109274e-07,4.4398548421556156e-08,1.5245719789806524e-06,4.7317017606362615e-07,-8.612319780662787e-06,-1.4348440754169663e-05,6.417144337013085e-07,5.56469538681614e-08,-3.026681594188448e-07,1.2858162406324776e-07,-9.077730198407139e-08,2.813209693732185e-08,2.1498575704476406e-07,1.6932570002787925e-06,1.998497141304943e-06,3.734797613172106e-07,-7.621874107089801e-07
6.396500458071681e-08,8.491544456104889e-07,6.985775774952093e-08,1.4923233952161e-06,4.914509998801684e-07,-7.925289627224398e-06,-1.5099617369670525e-05,6.693525423741323e-07,9.878881032512711e-08,-2.9921725396556297e-07,1.719456998583529e-07,-1.1054635586719274e-07,3.735874743238906e-08,2.305810169377609e-07,1.5557340485729325e-06,1.9680552426826928e-06,3.201984871169827e-07,-8.051290859808145e-07
5.736098080427974e-08,8.383938214273173e-07,9.204340314130082e-08,1.4460528075195874e-06,5.054105681475054e-07,-6.1653867589997554e-06,-1.734746066835088e-05,7.285948032058171e-07,6.96389735104595e-08,-2.9629872586197975e-07,1.953106013142428e-07,-1.2776639883088503e-07,9.113618399706062e-09,2.567276873025487e-07,1.4574977493569342e-06,1.9430602830258397e-06,2.67835965769035e-07,-8.420584019460968e-07
5.898351236916893e-08,8.203268549378986e-07,1.0565127347747867e-07,1.3912695447002144e-06,5.103458168295075e-07,-3.3063898660050107e-06,-1.8300294551694505e-05,8.185130462501027e-07,-8.438905653360915e-09,-2.944465313483183e-07,1.8550194383322485e-07,-1.531087542024824e-07,-5.481875490751845e-08,2.91389547710344e-07,1.4107293979254668e-06,1.9231530715354114e-06,2.2290438954195058e-07,-8.740146699370473e-07
6.003438072548639e-08,7.935413174734833e-07,1.1241196584713813e-07,1.3234823378017625e-06,5.056469719189133e-07,4.7603537974920465e-07,-1.7087947109049188e-05,9.302365286399468e-07,-9.674956532595392e-08,-2.9604323999913195e-07,1.495851181228755e-07,-1.7656527234905982e-07,-1.344415936420221e-07,3.300833731434054e-07,1.4106453730580326e-06,1.9064256168028418e-06,2.01722031080558e-07,-9.058901155454457e-07
5.798402599759997e-08,7.603433471945793e-07,1.161231349445226e-07,1.228792319043641e-06,4.957959546156566e-07,4.795796357272044e-06,-1.6876323989562852e-05,1.051972512870511e-06,-1.6875215462972522e-07,-2.989873990000858e-07,8.972387627033188e-08,-1.8860745730027668e-07,-2.211257402342013e-07,3.669305003136e-07,1.4506670533880732e-06,1.8942029386630636e-06,2.147457674632754e-07,-9.40109816613756e-07
5.227296465189875e-08,7.227106711277486e-07,1.2465479415077578e-07,1.1073083246031092e-06,4.885170866148383e-07,9.045819614098437e-06,-1.624239867568548e-05,1.1727533287178423e-06,-2.1016179951666136e-07,-3.0125846480580317e-07,1.1024698065936854e-08,-1.8695985022129867e-07,-3.0727798706462235e-07,3.9412250245061037e-07,1.5198686878849149e-06,1.887451176770362e-06,2.623342763155751e-07,-9.808851900618237e-07
3.972652793792149e-08,6.844643995493227e-07,1.4108326603767018e-07,9.944205095573684e-07,4.906952796444336e-07,1.2469391356187456e-05,-1.3962689420929788e-05,1.27723472441109e-06,-2.244277599257915e-07,-3.044995544654525e-07,-8.431724032540327e-08,-1.6460753657501702e-07,-3.8141737940696387e-07,4.0234055264003004e-07,1.6001169372086757e-06,1.882765611323552e-06,3.311696992584722e-07,-1.0288775606165916e-06
3.4899067465743374e-08,6.49202539898249e-07,1.7361527433390433e-07,8.876650958944561e-07,5.043723908809768e-07,1.410710537624992e-05,-1.1001160209070108e-05,1.3629422336350645e-06,-2.2572845522822464e-07,-2.912727079089275e-07,-1.7989151379888335e-07,-1.0950372370174313e-07,-4.369829466864336e-07,3.903867061952863e-07,1.664488411758537e-06,1.8941568721536669e-06,3.917152541426331e-07,-1.0832813692407453e-06
3.6644521591861444e-08,6.20475134098904e-07,2.1456235244659195e-07,7.761033388784323e-07,5.25122555157267e-07,1.3929429491116891e-05,-8.499447188458431e-06,1.4184361976319278e-06,-2.2716193605871213e-07,-2.611034217798434e-07,-2.6027411519067817e-07,-2.8652212975071545e-08,-4.80176097641838e-07,3.5986971131490924e-07,1.7027818389316994e-06,1.914946800667352e-06,4.599230800291133e-07,-1.1276875318265998e-06
4.852242762832552e-08,6.027190624306062e-07,2.6150766724380575e-07,6.856579226440981e-07,5.437589629205287e-07,1.1997531088516969e-05,-5.354495168896419e-06,1.4305504620025212e-06,-2.2531168447233942e-07,-2.2221717654254095e-07,-3.0396406593384854e-07,5.5664148245192555e-08,-5.02064795240923e-07,3.2174962900297537e-07,1.6878223985699023e-06,1.9315327986828083e-06,5.124075475631702e-07,-1.1634972932423935e-06
7.02896005969765e-08,5.973420888228952e-07,2.830287998554528e-07,6.198736257065599e-07,5.504547843664559e-07,8.862106431296021e-06,-2.994590834559647e-06,1.394617735340859e-06,-2.1529038610928233e-07,-1.705974477319909e-07,-2.9757670151268484e-07,1.1395773711067316e-07,-5.007489726013514e-07,3.0048218053305204e-07,1.620447042045192e-06,1.943556343844479e-06,5.366329827884585e-07,-1.19567624572317e-06
8.761681013182989e-08,6.050050256536473e-07,2.7891676622235857e-07,6.430297851727736e-07,5.389893918109161e-07,5.9711206327178085e-06,-1.3865696899145405e-06,1.302017427577075e-06,-1.9179496081534406e-07,-1.2626879858305922e-07,-2.631886406092905e-07,1.3054684981831148e-07,-4.885693421073642e-07,3.037327518226897e-07,1.5173534318073141e-06,1.9758631372168942e-06,5.441612101614072e-07,-1.2271170323431009e-06
9.945524916527353e-08,6.228932730696513e-07,2.7185442133605935e-07,7.415718934447571e-07,5.093312171747954e-07,3.3128823997923712e-06,-9.95944484334449e-07,1.1612146805590874e-06,-1.5402083754357417e-07,-8.743245446051158e-08,-2.2288157836111418e-07,1.0717605655243896e-07,-4.802162628677056e-07,3.333211565600331e-07,1.4409563307809657e-06,2.0185645627311923e-06,5.639926447530539e-07,-1.2631177170313026e-06
1.226503669206849e-07,6.358112285850438e-07,2.6892335574001975e-07,8.413004313622276e-07,4.682987709560681e-07,1.3770904502516645e-06,-1.754095490559325e-06,9.979330516647647e-07,-1.1039028000983115e-07,-3.148006789887681e-08,-2.1848873317039841e-07,8.109622193548347e-08,-4.801501198014883e-07,3.773579316433774e-07,1.4845314162184138e-06,2.1260978055616526e-06,6.165633839330803e-07,-1.2828804313184457e-06
1.622776157829321e-07,6.47431234663999e-07,3.243209469351669e-07,9.047060247544234e-07,4.2832193289241203e-07,9.264767325105575e-07,-3.194398729650454e-06,8.824041716288439e-07,-7.000503573281033e-08,4.14516870824361e-08,-2.804888721849901e-07,7.750660519566287e-08,-4.7618620880828557e-07,4.527594315214327e-07,1.7484527263436947e-06,2.3424135760027735e-06,7.212967794268385e-07,-1.2760053210880422e-06
2.1617812468795496e-07,6.632838144259049e-07,4.0452545769224484e-07,7.977270625082951e-07,4.0397883077425036e-07,1.3024161424043817e-06,-4.795534840838511e-06,8.443492302929621e-07,-3.8875820689006e-08,1.2647393223701945e-07,-3.1768711430803395e-07,1.416814464255429e-07,-4.474593074451527e-07,5.552919471792759e-07,1.9381837324093755e-06,2.4712178520993283e-06,9.646746633105468e-07,-1.2188451844584825e-06
2.8938375701678373e-07,6.95417025438305e-07,4.793356968861861e-07,5.876660533384647e-07,4.070475653601559e-07,3.1787944583254482e-06,-6.160846941939551e-06,9.462981968885728e-07,-1.7631843370037773e-08,2.4550379055551555e-07,-3.441572798966278e-07,2.6046364864099815e-07,-3.457068824345687e-07,6.904799876162647e-07,2.0960635786875916e-06,2.5235464761275777e-06,1.1373353072768076e-06,-1.1246159880746943e-06
3.3345539770444136e-07,7.148536384912372e-07,5.304849429767233e-07,4.381947733893606e-07,4.4260536093323255e-07,5.847482082905362e-06,-7.131841649500436e-06,9.625714453945267e-07,-2.654855870372063e-09,3.1309395086152313e-07,-3.8248840986821e-07,3.5846396244798214e-07,-1.9365220645020034e-07,8.885566720066236e-07,2.2593564513356313e-06,2.526227725666943e-06,1.289649272175476e-06,-1.0443148495682031e-06
3.4560147509222254e-07,7.076884074521841e-07,5.840715321707752e-07,3.515726586265709e-07,5.084777821585517e-07,6.26718747502716e-06,-7.68392956321711e-06,9.79515022805866e-07,1.2418768555076975e-08,3.55828994431083e-07,-4.0995867949122667e-07,4.164192627476346e-07,-4.321392560785178e-08,1.0169632027123753e-06,2.374836273543066e-06,2.4892811569770757e-06,1.4577700159062012e-06,-9.793485638672721e-07
3.652028461909907e-07,6.336944060441592e-07,6.317215308250011e-07,2.5110888294957947e-07,5.97489553773042e-07,6.602559329252286e-06,-7.79028289280819e-06,1.1986771218943935e-06,3.481732151928738e-08,3.988354513555919e-07,-4.205435963073074e-07,4.858528122609829e-07,8.497279466504275e-08,1.1352054718126269e-06,2.42277820876284e-06,2.5764211128894616e-06,1.5749299181386032e-06,-9.079038195796895e-07
3.7446165435210826e-07,5.295900793585604e-07,6.614193860122772e-07,1.8692546819297244e-07,6.998552165021057e-07,6.423181925562389e-06,-7.396455566378329e-06,1.5501123784152998e-06,6.767394413705394e-08,4.037477765487605e-07,-4.113546053166366e-07,5.430724858583556e-07,2.0431066409310674e-07,1.2440045708358156e-06,2.5618233207024957e-06,2.7947969311898894e-06,1.7206985910761664e-06,-8.454058382424888e-07
3.8436909157222923e-07,4.6874623472991345e-07,6.780091082857738e-07,1.6860331890525432e-07,8.044843149263505e-07,5.634944950758582e-06,-6.494460341265669e-06,1.8030073052805319e-06,1.0915527103302227e-07,4.010427729555007e-07,-4.6062043409483173e-07,5.886586305619366e-07,3.192681895397909e-07,1.338080839513868e-06,2.763966275296606e-06,2.9470463778440903e-06,1.8851303257107286e-06,-7.515154559185763e-07
4.0794982819899473e-07,4.3697642795708603e-07,6.924220967759876e-07,1.375643257798855e-07,9.003497290712651e-07,4.6042176723527025e-06,-5.203322830079785e-06,1.9694058157684276e-06,1.5428699778330102e-07,3.948797604221252e-07,-4.943123049910589e-07,5.970496188856411e-07,4.486050318266583e-07,1.4533589061719627e-06,2.9076397025590944e-06,3.090984275600334e-06,2.070414007478176e-06,-6.338119120108936e-07
4.166716929184617e-07,3.959778463108771e-07,7.393149654060363e-07,1.1744532431959275e-08,9.785245522842007e-07,3.4012265996654746e-06,-3.768747238655682e-06,2.141995635662819e-06,2.0003213335211692e-07,4.1503828574728425e-07,-5.058382561649219e-07,6.097308018838501e-07,5.938521582578441e-07,1.553524565850202e-06,3.0580965193526395e-06,3.2931022398202778e-06,2.244424720604597e-06,-4.587554315229075e-07
4.5138514443359435e-07,3.184819766461612e-07,7.71113600185381e-07,-9.830037168657944e-08,1.0336236332486086e-06,2.1703238041604434e-06,-2.459517066438397e-06,2.3226400244155293e-06,2.46769184928678e-07,4.2271643040158773e-07,-4.756819383238438e-07,6.358029220628143e-07,7.0413393781233e-07,1.6884393042636372e-06,3.2802535913502935e-06,3.5074601848560927e-06,2.44181723173365e-06,-2.7663991615005483e-07
4.6523468625548906e-07,1.8848353812617906e-07,7.81203325054379e-07,-1.3863020482513113e-07,1.063745457185375e-06,7.684888885824808e-07,-1.4228811259703461e-06,2.3780552757731575e-06,2.955978206421242e-07,4.191870185786031e-07,-4.981555255604348e-07,6.699949458001507e-07,8.665648635807434e-07,1.8424480116276814e-06,3.516189894954031e-06,3.701895295984895e-06,2.614061392409245e-06,-1.1669590140536394e-07
4.933827595200789e-07,1.0514077579173409e-07,8.182887233104822e-07,-8.110473993606912e-08,1.06976832148773e-06,-3.9793946812123917e-07,-6.02341871471778e-07,2.2988800332509107e-06,3.436714374734428e-07,4.2379427724106776e-07,-5.355745855934048e-07,7.131311359952437e-07,9.757728372643872e-07,1.9863702401645033e-06,3.831808508413689e-06,3.826034979058399e-06,2.8189659282837096e-06,9.357456155064734e-08
5.256300039394057e-07,3.406982544380862e-08,8.532454338326781e-07,-1.114226369364439e-07,1.0551399363797849e-06,-1.1616044349595969e-06,2.016726324277643e-07,2.183058024009866e-06,3.8293105346041684e-07,4.6187816973662006e-07,-5.225020379391878e-07,7.650100891205904e-07,1.1134830571038865e-06,2.0649416497245364e-06,4.015179827542097e-06,3.901152557802169e-06,2.9753661130198317e-06,2.0667367518989708e-07
5.588825155510882e-07,-1.4299425089649273e-08,8.595084139727505e-07,-7.573141430139698e-08,1.025759022302919e-06,-1.6219570603068019e-06,1.1607980883672508e-06,2.122530407177261e-06,4.0422322494379005e-07,4.710612200054374e-07,-5.782098873845157e-07,7.951485458657077e-07,1.2878063025907256e-06,2.1550850116086362e-06,4.239835059517798e-06,3.973674397428517e-06,3.1057087930123076e-06,2.7044174401307936e-07
6.110594278296254e-07,-5.3241207899558046e-08,8.819768132636903e-07,-1.012740535592211e-07,9.902386953973573e-07,-1.8660943983103336e-06,2.269628252711592e-06,2.0931235134724576e-06,4.0283969244106744e-07,4.690916064783784e-07,-6.476153776894843e-07,8.338103338943917e-07,1.4369902579665642e-06,2.2071234753369507e-06,4.4453594420481545e-06,3.9979713693096095e-06,3.2466790431554505e-06,3.4005376291783454e-07
6.4012764587837e-07,-9.883541842005656e-08,9.314104475752868e-07,-2.791094284472299e-07,9.57133094572072e-07,-1.754354470173251e-06,3.3373164896623215e-06,2.0740354058961075e-06,3.8207159864099203e-07,5.472074435891255e-07,-7.570379154928037e-07,8.786193546059212e-07,1.5067745417389888e-06,2.268402943907679e-06,4.5415508685419485e-06,4.02275560525297e-06,3.3857415421870856e-06,4.316900974766987e-07
6.650223706199212e-07,-1.047373572385929e-07,9.642121240011138e-07,-3.9826596939006055e-07,9.32716692996553e-07,-9.673800150092243e-07,4.113069371378266e-06,2.0652425690027743e-06,3.521339834388833e-07,6.29005398764011e-07,-8.52899706170834e-07,9.010933829317326e-07,1.5431804147658146e-06,2.3889126217348494e-06,4.573551927897125e-06,4.039439643933978e-06,3.561279969041898e-06,4.912333828575319e-07
6.883411716252414e-07,-7.703419501668789e-08,9.94589686756854e-07,-4.6698493360961874e-07,9.196763884938225e-07,7.092174330523083e-07,4.434409408177628e-06,2.0625960834703496e-06,3.2855459816791043e-07,6.89907292719676e-07,-8.635778432309413e-07,9.375304840261835e-07,1.5243983184101043e-06,2.4919683469171666e-06,4.532375265715283e-06,4.041095587754818e-06,3.7133529566769592e-06,5.372780415388791e-07
7.112682920967837e-07,-5.842938477790909e-08,1.0194157845751807e-06,-3.869393141587782e-07,9.169418650891155e-07,3.228445204135686e-06,4.287853087155986e-06,2.0653350261920767e-06,3.186262117132284e-07,7.517458789795045e-07,-8.235189436961156e-07,9.643843826610822e-07,1.4885364347685946e-06,2.5977921881986195e-06,4.495528365395568e-06,4.043869638458339e-06,3.7900625891491956e-06,5.708280371286775e-07
7.164316565401994e-07,-4.283147224380225e-08,1.0687375690769282e-06,-2.965188381986637e-07,9.212059756692658e-07,6.028998714317089e-06,3.7650851944422597e-06,2.0749186479579297e-06,3.2559798703166385e-07,7.991839051847785e-07,-7.570764094680109e-07,1.0366663694651986e-06,1.4620556459211512e-06,2.698266549234419e-06,4.476452281894137e-06,4.036859198291643e-06,3.850864278311799e-06,5.705891952245798e-07
7.240151530553187e-07,-2.2467586846984554e-08,1.1121260224662983e-06,-2.3762472020900787e-07,9.279748882213634e-07,8.365176415532658e-06,2.980486243916427e-06,2.0920398264614795e-06,3.46796176253011e-07,8.464175554728913e-07,-7.049910812837141e-07,1.0849892811741866e-06,1.4780286144854684e-06,2.7588126727933683e-06,4.445819286464289e-06,4.027785359472492e-06,3.9050163003296976e-06,5.512168126338035e-07
7.392044199114073e-07,-3.409968389404675e-08,1.1408349483864623e-06,-1.95588256335535e-07,9.323091899858067e-07,9.611746329826235e-06,2.0073271414384432e-06,2.114369142327583e-06,3.768631258779028e-07,9.028043065624903e-07,-6.78315310384241e-07,1.1288064306534757e-06,1.504564734415626e-06,2.8338221009368866e-06,4.415312035934152e-06,4.023860854548409e-06,3.961282418749636e-06,5.162237855685476e-07
7.76203057296826e-07,-6.787313024901372e-08,1.1648728334842274e-06,-1.8129861677828026e-07,9.295948998755253e-07,9.65842460626331e-06,8.732964845756145e-07,2.1368491901486e-06,4.1931227880080694e-07,9.649187863568103e-07,-6.390277420992445e-07,1.164358312306555e-06,1.5090931699309802e-06,2.901359948930733e-06,4.3729275096124055e-06,4.0175234509157055e-06,4.064904060516281e-06,4.708439208864911e-07
8.118845125692349e-07,-1.0597675640986139e-07,1.1838249504914473e-06,-1.7875718198567137e-07,9.171787864531981e-07,8.920679232082427e-06,-3.601618603184559e-07,2.1560003448793953e-06,4.779156481092519e-07,1.0377613086989376e-06,-5.96765815921803e-07,1.1749432173603553e-06,1.5268961177284246e-06,2.999377475299865e-06,4.335550237977605e-06,4.003128142646903e-06,4.1414269457066504e-06,4.245350277120138e-07
8.370856423139894e-07,-1.4492216900345164e-07,1.206333576559363e-06,-1.6007302493081143e-07,8.953443131836247e-07,8.136727711736654e-06,-1.5141729479522472e-06,2.1656077940722534e-06,5.552478012929631e-07,1.1160588452828382e-06,-5.635186542775791e-07,1.2203054385645695e-06,1.537395309983072e-06,3.0835523088321677e-06,4.280587830159905e-06,3.978900356162036e-06,4.174090800666397e-06,3.8401663486969927e-07
8.652947434962475e-07,-1.807480090543801e-07,1.2369066386226725e-06,-1.0806042283246279e-07,8.671144598936568e-07,7.96498026411041e-06,-2.3358444836687404e-06,2.1591100073464655e-06,6.236038434374327e-07,1.1960676239276229e-06,-5.383921666283548e-07,1.2852693514612324e-06,1.53646707509422e-06,3.1437024932561657e-06,4.2265201760297305e-06,3.943998371667177e-06,4.22034371149138e-06,3.4827222006230355e-07
8.659436838303074e-07,-2.0950383201778107e-07,1.2493740340142089e-06,-4.4926211569714664e-08,8.372327943851667e-07,8.59690115153502e-06,-2.655758740164081e-06,2.13100787113559e-06,6.660468989144925e-07,1.2456019099752835e-06,-5.269487226458178e-07,1.3770198981382642e-06,1.5346998061402302e-06,3.1815730907249765e-06,4.17789789719622e-06,3.903333953430803e-06,4.2383879884702845e-06,3.130303323746171e-07
8.442042216856226e-07,-2.360466196961442e-07,1.2357999576491038e-06,-1.3065555673775554e-08,8.106422950053638e-07,9.664244062861188e-06,-2.5261271825516768e-06,2.077338043666103e-06,6.337794511596948e-07,1.2731381548146486e-06,-5.103671685833778e-07,1.45209630043663e-06,1.532814188420467e-06,3.1589537231252593e-06,4.1220432788573745e-06,3.855776875929904e-06,4.20560822740379e-06,2.784820747758976e-07
8.116204089365107e-07,-2.693615667337873e-07,1.2127461588027653e-06,2.79254250036003e-08,7.909250962837448e-07,1.0407270648418357e-05,-2.2687772409660485e-06,2.0025167313175587e-06,6.258225610228004e-07,1.2872567132964682e-06,-4.854794603631244e-07,1.4829573274531274e-06,1.4942134923621702e-06,3.127525224740098e-06,4.070751087799298e-06,3.7956582275692833e-06,4.147014356460079e-06,2.4528586363844163e-07
7.529430007938737e-07,-3.0201561367041024e-07,1.1865674336653799e-06,6.965231784964359e-08,7.788534314028122e-07,1.0070303389038137e-05,-2.3745383814851e-06,1.917963325693724e-06,6.539631864477591e-07,1.2880583841107246e-06,-4.575561791043155e-07,1.4997997364578278e-06,1.4486605433473963e-06,3.0894669167487806e-06,4.016912383206581e-06,3.726518048348522e-06,4.0665761070916684e-06,2.1532724534197647e-07
6.804516140844777e-07,-3.300669224647847e-07,1.1627591157366145e-06,6.630168689959439e-08,7.7147627319628e-07,8.352801864399044e-06,-3.2250612339419863e-06,1.835885284816229e-06,5.475800771675348e-07,1.2741750896511735e-06,-4.574918474661783e-07,1.5106741865845548e-06,1.4099149096985343e-06,3.0431237868769246e-06,3.9568190856773134e-06,3.6516404045887852e-06,3.970476164009215e-06,1.916948285751296e-07
6.08464342504244e-07,-3.510801609004624e-07,1.1435642475587603e-06,5.5394472328782606e-08,7.634005937289905e-07,5.605352898303723e-06,-4.811667447428993e-06,1.7646819364029377e-06,3.9938089332051126e-07,1.2539017510593053e-06,-4.697109447727562e-07,1.5254521320479578e-06,1.3544907819701592e-06,2.9768959089017045e-06,3.8997167186262165e-06,3.5770449304933365e-06,3.877426739714284e-06,1.7489612648053123e-07
5.410615997345183e-07,-3.58521467906758e-07,1.1095604033099977e-06,3.129936875616395e-08,7.493248658589797e-07,2.563762281293713e-06,-6.70744259857214e-06,1.7067638537875259e-06,3.1102184531880675e-07,1.2311579189423769e-06,-4.963788708739811e-07,1.543994554658809e-06,1.30552141756943e-06,2.903422384449856e-06,3.844196440125164e-06,3.5119001457254534e-06,3.811874237679728e-06,1.6481070782747104e-07
4.827255838547831e-07,-3.486762189328892e-07,1.0441091000174466e-06,-5.282022096949255e-10,7.267275336397038e-07,-9.904889696394384e-08,-8.29224112112721e-06,1.6589088948599216e-06,2.581555699535869e-07,1.2072239160937153e-06,-5.097025823700475e-07,1.5629998126064937e-06,1.2619277131502662e-06,2.8384257136937782e-06,3.7897988544628616e-06,3.4619887526266654e-06,3.7519550108045706e-06,1.616909146852333e-07
4.3774319890930766e-07,-3.1860399977637013e-07,9.878022284960466e-07,-1.2932776749559793e-08,6.971562776152649e-07,-2.0480021683879614e-06,-9.00211343603576e-06,1.6160323406619815e-06,2.745442075025494e-07,1.1975879691962578e-06,-5.228245367250352e-07,1.5525772051376026e-06,1.2206939662124468e-06,2.7810998747743297e-06,3.739674509742619e-06,3.4300011038639004e-06,3.6952289052135424e-06,1.643947749347743e-07
4.0924286939367927e-07,-2.642697527004506e-07,9.40820147256646e-07,4.191809511421061e-09,6.652686907440682e-07,-3.3104430729536236e-06,-8.465282152204894e-06,1.5751028848631349e-06,3.4403648550165776e-07,1.1909881730529687e-06,-5.440984875245916e-07,1.5609990795009562e-06,1.1858710259336423e-06,2.7643061385448103e-06,3.6907513858464557e-06,3.41268427002644e-06,3.661599403954273e-06,1.707260396994277e-07
3.9310829221987647e-07,-2.014716717129868e-07,9.03205355022199e-07,3.5879526389710544e-08,6.369815229546371e-07,-4.172654317908772e-06,-6.559372851775648e-06,1.536823653194084e-06,4.321643757910523e-07,1.1864500709780481e-06,-5.430531979529083e-07,1.5959674527353173e-06,1.1795357191975988e-06,2.7646035801424528e-06,3.6387539648841513e-06,3.402641954885896e-06,3.637666865629802e-06,1.7849860431081835e-07
3.914135191433936e-07,-1.463763488465522e-07,8.789851468494001e-07,6.867968017248201e-08,6.17862487390895e-07,-4.891376133927579e-06,-3.4809008435118897e-06,1.5079689776558502e-06,5.200770863138189e-07,1.1880645580753991e-06,-5.326574297151131e-07,1.6444732472654346e-06,1.1956410828273625e-06,2.749182277483853e-06,3.581843894051124e-06,3.3920807378961973e-06,3.6287837760000825e-06,1.8680120865940487e-07
4.0043441911369764e-07,-8.978721160211867e-08,8.567904047238037e-07,1.2068762074783814e-07,6.121039035827573e-07,-5.788683725245982e-06,1.9750467991778428e-07,1.49992304459737e-06,5.738355960487127e-07,1.1969152130405855e-06,-5.032540987902653e-07,1.7196909278260827e-06,1.2166099369407776e-06,2.724096140088263e-06,3.5194308064743053e-06,3.373218186720577e-06,3.6293773772031697e-06,1.948822594431583e-07
4.138525187494102e-07,-4.349748387034617e-08,8.37461583158486e-07,1.6129178139693064e-07,6.218978819232242e-07,-6.977882170204568e-06,3.6451768688826335e-06,1.5218469753754522e-06,5.914769885023212e-07,1.2135156467373626e-06,-4.5907190522936876e-07,1.8106002422083761e-06,1.2576501595116265e-06,2.69470437090735e-06,3.4511436681581193e-06,3.3439349637627787e-06,3.625169139457429e-06,2.04271435695509e-07
4.275122970312119e-07,-7.495897514420023e-09,8.263581758550426e-07,1.8659399907182371e-07,6.476207852817243e-07,-8.285789314165687e-06,6.1165174616726716e-06,1.5766605375301935e-06,5.809238674199948e-07,1.2365733200570472e-06,-4.174607177916339e-07,1.8924485199378465e-06,1.317284449200461e-06,2.667260806984857e-06,3.395941555758678e-06,3.307331621143006e-06,3.5816075242950215e-06,2.1534936056725605e-07
4.3750391966967105e-07,1.6312172337218596e-08,8.297160891535869e-07,1.4961563003463556e-07,6.884179529784979e-07,-9.449680941480242e-06,7.285607318906325e-06,1.6569344563288544e-06,5.552069295931467e-07,1.264908877550495e-06,-3.892111686439312e-07,1.971531455167053e-06,1.3850867728415183e-06,2.6444363346077105e-06,3.3588514834582317e-06,3.2688130274158397e-06,3.515346349499171e-06,2.264227949755693e-07
4.450079544594783e-07,1.944707056199873e-08,8.382105963179987e-07,4.711792677099878e-08,7.42165565199973e-07,-1.0311926070712726e-05,7.283425882697241e-06,1.7467374041131368e-06,5.203019902496568e-07,1.2961968136071436e-06,-3.8179693472916433e-07,2.0524024374581418e-06,1.4601622826022715e-06,2.6279368366560127e-06,3.3420320750542626e-06,3.2354455592326962e-06,3.446623325452163e-06,2.4072179023702886e-07
4.518838629183737e-07,2.381609724187665e-09,8.522583838878563e-07,-3.663740535066809e-08,8.046197107740183e-07,-1.0685445007620431e-05,6.459325022357863e-06,1.8320288467943592e-06,4.826933763618313e-07,1.3309179648383043e-06,-4.199451655512428e-07,2.113919567201191e-06,1.5006880265847118e-06,2.603182318915679e-06,3.351107261583868e-06,3.2173156530236217e-06,3.4043875443353726e-06,2.6000352573200934e-07
4.6026810724294487e-07,-1.3446697977858709e-08,8.730548932038068e-07,-1.2068692987393607e-07,8.688743800431955e-07,-1.0517800067215482e-05,5.168548364257997e-06,1.8948309831955294e-06,4.462252415067617e-07,1.3660669266401642e-06,-5.055065421226244e-07,2.1480960675135837e-06,1.4821392975619374e-06,2.567006100143983e-06,3.381591156301317e-06,3.2169941067372137e-06,3.393293298577872e-06,2.86451674950005e-07
4.840640571264359e-07,-2.4699976127694685e-08,8.973659515084737e-07,-1.6905810548133512e-07,9.265110969810031e-07,-1.0115425496412556e-05,3.7360939513712514e-06,1.925895090501952e-06,4.0836175245494657e-07,1.397056834415684e-06,-6.202614045971715e-07,2.1525285289511632e-06,1.3819523533938952e-06,2.5257319933165025e-06,3.433184150274655e-06,3.236547422569397e-06,3.401088973638714e-06,3.211376509873887e-07
5.221971688609084e-07,-3.39723054828257e-08,9.239740670497787e-07,-1.6636695416288548e-07,9.69763616162253e-07,-9.479622027185021e-06,2.4704365327578514e-06,1.9262759072324348e-06,3.6918791726652606e-07,1.4289460814268768e-06,-7.315245638971855e-07,2.1193577483474678e-06,1.3389052506588133e-06,2.4838119841862936e-06,3.503858344740749e-06,3.2769766748900216e-06,3.4271193251532447e-06,3.641436955966966e-07
5.753311732868893e-07,-3.3351062795911126e-08,9.495012286904237e-07,-1.2038742851311336e-07,9.939712447078396e-07,-8.691040570906815e-06,1.6401831025056387e-06,1.9025825838962992e-06,3.3027713612735644e-07,1.4550172163269596e-06,-8.105132658935732e-07,2.049234671412397e-06,1.3635644040132559e-06,2.4688100398012746e-06,3.5932932370288947e-06,3.336313505202988e-06,3.4609650460863453e-06,4.409600618665754e-07
6.422905793019469e-07,-2.5195572350599396e-08,9.803223756550511e-07,-2.6274256287217295e-08,9.985170555148884e-07,-7.96367881159262e-06,1.4613579316371603e-06,1.8745987854846205e-06,2.957060613556563e-07,1.4706348334244886e-06,-8.194905016222623e-07,1.9401436394973247e-06,1.2569146018084209e-06,2.4812865349210597e-06,3.6963517554364747e-06,3.4131235084293383e-06,3.5175747015949873e-06,5.3073831184486e-07
7.114072090637573e-07,-9.378133503408938e-09,1.0128043554747572e-06,1.1082900035512282e-07,9.863861599898565e-07,-7.3614475070049475e-06,2.081495520349567e-06,1.8638007997236866e-06,2.7525149549928664e-07,1.4757723108892027e-06,-7.722337921146033e-07,1.809700041885156e-06,1.1817005327127976e-06,2.5112333578565303e-06,3.8015997402422146e-06,3.503934952762662e-06,3.6013067234592935e-06,6.445306675491717e-07
7.710398918405465e-07,1.681829647116152e-08,1.032838088701048e-06,2.71390676311643e-07,9.62888124268034e-07,-6.621949931381015e-06,3.5069116698175673e-06,1.8862448226705286e-06,2.789168681649529e-07,1.4705141002769362e-06,-7.07435569266942e-07,1.6837289417454277e-06,1.2442345249104134e-06,2.554007449060574e-06,3.884148852883332e-06,3.5965744673927233e-06,3.7227091693580345e-06,7.55534725922218e-07
8.200642865647891e-07,5.2279091470505494e-08,1.0412066628041205e-06,4.230087443604057e-07,9.33963174765813e-07,-5.640424375756899e-06,5.512724941701847e-06,1.948485184598425e-06,3.0352680761890085e-07,1.457613385008821e-06,-6.472998544019233e-07,1.565241761085866e-06,1.2735003523981169e-06,2.5897623722938968e-06,3.94458440010906e-06,3.6740525270785415e-06,3.8786439996987756e-06,8.438366752189739e-07
8.296551341639891e-07,1.027636402107933e-07,1.0445651204295044e-06,5.674368739975253e-07,9.048340792342699e-07,-4.2970261112427665e-06,7.614026697633255e-06,2.0431917487268677e-06,3.37722837078032e-07,1.438979506082369e-06,-6.011260201620842e-07,1.460890969868278e-06,1.3186469223662462e-06,2.5988719050042066e-06,3.971237374819108e-06,3.7225612367669385e-06,4.0534734114602045e-06,8.625535613724949e-07
8.281404429928443e-07,1.6886407167645644e-07,1.0379014186999098e-06,6.986745989004521e-07,8.788554009594469e-07,-2.414697262807693e-06,9.163867100256534e-06,2.1530145285013378e-06,3.7433342623835976e-07,1.4148487658857156e-06,-4.24379393957194e-07,1.3677233862487115e-06,1.34096053032086e-06,2.5743122935220256e-06,3.9548095851372746e-06,3.7356888675697512e-06,4.129737085310154e-06,8.899457455626117e-07
8.660803512021324e-07,2.365903818404485e-07,1.0254897368408566e-06,8.053170198442556e-07,8.568936215383364e-07,-3.952383151287737e-07,9.6156328237384e-06,2.2532663574993017e-06,4.0992306432021726e-07,1.3822468752837433e-06,-2.4950988237199015e-07,1.276009508731089e-06,1.4969320847232826e-06,2.504740826799326e-06,3.906672108384588e-06,3.717802446955205e-06,4.145059692082441e-06,9.320404879154731e-07
8.95831313574709e-07,3.0110332427583443e-07,1.0134775400797958e-06,9.197938948515011e-07,8.377949357120065e-07,1.280841740681923e-06,8.828339761264807e-06,2.3254363327531536e-06,4.323672352695209e-07,1.341826147544554e-06,-1.668831792473645e-07,1.1820143949666621e-06,1.6207943280291917e-06,2.3960086105094163e-06,3.834329216442782e-06,3.6837996955346265e-06,4.076725984689982e-06,9.881526132617377e-07
8.7768092964704e-07,3.520034138876143e-07,9.98732324356287e-07,9.87362589826961e-07,8.200395016561133e-07,2.2433654098362127e-06,7.148638373266407e-06,2.3596171383746837e-06,4.3199081902037215e-07,1.2960042048479862e-06,-1.54951995422353e-07,1.101405322072585e-06,1.601564514416641e-06,2.28361588702695e-06,3.754189957819914e-06,3.6493427204575023e-06,4.0058313032447955e-06,9.920415753446926e-07
8.478633264989271e-07,3.84491131998336e-07,9.914886840439097e-07,1.0120655704063436e-06,8.032421068111222e-07,2.2628226295073604e-06,5.15368899503937e-06,2.360669605605266e-06,4.062301680742373e-07,1.2463309823059335e-06,-2.1983681029321455e-07,1.026386392803512e-06,1.6368769473568515e-06,2.1678343284333016e-06,3.6541217652090794e-06,3.622940308507956e-06,3.92382988007355e-06,9.5959512021727e-07
8.077418999385582e-07,4.0058466368492374e-07,9.820982157328022e-07,9.920139901298435e-07,7.885130988952935e-07,1.3351173878135362e-06,3.241137985137499e-06,2.3494157285945674e-06,3.5230248623980473e-07,1.19554504452736e-06,-2.8600337300655667e-07,9.515095813686316e-07,1.6843907496617025e-06,2.068174867234176e-06,3.5700466110858022e-06,3.610101985834819e-06,3.839969331476895e-06,9.152466860349249e-07
7.497179821667812e-07,4.066301481609638e-07,9.74415280936849e-07,8.754444549969196e-07,7.779568880391618e-07,1.858002378610227e-08,1.3834376536316336e-06,2.310798070435313e-06,2.729426947625575e-07,1.1459469878480094e-06,-3.3804523489898085e-07,8.922070503763708e-07,1.6955943716734458e-06,2.003101953753782e-06,3.511293840199689e-06,3.5920070766573767e-06,3.7553421639910425e-06,8.799308808665107e-07
7.091117072958122e-07,3.91570868265034e-07,9.699538936293044e-07,7.348589738568244e-07,7.736077426127228e-07,-1.0240119514662642e-06,-7.713625318772877e-07,2.2709443807797495e-06,1.905202884134827e-07,1.1029242529300506e-06,-3.30399953210205e-07,8.570867646143985e-07,1.6223651432624252e-06,1.9644008374431098e-06,3.4750095980113694e-06,3.598354784910133e-06,3.6883650683864626e-06,8.496950618748273e-07
6.795842013977048e-07,3.623750675494004e-07,9.677336084829869e-07,5.991062680734406e-07,7.758051127292689e-07,-1.406033310192312e-06,-3.4978502405882173e-06,2.250966685753443e-06,9.706348095111288e-08,1.0685548706862966e-06,-3.756471355261883e-07,8.847539129393339e-07,1.4950190149693634e-06,1.9660805053222186e-06,3.479240013306565e-06,3.6320628165606428e-06,3.6419309999481205e-06,8.5664866418995e-07
6.617247632761769e-07,3.527041751600347e-07,9.88250980685246e-07,5.622186694853414e-07,7.799980393584579e-07,-9.94351730833956e-07,-6.570659460356685e-06,2.2588870767615243e-06,-6.1618334462044916e-09,1.039730399814901e-06,-4.5035226966160185e-07,9.986068007303107e-07,1.4158083308389294e-06,1.9896929163834106e-06,3.5016451609856973e-06,3.6852433927104613e-06,3.6180020215208693e-06,8.601590074830873e-07
6.556072164479212e-07,3.8251242826655044e-07,1.0018128681237127e-06,6.92772792831764e-07,7.801524772302482e-07,-9.526900691693111e-08,-9.185461672583964e-06,2.2751811414077226e-06,-1.3837323572782738e-07,1.0123544568803351e-06,-5.398332923461137e-07,1.0596808139655874e-06,1.3279570448525997e-06,1.959460285937039e-06,3.5081751103370482e-06,3.729976320859794e-06,3.5690890153045815e-06,8.89486827486434e-07
6.583861076860546e-07,4.805907892201827e-07,9.92836013661644e-07,7.694370914667436e-07,7.702350373608487e-07,7.657155961299421e-07,-1.0350412998900689e-05,2.270083398605652e-06,-2.890930656705395e-07,9.879802254453837e-07,-5.703764526458813e-07,1.15247150524396e-06,1.2739152089742784e-06,1.8396350147880812e-06,3.4400793609691056e-06,3.7438597267062113e-06,3.4832536031506254e-06,9.100780939580393e-07
6.736416711909145e-07,6.045553920268965e-07,9.347202885364698e-07,8.160415637747792e-07,7.431630936622251e-07,1.1309251677895907e-06,-9.475412936138876e-06,2.117745033101977e-06,-3.568595404968138e-07,9.64480629014457e-07,-5.320317559044038e-07,1.2709355228180067e-06,1.2612912364841095e-06,1.637561901421143e-06,3.2442689531615613e-06,3.6898607152147325e-06,3.3739184727750437e-06,9.020429346309353e-07
7.030142474299277e-07,7.051482963564769e-07,8.672120852254602e-07,8.70883150761473e-07,6.96630542899428e-07,8.083427903713084e-07,-6.729989658046093e-06,1.8825573716466584e-06,-4.3310068882427115e-07,9.325793047911177e-07,-4.6488211894678354e-07,1.357875990638352e-06,1.2763235558712597e-06,1.4548405815740748e-06,3.1293964522447886e-06,3.530531979595884e-06,3.2411314793908355e-06,9.260180373480537e-07
7.007649292075721e-07,7.888254624756444e-07,8.24054227329873e-07,8.992218393480298e-07,6.318027689712051e-07,-1.2855816338107564e-07,-2.9761652127373024e-06,1.8029420109244211e-06,-5.084538898265428e-07,9.387795963246724e-07,-3.9890745333317574e-07,1.3375203759275907e-06,1.3276621130104527e-06,1.3896577248520603e-06,3.038855612820889e-06,3.483258567330417e-06,3.179588679713774e-06,9.78861257816855e-07
6.462849579134274e-07,8.535128458354045e-07,7.693414736775531e-07,9.026044127188938e-07,5.553104282272908e-07,-1.3310264046538098e-06,6.078823949914362e-07,1.8355836307859106e-06,-5.517750682986299e-07,9.375383898957264e-07,-3.484282971992691e-07,1.2986871363413914e-06,1.4167818548332794e-06,1.3665319130130894e-06,2.9841183111570653e-06,3.4719052359702748e-06,3.146224947452032e-06,1.0155114682076499e-06
6.040863237672265e-07,9.462267802279011e-07,7.453848260461185e-07,9.49884561867941e-07,4.788748491786298e-07,-2.312775263486382e-06,2.9944740084261275e-06,1.7253343741292329e-06,-5.433183548469862e-07,9.006660536347239e-07,-2.973679006351796e-07,1.3295682651094787e-06,1.5343794196158606e-06,1.3675607985296966e-06,2.98999322557498e-06,3.4998657781332174e-06,3.125705621750296e-06,1.073956825698295e-06
5.68213904085581e-07,1.0200760169846311e-06,7.174286648796825e-07,9.618891701153813e-07,4.261021025462087e-07,-2.6218033868966003e-06,3.683144021682982e-06,1.5319823644389844e-06,-6.192757562199665e-07,8.41201852149972e-07,-2.064336932117857e-07,1.3917115572873585e-06,1.677951192659926e-06,1.406501061624736e-06,2.960199100434028e-06,3.4967818546413604e-06,3.1996361251600705e-06,1.1787221163773845e-06
4.83763634111757e-07,1.0398533787723198e-06,6.610953294271515e-07,1.0209428512709027e-06,4.173810303523329e-07,-1.961737452945966e-06,2.8267208684519165e-06,1.276214407767369e-06,-7.89927428780305e-07,7.62378537089626e-07,-6.3907796200103e-08,1.3392884066389615e-06,1.8297445573787425e-06,1.4856284130545638e-06,2.880293932550065e-06,3.432831568997534e-06,3.2435230221881538e-06,1.2965827325772668e-06
3.926374075868393e-07,1.0727391880722976e-06,5.67277239559242e-07,9.928754489760927e-07,4.521300606223712e-07,-3.86852825110998e-07,1.0271620391060118e-06,1.017786179931433e-06,-8.737313592120436e-07,6.808788224601887e-07,1.951810969977021e-08,1.3501296164850545e-06,1.9809917712087573e-06,1.563405395629103e-06,2.9050589067900007e-06,3.40525318058721e-06,3.2997981271925444e-06,1.390160320473438e-06
3.187284843448516e-07,1.095028136691742e-06,4.946910063626255e-07,9.57794594305117e-07,4.695191316886464e-07,1.6488345579420917e-06,-1.0524196536066451e-06,7.643074357828107e-07,-9.718822051126896e-07,6.119490030555938e-07,4.381153091457092e-08,1.3463251304143425e-06,2.1296969879081395e-06,1.5648802282374633e-06,2.9699119684146857e-06,3.3519422470758815e-06,3.39785445288121e-06,1.463751083177137e-06
2.623644273157025e-07,1.0911703261896227e-06,4.61368670637912e-07,9.417676240115257e-07,4.5761040236118185e-07,3.4877322074145046e-06,-2.981442094025291e-06,6.626530441739942e-07,-1.0598942306975166e-06,5.125753251460765e-07,1.6934002452577584e-08,1.351478955428703e-06,2.2626477368652853e-06,1.5221256081640522e-06,3.004821755182149e-06,3.3060176953874114e-06,3.4960115007379722e-06,1.528002175624202e-06
2.1752464610348553e-07,1.1145310041084324e-06,4.210108242403823e-07,8.304569211228553e-07,4.88596294468116e-07,4.569341053779582e-06,-4.6272690697793915e-06,6.524788569567268e-07,-1.1092356581768927e-06,3.7391815426238797e-07,2.5584484718947624e-08,1.392435263147648e-06,2.3789584625545206e-06,1.5264532474503838e-06,3.032592520823502e-06,3.3115796605926343e-06,3.6122899878965436e-06,1.5934768119121062e-06
1.8614446422052047e-07,1.0901313871390102e-06,4.020474851170869e-07,7.678746883919853e-07,5.594129235270367e-07,4.654224256824922e-06,-6.040836327222861e-06,6.741170852648781e-07,-1.1480130031308646e-06,2.586079348992049e-07,9.781261789714327e-09,1.4263506904734447e-06,2.4545942959617868e-06,1.5395032174164045e-06,3.0425277924844797e-06,3.3436385376398326e-06,3.6929236272073872e-06,1.6732240365158129e-06
1.6955396545716085e-07,1.0499239740723822e-06,3.7774986000111234e-07,7.744498412042302e-07,6.232551313983305e-07,3.8880100328663096e-06,-7.260040241255334e-06,6.829522139450134e-07,-1.2160430578109994e-06,2.3199550466770298e-07,2.141597055230898e-08,1.4708597664426869e-06,2.489655705908982e-06,1.604181073920726e-06,3.0420616357416205e-06,3.3644017736516223e-06,3.7867167189203487e-06,1.749877259442647e-06
1.6647581107348126e-07,9.920140167478035e-07,3.545717488897767e-07,8.54689407504336e-07,6.910154597806159e-07,2.709250140779047e-06,-8.141472864003883e-06,5.664254339992213e-07,-1.2829133104319648e-06,2.59813340770367e-07,-1.3383150893009654e-08,1.4853195896941916e-06,2.547952518449405e-06,1.6515490840731868e-06,3.0911373080879662e-06,3.372278535957285e-06,3.876009082353384e-06,1.8011471863705475e-06
