0,1,2,3,4,5,6,7,8,9,10,11,12,13,14,15,16,17
3.566110666375714e-07,3.8144792102600856e-07,2.532120084355112e-07,2.640411023204571e-07,-2.6295577518424555e-06,-7.41304120499375e-07,7.724462125284052e-06,1.3723723652047721e-06,2.5283199998012083e-06,5.0055596993494075e-08,2.0487896653441646e-07,-4.262938111704131e-07,-1.2865352582220333e-05,-9.88815278199735e-06,6.076097305981195e-06,1.8498746921195688e-06,-1.2983566418373517e-05,1.4264311183026646e-05
2.9831857441897966e-07,3.316885941758519e-07,2.143787777217787e-07,2.4370093254566464e-07,-2.4020352440862262e-06,-5.697713723793134e-07,1.1666899932328803e-05,1.471197053632534e-06,3.489467591984228e-06,4.4786922132550886e-08,5.769524922201402e-07,-3.29306580616327e-07,-1.0968472514528319e-05,-8.212145763350987e-06,6.397786108386363e-06,-1.3880976665859728e-06,-1.2424683309886189e-05,1.2523812272856627e-05
2.484394159003693e-07,2.807524485906827e-07,1.766972032628474e-07,2.2372748252643177e-07,-1.9551840355079052e-06,-7.343671736572924e-07,1.4873022996379645e-05,1.4338667098406664e-06,3.4664782898504504e-06,4.1084763671915676e-08,7.716454665294777e-07,-1.8252482763385374e-07,-7.587925045637868e-06,-6.297284251121595e-06,5.255275176049164e-06,-4.479899828292113e-06,-9.689208927253209e-06,9.904940319819898e-06
2.047732159025176e-07,2.3016084033373773e-07,1.4056167353943782e-07,2.02088878096003e-07,-1.3049322007228307e-06,-1.0879436246339716e-06,1.600324313237929e-05,1.2542962559993173e-06,2.4963814706670815e-06,3.6792961161998434e-08,7.930342053137107e-07,-2.6513869346376385e-08,-3.4392128673952254e-06,-3.7365903185911568e-06,3.064549135009228e-06,-6.78525732349534e-06,-5.604757662619214e-06,6.5916300761480046e-06
1.63613947980604e-07,1.8050243265982828e-07,1.0538599328111053e-07,1.7568294815715992e-07,-5.10152315423172e-07,-1.3807718977353108e-06,1.3826401468184493e-05,9.682711133246913e-07,9.082647727461682e-07,3.009302407743431e-08,6.797121162944104e-07,1.1401771534817097e-07,5.619502257075512e-07,-1.1584782656474386e-06,5.073302457036799e-07,-8.09801701518648e-06,-1.43571743055576e-06,2.974904958839648e-06
1.2141017180598495e-07,1.3177835343710978e-07,7.048382209998459e-08,1.412007804298154e-07,3.370400756118257e-07,-1.3930270722052975e-06,8.00865187135633e-06,6.517827160107482e-07,-1.0852269909116523e-06,2.0140029048452157e-08,4.735562113918134e-07,2.25061910916927e-07,3.6033824745871758e-06,1.0449557920736382e-06,-1.7231152726513186e-06,-8.52220605232825e-06,1.7143303525397694e-06,-4.2593125604725566e-07
7.559981356811259e-08,8.322051342378396e-08,3.5410573603761735e-08,9.638212071289417e-08,1.1262637331106811e-06,-1.0329277485106607e-06,-4.522609753266323e-07,3.86030380287745e-07,-3.1626113716086506e-06,7.168007379629474e-09,1.9289147797116837e-07,2.970256159947079e-07,5.229874095655054e-06,2.5900704005914282e-06,-3.129842404163484e-06,-8.200596007266618e-06,3.4113071211217857e-06,-3.171545510808168e-06
2.5058696047624873e-08,3.33150834130898e-08,1.3779443637474296e-10,4.1643373341479864e-08,1.7428470764419244e-06,-3.63716378354959e-07,-9.686965843575716e-06,2.1079950896540778e-07,-4.870305525860099e-06,-7.703277283323493e-09,-1.1760428071244556e-07,3.2588661785999475e-07,5.3642769319254215e-06,3.1781006589158313e-06,-3.544229356075494e-06,-7.1261260805637275e-06,3.981101876206208e-06,-5.020153545529942e-06
-2.9410041058438695e-08,-1.9396907692364816e-08,-3.4698445687243395e-08,-1.8956164531148792e-08,2.0907587535740297e-06,4.3419846515516336e-07,-1.5647874932696393e-05,1.0295309649957835e-07,-5.7620430036437555e-06,-2.233009853027587e-08,-4.001383990035701e-07,3.1354480492170043e-07,4.3400510898139005e-06,3.0508812884323288e-06,-3.139126036608043e-06,-5.205055146970786e-06,4.141073256596325e-06,-5.9076373686416054e-06
-8.498522146801958e-08,-7.51990904321007e-08,-6.781107798179977e-08,-7.887317995625465e-08,2.124853485621522e-06,1.1412481994842631e-06,-1.5680235489960342e-05,-6.261429835695835e-09,-5.5260288699177675e-06,-3.3946419293304365e-08,-5.753684789037171e-07,2.627100733580235e-07,2.9260318760218607e-06,2.8330497784241617e-06,-2.2955346028435993e-06,-2.4301634132956655e-06,4.4394357071884625e-06,-5.929854127557315e-06
-1.3779730744522175e-07,-1.3275038139710225e-07,-9.773522770372082e-08,-1.320677009954658e-07,1.8645853619331127e-06,1.5735545008623943e-06,-1.688988780972461e-05,-1.9419657271305122e-07,-4.15635428411107e-06,-4.0163760673615754e-08,-5.804859631486744e-07,1.7498256411728937e-07,1.9655529160378354e-06,2.88608526679513e-06,-1.4091916548853976e-06,1.025408218116695e-06,4.93136514214658e-06,-5.368137589504653e-06
-1.8459982470076136e-07,-1.8964285497884178e-07,-1.235792145143876e-07,-1.7555344551027852e-07,1.3704127899175583e-06,1.6317002768449526e-06,-1.4641566100343335e-05,-5.135650973168385e-07,-1.9030944385135417e-06,-4.005891481510243e-08,-4.3573720547531686e-07,5.743859917908904e-08,1.9285016175745726e-06,3.1380611247312034e-06,-7.77789811889241e-07,4.655104948765798e-06,5.311542079637009e-06,-4.643510637729619e-06
-2.2384944011762933e-07,-2.433207727201371e-07,-1.452672324861309e-07,-2.097536410292921e-07,7.078648585650207e-07,1.3343483738067348e-06,-8.408055418054248e-06,-9.708673507168508e-07,7.179992502354728e-07,-3.4674255533279194e-08,-2.364043331855014e-07,-7.139746267238923e-08,2.6108178808895694e-06,3.4224851550148945e-06,-5.854426129991092e-07,8.030839436046921e-06,5.24215343877695e-06,-4.1373024430646776e-06
-2.5545227021994344e-07,-2.9166481044305994e-07,-1.6304162821419503e-07,-2.369415250045517e-07,-6.375524144734158e-08,8.256284643644456e-07,-9.019264919296325e-07,-1.5201641556029083e-06,3.067555978098477e-06,-2.6246512686161922e-08,-1.4306870147555587e-07,-1.8576066479196804e-07,3.1870513006534972e-06,3.3436932886479506e-06,-8.749844197223146e-07,1.0866725721237896e-05,4.5395835930383e-06,-3.974848039177614e-06
-2.798854074244663e-07,-3.332607611901816e-07,-1.769959022627437e-07,-2.5919412230184464e-07,-8.747177386710336e-07,3.250898641808512e-07,3.95547895960956e-06,-2.0798695485664637e-06,4.6791159532456815e-06,-1.6928744277686494e-08,-3.2577986938135715e-07,-2.6261028490814454e-07,2.6692433992518316e-06,2.604585102414836e-06,-1.5179760451836106e-06,1.2667887763212527e-05,3.1750754845243578e-06,-3.956162607334892e-06
-2.978453898272827e-07,-3.676306082063045e-07,-1.8713911753058715e-07,-2.771278388010695e-07,-1.6242916070747075e-06,3.8061243277377476e-08,6.250612576088692e-06,-2.566645045013652e-06,5.112081177937768e-06,-8.069321372726013e-09,-8.780837049689873e-07,-2.8626040055643113e-07,4.7422920166347836e-07,1.2006835246671265e-06,-2.3038057541080155e-06,1.3139577754485537e-05,1.2509656969121436e-06,-3.724515685295079e-06
-3.104640017070687e-07,-3.9527285646514666e-07,-1.9375636698092753e-07,-2.8996380722322905e-07,-2.181365820084644e-06,8.925882791970602e-08,6.62471184512901e-06,-2.921282558282908e-06,4.320462967109052e-06,-3.718022481444641e-10,-1.7563890831884332e-06,-2.455615755331038e-07,-3.2932997587662574e-06,-7.079378214556477e-07,-3.1208181706817433e-06,1.2207685069769278e-05,-9.769835388330507e-07,-3.0386277595745785e-06
-3.191727281517145e-07,-4.171853004988757e-07,-1.9727268653900383e-07,-2.9656133014534753e-07,-2.4203617506251134e-06,5.086364096307013e-07,5.4855431399971e-06,-3.114449908450316e-06,2.6388404928273873e-06,5.921242746048192e-09,-2.7997386104590785e-06,-1.3367756251931565e-07,-7.959027532710481e-06,-2.796994367331766e-06,-4.037997731632176e-06,9.936561608789026e-06,-3.115458914283107e-06,-1.9337377473911145e-06
-3.249056264041349e-07,-4.3405826244068345e-07,-1.9754293703889884e-07,-2.965062895701927e-07,-2.2796245924847184e-06,1.2365682650976865e-06,3.4115462035333117e-06,-3.1488035563139545e-06,8.884534329075438e-07,1.1278628270509056e-08,-3.7986938177328708e-06,4.11766882760743e-08,-1.2573444733239418e-05,-4.692976204691634e-06,-5.176215278079422e-06,6.73835311108148e-06,-4.73840789961949e-06,-7.056598940202903e-07
-3.275328723710364e-07,-4.4584093627471124e-07,-1.9366865100573731e-07,-2.906538226361293e-07,-1.801729242787326e-06,2.119388030141372e-06,7.656489031419559e-07,-3.070037351059253e-06,1.4421376367220057e-07,1.702908309952769e-08,-4.5776533152773105e-06,2.431245999850863e-07,-1.62371723231472e-05,-6.099028766510134e-06,-6.489016619969463e-06,3.539071067102644e-06,-5.530840250513143e-06,1.9995543633449978e-07
-3.2634418080487825e-07,-4.520943892286198e-07,-1.8474998069540615e-07,-2.81071087669557e-07,-1.1238102480691067e-06,2.927928620843846e-06,-2.3668649952616946e-06,-2.968549976852208e-06,1.3339585782310602e-06,2.4882050805871772e-08,-5.040658364629249e-06,4.130363955981841e-07,-1.8354000322547186e-05,-6.844505330607548e-06,-7.68813430026534e-06,8.504646477232915e-07,-5.386532108815771e-06,2.999046018156846e-07
-3.21023849504379e-07,-4.526421551707464e-07,-1.708045497039224e-07,-2.7040468465397363e-07,-4.2229203526925375e-07,3.4369404887470614e-06,-6.05975174211299e-06,-2.9488775040151885e-06,3.170409414840995e-06,3.5992730060941106e-08,-5.186582142839595e-06,4.944671274218588e-07,-1.8784146834938392e-05,-6.904443504090711e-06,-8.407018007834576e-06,-1.206191494695244e-06,-4.421720252997801e-06,-7.951489410088695e-07
-3.1183339718937576e-07,-4.4765110910573387e-07,-1.527955355610031e-07,-2.607818642136217e-07,1.546566704786774e-07,3.5175721459433585e-06,-1.023229599271268e-05,-3.0754233418636086e-06,4.943381740620296e-06,5.0384092434219767e-08,-5.075018324921952e-06,4.648112611145476e-07,-1.7950459128532762e-05,-6.371404286377914e-06,-8.444233817001741e-06,-2.202600207406528e-06,-2.9086871717957162e-06,-3.1621826186762773e-06
-2.988394108813233e-07,-4.370380738181687e-07,-1.317671026926265e-07,-2.5281017068279133e-07,5.287471283922471e-07,3.161221333229991e-06,-1.417459495075433e-05,-3.3332827045041246e-06,7.181353693997267e-06,6.717883258996294e-08,-4.78987565206195e-06,3.509721255182659e-07,-1.6538254732876655e-05,-5.385968328694855e-06,-7.874916554436783e-06,-2.2740832556021463e-06,-1.1792171626478958e-06,-6.29626045905264e-06
-2.814753033526757e-07,-4.200609792888489e-07,-1.081803581891291e-07,-2.4536622144041397e-07,6.947566259047399e-07,2.4385858005211844e-06,-1.7752648883032537e-05,-3.636796840749761e-06,1.0961479753067792e-05,8.499475027530555e-08,-4.393254111680176e-06,2.205725765174699e-07,-1.5203324354759361e-05,-4.096825523575867e-06,-6.974836368024308e-06,-1.72622633293306e-06,4.697853512898755e-07,-9.19349297028275e-06
-2.593167443856402e-07,-3.958433181065805e-07,-8.222677062532414e-08,-2.3622984903435396e-07,7.018138942058528e-07,1.4607381342817262e-06,-2.039690946983463e-05,-3.87733874039092e-06,1.4915960035685694e-05,1.0224219917427812e-07,-3.910046987875015e-06,1.5357295318885334e-07,-1.4466980305761656e-05,-2.6968616587455974e-06,-6.056760605100649e-06,-5.378059911707855e-07,1.8333088210577643e-06,-1.0765111746004763e-05
-2.3313937049318697e-07,-3.64465797640392e-07,-5.4592552244486274e-08,-2.229024067926593e-07,6.262807006005555e-07,3.6677959843466907e-07,-2.103757099158104e-05,-3.974481858433066e-06,1.7995051727638157e-05,1.1725433803656015e-07,-3.3548282828929455e-06,2.0692245766475857e-07,-1.4449455121002622e-05,-1.3910919951625052e-06,-5.3487523189509135e-06,7.707533897528095e-07,2.782180941930853e-06,-1.0314420713526705e-05
-2.047129459533689e-07,-3.2743917479442817e-07,-2.6524670398107604e-08,-2.0301267578649583e-07,5.368870284799144e-07,-6.86980869710514e-07,-2.28492987259344e-05,-3.906358542109921e-06,1.9112132528018693e-05,1.2891347587852035e-07,-2.7581220595227637e-06,3.885926598853806e-07,-1.4977492938764857e-05,-3.653324961009164e-07,-4.971300718314667e-06,2.2812706365249e-06,3.1784351966085005e-06,-7.759322546901563e-06
-1.7540431816141032e-07,-2.869944401560537e-07,8.677621167562011e-10,-1.7454895419820825e-07,4.62283098177176e-07,-1.549942560058844e-06,-2.3569581965574497e-05,-3.7112014465059994e-06,1.7893973836697595e-05,1.3720972547541816e-07,-2.1838715497917094e-06,6.542118282000274e-07,-1.580837459124744e-05,3.4939956313618076e-07,-5.0060828052447845e-06,2.651328394234971e-06,2.874060569475882e-06,-3.604923332606122e-06
-1.4532759892707382e-07,-2.4506334478479504e-07,2.6996407024389685e-08,-1.3659220267220368e-07,3.8197973285987435e-07,-2.101432486445531e-06,-2.149618579488535e-05,-3.460293677554337e-06,1.4131782464336668e-05,1.430092241249424e-07,-1.7134259516783258e-06,9.257056252245906e-07,-1.671513094339724e-05,1.0042308483829e-06,-5.58048716939695e-06,1.107646014915295e-06,1.8535015937780106e-06,1.228273954554409e-06
-1.1411655904401419e-07,-2.030592672509764e-07,5.1526539825788174e-08,-9.04025385425121e-08,2.481311455081299e-07,-2.270301433300074e-06,-1.863430356644448e-05,-3.214483466389756e-06,8.829855328539234e-06,1.4724726656531782e-07,-1.4183956539346232e-06,1.1200220466210668e-06,-1.7512114106418295e-05,2.0153330278737776e-06,-6.8281761236997255e-06,6.977476569954206e-08,3.953236047919571e-07,5.682160969075528e-06
-8.226371993205064e-08,-1.6223128783299904e-07,7.367452044336688e-08,-3.9707554104397443e-08,2.4755494413188473e-08,-2.0583513439240527e-06,-1.7426845985896982e-05,-2.9893074506700683e-06,3.187697618064565e-06,1.5019236732436916e-07,-1.3502992991421073e-06,1.1764138614253264e-06,-1.8032492782117046e-05,3.631132666879832e-06,-8.711699967302389e-06,6.371951614592572e-07,-9.465156350861164e-07,8.876670173895006e-06
-5.1243872794617745e-08,-1.2352455356772313e-07,9.233241737688378e-08,1.0600763531687548e-08,-2.7771913215665223e-07,-1.5617084302297627e-06,-1.7330471032304207e-05,-2.7553627865633652e-06,-1.7684180442365404e-06,1.514540880323798e-07,-1.4999342065555268e-06,1.0736524795213457e-06,-1.807303756151482e-05,5.637641224683789e-06,-1.0898535228133576e-05,1.506166913695416e-06,-1.556092862001602e-06,1.0340340252996975e-05
-2.227963161008204e-08,-8.680366569809461e-08,1.0708837263549569e-07,5.6646055418989775e-08,-5.948715622388374e-07,-9.595952174245903e-07,-1.7631686373815014e-05,-2.4776900948208883e-06,-5.027975725480428e-06,1.5045143988831819e-07,-1.8333045462004026e-06,8.326072099841586e-07,-1.7400428722471406e-05,7.429421342935396e-06,-1.2836528048672036e-05,2.6191557536747237e-06,-1.008163097757306e-06,1.016909289761574e-05
4.659265082413047e-09,-5.049918285308217e-08,1.1874203084261474e-07,9.694839492237267e-08,-8.377593446251154e-07,-4.6092894982960205e-07,-1.8250185241120176e-05,-2.1601888100493193e-06,-6.35821197208591e-06,1.4676571933428417e-07,-2.309963226520784e-06,5.074672499345653e-07,-1.5922475209587756e-05,8.393103355186837e-06,-1.39661233106843e-05,3.7937395005850087e-06,7.397557565003251e-07,8.825482118063265e-06
3.052451323046607e-08,-1.237762084789719e-08,1.2911421031751072e-07,1.3218472627264257e-07,-9.415281463466432e-07,-2.4243102178749795e-07,-2.0368253395850647e-05,-1.8536687399092004e-06,-5.673861605107244e-06,1.402411023124882e-07,-2.8454338246227617e-06,1.7000562187163864e-07,-1.3770793524097004e-05,8.26632686963875e-06,-1.3933084800094259e-05,4.213029594056463e-06,3.2775169937044782e-06,6.9525377719433455e-06
5.624226603976676e-08,2.927445116377858e-08,1.4030268038456629e-07,1.6419685286990352e-07,-8.981743015013762e-07,-4.06212097397244e-07,-2.2389050453817595e-05,-1.6262373364722153e-06,-3.2786051952470284e-06,1.311366142053345e-07,-3.4367008910116687e-06,-1.1140085948768446e-07,-1.1244745879940952e-05,7.205993697660423e-06,-1.2723407616284325e-05,4.280404468327029e-06,5.8456735390459656e-06,5.1257540297636435e-06
8.24145302389133e-08,7.523908228416974e-08,1.5404725412921162e-07,1.953907764326101e-07,-7.5466903809418e-07,-9.451040649469936e-07,-2.176563100955592e-05,-1.5270204677933963e-06,1.8413674632102692e-07,1.197389085193519e-07,-4.087386977249991e-06,-2.9040436099672547e-07,-8.687565299397918e-06,5.675732231757196e-06,-1.0679923626451897e-05,4.043052339172534e-06,7.595600878806204e-06,3.6774129156125565e-06
1.0965989636970562e-07,1.257770491029617e-07,1.7264222768163772e-07,2.2842043348608557e-07,-5.859044182553509e-07,-1.7015141732098283e-06,-1.971416680823782e-05,-1.5648602594654234e-06,4.010368640908497e-06,1.0756715593215892e-07,-4.766890536816361e-06,-3.4884871445566757e-07,-6.269363801158552e-06,4.350323149425817e-06,-8.372091973666627e-06,3.4459065886248995e-06,7.880839189292347e-06,2.706504413012311e-06
1.384478152538474e-07,1.8076857580163996e-07,1.971231293452118e-07,2.654248170362575e-07,-4.624538137660479e-07,-2.3504507583600424e-06,-1.8903845695805823e-05,-1.7067779678741894e-06,7.549628220915639e-06,9.637893626956673e-08,-5.232412283996208e-06,-2.9106082384566836e-07,-4.203684424924965e-06,3.883009586457996e-06,-6.369716476357384e-06,2.4791766475774452e-06,6.45975920313197e-06,1.7671699390461882e-06
1.6885659552375666e-07,2.3908884760345947e-07,2.269619455169914e-07,3.0691051642145597e-07,-4.251144649647317e-07,-2.466704115235019e-06,-1.862088085892891e-05,-1.896432674253704e-06,1.0320254431994688e-05,8.588293917720093e-08,-5.396566278196608e-06,-1.3588442939329907e-07,-2.625002086645466e-06,4.634015845831644e-06,-5.074717127313723e-06,8.867431814332465e-07,3.5296386307105465e-06,3.5893235241240415e-07
2.0020063024275622e-07,2.9817707849176825e-07,2.6008995068669456e-07,3.511959498343187e-07,-4.7020888215004537e-07,-1.6964957713222236e-06,-1.8293346506968852e-05,-2.0830858552016756e-06,1.215201213734435e-05,7.676250010116249e-08,-5.003091633652037e-06,8.604809921072432e-08,-1.521038810184551e-06,6.4062744435102794e-06,-4.701773150013378e-06,-1.4235878433381062e-06,-3.891031989094353e-07,-1.8551489908791792e-06
2.3182395979211264e-07,3.5476845075431146e-07,2.9335336702328255e-07,3.950552380975429e-07,-5.527382241083927e-07,4.2410195123927524e-08,-1.7077782778918917e-05,-2.2434727544873504e-06,1.327174208422484e-05,6.699194259609726e-08,-4.146059134101923e-06,3.321044574919685e-07,-9.405644326361756e-07,8.473291009438159e-06,-5.302763574814913e-06,-4.368564270740854e-06,-4.642011259726808e-06,-4.359415327294705e-06
2.635757131488622e-07,4.0624002302114194e-07,3.241873120047669e-07,4.351298427295554e-07,-6.124235898645699e-07,2.470553822886399e-06,-1.6959971575318887e-05,-2.382974821875924e-06,1.3950721936398873e-05,5.870074244607879e-08,-3.973901843049489e-06,5.550076781829573e-07,-9.728220311342007e-07,1.0075197361475344e-05,-6.723046234183023e-06,-7.70529097267961e-06,-8.524802343695738e-06,-6.336057090855245e-06
2.954824602353183e-07,4.5121372656501173e-07,3.509733259957241e-07,4.689210199680464e-07,-6.092198627152944e-07,5.0372985753222076e-06,-1.7404338700759725e-05,-2.5163017475597685e-06,1.4305350418019164e-05,5.471507939706813e-08,-3.524370729995604e-06,7.200705059592285e-07,-1.7149649312338442e-06,1.0912192329735183e-05,-8.583183639443855e-06,-1.0997697578654322e-05,-1.1416970081609133e-05,-6.967155856102881e-06
3.2725483865884864e-07,4.890513768842828e-07,3.726111123375962e-07,4.948204901173107e-07,-5.418764439577106e-07,7.127073796836788e-06,-1.8008683443799368e-05,-2.6439466266665164e-06,1.4204579122193305e-05,5.546031459377991e-08,-2.949531258761363e-06,8.177174826454871e-07,-3.1701317616335233e-06,1.1197951999093699e-05,-1.040960714291159e-05,-1.3663036516206594e-05,-1.2984700088749959e-05,-7.633639375131472e-06
3.5765934533390896e-07,5.191885369087631e-07,3.8788153214433574e-07,5.119105298973592e-07,-4.324810701438469e-07,8.261341215270205e-06,-1.7016233219542956e-05,-2.7478316022257405e-06,1.3378067935730923e-05,6.196743047812142e-08,-2.3945668510853395e-06,8.580471695075262e-07,-5.181099945806175e-06,1.1288900914809442e-05,-1.1823997933598404e-05,-1.510399362628572e-05,-1.3244738412379313e-05,-8.977912525532477e-06
3.8547841254484197e-07,5.411633552324526e-07,3.962140848958006e-07,5.202606285373065e-07,-2.889627324563243e-07,8.215318646637778e-06,-1.2715419623258595e-05,-2.811822822850387e-06,1.1726408748871585e-05,7.232136533181449e-08,-1.8791113339755218e-06,8.534044336200008e-07,-7.4497043913614835e-06,1.1322154742144807e-05,-1.2613740842757425e-05,-1.4909202516067822e-05,-1.253885666504466e-05,-1.0275846523555745e-05
4.098517839561074e-07,5.550205669452678e-07,3.980912195402466e-07,5.213685409556277e-07,-8.639052443815613e-08,7.032652438786638e-06,-7.400369102951546e-06,-2.843299704044519e-06,9.482177002847433e-06,8.261134612461097e-08,-1.541923949805328e-06,8.070635848648322e-07,-9.690002217270042e-06,1.1166282485760123e-05,-1.2658696183402093e-05,-1.3014093272953567e-05,-1.134749991290943e-05,-9.753705688158226e-06
4.300429106929699e-07,5.612080042918457e-07,3.9468097095377864e-07,5.179211343852687e-07,2.0421084404589472e-07,4.97672053162955e-06,-2.5106014377462413e-06,-2.870439230512722e-06,7.166479600319066e-06,9.077111243896156e-08,-1.4626073673999676e-06,7.175475925976336e-07,-1.1558308294828707e-05,1.0661307692601775e-05,-1.1833167588844078e-05,-9.758389936226927e-06,-1.0101255805039283e-05,-8.43298928493395e-06
4.4458883514803817e-07,5.598775720348533e-07,3.8712710819024227e-07,5.126967075640111e-07,5.632342186986125e-07,2.452205982282089e-06,1.9648170571488997e-06,-2.9183079632755464e-06,5.394242267601247e-06,9.528095133504399e-08,-1.794099051513328e-06,5.887557163231406e-07,-1.2790510136378525e-05,9.837855733819936e-06,-9.98588900647934e-06,-5.8596682102872175e-06,-8.972414835315507e-06,-7.301766652458912e-06
4.512481244643452e-07,5.505129129520539e-07,3.7597506275018197e-07,5.073621300175656e-07,8.986890968474415e-07,-1.0281616215195672e-07,5.667194883356994e-06,-2.986790729328636e-06,4.635786960288144e-06,9.416204092275741e-08,-2.3654654728900162e-06,4.31184596471265e-07,-1.3174050665719898e-05,8.883924933379519e-06,-7.014188030421485e-06,-2.276174783949919e-06,-7.818709565867528e-06,-6.900266988967662e-06
4.484310980500673e-07,5.325372141192083e-07,3.6169737397458707e-07,5.019484537841207e-07,1.0771041702428421e-06,-2.337755038059154e-06,7.994235155875265e-06,-3.0537730801752215e-06,5.040861116087875e-06,8.728188338220713e-08,-3.0385868868233915e-06,2.5590365844380926e-07,-1.2329930085437419e-05,7.98720045842704e-06,-3.005359810950541e-06,1.018318175639208e-07,-6.330778819233336e-06,-5.867430838661633e-06
4.3635286724201456e-07,5.062473037955298e-07,3.4549149279755285e-07,4.9493369875103e-07,9.881765824609571e-07,-4.070160447205684e-06,8.774314038106777e-06,-3.091601193528877e-06,6.3929266765147665e-06,7.603002052696275e-08,-3.677417511033222e-06,7.393975585949105e-08,-1.0019771722254168e-05,7.259949182118756e-06,1.6123920603321674e-06,8.235709740532833e-07,-4.258497155131391e-06,-3.84864607592145e-06
4.169366155650884e-07,4.7288944127674375e-07,3.2890159835781924e-07,4.835163499300204e-07,5.997982245148535e-07,-5.282784570061688e-06,8.427868876351938e-06,-3.082611747097597e-06,8.198871472081304e-06,6.156560229309057e-08,-4.114345626110086e-06,-9.589971926721289e-08,-6.512997103033484e-06,6.7791553566052886e-06,6.027881839863103e-06,5.936222860211613e-08,-1.6223595762644393e-06,-2.3199200907974907e-06
3.923270333541745e-07,4.3376161105771085e-07,3.131817099955668e-07,4.641578988324807e-07,-2.3462432760184602e-08,-6.035135140393306e-06,7.25311646384551e-06,-3.030398412438334e-06,9.868510278587242e-06,4.4887186871930194e-08,-4.218512559678223e-06,-2.1997592471403996e-07,-1.7090248701475081e-06,6.648027023258628e-06,9.222207643223407e-06,-1.5159310803787053e-06,1.2908018805380963e-06,-1.6417020985288491e-06
3.6360914847381805e-07,3.89443539778173e-07,2.982094657657329e-07,4.336127528359611e-07,-7.37692728962478e-07,-6.3325364852426275e-06,5.195904969386926e-06,-2.9597470693693256e-06,1.0938198943493084e-05,2.6646975082557365e-08,-3.959209662720506e-06,-2.537399018918203e-07,3.4739423853935576e-06,6.944124444824482e-06,1.0330576357670636e-05,-3.024212623029501e-06,3.968630297390417e-06,-1.907535016900169e-06
3.309237625703471e-07,3.4000288705099325e-07,2.8235670983692167e-07,3.9013752810428093e-07,-1.3647178701547246e-06,-6.0564120105498805e-06,3.110205908853113e-06,-2.9012295836403884e-06,1.1239136097413946e-05,5.757220022864325e-09,-3.466084689833375e-06,-1.5937432432155922e-07,7.0836522478704176e-06,7.713541546533004e-06,9.013529294536106e-06,-3.7361701827070916e-06,5.881357665160423e-06,-3.051279386737878e-06
2.94359880181964e-07,2.8577613950274717e-07,2.633219797807252e-07,3.3401581232210437e-07,-1.752738874069092e-06,-5.0534339032407365e-06,-6.032267147463052e-08,-2.8680917429682997e-06,1.0862783753333682e-05,-1.776149113724012e-08,-2.9563246876115907e-06,7.15313744540065e-08,7.3708613866308154e-06,8.901065749655383e-06,5.622494564239288e-06,-3.3961175586702893e-06,6.60880503115877e-06,-3.9859604032650265e-06
2.5459911580381344e-07,2.277523048558685e-07,2.3890432473414057e-07,2.6830362026385843e-07,-1.8256738902305803e-06,-3.338324806779112e-06,-3.727333419311437e-06,-2.8428909088129614e-06,9.933449943698092e-06,-4.413045621914815e-08,-2.7161203545639563e-06,4.044435368569724e-07,3.7553389760208626e-06,1.0589282226454954e-05,1.044531527964474e-06,-2.3768507238193554e-06,5.902389040006482e-06,-4.12536617979855e-06
2.1272157425465448e-07,1.6697579792653147e-07,2.077384992046025e-07,1.9798843821902076e-07,-1.5981050370042239e-06,-1.2325541479543496e-06,-6.792712805926461e-06,-2.7802756918933118e-06,8.432567750767965e-06,-7.338062872733548e-08,-2.8885872131555346e-06,7.648628514808304e-07,1.166305283186653e-06,1.272272732831888e-05,-3.6561983716913986e-06,-1.4878690103715699e-06,3.788793596340109e-06,-5.032001344560839e-06
1.699920647632821e-07,1.0484200930871398e-07,1.6965831139945763e-07,1.277220155862675e-07,-1.1568982390223241e-06,6.956145384095921e-07,-9.060957886210053e-06,-2.625521936018929e-06,6.285959783309258e-06,-1.046769021117049e-07,-3.425023126764738e-06,1.0567954422629832e-06,5.693216497897344e-07,1.486761320294285e-05,-7.521526478014692e-06,-1.4941061226469013e-06,8.363903884474325e-07,-5.98140773983558e-06
1.2848302150942313e-07,4.37918280601268e-08,1.2687976408598483e-07,6.126408373964317e-08,-6.230799380791492e-07,1.8759961971829161e-06,-1.018805029337326e-05,-2.3409692976418604e-06,3.6381795954974916e-06,-1.3744449473184842e-07,-4.1210049096683225e-06,1.1926708861247632e-06,-1.9618103344832865e-06,1.6266674164259364e-05,-9.79157912559839e-06,-2.6914866240501424e-06,-2.372674933000168e-06,-5.151872151363416e-06
9.154290188008801e-08,-1.5361152954098438e-08,8.3534195999125e-08,1.2018270242366641e-09,-1.0741850689101145e-07,2.024583032666988e-06,-1.0658208798407453e-05,-1.9294565654756846e-06,1.024530527325439e-06,-1.7045423505380703e-07,-4.766292818615941e-06,1.1255864086468527e-06,-6.120684661607643e-06,1.603658092250904e-05,-9.954093506170255e-06,-4.810803410895098e-06,-5.296764208661798e-06,-3.456726927171781e-06
6.340143623927158e-08,-7.004419711577928e-08,4.457604731976796e-08,-5.0901569192675524e-08,3.235957469699481e-07,1.2813813106666824e-06,-1.0781904112853003e-05,-1.44477904674763e-06,-7.777841989856415e-07,-2.005201812202353e-07,-5.241655220760873e-06,8.677816133086758e-07,-8.628713351359409e-06,1.3742841160705173e-05,-7.868111463859527e-06,-7.19938208230904e-06,-7.61701525452434e-06,-1.9888624324977977e-06
4.767062855926214e-08,-1.1735582572250178e-07,1.436429734227585e-08,-9.425602316092096e-08,6.554871042860047e-07,9.731676449561882e-08,-1.1340460863581277e-05,-9.818895156597741e-07,-1.1518731782352099e-06,-2.2832764174953734e-07,-5.503671282906261e-06,4.838672427286348e-07,-1.0715632092006832e-05,9.62644799335712e-06,-3.885079540186084e-06,-9.092770460319466e-06,-9.034312996139893e-06,-4.0322345032847763e-07
4.6096249946906306e-08,-1.5620340199483446e-07,-4.611762019144452e-09,-1.29045018008351e-07,9.061166603772666e-07,-1.0332932001179921e-06,-1.1597693720343163e-05,-6.462214348470549e-07,4.048803386538812e-09,-2.5465200574861835e-07,-5.56855124107553e-06,6.531689999839734e-08,-1.3252869057408666e-05,4.708246249666297e-06,1.1658803193258002e-06,-9.858597267529264e-06,-9.289061567641566e-06,1.4074189102156358e-06
5.847105542225824e-08,-1.8583110004715028e-07,-1.1643743359894653e-08,-1.5649653392380476e-07,1.095328333479751e-06,-1.795236407831214e-06,-1.1646072970068695e-05,-5.178445482696638e-07,2.2235223360359054e-06,-2.7970228187086386e-07,-5.4590826364146684e-06,-2.956608625230366e-07,-1.4343189317764844e-05,3.55406424945465e-08,6.19293786841288e-06,-9.170001523134509e-06,-8.243471149437304e-06,2.9328826396114237e-06
8.32095538138403e-08,-2.0573541692083375e-07,-7.139596789758022e-09,-1.7864882227665548e-07,1.2244114089473805e-06,-2.1192284844580927e-06,-1.1931399338411476e-05,-6.292998892020453e-07,4.714638115176108e-06,-3.043707936407454e-07,-5.213856939980048e-06,-5.231388726997918e-07,-1.4491308860448492e-05,-2.841613690038504e-06,1.0197767166897543e-05,-7.1001280587425725e-06,-5.969732303598008e-06,4.186967834337628e-06
1.1775768183101944e-07,-2.1679478674219427e-07,7.971093228774525e-09,-1.9833934372562498e-07,1.2743399864390208e-06,-2.1360017273804325e-06,-1.2430556105508501e-05,-9.62422018117453e-07,6.690949299606694e-06,-3.282762094426121e-07,-4.866786209573152e-06,-5.702685488387338e-07,-1.347814290717859e-05,-5.406527851271438e-06,1.2579489410565518e-05,-4.124363685310566e-06,-3.3464902806049873e-06,4.848345883148944e-06
1.5872013195043252e-07,-2.2035063434562106e-07,3.277939658224191e-08,-2.1936963026798965e-07,1.2176888525919109e-06,-2.0959549493753634e-06,-1.3466718542980029e-05,-1.445533907404406e-06,7.605954072460452e-06,-3.51177485122347e-07,-4.412809912625741e-06,-4.3321603674316297e-07,-1.1511958367905878e-05,-7.618387304869215e-06,1.3191900545220563e-05,-1.0066304975483503e-06,-1.1650707050370539e-06,4.6437457166475604e-06
2.026773622456545e-07,-2.1761582540993283e-07,6.519178149361874e-08,-2.44969688918048e-07,1.0345128224573323e-06,-2.2617011854477876e-06,-1.4857270065965143e-05,-1.9638246978828737e-06,7.262732463833087e-06,-3.729575895552521e-07,-3.815796533370782e-06,-1.5819061378054368e-07,-8.27103499929362e-06,-6.337583730843489e-06,1.2162655883198686e-05,1.4136488536341217e-06,-1.2823095342192262e-07,3.768502503178374e-06
2.474765308077083e-07,-2.093023371354499e-07,1.0333594409251217e-07,-2.7503442295327004e-07,7.263653502762015e-07,-2.7787023437864175e-06,-1.5942839641364138e-05,-2.3964980690477264e-06,5.854554126968482e-06,-3.922883006477143e-07,-3.054265024197385e-06,1.7287541025719565e-07,-3.9548952139968065e-06,-3.490019975182692e-06,9.718024685657553e-06,2.4635157788843884e-06,-2.016201754743981e-07,2.4435947180249336e-06
2.929874016541566e-07,-1.9543166422406266e-07,1.4602908544126823e-07,-3.048311557620987e-07,3.2788155305538247e-07,-3.5889819424422467e-06,-1.5836128867090154e-05,-2.65916520747536e-06,3.947771848199492e-06,-4.213444421070255e-07,-2.184104803864079e-06,4.7641732456422967e-07,6.121703924136274e-07,-1.2764722053200006e-06,6.2064401327080805e-06,1.8276344981844758e-06,-1.2375838585739545e-06,1.1883227584182082e-06
3.401660523468717e-07,-1.756960449055073e-07,1.912772435410316e-07,-3.2682655915974775e-07,-8.980135722533704e-08,-4.445017887177403e-06,-1.43706775478094e-05,-2.725666989230905e-06,2.3618936656789007e-06,-4.397769425608184e-07,-1.3677927277410874e-06,6.979754023462735e-07,4.637681479396626e-06,3.092546868377824e-07,2.1948174605035166e-06,-3.615389690082993e-07,-2.9674463438680697e-06,3.676665779671586e-07
3.8956492112300587e-07,-1.502425807239041e-07,2.3789458578278066e-07,-3.3467805615935524e-07,-4.330024592738917e-07,-5.030568478645445e-06,-1.177810047572289e-05,-2.628148676170373e-06,1.9352231353829456e-06,-4.505617693800941e-07,-7.921683523953537e-07,8.185416676938955e-07,7.032884455542852e-06,3.9778090784083575e-07,-1.5918683910633299e-06,-3.550221306329823e-06,-5.022409342139329e-06,1.3217027152138142e-07
4.409365066826149e-07,-1.1986607048557203e-07,2.8449518687299143e-07,-3.256269493534726e-07,-6.201669950125509e-07,-5.136643473727666e-06,-8.79674276813414e-06,-2.4475766024167124e-06,3.252870761202018e-06,-4.5765334859192557e-07,-5.642120051757677e-07,8.390604097159235e-07,7.282223265790681e-06,-8.785986366416061e-07,-4.494268262955722e-06,-6.897250046933452e-06,-7.114300485783337e-06,4.5271657137814007e-07
4.940490041927351e-07,-8.51639108879772e-08,3.303285810526409e-07,-2.997616609669511e-07,-6.263920076125599e-07,-4.775427790299543e-06,-6.524669937967271e-06,-2.2886946927985225e-06,6.436357659437518e-06,-4.457458869630132e-07,-6.836221596846594e-07,7.634298614624518e-07,5.504014241644758e-06,-2.699273279514082e-06,-6.169477622725893e-06,-9.476886250085138e-06,-8.750766889212868e-06,8.775835298460855e-07
5.494943652590961e-07,-4.549329883523274e-08,3.7613697236113293e-07,-2.5836435452231483e-07,-5.089480445552309e-07,-4.151413354632387e-06,-5.767601644033836e-06,-2.2406251864987574e-06,1.1055999043193238e-05,-4.2092686737879124e-07,-1.0942409296750998e-06,5.959591169481302e-07,2.404357129558037e-06,-4.456767540089078e-06,-6.733419798406449e-06,-1.0497551245178368e-05,-9.817187922251683e-06,1.0189138209748473e-06
6.07954482390434e-07,-1.2767608312328397e-09,4.2322007422500817e-07,-2.030534138284689e-07,-3.881496000881945e-07,-3.5375802657427815e-06,-6.874635886798206e-06,-2.3439651943358046e-06,1.6197141336839345e-05,-3.8229433009365744e-07,-1.7216547566171873e-06,3.508605620843575e-07,-1.4751490170551697e-06,-5.316420388975368e-06,-6.664887494253139e-06,-9.503792703363339e-06,-1.03368850836492e-05,7.46376010537843e-07
6.691041296349679e-07,4.553270909085481e-08,4.72001288178686e-07,-1.353963576626414e-07,-3.888445284843603e-07,-3.1560410458858187e-06,-9.710942106230704e-06,-2.581404222986303e-06,2.0716510531416983e-05,-3.330828364998577e-07,-2.4228989432893187e-06,6.06189659879954e-08,-5.547821154050156e-06,-5.043700358592103e-06,-6.483349604477316e-06,-6.534148374554281e-06,-1.0677471371778244e-05,1.0333327279571072e-08
7.316725802572903e-07,9.25766910679915e-08,5.207519830394342e-07,-5.704513545075009e-08,-5.760166549906089e-07,-3.106257010545594e-06,-1.3614083984238392e-05,-2.8857403184061376e-06,2.3632386664965542e-05,-2.779616433215878e-07,-3.123183140169232e-06,-2.2443489920667322e-07,-9.41372993584523e-06,-3.948811503093786e-06,-6.4365435153493305e-06,-2.1770818887445625e-06,-1.0940918349344578e-05,-1.0660131521739417e-06
7.949612229160018e-07,1.3886553786958767e-07,5.696350664395018e-07,2.4772312380550197e-08,-9.205040406992003e-07,-3.3386544353467633e-06,-1.7641503700317766e-05,-3.157675917460781e-06,2.4450566237355748e-05,-2.2954061858732073e-07,-3.7181838489683413e-06,-4.4497544994977493e-07,-1.2909347732746899e-05,-2.604892860097669e-06,-6.422690650011806e-06,2.5409893701585363e-06,-1.1084058355841902e-05,-2.0466306193601138e-06
8.599286116903626e-07,1.84565734547921e-07,6.20544325790807e-07,1.0307385976160928e-07,-1.3128490843887264e-06,-3.6862172271963082e-06,-2.0920830887036186e-05,-3.2976094635746552e-06,2.325321635927442e-05,-2.1943742339300432e-07,-4.166892511038982e-06,-5.488245401411928e-07,-1.578504544772007e-05,-1.5396265942491441e-06,-6.134969694882101e-06,6.450609418180836e-06,-1.0933336091705534e-05,-2.9771805293965317e-06
9.284139218055102e-07,2.2432807214607972e-07,6.731711606920941e-07,1.746725634879886e-07,-1.614814193656345e-06,-3.9581734920554015e-06,-2.2819361107076647e-05,-3.2461025343014576e-06,2.055724504695222e-05,-2.4643900030502133e-07,-4.388786119875453e-06,-5.110725740739186e-07,-1.7837974713382346e-05,-9.136243042129961e-07,-5.263988609132708e-06,8.656484712313167e-06,-1.0014223035190015e-05,-4.109471057494655e-06
1.0015904845689203e-06,2.6290454723120726e-07,7.282273194884134e-07,2.121764770785173e-07,-1.7176244279152797e-06,-4.042463903094756e-06,-2.3038424272292068e-05,-3.0169506669148422e-06,1.7086972477629842e-05,-3.690603172856225e-07,-4.337288077415218e-06,-3.4759568075459356e-07,-1.8900143978334133e-05,-4.934640629754075e-07,-3.631936597483579e-06,8.91815646396172e-06,-8.124338126508243e-06,-5.387055785809797e-06
1.0792139817273222e-06,3.038667553160061e-07,7.766343804826634e-07,2.1903746323437006e-07,-1.578253365063455e-06,-3.9454020385623294e-06,-2.1629228704678072e-05,-2.7019314022841598e-06,1.3588907862738768e-05,-5.4069575679883e-07,-4.029704395082809e-06,-1.1089591085178232e-07,-1.8833389195860694e-05,9.877692192549725e-08,-1.2365826917638324e-06,7.75111053272877e-06,-5.367529513286049e-06,-6.96890994822651e-06
1.1597699294849784e-06,3.5334702941345964e-07,8.229268921913188e-07,2.6194746393978083e-07,-1.222788615111142e-06,-3.7521263915643897e-06,-1.8950142150733926e-05,-2.427047216602789e-06,1.0698985908127578e-05,-6.889220964590242e-07,-3.4525470080536585e-06,1.3105643428290704e-07,-1.7626715841894005e-05,9.995799925128443e-07,1.7343888645790865e-06,6.127953941892913e-06,-2.2640144918978227e-06,-8.929260454597658e-06
1.24032966931908e-06,4.1666123093506597e-07,8.731707150786842e-07,2.4164926084260605e-07,-7.251417183059963e-07,-3.553735981888414e-06,-1.5545399560687794e-05,-2.2798039462536333e-06,8.81484081667075e-06,-8.225643569832831e-07,-2.7710661150375706e-06,3.127357859793611e-07,-1.5546750130410255e-05,1.9692196679748765e-06,4.8634444048401225e-06,4.970345364082955e-06,4.574731669000366e-07,-1.1034111635018471e-05
1.3160503430415552e-06,4.932829826881204e-07,9.280082892084936e-07,1.7832971303214239e-07,-1.793784436540424e-07,-3.3997923753278416e-06,-1.1996571079830054e-05,-2.2620634704118682e-06,7.990542766656584e-06,-9.159987061127064e-07,-2.1094213886300356e-06,4.066200593520418e-07,-1.3215305609906159e-05,2.5227068676991842e-06,7.4931952282928106e-06,4.7619567121832556e-06,1.8581877152594676e-06,-1.2916203178837122e-05
1.3807762573291025e-06,5.778524940252639e-07,9.833015652583832e-07,1.0740571684771119e-07,3.2119410560111175e-07,-3.2997977700677727e-06,-8.81800861676987e-06,-2.303526914802575e-06,7.955970959373178e-06,-9.681355149154296e-07,-1.5626466413820715e-06,3.9748769640576727e-07,-1.142358680555115e-05,2.2753480450137903e-06,8.867631844315289e-06,5.437692434456966e-06,1.4552436639354574e-06,-1.4309485665141044e-05
1.4293587592173874e-06,6.706649469156669e-07,1.03070075632886e-06,8.253305610880861e-08,6.952086662739162e-07,-3.253057168495929e-06,-6.4249932651873475e-06,-2.3151263153022374e-06,8.274930116205971e-06,-1.0753528880510002e-06,-1.0662639682470367e-06,2.786633646957614e-07,-1.0736017819787407e-05,1.0820554168725922e-06,8.444821138753612e-06,6.492164001754211e-06,-3.536915901875029e-07,-1.476243514464014e-05
1.4602891414094618e-06,7.907650638407354e-07,1.067691113278403e-06,1.1716470743694999e-07,8.783906395840733e-07,-3.2760076266552537e-06,-5.187755938066682e-06,-2.2402327860333103e-06,8.521540849370076e-06,-1.1688170365282086e-06,-7.367740323667734e-07,5.3573296522934016e-08,-1.1191391350605732e-05,-9.765844636418246e-07,6.21462873767119e-06,7.245810257147535e-06,-1.607978583064765e-06,-1.3932259822104912e-05
1.4764880353851925e-06,9.326623987987099e-07,1.079407337358613e-06,1.7339254416780277e-07,8.29416054671778e-07,-3.4067504495227894e-06,-5.417171151553774e-06,-2.075079538611176e-06,8.39176566525715e-06,-1.2805219445823068e-06,-8.086447553140205e-07,-2.668225651107066e-07,-1.2347943196551683e-05,-3.6409888407685584e-06,2.766723805691352e-06,7.2248587135336914e-06,-1.1247998439670742e-06,-1.208636820269908e-05
1.4835996664044882e-06,1.0823113560797773e-06,1.1389358663959922e-06,2.1112649774941683e-07,5.417629550332227e-07,-3.6784974209009203e-06,-7.2404650340065065e-06,-1.8623821170373906e-06,7.760447058231905e-06,-1.3893641775165467e-06,-1.122385294216125e-06,-6.462445105757253e-07,-1.3588246423968446e-05,-6.531559639696571e-06,-9.721958331867625e-07,6.443852554055531e-06,-2.2645670981915313e-07,-9.599301419887392e-06
1.4871034700701833e-06,1.2380554818329648e-06,1.2770409680592933e-06,2.425830092583637e-07,6.035915033003054e-08,-4.080443815206259e-06,-1.0415071828590496e-05,-1.6650210860753997e-06,6.694849884144956e-06,-1.484698824456328e-06,-1.92163827669404e-06,-1.0253058664924741e-06,-1.4401960473351277e-05,-9.136463768958285e-06,-4.1241415085560545e-06,5.34870798512363e-06,-1.916451650549151e-07,-6.881589987138241e-06
1.4897893844726843e-06,1.3643376244753243e-06,1.4880186015398853e-06,2.33252106724845e-07,-5.103284917070479e-07,-4.539063188830435e-06,-1.4207208155388184e-05,-1.5331791845138528e-06,5.419726438126862e-06,-1.6167730707578135e-06,-3.236888991027845e-06,-1.2791400740023931e-06,-1.4488582488174557e-05,-1.0896088479833425e-05,-6.128950920600039e-06,4.471907424906283e-06,-6.462559838153014e-07,-4.1743260341449724e-06
1.4908609369396134e-06,1.4619717265574066e-06,1.714056557987455e-06,1.634560221684996e-07,-1.0273782251814033e-06,-4.93979786351236e-06,-1.7535571602763275e-05,-1.4812413791706553e-06,4.249157156305819e-06,-1.7797903630114309e-06,-3.733501922564936e-06,-1.431416498034432e-06,-1.3705755355372941e-05,-1.1409443415914704e-05,-6.838392577471751e-06,4.0718938636143126e-06,-1.6522986301331143e-06,-1.500788155536675e-06
1.4863097982124742e-06,1.503836309076671e-06,1.9119013752793827e-06,1.001956480325308e-07,-1.3642119467448172e-06,-5.186701482225577e-06,-1.9416446746970138e-05,-1.475367254667085e-06,3.49743651716437e-06,-1.9505177385358847e-06,-3.625520280441383e-06,-1.448175300396241e-06,-1.1962748519573675e-05,-1.0660287925738171e-05,-6.459953011929491e-06,3.998222777186729e-06,-3.4271508997456883e-06,1.128552650934142e-06
1.4737009212161207e-06,1.4965951405495829e-06,2.0767044908570287e-06,5.324213174222934e-08,-1.4705909476013288e-06,-5.247078254084972e-06,-1.9432961026205504e-05,-1.436887276852591e-06,3.4056246467769896e-06,-2.1303680548512617e-06,-3.220415068316503e-06,-1.2907862951856945e-06,-9.19205024714911e-06,-9.041886418353271e-06,-5.394208965466024e-06,3.876656465480806e-06,-5.150338203342527e-06,3.546441170231796e-06
1.4548705342180524e-06,1.5056584519842514e-06,2.171870934030261e-06,-5.375390055663159e-09,-1.3950294570664241e-06,-5.11791337190312e-06,-1.7897033585854433e-05,-1.2761280619078956e-06,4.0995397765518815e-06,-2.3047573726213185e-06,-3.0656886797124143e-06,-1.0886148137530736e-06,-5.4501725374335146e-06,-7.193252668561811e-06,-4.0876442672536705e-06,3.4650015277958535e-06,-6.700032609349994e-06,5.2853344754613185e-06
1.434665389187352e-06,1.5071354956463404e-06,2.232359239547656e-06,-2.6598765986321143e-08,-1.2515315854276448e-06,-4.761618387128867e-06,-1.5607046068462875e-05,-9.437087309757772e-07,5.535779904398716e-06,-2.457967971226152e-06,-3.386978097124679e-06,-7.220962133088181e-07,-1.0296107181425916e-06,-5.768327696332243e-06,-3.008076162321943e-06,2.8737923054719403e-06,-7.761212566617085e-06,5.891810629821525e-06
1.4208828462972548e-06,1.522793924343654e-06,2.309223630307226e-06,-3.041496745698138e-08,-1.1543074321358624e-06,-4.125573868662855e-06,-1.3363781212286149e-05,-4.6005347237525046e-07,7.462601603424327e-06,-2.596314087079533e-06,-4.380741389326147e-06,-2.771841709094019e-07,3.5329828226838085e-06,-5.1726993482548055e-06,-2.6608340801998345e-06,2.4768314294846474e-06,-7.957489640158172e-06,5.059703730308926e-06
1.4211323612509528e-06,1.5695222601109143e-06,2.3931054049175308e-06,-6.12139565364414e-08,-1.1649854081626408e-06,-3.246853670523708e-06,-1.1580909921579986e-05,9.206241204336e-08,9.488367890729892e-06,-2.7232727426649194e-06,-4.813322837960719e-06,8.704722507160146e-08,7.54286080623391e-06,-5.493647827732315e-06,-3.4667262536925066e-06,2.585328737800323e-06,-7.257515639814987e-06,2.7672771173453443e-06
1.4346661006639578e-06,1.5800727894216155e-06,2.3674190550059015e-06,-1.0054366755935394e-07,-1.2802454218051132e-06,-2.3285569651271105e-06,-1.0250086856426348e-05,5.936604824837532e-07,1.1225016628668808e-05,-2.8286877950705e-06,-4.597225677953026e-06,3.6979888801217147e-07,1.0301756905117073e-05,-6.424392788468092e-06,-5.514354202312024e-06,3.1271972724972407e-06,-5.58633318889453e-06,-7.298473724208541e-07
1.4560553423912186e-06,1.588843376705184e-06,2.2930461760792684e-06,-9.565722594097845e-08,-1.4535821482101715e-06,-1.7056568533106026e-06,-9.19825771414017e-06,9.186666176149219e-07,1.2395907655883998e-05,-2.909619113378946e-06,-4.975389585478241e-06,4.033787022066433e-07,1.1303370092510098e-05,-7.408274647959781e-06,-8.40082798281571e-06,3.6181313131516305e-06,-3.1330140765721637e-06,-5.0373553024956304e-06
1.4842553564168818e-06,1.5586594797201447e-06,2.2352264541362493e-06,-1.3813820576581878e-07,-1.6234413748594673e-06,-1.7132175569792399e-06,-8.349095526254801e-06,9.614554530901486e-07,1.2887124085968484e-05,-2.947288818648775e-06,-4.848605843345814e-06,2.0743469585124035e-07,1.03764784527438e-05,-7.990345017622956e-06,-1.1302305259751829e-05,3.5192997684572876e-06,-3.5527236667089174e-07,-9.597278347148129e-06
1.508222787748935e-06,1.5260482946348765e-06,2.210026496757423e-06,-2.2491362184356885e-07,-1.7273656963886389e-06,-2.5313102714436313e-06,-7.805505418536007e-06,6.579627587078202e-07,1.2761385586428201e-05,-2.9616490101562025e-06,-4.475904248464623e-06,-1.1241879963137659e-07,7.713057526471717e-06,-8.018581184654768e-06,-1.3243076228225523e-05,2.6935517612284886e-06,2.347480372336372e-06,-1.3672340485833029e-05
1.5219754389319891e-06,1.4729678967950697e-06,2.189402241315628e-06,-3.0148437232876583e-07,-1.7081278045636372e-06,-4.084214393465233e-06,-7.755249729335299e-06,6.162443097877693e-09,1.221595536220469e-05,-2.965073768582383e-06,-3.852217025611791e-06,-4.917114711459269e-07,3.821528700193955e-06,-7.639943319150846e-06,-1.3450894458877686e-05,1.5410430938929282e-06,4.81131909853714e-06,-1.642310064088641e-05
1.5263842010221572e-06,1.4108054266146311e-06,2.1690773155180967e-06,-3.8197454946042796e-07,-1.5312176879602856e-06,-6.035674406294095e-06,-8.303311484770548e-06,-9.109142479315183e-07,1.1473324083645049e-05,-2.9522784350845096e-06,-3.4775611583878173e-06,-8.155632668568304e-07,-5.484098550455564e-07,-7.0894296775414135e-06,-1.1641433150269795e-05,7.106805618240757e-07,7.101468999172759e-06,-1.718117638987373e-05
1.461298432877179e-06,1.3751807246212207e-06,2.098518922799606e-06,-4.7271003951410234e-07,-1.2136344187315536e-06,-7.882901674802387e-06,-9.350018959129477e-06,-1.9171844850100356e-06,1.0658219956333145e-05,-2.9503022247451103e-06,-3.3549063264792624e-06,-1.0390201971161606e-06,-4.530020415081073e-06,-6.495022020747966e-06,-8.087523078741553e-06,7.385562262971352e-07,9.381242059147288e-06,-1.5713240299355836e-05
1.3582221595633002e-06,1.3231230335334312e-06,2.0027791782426345e-06,-5.596012966384515e-07,-8.387537399869991e-07,-9.12336238167014e-06,-1.0608245223926591e-05,-2.7744360163321397e-06,9.778792998745894e-06,-2.9563205016716867e-06,-3.107958830882416e-06,-1.1662608723823468e-06,-7.350787065451171e-06,-5.8542753776939215e-06,-3.477584946085402e-06,1.7670579411193294e-06,1.1646335463616863e-05,-1.2327721488828572e-05
1.2595734253682144e-06,1.263810697698216e-06,1.925989777995142e-06,-6.57232318095313e-07,-5.352922896858741e-07,-9.443346653998163e-06,-1.1767535719241559e-05,-3.266307221236832e-06,8.845357131098156e-06,-2.948936679729882e-06,-3.0427868084938815e-06,-1.2173754928408151e-06,-8.589404735178617e-06,-5.159274716608866e-06,1.2759677397180033e-06,3.486787314148001e-06,1.3577101857460286e-05,-7.8571726941609e-06
1.166431783225505e-06,1.2075047524688532e-06,1.8747959676997537e-06,-7.662596448972335e-07,-4.2448928439049564e-07,-8.852139658414432e-06,-1.2654131328229356e-05,-3.303159812295586e-06,7.978834653259136e-06,-2.9617330649220636e-06,-3.0407417319164166e-06,-1.224636070924894e-06,-8.340167228988867e-06,-4.456455335230326e-06,5.1787953744869895e-06,5.318937299792052e-06,1.4661907109161361e-05,-3.3918603360747623e-06
1.0838062206849987e-06,1.1434908179483347e-06,1.861272512696719e-06,-8.663669778214931e-07,-5.655319557461593e-07,-7.675846629778865e-06,-1.3221298936252918e-05,-2.975166439100933e-06,7.363471503530078e-06,-3.0016783912620793e-06,-3.0033398269168818e-06,-1.2212704212266135e-06,-7.155271284940402e-06,-3.8045381803471393e-06,7.3524819366597625e-06,6.7028540758090945e-06,1.4486254307639456e-05,-1.0243855370466243e-08
1.0231485115439151e-06,1.0828124776199562e-06,1.843283283761178e-06,-9.288060937229666e-07,-9.301421916216484e-07,-6.381241942889669e-06,-1.3432961025972629e-05,-2.529914841025457e-06,7.096319635733447e-06,-3.058279123307731e-06,-2.961651628142567e-06,-1.2380545452324777e-06,-5.757218212253274e-06,-3.246976184204293e-06,7.355976244148275e-06,7.488047974211194e-06,1.296340079676842e-05,1.6850411501428976e-06
9.75256934844357e-07,1.0473024505724544e-06,1.8250282521764532e-06,-1.0112482402921493e-06,-1.4126163526360615e-06,-5.328987149384396e-06,-1.3249535468967955e-05,-2.230801599271974e-06,7.101608760348899e-06,-3.132196129879737e-06,-2.7403397775266233e-06,-1.3033549048737824e-06,-4.679779413896339e-06,-2.802500340411285e-06,5.407040361788575e-06,8.008312112269727e-06,1.03479604756928e-05,1.6787914908182283e-06
9.437793590467624e-07,1.01532453936601e-06,1.8159106791753027e-06,-1.1005904952539263e-06,-1.865421655420775e-06,-4.634454041221315e-06,-1.2734431517981568e-05,-2.2278206590270053e-06,7.178105892264383e-06,-3.211829507018473e-06,-2.34066146151028e-06,-1.4382436291548146e-06,-4.084361225770852e-06,-2.4605723814636593e-06,2.2602452632236065e-06,8.74965297351231e-06,7.046689234086006e-06,4.5145209514181387e-07
9.274712273912152e-07,9.815384565856824e-07,1.8385250414830743e-06,-1.1440433672774364e-06,-2.1506976942626237e-06,-4.2121471762315355e-06,-1.2070128529875204e-05,-2.5197558118243696e-06,7.10956937040026e-06,-3.2782498245382104e-06,-1.8616486764970335e-06,-1.6403962799276797e-06,-3.84713655989192e-06,-2.1784727578754972e-06,-1.1554661068621532e-06,9.957937056334175e-06,3.416889279635602e-06,-1.1330066902982542e-06
9.235284733702811e-07,9.543973470326787e-07,1.8851891723113654e-06,-1.1983071557089238e-06,-2.190561708116179e-06,-3.892058108537031e-06,-1.140226597009963e-05,-2.986650632331267e-06,6.748662228978875e-06,-3.322782287312065e-06,-1.3874717498823222e-06,-1.8706389090014198e-06,-3.7605986727401123e-06,-1.8538951217136277e-06,-4.062615164997534e-06,1.1494555804107222e-05,-2.6695970545992364e-07,-2.323331878971625e-06
9.320617622903843e-07,9.260569212351688e-07,1.922752355274067e-06,-1.2293528914562606e-06,-1.989613862833381e-06,-3.474561971114972e-06,-1.0721298708478904e-05,-3.461343174992262e-06,6.0287501230198614e-06,-3.3469100105900124e-06,-1.0415325840179056e-06,-2.062876638602828e-06,-3.6789878738518807e-06,-1.3785400942472195e-06,-5.999559765843823e-06,1.2908202662042803e-05,-3.754201198689722e-06,-2.551805296711397e-06
9.471600021120788e-07,8.986295542461791e-07,1.9443829927482847e-06,-1.235045821273682e-06,-1.617791301769111e-06,-2.7516933350877254e-06,-9.954590084907156e-06,-3.794996923171744e-06,4.92331125370011e-06,-3.338281283916253e-06,-8.985013027960947e-07,-2.1553462225460505e-06,-3.5913909026094185e-06,-7.015526518970058e-07,-6.834557241407569e-06,1.3541318979063579e-05,-6.793100693055189e-06,-1.507578431612974e-06
9.647676397913597e-07,8.752480829291494e-07,1.9459892241533112e-06,-1.220193264852364e-06,-1.1700647244227812e-06,-1.5930137628343605e-06,-9.145275487040652e-06,-3.9025298576157384e-06,3.422769724904767e-06,-3.309626470108307e-06,-9.573560439367276e-07,-2.1206809041031373e-06,-3.628290094481536e-06,8.832999482135009e-08,-6.670917696936292e-06,1.2722358076629774e-05,-9.138823229398786e-06,7.728262830294759e-07
9.837133641146347e-07,8.557480758988925e-07,1.9431014741729117e-06,-1.1893420145205483e-06,-7.360594710706151e-07,-6.586116665319669e-08,-8.510429810545726e-06,-3.770453338770522e-06,1.567154832545909e-06,-3.2663428893387382e-06,-1.1208814565917976e-06,-1.976096444708254e-06,-3.953518042862759e-06,7.193101752162799e-07,-5.720488133468168e-06,1.003222659222385e-05,-1.061403500682264e-05,3.924264661326707e-06
1.0037972492250491e-06,8.40538991824524e-07,1.946436035545996e-06,-1.1660983429392046e-06,-3.94945603799135e-07,1.5291160853903987e-06,-8.34611847797844e-06,-3.448116228637283e-06,-4.96447438276073e-07,-3.212667786058128e-06,-1.2802225223746357e-06,-1.771186450683953e-06,-4.5779641496471056e-06,7.940275130733927e-07,-4.2284971024470616e-06,5.747451941422323e-06,-1.114022063115532e-05,7.341290182014256e-06
1.0244904250764756e-06,8.339406168207177e-07,1.961616802173486e-06,-1.1467960818186042e-06,-2.1874124325550306e-07,2.7440947932001833e-06,-8.878987349564763e-06,-3.0289990426463864e-06,-2.475654669269917e-06,-3.1631479731139646e-06,-1.3689385321835e-06,-1.5627563510226323e-06,-5.252290705150833e-06,-3.632724436458915e-08,-2.475353807091464e-06,8.201447684468708e-07,-1.0733279311131987e-05,1.0343834518099587e-05
1.0444726613853241e-06,8.223647003431919e-07,1.9807416297020604e-06,-1.1273016553462738e-06,-2.6258122419251397e-07,3.1364953715732776e-06,-1.0163350653335758e-05,-2.621103332228769e-06,-3.954780766596852e-06,-3.103027560420224e-06,-1.3811742236230336e-06,-1.3894474778355353e-06,-5.551887623073772e-06,-1.880913329685706e-06,-8.071369150813055e-07,-3.7543606945638266e-06,-9.509804916119332e-06,1.228829845466485e-05
1.0623417643657927e-06,8.197267912893783e-07,2.0012677922119893e-06,-1.1091910797390005e-06,-5.44113474004463e-07,2.4292452807622105e-06,-1.2048533402055873e-05,-2.3116848597544858e-06,-4.520288315244557e-06,-3.0421560517389873e-06,-1.3727769451382598e-06,-1.2579799981929267e-06,-5.1173565784595824e-06,-4.555760301147892e-06,3.934876225416855e-07,-7.0890764009012375e-06,-7.719457503980018e-06,1.2730313711905696e-05
1.0802917455945143e-06,8.256059383976304e-07,2.025635207281343e-06,-1.089006221955777e-06,-1.0272049346425994e-06,6.373865961974827e-07,-1.4173554421722797e-05,-2.1398504944114757e-06,-3.955458107477612e-06,-2.9919763985867207e-06,-1.4121250474188825e-06,-1.1481269365096762e-06,-3.880557605945367e-06,-7.63108911873252e-06,8.341138188366895e-07,-8.637152032481899e-06,-5.744232889916073e-06,1.155155097318491e-05
1.099442908530453e-06,8.307173558998741e-07,2.0488322120706935e-06,-1.0706876271185237e-06,-1.620312831049485e-06,-1.8868287399138266e-06,-1.5983773908878696e-05,-2.099419687089123e-06,-2.3850031370913727e-06,-2.9366145096021633e-06,-1.5573394345205731e-06,-1.0310999765734782e-06,-2.080029505453163e-06,-1.0555757528757307e-05,4.742418029237325e-07,-8.492586480469548e-06,-3.973162082215411e-06,9.095706999474087e-06
1.1197873985375727e-06,8.396684259046569e-07,2.0703481845262253e-06,-1.0553753066248463e-06,-2.1950038202264717e-06,-4.53472360006695e-06,-1.6850751742983458e-05,-2.163188615148015e-06,-2.9829827188773155e-07,-2.8768511363003767e-06,-1.834321678771438e-06,-8.869497912552627e-07,-5.524799820140216e-08,-1.2839312370721752e-05,-3.848303420031724e-07,-6.9269073779561355e-06,-2.6105656675819194e-06,6.2815264190877045e-06
1.1404124237974542e-06,8.509523970236907e-07,2.090025630031671e-06,-1.04184427215506e-06,-2.6188985606674703e-06,-6.6377538328925445e-06,-1.6349199501971816e-05,-2.2924226117059124e-06,1.5540686886718403e-06,-2.8114745339299676e-06,-2.2424409742109346e-06,-7.098814815330653e-07,1.9693908254371844e-06,-1.422968552826242e-05,-1.164460625320327e-06,-4.13646461998429e-06,-1.5680461444972843e-06,3.901511011850699e-06
1.1605542583473867e-06,8.634138712333687e-07,2.1076487452116075e-06,-1.0296524846181059e-06,-2.7883999027486557e-06,-7.692069435860185e-06,-1.4562493022435388e-05,-2.4493543486540456e-06,2.4312187431960073e-06,-2.7341996695654855e-06,-2.751172898768134e-06,-5.121222425914014e-07,3.931107298026253e-06,-1.4761784581584862e-05,-1.2395180448137712e-06,-1.4110805069336143e-06,-5.507795267507337e-07,2.4967724303760823e-06
1.179910365007556e-06,8.800029617879404e-07,2.1203779066608375e-06,-1.0191393333568664e-06,-2.6542985710662466e-06,-7.5050040054620685e-06,-1.2161029057712919e-05,-2.5776863523953225e-06,1.9840306618856375e-06,-2.6574368446659276e-06,-3.2913184009278123e-06,-3.2550355419496716e-07,5.8097975501180345e-06,-1.4626446038688098e-05,-2.4496498783246263e-07,4.792027784944285e-07,7.279116691095918e-07,2.2592332490199774e-06
1.1983451721654789e-06,9.047907333394166e-07,2.1431248597904024e-06,-1.0113873546771015e-06,-2.23957939389493e-06,-6.215069686032986e-06,-1.0140530262777499e-05,-2.6202874338184377e-06,4.578074242221868e-07,-2.5848045113606854e-06,-3.7667321185204426e-06,-1.9416175497218833e-07,7.454713953619425e-06,-1.3986600991862104e-05,1.7006521042956899e-06,1.6398823010018857e-06,2.3492024159633e-06,2.796980951554901e-06
1.2122935767455874e-06,9.321429578095562e-07,2.1625386817370704e-06,-1.0069714428179444e-06,-1.6391584105785087e-06,-4.204308913717267e-06,-9.374737632618679e-06,-2.5357168851994833e-06,-1.4986602918560223e-06,-2.5043596807664365e-06,-4.0681700632849374e-06,-1.57669063170426e-07,8.505394250000651e-06,-1.2879390846141328e-05,4.007856133436445e-06,1.4646091677470596e-06,4.102375587858141e-06,3.7076102953537655e-06
1.220106712108697e-06,9.59644336335274e-07,2.1729563790954196e-06,-1.0047739139891515e-06,-9.919720794720163e-07,-1.953957767498667e-06,-1.0262933775243955e-05,-2.3040033828602086e-06,-3.2301878404785634e-06,-2.422844827266996e-06,-4.104794178055389e-06,-2.3176337909786217e-07,8.523995191759387e-06,-1.1307429662503215e-05,5.910599954414949e-06,1.3011933313381512e-06,5.547269280654823e-06,4.439120574956564e-06
1.2218931012587895e-06,9.886994946939095e-07,2.17447698529139e-06,-1.0017241583586548e-06,-4.388544663416085e-07,9.694062781210487e-08,-1.266241271659509e-05,-1.944514017689714e-06,-4.317445172757127e-06,-2.3485920022415105e-06,-3.849744113494503e-06,-4.025490223480545e-07,7.273109087745057e-06,-9.335921232609432e-06,6.8803571429284345e-06,1.5694293126283487e-06,6.195763998434894e-06,4.389840612384403e-06
1.2197685494809147e-06,1.0168399322405018e-06,2.1602150772514037e-06,-9.952920500318535e-07,-8.796364670036897e-08,1.6409459899124399e-06,-1.6062752982212094e-05,-1.5207065929011678e-06,-4.564554833357014e-06,-2.281964563956195e-06,-3.3639164995282287e-06,-6.286291489471136e-07,4.899907492927438e-06,-7.080479465542112e-06,6.866188403305594e-06,1.5161504359960445e-06,5.730352575112038e-06,3.2051542812401668e-06
1.213278495441176e-06,1.043027213468724e-06,2.1316281348300523e-06,-9.833289384941193e-07,3.6334865529316528e-09,2.528222593049299e-06,-1.9812646861406053e-05,-1.136901144184336e-06,-3.924234061004758e-06,-2.226637594973106e-06,-2.8074284914409274e-06,-8.497085154632146e-07,1.8929878375970525e-06,-4.667263698417744e-06,6.19385786511568e-06,1.3298908206757717e-06,4.084709605852609e-06,9.036583193904642e-07
1.1976558012213353e-06,1.0648503061118023e-06,2.0885483126198455e-06,-9.652196543025051e-07,-1.700997058307632e-07,2.7479266252715476e-06,-2.3280059220639088e-05,-9.13337540936991e-07,-2.5112660469624724e-06,-2.1826547796777274e-06,-2.360110856365195e-06,-9.99317258515086e-07,-1.0844902162124058e-06,-2.2415382534620287e-06,5.245164038804268e-06,6.135970774843028e-08,1.4183276941588813e-06,-2.18465491178151e-06
1.1726865106643773e-06,1.079921125505177e-06,2.032795759659785e-06,-9.437505737241419e-07,-5.752187685218714e-07,2.3796560354382956e-06,-2.5935167505938883e-05,-9.520080333326591e-07,-6.20408579937003e-07,-2.1453583249015512e-06,-2.1176466445040584e-06,-1.0228498639906755e-06,-3.367268551066931e-06,-4.714266142399314e-08,4.195380051410127e-06,-1.8337202292389966e-06,-1.8981987658920222e-06,-5.577936460759332e-06
1.1388571474086433e-06,1.0916058077664713e-06,1.9628193713527834e-06,-9.255092220208321e-07,-1.142888316556826e-06,1.5259035649961307e-06,-2.73838378728873e-05,-1.307099391150341e-06,1.3528747920853295e-06,-2.128881975086241e-06,-2.0424232956856253e-06,-8.989969769137541e-07,-4.482672842185068e-06,1.5615416599958545e-06,2.9756555903910156e-06,-3.6389723804520322e-06,-5.272365088265062e-06,-8.759704829059766e-06
1.1019676695239821e-06,1.0978431620147851e-06,1.8920764929422855e-06,-9.139852239964512e-07,-1.7709720538519108e-06,2.7124623643170204e-07,-2.740351976905683e-05,-1.9630790992586762e-06,3.065885724435832e-06,-2.132753821511735e-06,-2.000157595759532e-06,-6.52487021474248e-07,-4.396555232487397e-06,2.2900383423414157e-06,1.4164450866399863e-06,-5.2489269863544275e-06,-7.993234439508997e-06,-1.1325866307907603e-05
1.0627889532537093e-06,1.1012223210467553e-06,1.8407936222221962e-06,-9.116783645777283e-07,-2.339243339602675e-06,-1.2905481886136672e-06,-2.6017580198348267e-05,-2.8296707055229896e-06,4.286796955678123e-06,-2.1505426747980325e-06,-1.8624215378478976e-06,-3.5131190866699284e-07,-3.508227523867892e-06,2.172949634526609e-06,-5.795430644626173e-07,-6.255513471699478e-06,-9.514192027068741e-06,-1.296070436953848e-05
1.0254400075311764e-06,1.1058253658373497e-06,1.7995877270272897e-06,-9.250560176637952e-07,-2.735429459069992e-06,-3.007287691721447e-06,-2.356976761089629e-05,-3.7530078294515035e-06,4.848614649794222e-06,-2.184664922528003e-06,-1.5969531196597076e-06,-8.737744178506784e-08,-2.517933514019814e-06,1.6856897873891302e-06,-2.9547211921263405e-06,-6.8085650673269724e-06,-9.71278423649132e-06,-1.3526788279326168e-05
9.911582438543816e-07,1.1169287565267456e-06,1.7733030524384921e-06,-9.503969717532251e-07,-2.880149601988971e-06,-4.681721019887842e-06,-2.0701419709694873e-05,-4.56145077891407e-06,4.6374422204635685e-06,-2.229304058960654e-06,-1.1879843642927385e-06,5.4213810809487534e-08,-2.2222135130765496e-06,1.5584521826522422e-06,-5.505349688340817e-06,-6.634082741649086e-06,-8.909386508241849e-06,-1.3222090008139874e-05
9.6684979435326e-07,1.1233945275429376e-06,1.7683062407061968e-06,-9.85665363348287e-07,-2.7505628815801696e-06,-6.146076619648362e-06,-1.8145816320299704e-05,-5.062697734015271e-06,3.69547921519767e-06,-2.2829885327440197e-06,-6.732986918383119e-07,2.7364331554288344e-08,-3.125025923376286e-06,2.4006151916609687e-06,-7.904976349232686e-06,-5.443428991848805e-06,-7.62868429409073e-06,-1.2272618853419982e-05
9.529750259015849e-07,1.1286732710850182e-06,1.7848989190857503e-06,-1.025243284561478e-06,-2.3962171722561327e-06,-7.321452798601111e-06,-1.6390045091237565e-05,-5.104780190472042e-06,2.324112437609987e-06,-2.344998785912343e-06,-1.0346972406842228e-07,-1.5715242373297012e-07,-5.2599428746510716e-06,4.363525805824998e-06,-9.72453524740132e-06,-3.2764479876900568e-06,-6.32317609564619e-06,-1.1017112287443649e-05
9.496895305153888e-07,1.1420251680728307e-06,1.827127958001172e-06,-1.070206389114406e-06,-1.9288562453490422e-06,-8.219447205613143e-06,-1.547659259915486e-05,-4.641581947817295e-06,1.0501226249859932e-06,-2.4076578072324968e-06,4.778022330769375e-07,-4.404449829257177e-07,-8.253520610116871e-06,7.045508487817385e-06,-1.050529625580354e-05,-4.7555100297641265e-07,-5.246105485234844e-06,-9.838240304008305e-06
9.57821168037831e-07,1.1618978165732994e-06,1.8775159517781456e-06,-1.0961323605379774e-06,-1.4817890803093912e-06,-8.894546885342728e-06,-1.519025191550062e-05,-3.757992582940041e-06,4.3421941800529897e-07,-2.4619190099641784e-06,9.932919657383805e-07,-7.414047794438915e-07,-1.1317470232759805e-05,9.685560753613638e-06,-9.901592602546314e-06,2.221496668760793e-06,-4.472440840284813e-06,-8.886197159755718e-06
9.733637582587354e-07,1.1782501824903388e-06,1.9204334713555898e-06,-1.0885081160110634e-06,-1.1590566091290894e-06,-9.371852657746984e-06,-1.5445829714325307e-05,-2.6650945467771515e-06,8.543656418659176e-07,-2.5060560645311433e-06,1.3611562665206137e-06,-9.897760496326346e-07,-1.3395660783422774e-05,1.1543892313367523e-05,-7.837289923416591e-06,3.897200710465762e-06,-3.961983295971543e-06,-8.38389056399961e-06
1.0007319243605677e-06,1.1939447523055301e-06,1.917577465410761e-06,-1.0376403368300032e-06,-1.0009511779792595e-06,-9.597851503689608e-06,-1.6398234628906013e-05,-1.613654971653869e-06,2.4003034824993457e-06,-2.5329972148030503e-06,1.5211416481881582e-06,-1.129974511987408e-06,-1.4033780750834165e-05,1.22877373605469e-05,-4.600379185177992e-06,3.971972724514109e-06,-3.5950476141593832e-06,-8.381783222293126e-06
1.0033159389116931e-06,1.163287931417188e-06,1.8576552288779859e-06,-9.487398939328574e-07,-9.806768989940093e-07,-9.46823559181061e-06,-1.813669617069471e-05,-7.90072156967822e-07,4.850878803142493e-06,-2.5368226124573252e-06,1.4788952521305418e-06,-1.1357894054404218e-06,-1.2612395398127863e-05,1.2111851610003814e-05,-8.17246303323129e-07,2.7755770999581647e-06,-3.2069320598550506e-06,-8.665809420401685e-06
9.710573514181146e-07,1.0835881103005779e-06,1.7742026385895086e-06,-8.644554712571505e-07,-1.0346578150791317e-06,-8.92091163440793e-06,-2.0371335174158073e-05,-2.576010943260465e-07,7.692962102724376e-06,-2.5093164272402827e-06,1.308800063241728e-06,-1.0370783538978193e-06,-1.0493688529571319e-05,1.147348778936313e-05,2.6986111150199384e-06,1.3142532656804402e-06,-2.669360840620708e-06,-8.883029841269426e-06
8.622685079177302e-07,1.0120701396737006e-06,1.6989482513562031e-06,-7.707609248604951e-07,-1.1100842125821832e-06,-8.010673852033847e-06,-2.2506773281538728e-05,2.4137572701213932e-08,1.022589029353988e-05,-2.448100828213688e-06,1.1449972780177146e-06,-8.966982302206073e-07,-9.131255181729733e-06,1.0683955713930297e-05,5.168611417582886e-06,8.204069268683449e-07,-1.9758936871312017e-06,-8.673581304542859e-06
7.314004968544171e-07,9.688111767969748e-07,1.628588528308659e-06,-6.750867351636434e-07,-1.1926811178468178e-06,-6.902433855301041e-06,-2.3977279774962892e-05,1.59308023862405e-07,1.1793937200089648e-05,-2.3562706919916734e-06,1.1066954195883173e-06,-8.007132304527419e-07,-6.985025436073382e-06,9.735689190442369e-06,6.075167297228669e-06,2.154217513829078e-06,-1.262636558616354e-06,-7.851765375077354e-06
5.969648741620262e-07,9.182439728506019e-07,1.5492872088383995e-06,-5.840596129692744e-07,-1.2909981499458118e-06,-5.799404778309852e-06,-2.4437502846709872e-05,2.3288652052991328e-07,1.202781652159477e-05,-2.235354073412846e-06,1.2277712982162333e-06,-8.224158077484841e-07,-3.470711527771109e-06,8.375761271065577e-06,5.326353221528459e-06,5.4155497586213685e-06,-7.242962140399885e-07,-6.520575823436813e-06
4.610457993544862e-07,8.749193092511088e-07,1.5181650586303458e-06,-4.521697983539776e-07,-1.3993415983444699e-06,-4.865765543503572e-06,-2.366091574017929e-05,2.5229078276756254e-07,1.0988358362509627e-05,-2.0887025635194253e-06,1.4474842647006544e-06,-9.839451962258978e-07,1.883735996844198e-07,6.352230510669863e-06,3.2856146801416703e-06,1.0004239043635307e-05,-4.5627659057303745e-07,-5.043565387156092e-06
3.0503615786754297e-07,7.899795098515914e-07,1.4842253599758452e-06,-3.635677156329195e-07,-1.4810538071358329e-06,-4.186715748870977e-06,-2.135713844581188e-05,1.4654276193962148e-07,9.089765020285265e-06,-1.9241741320816725e-06,1.6346232272093138e-06,-1.182131332654667e-06,3.946692941088015e-06,3.5886017311767015e-06,6.220844354850622e-07,1.4882270159775638e-05,-3.260935561758619e-07,-3.8140250811630844e-06
1.1754248567992583e-07,6.731826860883263e-07,1.439705573803632e-06,-3.0541676654287624e-07,-1.486103222553181e-06,-3.767582116926887e-06,-1.7048476826210803e-05,-1.9105169126983584e-07,6.9129012349931465e-06,-1.762146371811974e-06,1.6461066198086206e-06,-1.272703560506434e-06,7.462294607499594e-06,2.473672375684542e-07,-1.9771953150043584e-06,1.8993193722406493e-05,-2.2942042661497224e-09,-3.183942644446208e-06
-1.7315511917066552e-08,5.740397699202097e-07,1.3637075926043345e-06,-2.385404859271304e-07,-1.383947050252449e-06,-3.5469654190417546e-06,-1.080268530534179e-05,-8.233584167227147e-07,4.9451239260827704e-06,-1.6095406735304525e-06,1.422569455213949e-06,-1.16386277014877e-06,9.576166835951498e-06,-3.31281120404641e-06,-4.076603171540134e-06,2.1614085458040967e-05,8.181525505126181e-07,-3.3767701488524507e-06
-1.1638310257263013e-07,5.207946406687684e-07,1.289181203847631e-06,-1.892278903361159e-07,-1.1846544028333092e-06,-3.4036354964172526e-06,-3.109587755229548e-06,-1.7037378754761506e-06,3.3966967678280525e-06,-1.5005848019937258e-06,8.851884483087003e-07,-1.0557747303952615e-06,1.021518569331977e-05,-6.65836555719243e-06,-5.566640810859655e-06,2.2478695872224332e-05,2.1213833621020943e-06,-4.354407854189971e-06
-1.8246349588002603e-07,4.5300728419634234e-07,1.2250485938246204e-06,-1.7466247704894227e-07,-9.387837810175233e-07,-3.1661672053701244e-06,5.006328671213015e-06,-2.681407905106174e-06,2.1707457501550896e-06,-1.4255187142151392e-06,6.608850369714835e-08,-1.0654735256920486e-06,9.352267364708289e-06,-9.42913859794093e-06,-6.550973028321065e-06,2.17112760791264e-05,3.4300607557392633e-06,-5.876455003133507e-06
-2.4004009146174517e-07,4.1966115814405755e-07,1.1474042587877042e-06,-1.8783119231677245e-07,-7.264489634863495e-07,-2.6567314859973784e-06,1.062252790765865e-05,-3.5489921115894567e-06,1.0059310348808623e-06,-1.3625907282915472e-06,-9.310224359617015e-07,-1.1185091460475155e-06,7.161735306115685e-06,-1.1475346422664571e-05,-7.133107140578925e-06,1.9656647402408066e-05,3.923646519422748e-06,-7.519085636314251e-06
-2.7788834466548677e-07,3.703508406243542e-07,1.1225703625420246e-06,-1.844773010979974e-07,-6.398689618888941e-07,-1.770309546071717e-06,1.3007845617413902e-05,-4.09265465393355e-06,-2.840969267195541e-07,-1.3341661605797347e-06,-1.945174709471479e-06,-8.218943560802344e-07,4.139252722882706e-06,-1.2847328265617843e-05,-7.347607827764892e-06,1.6700483504731806e-05,2.806246448303074e-06,-8.808873020435526e-06
-2.527237442012131e-07,3.353047267414891e-07,1.1675161630209193e-06,-1.829517636979981e-07,-7.500957850808839e-07,-5.306975169794159e-07,1.7081930724952872e-05,-4.0422744631666915e-06,-1.6834135793805635e-06,-1.3048252622454796e-06,-2.793928592154424e-06,-5.191957453890879e-07,6.288460071948476e-07,-1.3679379337094362e-05,-7.188351706121244e-06,1.3179762112995931e-05,-2.379144633232095e-07,-9.46741352970474e-06
-2.107437999841478e-07,3.2952816198671404e-07,1.1479523133334896e-06,-1.574136155913664e-07,-1.064672687749352e-06,9.260532882828591e-07,1.6132619004158377e-05,-3.894526040503212e-06,-3.009200547325328e-06,-1.2934405308034743e-06,-3.371087199622621e-06,-4.849231998350603e-07,-3.0154847977447003e-06,-1.4075341459842582e-05,-6.74305628243105e-06,9.401124296652991e-06,-4.750043397253683e-06,-9.48778597913265e-06
-1.9085876867503664e-07,3.5937460879873715e-07,1.1247403631642122e-06,-1.1244122595857071e-07,-1.5055429328508032e-06,2.405196742803879e-06,1.1834269261235311e-05,-3.15933586300913e-06,-4.052670425919851e-06,-1.3373920235424205e-06,-3.6595242962323017e-06,-4.92503136402611e-07,-6.4559267041610385e-06,-1.404596825365412e-05,-6.259188479911939e-06,5.6703437586786075e-06,-9.560255610109752e-06,-9.245910855777185e-06
-1.7656294050903542e-07,4.27592996713238e-07,1.0926389363977933e-06,3.5967099879148078e-09,-1.9269641532787456e-06,3.678264665228282e-06,7.200749370560495e-06,-2.328447855350162e-06,-4.6967001595769265e-06,-1.4003325591229723e-06,-3.743577023645237e-06,-5.497515153177678e-07,-9.408119071034445e-06,-1.3469736863251395e-05,-6.079867010359446e-06,2.247929785551646e-06,-1.3203465753571519e-05,-9.359414292965022e-06
-1.5768056800884092e-07,4.983209090607153e-07,1.0832327137251176e-06,8.893907877571517e-08,-2.167691277441004e-06,4.485911852712358e-06,3.2000967599444526e-06,-1.522603176047063e-06,-4.967594304870131e-06,-1.494381332002415e-06,-3.7236222196296034e-06,-8.230298357384785e-07,-1.1578162568608348e-05,-1.2109405104204533e-05,-6.4996933325465325e-06,-7.399379542699288e-07,-1.4487262455902736e-05,-1.0321664425276723e-05
-1.6398661097519905e-07,5.710479150646948e-07,1.0664155945102138e-06,1.289268142069308e-07,-2.1145916071437552e-06,4.578682281745891e-06,-2.0978665001567154e-07,-9.079021366341892e-07,-5.004032467753661e-06,-1.611505862500665e-06,-3.6937641678826217e-06,-1.2206471066788056e-06,-1.2707500680559394e-05,-9.759793962797982e-06,-7.616610255359036e-06,-3.3314548119681755e-06,-1.2957277483152817e-05,-1.2164507279938249e-05
-1.6674180854095904e-07,6.404558986552596e-07,1.0391411607606137e-06,1.3611414043554077e-07,-1.7467883195316763e-06,3.8042062710589072e-06,-2.826037948772315e-06,-5.919033874576323e-07,-4.941969066906746e-06,-1.7022838091833164e-06,-3.691006423696959e-06,-1.564644433005262e-06,-1.2713070020221985e-05,-6.489365862832591e-06,-9.30396712547236e-06,-5.613367449766693e-06,-9.083368600502996e-06,-1.4344587773321422e-05
-1.540301092044354e-07,6.808165743838621e-07,9.92584461509261e-07,1.109257649027709e-07,-1.1377546966620273e-06,2.1790497498972516e-06,-5.005525239594829e-06,-6.032102463471676e-07,-4.782109511681469e-06,-1.7809366997277157e-06,-3.680580570535478e-06,-1.7502059814521303e-06,-1.1806342661486698e-05,-2.7930826656908126e-06,-1.125839093152105e-05,-7.507745049810072e-06,-4.096155207792543e-06,-1.599923420904517e-05
-1.292722614549822e-07,7.036409326041958e-07,9.649990719023973e-07,4.959151787279432e-08,-4.197282448402127e-07,-9.337385566771602e-08,-7.163214471700483e-06,-8.429144966035356e-07,-4.357977750476616e-06,-1.8553220263308184e-06,-3.581037568060461e-06,-1.8092757620915958e-06,-1.0504201965896396e-05,4.72901632559505e-07,-1.3118432645007257e-05,-8.677516097531178e-06,4.928884536570052e-07,-1.6273090412928668e-05
-1.0998133475243181e-07,7.072256062852848e-07,9.584715715308035e-07,-2.7751738111139787e-08,2.6237657188068255e-07,-2.646498340909225e-06,-9.45261256326177e-06,-1.1777363125683335e-06,-3.4285097780936395e-06,-1.9139924115129453e-06,-3.2998658574618033e-06,-1.7499736610032562e-06,-9.486298794346125e-06,2.4122866181542787e-06,-1.458521029534623e-05,-8.693832060836683e-06,3.479876417022551e-06,-1.47653752007126e-05
-6.806859429811656e-08,6.843020662393976e-07,9.769763654121413e-07,-9.552296938691048e-08,7.855979521902483e-07,-5.011871375929023e-06,-1.1700313583939187e-05,-1.4868149657917059e-06,-1.8090103651558e-06,-1.9681519156364023e-06,-2.827051051874924e-06,-1.5887173455794951e-06,-9.311258461399563e-06,2.525378151843711e-06,-1.547181692275374e-05,-7.327381362009672e-06,4.325959527682673e-06,-1.1674754729772255e-05
-3.2122266670469313e-09,6.496180582282326e-07,9.852330857081432e-07,-1.3480033526739193e-07,1.0733894934575982e-06,-6.7189796763402895e-06,-1.3492032514521177e-05,-1.6809686032982295e-06,5.328622131483227e-07,-2.026206870031391e-06,-2.30053279919367e-06,-1.3886571160946795e-06,-1.0138353795775739e-05,1.0337400215718332e-06,-1.5661814925888626e-05,-4.7304721749358316e-06,3.1065144584268664e-06,-7.630807758228164e-06
7.446756581598682e-08,6.09956888489688e-07,9.882809274524753e-07,-1.580218514291023e-07,1.1156436878537424e-06,-7.402922575543171e-06,-1.423652735142318e-05,-1.7106531371452546e-06,3.4004857701828775e-06,-2.0978543875416514e-06,-1.8776386876048837e-06,-1.1964327593422462e-06,-1.1637368585359236e-05,-1.1226608690857698e-06,-1.5077530634445224e-05,-1.4441756038094253e-06,2.1444868005663473e-07,-3.5583095303215675e-06
1.7588323945749166e-07,5.844712999094388e-07,1.040783394430432e-06,-1.8787473651062026e-07,9.717373353126123e-07,-6.888179837190575e-06,-1.3263635994240072e-05,-1.5710044696485654e-06,6.374696723497028e-06,-2.1801776577603125e-06,-1.670278858224911e-06,-1.038061772929434e-06,-1.3122793259775535e-05,-2.6439755307444704e-06,-1.3585622766364337e-05,1.7042753130033403e-06,-3.8852974388213764e-06,-2.9335186446018125e-07
2.947989395475247e-07,5.855943571775535e-07,1.070135376250946e-06,-2.2137515225278976e-07,7.442834163777213e-07,-5.244560867248389e-06,-1.0107539474873155e-05,-1.2806606787249056e-06,8.956475789633537e-06,-2.267451925338604e-06,-1.6516783335654702e-06,-9.388427986989282e-07,-1.3824988904248686e-05,-2.4004773823936167e-06,-1.137079429924557e-05,3.7869109221014044e-06,-8.703132140617124e-06,1.7021245430847966e-06
4.1343861911458195e-07,6.373280122690871e-07,1.0742646750426304e-06,-2.6939547696682703e-07,5.369416563806828e-07,-2.8161285536518225e-06,-4.925972346688504e-06,-8.519392685137367e-07,1.0728064511900424e-05,-2.3829604537599528e-06,-1.7362613686641664e-06,-9.566092464442482e-07,-1.3205107985065258e-05,5.415699933398416e-08,-8.719168725739895e-06,4.0644961727755644e-06,-1.3644580008564044e-05,2.4110640448657516e-06
5.274522412432403e-07,6.913929980925143e-07,1.0099031230912609e-06,-3.2700155972389473e-07,4.183813713289826e-07,-2.0148281556889393e-07,1.226330193904833e-06,-3.101492648267664e-07,1.1437227068310514e-05,-2.537227421392101e-06,-1.7840093932314129e-06,-1.068253901426561e-06,-1.1215854232306312e-05,4.190013865376159e-06,-5.99157084193375e-06,2.3091434268050246e-06,-1.798281407766603e-05,2.137251379419565e-06
6.356568299636518e-07,7.46995810083102e-07,9.954776747784037e-07,-2.8575060132122976e-07,4.0193272406699325e-07,1.8523286774963583e-06,6.556492535853429e-06,3.2003051979815763e-07,1.1049038373815463e-05,-2.6625129123488308e-06,-1.6685429764173389e-06,-1.2412975299513306e-06,-8.384157040033743e-06,8.68311619892163e-06,-3.3966783574187754e-06,-1.0457474463568727e-06,-2.1000768582810865e-05,1.2930593117539835e-06
7.208825028444003e-07,8.07116239909545e-07,1.040132864867179e-06,-2.1595239798342125e-07,4.4614754538113894e-07,2.664850564594792e-06,9.439604203764556e-06,9.901847275497913e-07,9.821370266405877e-06,-2.7221386144595694e-06,-1.3257958206066223e-06,-1.4269621691366075e-06,-5.625082319038406e-06,1.2062367055718726e-05,-1.0733726770322906e-06,-5.084595042152684e-06,-2.2232309469931025e-05,2.752750817193625e-07
8.081470287885064e-07,8.737589822472736e-07,1.133503119130385e-06,-1.507092260141896e-07,4.797725383417128e-07,1.9153103847033843e-06,9.140942573421362e-06,1.6066971272105428e-06,8.317690240662532e-06,-2.697315711219514e-06,-7.669629110027362e-07,-1.5354408454487572e-06,-3.820031056658059e-06,1.3381910537711994e-05,8.858144731379138e-07,-8.83914904261113e-06,-2.1605777320769987e-05,-5.911461230051485e-07
9.23271331671265e-07,9.840935247303273e-07,1.1952108852620531e-06,-1.1025329225728885e-07,4.4101110653681903e-07,-1.2885074445712334e-07,6.1781608193774504e-06,2.0746614703075983e-06,7.238679773224339e-06,-2.651495067177176e-06,-1.434570252059542e-07,-1.5816547095151036e-06,-3.363479050818632e-06,1.238779141010265e-05,2.5419876960918737e-06,-1.1699083540844243e-05,-1.937926994626093e-05,-1.0462529547940272e-06
1.045635221094713e-06,1.092745095014563e-06,1.2228901349217901e-06,-6.523823096767199e-08,3.086401737703783e-07,-2.6555567189016356e-06,1.882329474506439e-06,2.3170453605293048e-06,7.106026109470009e-06,-2.620900095012135e-06,3.436025376391903e-07,-1.5700996811587547e-06,-3.963046225508164e-06,9.350712117505167e-06,3.6415674717935045e-06,-1.353446384136074e-05,-1.5974103754373877e-05,-9.392341644126928e-07
1.1614825215106154e-06,1.1542656246556032e-06,1.1700484422372687e-06,5.9105979591215316e-09,1.0349343649042462e-07,-4.664666580431739e-06,-2.509008068855091e-06,2.3083579657081463e-06,7.9875060702869e-06,-2.5847161021212144e-06,5.010482934643097e-07,-1.4885218755069076e-06,-4.844482626729041e-06,4.641957653093588e-06,4.229185837411958e-06,-1.4463186841802342e-05,-1.1889730254878308e-05,-2.384719354882273e-07
1.2149448652654807e-06,1.215686711947736e-06,1.1175314408412958e-06,6.889052062133227e-08,-1.377757303904891e-07,-5.420618615712614e-06,-6.446642119617756e-06,2.1443291564321188e-06,9.530836532011066e-06,-2.563693121737552e-06,2.0801372425732075e-07,-1.3441597759021567e-06,-5.229498235581226e-06,-1.131160776952852e-06,4.338691971271705e-06,-1.4490004387745763e-05,-7.698863632443671e-06,9.789091158578796e-07
1.154960052693284e-06,1.2467694412667585e-06,1.1024465144374321e-06,7.216888195525817e-08,-3.8272899876062797e-07,-4.7525457960233336e-06,-9.935231748680837e-06,1.8793101560479433e-06,1.0930422314939396e-05,-2.576285354668692e-06,-4.7455544150471656e-07,-1.1762939896733228e-06,-4.7551755719313485e-06,-7.152950046536941e-06,4.229389812061727e-06,-1.3349063462445768e-05,-3.960125331579402e-06,2.4185623760305363e-06
1.1118388008679524e-06,1.2662067250405663e-06,1.0918571217097781e-06,9.730371999564686e-08,-5.904485138077373e-07,-3.0926405517188346e-06,-1.3042072588231654e-05,1.533113375308896e-06,1.1373922953923907e-05,-2.531103268521264e-06,-1.2855270917275347e-06,-1.0199076121412847e-06,-3.584186196507973e-06,-1.2394255046489013e-05,4.0385561161298826e-06,-1.0674434087702252e-05,-1.0263901529951598e-06,3.5128212369485583e-06
1.0956483454705392e-06,1.2785856122023545e-06,1.0945401538431886e-06,9.34315638488837e-08,-6.908248669928449e-07,-1.2576612322368855e-06,-1.656561048778598e-05,1.102356993930511e-06,1.0312302075112183e-05,-2.4673021512997115e-06,-2.0606380497423016e-06,-9.015511076773898e-07,-2.2093238080681846e-06,-1.594527473479731e-05,3.8978872794986836e-06,-6.344467731450887e-06,1.05417886247612e-06,3.546221455560814e-06
1.057044734427886e-06,1.2672008735031213e-06,1.1096561060352463e-06,7.131056698483127e-08,-6.005803454769014e-07,-7.958958809949268e-08,-1.931638871196198e-05,5.688402326619577e-07,7.772108264738889e-06,-2.3466352289243874e-06,-2.4187886330766906e-06,-8.616262564347152e-07,-1.1291767684354306e-06,-1.734413980026857e-05,3.973882978411193e-06,-7.515196016366327e-07,2.4086552349490953e-06,1.995163090632502e-06
1.0524162813342146e-06,1.2318697444369482e-06,1.0806605387112348e-06,2.7651747002469707e-08,-2.7526548198086783e-07,-5.5678610506077695e-08,-2.2123347266713545e-05,-2.4403142679324337e-08,4.244718330345471e-06,-2.1890810183618308e-06,-2.687384283203095e-06,-8.196983376480505e-07,-6.063176227788817e-07,-1.667506407519921e-05,4.191132133364991e-06,5.157427791327392e-06,3.0996206473935065e-06,-1.0978631228772576e-06
1.0355022585202934e-06,1.1745125863120682e-06,1.039992124015314e-06,-5.7659040557025635e-08,2.4574785065255807e-07,-1.1616144072910302e-06,-2.5862538664276057e-05,-5.619382042352792e-07,4.1228196502198725e-07,-2.034289962617736e-06,-3.2898251358660565e-06,-7.771186130031078e-07,-6.458149137234746e-07,-1.4603351560999236e-05,4.591408940291341e-06,1.0096184228622052e-05,3.0202393722365704e-06,-5.0893352639035566e-06
9.51656566945485e-07,1.1006149607033238e-06,9.768715259800646e-07,-1.550391061140326e-07,8.35867434144484e-07,-2.9131135023895582e-06,-2.6765568150012102e-05,-9.203598201953051e-07,-3.0452348958556135e-06,-1.9052199812348614e-06,-3.518052284720707e-06,-8.065520374065263e-07,-1.1422039352680235e-06,-1.2021193611644868e-05,4.839733863289304e-06,1.2878732328907583e-05,2.0323548070996313e-06,-8.976444746733382e-06
8.569741960704802e-07,1.014344901865757e-06,9.069349318856622e-07,-2.4436595720629155e-07,1.3242118770029173e-06,-4.649898050113365e-06,-2.4766513737931813e-05,-1.0184434804462403e-06,-5.712505316809467e-06,-1.849229668732317e-06,-3.1508759288276716e-06,-8.965065184784886e-07,-1.9905699652867912e-06,-9.75057953481264e-06,4.646521008484703e-06,1.2964718048982788e-05,1.744900275289887e-07,-1.1722807046338831e-05
7.51612192297893e-07,9.30760161607585e-07,8.159657937798011e-07,-3.378589467410698e-07,1.5648805253422106e-06,-5.852875299082896e-06,-2.1184180802613586e-05,-8.443631754034073e-07,-7.4210902731201226e-06,-1.8380332767284545e-06,-2.7244154419351956e-06,-1.0397131798235062e-06,-3.059391506027473e-06,-8.308451867132986e-06,3.8172673480832206e-06,1.0821670622396892e-05,-2.325497485439068e-06,-1.2565238612324685e-05
6.283355064236631e-07,8.719306894770268e-07,6.972815500002084e-07,-3.967042929740957e-07,1.4945187402176507e-06,-6.29180482026891e-06,-1.5905876354251666e-05,-4.786351227041792e-07,-8.22080832298505e-06,-1.8093916877335117e-06,-2.1999712521178473e-06,-1.1969029267757333e-06,-4.145027174544729e-06,-7.8523280490614e-06,2.519027092707368e-06,7.799606416269482e-06,-5.229083887251507e-06,-1.1257147358207377e-05
5.355294232610786e-07,8.286022929102729e-07,6.000371890226217e-07,-4.196054131579615e-07,1.1450894510925178e-06,-5.988647773541618e-06,-1.0353198893916525e-05,-4.847982109511482e-08,-8.270275097536778e-06,-1.7585158936135141e-06,-1.5620309330880195e-06,-1.376274171645622e-06,-5.030550041043791e-06,-8.199551653879111e-06,1.0196948854780206e-06,5.5137783921241335e-06,-8.387398759737882e-06,-8.156805952428515e-06
4.592638321317013e-07,7.976023646319843e-07,5.654525513212343e-07,-4.1517550014819765e-07,6.134167486726363e-07,-5.127514471306121e-06,-5.652621543063218e-06,3.350069702652857e-07,-7.793428771295792e-06,-1.6867364909091724e-06,-1.170054707728278e-06,-1.5589471345694892e-06,-5.597484337277101e-06,-8.970462884239975e-06,-4.935523748490976e-07,5.052576328703641e-06,-1.1612613008387336e-05,-4.089689159753641e-06
3.6940127274422794e-07,7.791422034220638e-07,4.947036517451568e-07,-3.862634871696337e-07,1.862028522286508e-08,-4.000120615671206e-06,-2.559110366134162e-06,5.802372438778286e-07,-7.011745178715391e-06,-1.6199199516519193e-06,-9.762618296205929e-07,-1.7636916852635354e-06,-5.895681502200222e-06,-9.797676711734654e-06,-1.730654832393794e-06,6.403417127699955e-06,-1.4468084460343863e-05,-7.214811190774535e-08
2.5598461281634986e-07,7.442241958054176e-07,4.1126150881470976e-07,-3.455023399214332e-07,-5.290017242695308e-07,-2.96240757073748e-06,-1.882433105539688e-06,7.126769193538508e-07,-6.079253102491215e-06,-1.5286629106564448e-06,-9.68031801764672e-07,-1.959544749951861e-06,-6.15607989785287e-06,-1.0591116846817685e-05,-2.4168311387398705e-06,8.405231144771782e-06,-1.6232516728536797e-05,2.9997269546027525e-06
2.0544843218793385e-07,7.249055102902101e-07,3.4828802087555765e-07,-2.992864685688819e-07,-9.481146094403851e-07,-2.3376327480331606e-06,-3.4293351523166175e-06,7.894315790589945e-07,-5.066590808684587e-06,-1.417691725204323e-06,-1.0846311722241818e-06,-2.0466390240050027e-06,-6.735301048584716e-06,-1.1070023582932547e-05,-2.1566533076335685e-06,9.322254027645314e-06,-1.616793965508606e-05,4.581644265196532e-06
1.6318744691720192e-07,7.229827143126569e-07,2.95645186729208e-07,-2.5829920182670616e-07,-1.2025382378331459e-06,-2.2708552370509557e-06,-6.6064790933857986e-06,7.947043448128504e-07,-4.1356542786867815e-06,-1.286149938940319e-06,-1.1826686030473947e-06,-2.009188123595734e-06,-7.954560548224195e-06,-1.098159814639334e-05,-6.924553647239159e-07,7.752439638251449e-06,-1.398043056690861e-05,4.6070792047559674e-06
1.1045653425243702e-07,7.237332461763707e-07,2.5855882404497976e-07,-2.208017361554627e-07,-1.3089921451341866e-06,-2.645281598446847e-06,-1.0435022074218625e-05,7.312838174066569e-07,-3.077372410745101e-06,-1.1332250888837073e-06,-1.2001842442796907e-06,-1.8452892836616241e-06,-9.873519324910154e-06,-1.0030590328004332e-05,1.8902391987842219e-06,3.3203001817524278e-06,-1.0155250642842117e-05,3.364341118215689e-06
9.925789533867172e-08,7.346143358153379e-07,2.712479359836932e-07,-1.8494429261691473e-07,-1.3280059333888271e-06,-3.1643766124583533e-06,-1.3706102523447088e-05,6.26235008718566e-07,-1.563822226905912e-06,-9.697548750535017e-07,-1.0697669014860872e-06,-1.6231219014652338e-06,-1.2145081677060971e-05,-8.249726649843202e-06,5.020472315436673e-06,-3.2077732057263707e-06,-5.860076875814809e-06,1.3635796911619886e-06
1.2067059725949688e-07,7.485935896001712e-07,3.0849752353729407e-07,-1.48822562719362e-07,-1.3409983720711802e-06,-3.5426208256881357e-06,-1.535953866816218e-05,5.201246177393638e-07,8.939164083039504e-07,-8.012029518081904e-07,-7.399792270798539e-07,-1.3368745645821087e-06,-1.4074828491649486e-05,-5.831296628271295e-06,7.818285386489977e-06,-1.0310701394064117e-05,-2.396071023823069e-06,-8.098743810477697e-07
1.6683414952164993e-07,7.6341506479645e-07,3.5260759323568145e-07,-1.0917369744654254e-07,-1.4219764659999166e-06,-3.6306067119011057e-06,-1.4808996194188726e-05,4.620056518605402e-07,4.494780482909757e-06,-6.397616175352318e-07,-2.1917166559790825e-07,-1.017789061216261e-06,-1.4894205962272026e-05,-2.9075851513806633e-06,9.430026009898033e-06,-1.631299605474462e-05,-5.408677544910177e-07,-2.6274426808286357e-06
2.1579069033847698e-07,7.819679331990637e-07,3.8081242053134024e-07,-6.725622453811485e-08,-1.6090777331293648e-06,-3.4000390966612176e-06,-1.2289649857374102e-05,4.573575055867524e-07,9.069858835566469e-06,-4.927226418994808e-07,3.8155859005088276e-07,-6.905028430160639e-07,-1.4146882356705953e-05,3.7132364714437133e-07,9.338391421587961e-06,-1.9959329670443406e-05,-2.362275616864104e-07,-3.6129182895625776e-06
2.5721128809381263e-07,8.097006503589274e-07,3.910218195743309e-07,-2.548531774653911e-08,-1.8835773082392943e-06,-2.882652478207474e-06,-8.947486245106534e-06,4.464027029384455e-07,1.4073422607691116e-05,-3.530945207920448e-07,8.930934423190431e-07,-3.5256542959851843e-07,-1.1973049833877617e-05,3.934617741752594e-06,7.601754534928613e-06,-2.07816377754842e-05,-7.923372896651045e-07,-3.495093280480615e-06
3.027041604484939e-07,8.389858708479942e-07,3.965245550807406e-07,1.2742642275236655e-08,-2.1698490093341466e-06,-2.1590785161293358e-06,-6.388651589604118e-06,3.6966551076970717e-07,1.8576926008517346e-05,-2.315038720139558e-07,1.1528523660275792e-06,-5.034439776714194e-08,-9.079978659633468e-06,7.438913750810088e-06,4.782077217027808e-06,-1.9123441963961444e-05,-1.4368477549774362e-06,-2.276389743526131e-06
3.5099319140523864e-07,8.689214209140113e-07,4.0298952732673096e-07,4.380796229399562e-08,-2.3647332508980846e-06,-1.3767562658528986e-06,-5.853774809418047e-06,2.1852270335515878e-07,2.175454430537886e-05,-1.3418705417431448e-07,1.0608214835278686e-06,1.8442791715438237e-07,-6.410726707409103e-06,1.0249827647088801e-05,1.6803714708368945e-06,-1.5851435196908802e-05,-1.6495090941419494e-06,-1.985397910473988e-07
4.0202839860012297e-07,9.01682508670718e-07,4.1855466893840905e-07,6.280429960591116e-08,-2.383000288630998e-06,-7.368983277830378e-07,-7.615855878322632e-06,2.5472475835440038e-08,2.311302241707584e-05,-7.760495700497758e-08,6.246423622518259e-07,3.159211043729316e-07,-4.736344845344793e-06,1.1649438411811476e-05,-9.504645336063537e-07,-1.1966114843107274e-05,-1.3416529384587032e-06,2.300833246103796e-06
4.54580995932853e-07,9.333937002054034e-07,4.4562169898717e-07,6.859114454267763e-08,-2.188682922528897e-06,-4.38319122749124e-07,-1.09991823315869e-05,-1.5663965819093243e-07,2.2760810095278774e-05,-5.1885305235089375e-08,-9.355097526381135e-08,3.501471963089189e-07,-4.38056413417358e-06,1.1324603724161408e-05,-2.608710896064426e-06,-8.325267112131529e-06,-8.362738052703148e-07,4.655331442004898e-06
5.078904340342036e-07,9.646188157186657e-07,4.832526919930775e-07,6.286891991911532e-08,-1.7980260404239658e-06,-5.930887217279957e-07,-1.4820383693461305e-05,-2.7742300916871437e-07,2.1207820137846066e-05,-4.466141852180447e-08,-1.0183874158766876e-06,2.551305176917747e-07,-5.163845604459632e-06,9.575026551713777e-06,-3.126684408117101e-06,-5.527917571788865e-06,-5.273495454059177e-07,6.266275472814656e-06
5.541613165546823e-07,9.945605537143246e-07,5.31401097476215e-07,5.073085901990207e-08,-1.26716685151777e-06,-1.1425469008551176e-06,-1.7834159097628388e-05,-3.075356816179469e-07,1.907271033000457e-05,-4.879331341741789e-08,-1.982300771887765e-06,6.219148483385204e-08,-6.565888824757258e-06,7.043521014737914e-06,-2.6701286718509433e-06,-3.841015816911858e-06,-7.117852903518104e-07,6.630243988156374e-06
5.962722508021573e-07,1.0209215034339562e-06,5.869194933471904e-07,3.913105703274373e-08,-6.778373220480275e-07,-1.842357300023488e-06,-1.9037033826135158e-05,-2.1563839748843726e-07,1.68259404312958e-05,-5.088412194538799e-08,-2.890837324643401e-06,-1.6719048581073278e-07,-8.012203586259097e-06,4.4224756828014525e-06,-1.6871177173543534e-06,-3.089922044131235e-06,-1.6027345701839562e-06,5.478683565582797e-06
6.428805591804402e-07,1.0430115696839234e-06,6.442757236315559e-07,3.403789851054739e-08,-1.2181870556472314e-07,-2.375548732035228e-06,-1.7917584965512767e-05,-6.016733333012077e-08,1.473036413767535e-05,-5.4079312199553085e-08,-3.6297649927878923e-06,-3.874216538470349e-07,-9.103939742276555e-06,2.310005642544492e-06,-7.755780119668993e-07,-2.658872375755706e-06,-3.167884836349577e-06,2.960989021612824e-06
6.902687854532817e-07,1.0610787053264677e-06,6.991357455957808e-07,3.92808330103852e-08,3.1543661019568315e-07,-2.5420751881199356e-06,-1.4685018991886469e-05,9.988494286128078e-08,1.2916114635262e-05,-5.607442684379608e-08,-4.129209438167994e-06,-5.367958960220028e-07,-9.654446131231949e-06,7.564751817724394e-07,-4.4379765264414595e-07,-1.7827109056800992e-06,-4.806994890160458e-06,-3.2140146370055863e-07
7.373562274184863e-07,1.0760860890865257e-06,7.436734749639801e-07,5.6124422032304065e-08,5.695724442554739e-07,-2.379890241840357e-06,-1.0334294457403127e-05,2.4379133264519305e-07,1.152352180267355e-05,-5.470421231005547e-08,-4.306720677998467e-06,-5.776166638901661e-07,-9.504014517708195e-06,-3.991159554143521e-07,-8.669142262321313e-07,-1.221425701068618e-08,-6.330178944248256e-06,-3.5473458476473914e-06
7.819469356480363e-07,1.0889596016092329e-06,7.767812894435304e-07,8.000497643911681e-08,6.09555974474681e-07,-2.114529464303542e-06,-6.368528214476589e-06,3.5489635894534203e-07,1.0360266563467143e-05,-4.746292614164768e-08,-4.118894898215476e-06,-4.937720304835249e-07,-8.499043381115328e-06,-1.4518477618225892e-06,-1.8243366237218567e-06,2.4976230844137907e-06,-6.868596306275113e-06,-6.031848846691135e-06
8.169298141428394e-07,1.099953111514003e-06,7.978446902208415e-07,1.0658195833648138e-07,4.448530558698803e-07,-1.969830476137565e-06,-4.215870925915729e-06,4.4012378335180053e-07,9.133639673723823e-06,-3.719462340214818e-08,-3.628548419956502e-06,-2.9321022897003753e-07,-6.58817319257979e-06,-2.398661059471388e-06,-2.882772232023742e-06,5.094181024484019e-06,-6.877522691431904e-06,-7.533366057080131e-06
8.406922901079533e-07,1.1090895129643656e-06,8.090054727260184e-07,1.328323422587221e-07,1.2331301839234106e-07,-1.9859174213990058e-06,-4.648422685049691e-06,5.013952890893562e-07,7.555305935343591e-06,-2.6384140083416478e-08,-2.9529545091865365e-06,1.527472031285048e-08,-3.959069154417777e-06,-2.9718083950744374e-06,-3.684926411114498e-06,7.015979365298009e-06,-8.167930848770575e-06,-8.276157691104298e-06
8.575409662224584e-07,1.1168006456179965e-06,8.181567806223574e-07,1.5637104730335186e-07,-2.8454782282188055e-07,-1.9951491676014276e-06,-7.517786820563685e-06,5.183423705191583e-07,5.746264318052658e-06,-1.5309122461303395e-08,-2.3788692229270544e-06,3.8988021517807034e-07,-1.070938962595076e-06,-2.8613879496154428e-06,-4.151214114868757e-06,7.765125939343041e-06,-9.076679154354395e-06,-8.69398241103254e-06
8.699265356939329e-07,1.1236528979433491e-06,8.278256510090159e-07,1.762367831544924e-07,-7.129526754245692e-07,-1.776001193285037e-06,-1.1901596202785404e-05,4.5322329551671156e-07,4.1324790594509885e-06,-4.89905645395197e-09,-1.9633101230464817e-06,7.621298658752318e-07,1.4815067379693177e-06,-1.8603481937125586e-06,-4.493189978665655e-06,7.285423402269421e-06,-7.394790757847461e-06,-9.127186832422083e-06
8.770011561158428e-07,1.1295326460978895e-06,8.390535373337899e-07,1.9145531796300317e-07,-1.1223299998305733e-06,-1.2467069868598615e-06,-1.653141664870757e-05,2.922358574777436e-07,3.1591009358870875e-06,-5.41853506699902e-10,-1.7156055942661006e-06,1.0555480251251967e-06,3.126801941425399e-06,-1.899465263140835e-07,-5.035185402909911e-06,5.957951652877579e-06,-4.339059356142233e-06,-9.619127702856943e-06
8.820077927461685e-07,1.1336350516549528e-06,8.510268050601867e-07,1.9850220004905104e-07,-1.4941862128101332e-06,-5.505609635099939e-07,-2.0251502630148297e-05,5.094066804023104e-08,3.1388905691384176e-06,-1.2338468926954812e-09,-1.5263548965457094e-06,1.1979686965027595e-06,3.4983644731115183e-06,1.6043907067182274e-06,-5.956628310956339e-06,4.427919267593585e-06,-1.1495313269134527e-06,-9.95573543133926e-06
8.863955078480552e-07,1.1354645839653435e-06,8.619441789263112e-07,1.9551145702956907e-07,-1.8032060019572192e-06,-1.515891856452642e-09,-2.2315812966587582e-05,-2.3048264439354558e-07,3.968237807960116e-06,-6.14174029387992e-09,-1.3566383540090413e-06,1.1582411445061875e-06,2.610732064596018e-06,2.7678341115920453e-06,-7.162015953197122e-06,3.278563302341652e-06,4.0130320596410835e-06,-9.85699600125415e-06
8.920973405756532e-07,1.1355551672021521e-06,8.702726959839525e-07,1.8361512439127815e-07,-1.9974102373218483e-06,5.704473046283838e-08,-2.250601419990273e-05,-4.858300198506303e-07,5.232065720062501e-06,-1.0564017367977552e-08,-1.400035558339134e-06,9.602133059252202e-07,9.783251515131612e-07,2.7192921603439605e-06,-8.385568504961211e-06,2.7095384915056177e-06,9.008685853062171e-06,-9.152332317240327e-06
8.994727914315215e-07,1.1349733604545796e-06,8.75504943867064e-07,1.6696970302304467e-07,-2.0136807514402327e-06,-6.027911042506018e-07,-2.1121824531707013e-05,-6.539948426965935e-07,6.3287808587272516e-06,-1.486364647002547e-08,-1.597655556290167e-06,6.741296228497069e-07,-4.7551276695254094e-07,1.367534801384792e-06,-9.407264729544504e-06,2.434860086042768e-06,1.1034476145804443e-05,-7.86262251456777e-06
9.057337627545742e-07,1.1342730084136598e-06,8.777264374189032e-07,1.4844077144644967e-07,-1.8209433915068389e-06,-2.0184345367785947e-06,-1.8821968025310323e-05,-7.051623825000163e-07,6.77637609350065e-06,-2.0658019665842583e-08,-1.932761506218729e-06,3.917569251798088e-07,-7.817533360299062e-07,-8.061829945870956e-07,-1.017151519086171e-05,1.892136751707216e-06,1.0962019612699388e-05,-6.178949538275424e-06
9.07898642409503e-07,1.1332457719976465e-06,8.760729873718843e-07,1.2956139523276752e-07,-1.45317900885932e-06,-4.0400534274772e-06,-1.6314134384872892e-05,-6.557636314992992e-07,6.414207280845482e-06,-2.932952716993465e-08,-2.4527640578659332e-06,1.940564289417613e-07,7.322128621013066e-07,-3.0608742277528213e-06,-1.0717070684155338e-05,6.353912040410414e-07,1.0024190627315083e-05,-4.392569025333611e-06
9.041801782847554e-07,1.1317307977639728e-06,8.715189105927772e-07,1.1288353764327905e-07,-1.0014628733452603e-06,-6.37607717289667e-06,-1.4058638436760503e-05,-5.791284640683321e-07,5.392303659632138e-06,-4.4777494851168026e-08,-2.796585832011016e-06,1.2376734886621096e-07,3.890970256548587e-06,-4.940694711528394e-06,-1.1006756102680977e-05,-1.3899691154642546e-06,8.892600520174065e-06,-2.828110193068386e-06
8.959647676592927e-07,1.1303054394599467e-06,8.655201905814102e-07,1.0039635513522252e-07,-5.685915447369104e-07,-8.65584098348541e-06,-1.2178473306790104e-05,-5.533092503057622e-07,4.035049120211747e-06,-6.695032383519975e-08,-2.828996695257399e-06,1.7089311369843746e-07,7.655330788448105e-06,-6.535648848267297e-06,-1.0849187940487497e-05,-3.88217411338705e-06,7.948119170817085e-06,-1.7978920759998999e-06
8.853545851113759e-07,1.1297879857100776e-06,8.58749967999289e-07,9.611507911029807e-08,-2.2273423813845463e-07,-1.0496887593370199e-05,-1.0565224246116958e-05,-6.36340820168997e-07,2.70833309203414e-06,-9.786660044785958e-08,-3.156572169778661e-06,2.791360063458526e-07,1.0692190866174447e-05,-8.191038810459526e-06,-1.0007200390625112e-05,-6.401982884060822e-06,7.455822039753376e-06,-1.5177369482055458e-06
8.734036219340416e-07,1.1300615600436337e-06,8.518773836666473e-07,9.546707065462704e-08,1.2232404626123773e-08,-1.1569829156146807e-05,-9.047001392982341e-06,-8.341443547443193e-07,1.6703752726826071e-06,-1.3795406610527118e-07,-3.995241884709328e-06,3.730839038181284e-07,1.1462886007156273e-05,-1.012928329411978e-05,-8.367295689778211e-06,-8.541380751050942e-06,7.200261422160936e-06,-1.988134357022808e-06
8.590874373713328e-07,1.1297059932746796e-06,8.426959500388182e-07,1.1282579480077153e-07,1.3181028065907218e-07,-1.165919003072596e-05,-7.523335257028062e-06,-1.0913331845420807e-06,1.0848367303631893e-06,-1.8618034462671785e-07,-4.7482824884096725e-06,3.910897883584411e-07,9.37107687939542e-06,-1.2081380970281868e-05,-6.013532056260481e-06,-1.0000345705603178e-05,6.652316926644066e-06,-2.8995837586475032e-06
8.406300472151013e-07,1.1269518181639626e-06,8.292161457931403e-07,1.399131354464337e-07,1.268099886470183e-07,-1.071372536076444e-05,-6.00852363711073e-06,-1.3740739271594345e-06,9.163097836619694e-07,-2.378655138718343e-07,-5.038889971612946e-06,3.0532462325043294e-07,4.789335808802211e-06,-1.3387888368119306e-05,-3.206632311954874e-06,-1.066577575549927e-05,5.308144172529393e-06,-3.705903337644622e-06
8.16296993285669e-07,1.120740506280653e-06,8.112786612154093e-07,1.6451955799550673e-07,-1.946734085061419e-08,-8.869067933132905e-06,-4.596051898053477e-06,-1.6809150914719175e-06,1.0000514221911e-06,-2.8563721375862543e-07,-4.834642528670185e-06,1.2373389218982643e-07,-8.665041042091559e-07,-1.3360043524293574e-05,-3.3073952241048876e-07,-1.0673113082137208e-05,3.0362646713266412e-06,-3.823793220487994e-06
7.842425302480905e-07,1.110480170272841e-06,7.887744497581241e-07,1.8384158807349244e-07,-3.203706746397579e-07,-6.422605358268706e-06,-3.4290886022718805e-06,-2.041106890014663e-06,1.0616195674728405e-06,-3.2098733328259865e-07,-4.087721481416108e-06,-1.1733457116023819e-07,-5.628406015770988e-06,-1.1710425885661088e-05,2.1781793335777235e-06,-1.0334395911363751e-05,2.448436646674435e-07,-2.840926305565394e-06
7.42660419630701e-07,1.094825791559312e-06,7.631595674415679e-07,1.858890755262064e-07,-7.695769349599341e-07,-3.7589003485654382e-06,-2.691473391393275e-06,-2.4904499899304385e-06,9.539946117456945e-07,-3.3233911225212346e-07,-2.9934837445124652e-06,-3.6200553863320727e-07,-9.178364548150838e-06,-8.787597936985353e-06,3.910691146872896e-06,-9.948722571456987e-06,-2.2639792980345826e-06,-6.80622768969112e-07
6.90786558421157e-07,1.071259619518131e-06,7.356631148655926e-07,1.7341166455071522e-07,-1.3220662550948835e-06,-1.2598883763394692e-06,-2.57148721448714e-06,-3.0222281340085235e-06,8.69785063023314e-07,-3.1867905226702697e-07,-1.8959802558868323e-06,-5.462986277990581e-07,-1.2133854442197497e-05,-5.395124262695946e-06,4.542002510745668e-06,-9.637871202941127e-06,-3.651740625868694e-06,2.3654185817979963e-06
6.313223907639272e-07,1.0373463410220926e-06,7.07346497561535e-07,1.5539315153750872e-07,-1.8839970572293658e-06,7.641343421009334e-07,-3.238748700966523e-06,-3.5396987681805353e-06,1.1798846218162792e-06,-2.7505484118434317e-07,-1.1251510193046965e-06,-6.123420253432201e-07,-1.4416661690266963e-05,-2.448818910285685e-06,3.879036621319985e-06,-9.30091570868455e-06,-3.39923713104404e-06,5.692636818315381e-06
5.716003278445575e-07,9.923771201026166e-07,6.792307543469732e-07,1.80539581015092e-07,-2.3266420989126936e-06,2.114053095668892e-06,-4.872701070546912e-06,-3.926137087948365e-06,2.290957268483129e-06,-2.0135235510897635e-07,-9.17849913962116e-07,-5.215031435272213e-07,-1.4325287108991745e-05,-6.174634312785229e-07,1.935752469005554e-06,-8.706751362873707e-06,-1.5203969418963448e-06,8.517817520429938e-06
5.217420742340437e-07,9.376306624982605e-07,6.505184416182939e-07,2.6358909244042085e-07,-2.525752334731868e-06,2.712358545872201e-06,-7.620915230130379e-06,-4.0345965374004195e-06,4.399079347738784e-06,-9.575055771635737e-08,-1.4304820956861105e-06,-2.673606857529152e-07,-1.2747102166043863e-05,-1.1020900375249239e-07,-9.746903761136303e-07,-7.687457002070199e-06,1.4403736262976195e-06,1.0062628207712337e-05
4.909326960948405e-07,8.742167355874024e-07,6.16412774231644e-07,3.219873604527816e-07,-2.409920715918625e-06,2.58605888711155e-06,-1.1397005380782033e-05,-3.759676671365393e-06,7.477877018217939e-06,4.360794704416697e-08,-2.4639507418657443e-06,1.1181286904918797e-07,-1.1253969097965662e-05,-7.329839897134796e-07,-4.254782984366113e-06,-6.3144654914394175e-06,4.644633777398377e-06,9.758297669476587e-06
4.845837765071509e-07,8.048471158344677e-07,5.689073041577249e-07,3.8266187735952943e-07,-1.9905682588348093e-06,1.8476775589156342e-06,-1.5688873510571387e-05,-3.1002006913234387e-06,1.1214129470730631e-05,1.0057754829364718e-07,-3.1308892163435293e-06,5.342614478165882e-07,-9.09000631870517e-06,-2.0460904734879522e-06,-7.2416044885438125e-06,-4.916352007618503e-06,7.3218094989610845e-06,7.442540870077525e-06
5.039369573691114e-07,7.357870303377913e-07,5.018594068738472e-07,4.3478392446672783e-07,-1.3519333393795276e-06,6.938749920130358e-07,-1.9618792288475018e-05,-2.136665278096113e-06,1.4911769771736518e-05,9.612955529756932e-08,-3.7641698103236223e-06,9.010985110673067e-07,-6.8844933009701066e-06,-3.4544597384171984e-06,-9.512201705476336e-06,-3.896270142677153e-06,9.067898983207046e-06,3.4737741995534604e-06
5.468102264087097e-07,6.716195887296114e-07,4.162315027130061e-07,4.638464699998307e-07,-6.107220962317637e-07,-6.151156707205922e-07,-2.2279536376442215e-05,-1.0327598667192432e-06,1.8103928290249254e-05,8.289048641500823e-08,-4.723780262797228e-06,1.1354375291478539e-06,-4.883643953198864e-06,-4.331245869135705e-06,-1.1033205891142937e-05,-3.4556230105887114e-06,9.95650366830968e-06,-1.3141461646234874e-06
6.074239418088992e-07,6.28535038258671e-07,3.2275191435974607e-07,5.267511516949434e-07,1.1686346663860972e-07,-1.8246497174097692e-06,-2.316216945517268e-05,-4.129482746483041e-10,1.9108531199999204e-05,6.298558584066716e-08,-5.232266187646129e-06,1.2077245245828037e-06,-3.312030820852599e-06,-4.234179140890589e-06,-1.2044268244188838e-05,-3.394641272114635e-06,1.0432822273901029e-05,-5.84737041674788e-06
6.756811400070953e-07,6.229256037830665e-07,2.3824087350581264e-07,5.899800546837988e-07,7.178342837622892e-07,-2.74445903087679e-06,-2.242480294984691e-05,5.89232522023087e-07,1.6730276202964875e-05,-2.032590868465144e-08,-5.500462992809122e-06,1.136053605389589e-06,-2.6247541933927467e-06,-3.0812605294493077e-06,-1.2778038696556737e-05,-3.1217049563316662e-06,1.1006469508851988e-05,-9.15907444015305e-06
7.384280989139377e-07,6.095252048293872e-07,1.7888988626182603e-07,5.906895115872376e-07,1.0775900238502817e-06,-3.241223162337797e-06,-2.0679728268879572e-05,8.316385863766783e-07,1.6697749782126434e-05,-1.0491269539005014e-07,-5.536754388255327e-06,9.701965897035302e-07,-3.1442701427076067e-06,-1.1981971001073586e-06,-1.3219636881486117e-05,-1.921500545429732e-06,1.1868438671549176e-05,-1.070452453755241e-05
7.835381437939225e-07,6.003431264102601e-07,1.5236684600523845e-07,5.638532608424163e-07,1.1054039818552542e-06,-3.2129508120721505e-06,-1.8895406829616783e-05,7.244389060236408e-07,1.5396816674622862e-05,-1.399533914134687e-07,-5.1236878724609424e-06,7.680508026153641e-07,-4.741837869152626e-06,9.57565625052607e-07,-1.3067490720733834e-05,6.049944283680445e-07,1.2691788159850645e-05,-1.0501026382951511e-05
8.04280942543875e-07,6.337462470020476e-07,1.5660312386184518e-07,5.734474448437389e-07,7.868183452162059e-07,-2.618383563156944e-06,-1.7417670678518472e-05,3.0589014766310255e-07,1.1923993802949589e-05,-1.3613861686972428e-07,-4.57349548281806e-06,5.717512264257841e-07,-6.8457661938640094e-06,3.114525242618961e-06,-1.1923683720976307e-05,4.170872568476846e-06,1.2796323104073128e-05,-9.022056321294031e-06
8.008808500622664e-07,6.77503768180537e-07,1.8127432719174016e-07,5.860468691447047e-07,2.158061095204984e-07,-1.5459913259070436e-06,-1.585000521749364e-05,5.960631197137797e-08,7.846890764725679e-06,-9.954529052753744e-08,-4.140212500293999e-06,3.999088512449034e-07,-8.632765093162801e-06,5.285618496184811e-06,-9.60210660659553e-06,7.790354946685621e-06,1.1563781936755125e-05,-6.933908324233005e-06
7.785330922609169e-07,6.919726804554076e-07,2.0986468856670307e-07,5.831290109388973e-07,-4.2800201249233214e-07,-2.4276476260539277e-07,-1.3479590052352148e-05,-3.7200542954036075e-07,6.153392601096727e-06,-6.053954600576256e-08,-3.7844043925401232e-06,2.634249611019979e-07,-9.896950442360983e-06,7.583803607472511e-06,-6.363424172214226e-06,1.0224003290026189e-05,8.78071300283333e-06,-4.8040408379713705e-06
7.437205972765705e-07,6.576133192358068e-07,2.263741097416781e-07,5.83737538114314e-07,-9.449253103664318e-07,9.449709177689423e-07,-9.703096309045254e-06,-9.547095640640074e-07,6.62959585798407e-06,-2.2751892837593185e-08,-3.6703114210566183e-06,1.825772127985225e-07,-9.55105282556817e-06,9.918654968808394e-06,-2.8960995872285854e-06,1.0618957379980627e-05,4.693519319136948e-06,-2.8876226444100695e-06
7.017093490296657e-07,6.093584829252602e-07,2.182008830961698e-07,5.125794492894193e-07,-1.186720672055733e-06,1.6933576019246315e-06,-4.425097461647088e-06,-1.5444958444412321e-06,8.201158314902012e-06,5.343314330202531e-09,-3.7349558155978644e-06,1.7867978612894152e-07,-8.87300657625836e-06,1.19107472580868e-05,-1.594023952354523e-08,8.916104623210009e-06,-1.5090848859137764e-07,-1.0976546987875777e-06
6.566166108644156e-07,5.479831627744814e-07,1.786691087517152e-07,4.581156074279275e-07,-1.0994704534112083e-06,1.8256213964960456e-06,1.465021171838778e-06,-2.3587280989098684e-06,1.0265645675212612e-05,1.3610502312424233e-08,-3.776581900637375e-06,2.468772611686807e-07,-8.117561688315224e-06,1.3029556191168366e-05,1.7040942093661016e-06,5.8308320066243755e-06,-5.085388060022319e-06,8.445064635540347e-07
6.125083548915863e-07,5.149049378965121e-07,1.0848607166267239e-07,4.222589072846108e-07,-7.205371649200476e-07,1.3992156986504814e-06,5.7884591375843986e-06,-2.941106284126957e-06,1.1845283070646263e-05,2.8025112171483432e-08,-3.894968011534774e-06,3.4223641188511357e-07,-6.2054275076919826e-06,1.2798669407293172e-05,2.0990922794350632e-06,2.4980554380047377e-06,-9.442662972944637e-06,3.1636763091255856e-06
5.729608079798012e-07,4.579582078691834e-07,1.4874853151008612e-08,4.2141235888770857e-07,-1.4331227976740045e-07,7.298367530274301e-07,8.656955456215503e-06,-3.1695294119889634e-06,1.2448076876357167e-05,4.3144052701932586e-08,-4.090862200218498e-06,3.98610939304506e-07,-3.0440987401228535e-06,1.0955031004364257e-05,1.3090352048193988e-06,-2.3684683335115673e-08,-1.2637333470974327e-05,5.8277461942909395e-06
5.388704248373515e-07,3.5744610327613514e-07,-9.100724103707311e-08,3.7714325679107706e-07,5.176550795207154e-07,2.9894145063620287e-07,7.8533273411318e-06,-3.0860555126010672e-06,1.221578016639344e-05,6.264898342310943e-08,-4.363584306661175e-06,3.6661133814241393e-07,-3.2621139109073573e-07,7.720450356360539e-06,-4.2836017716236675e-07,-1.1575298206919051e-06,-1.4226976481642192e-05,8.494719326632392e-06
5.071368354504003e-07,2.4744701465249397e-07,-1.9746716000659638e-07,2.9388871215524164e-07,1.1487654397749191e-06,5.263339637778708e-07,4.206539204033784e-06,-2.6742151009155315e-06,1.1718353898198048e-05,8.222046030622298e-08,-4.618499943604002e-06,2.382287759866119e-07,1.8151541908593878e-06,3.7269097057079796e-06,-2.897167423235255e-06,-9.352015580812992e-07,-1.395826254824135e-05,1.060158163616741e-05
4.723319365451623e-07,1.4391469116329865e-07,-2.9483249260147305e-07,2.385162059028783e-07,1.6603167559233941e-06,1.5178788262468078e-06,2.5195042390913423e-06,-2.199661190117149e-06,1.1454898281144878e-05,9.15448579308714e-08,-4.910862449909622e-06,3.977768584128527e-08,2.422795878424208e-06,-1.3267701886832829e-07,-5.863109816680502e-06,1.6684469973525496e-07,-1.1817623022779347e-05,1.1542616412023669e-05
4.3011003436952823e-07,4.738097096668002e-08,-3.7740708661471813e-07,1.816292834364667e-07,2.0100381026743193e-06,2.97286095079271e-06,-2.0013555369062936e-06,-1.868401025406373e-06,1.186174615327902e-05,8.654065667925004e-08,-5.0108504528556346e-06,-1.938155300511543e-07,1.4127912031566052e-06,-3.1299702032087997e-06,-8.963969260215346e-06,1.5278285521562007e-06,-8.097160117443046e-06,1.092812942856603e-05
3.793706106165086e-07,-1.2105660078697302e-08,-4.431295657329029e-07,1.4930751082314783e-07,2.204451518861841e-06,4.3341883604647865e-06,-9.015136999951667e-06,-1.8127238504127555e-06,1.3262878920778427e-05,6.660781229073092e-08,-4.927251837492417e-06,-4.370220440890992e-07,-5.843470460391256e-07,-4.8975157797404684e-06,-1.1697269943182868e-05,2.6395688123932398e-06,-3.446635986389388e-06,8.848159680596114e-06
3.220513561618006e-07,-5.145065942378753e-08,-4.926683956869596e-07,1.1420091750154567e-07,2.273236499734332e-06,5.0678700382275945e-06,-1.3812653759120503e-05,-2.097253639331281e-06,1.540996126537947e-05,3.821329768421698e-08,-4.807643781863083e-06,-6.729772387700424e-07,-3.0552243213792188e-06,-5.29055768748209e-06,-1.3544113424871562e-05,3.209500252473808e-06,1.1613208303919715e-06,5.9141505207567716e-06
2.619625633534585e-07,-7.493135293112281e-08,-5.28400813853715e-07,6.55317983824364e-08,2.24054970485411e-06,4.893077979939689e-06,-1.716669494788359e-05,-2.680002532965354e-06,1.8014612544424357e-05,1.6224132899716732e-09,-4.685792265064261e-06,-8.825196514850757e-07,-5.235370025082889e-06,-4.261064545940496e-06,-1.4108877081078448e-05,3.097537510377677e-06,4.626666745885815e-06,2.9560480041076403e-06
2.0410933582285732e-07,-8.475376019586932e-08,-5.521421058596973e-07,5.958079986244428e-09,2.1119167722625657e-06,3.875900341635611e-06,-1.757044599874563e-05,-3.4412057976055806e-06,2.0539104640673616e-05,-4.4446832106107923e-08,-4.605572234503117e-06,-1.0356430009038979e-06,-6.802612200272547e-06,-1.7615749130076567e-06,-1.319646478880812e-05,2.1951323384585025e-06,6.056408975891885e-06,5.997122722651402e-07
1.5416328303764563e-07,-9.407216341829177e-08,-5.647765413531494e-07,-5.5357341350496506e-08,1.8753862198295645e-06,2.366893924180637e-06,-1.5650009836055e-05,-4.2061719551194465e-06,2.230281777737682e-05,-1.0061742565000095e-07,-4.561695002498928e-06,-1.0930289562002e-06,-7.728742797022197e-06,1.826043894834584e-06,-1.0869624814489388e-05,3.9236429734471236e-07,5.08742924763319e-06,-9.094479927639906e-07
1.1705052681830705e-07,-1.0064780990299359e-07,-5.671597456643265e-07,-1.0899036662299738e-07,1.513137379917801e-06,8.088474566208042e-07,-1.3304386977156933e-05,-4.790338179503357e-06,2.28142269066929e-05,-1.6705625631942966e-07,-4.493312378189248e-06,-1.0200996505372603e-06,-8.11151755444197e-06,6.579360219451833e-06,-7.503693853151383e-06,-2.3327055360505677e-06,2.0190114568934268e-06,-1.5667942803841284e-06
9.49795147447136e-08,-1.0398061428488133e-07,-5.610797272167319e-07,-1.5007441670139553e-07,1.0214429049385835e-06,-4.6314019835602995e-07,-1.1229578626778302e-05,-5.0468012157064386e-06,2.1806503976931606e-05,-2.41497985302382e-07,-4.246171889442068e-06,-8.092226242359006e-07,-8.218027601128265e-06,1.1345207280376832e-05,-3.750292388244089e-06,-5.7850548718559244e-06,-2.3189315382525084e-06,-1.421328906207194e-06
8.658899107651341e-08,-1.0568852840331812e-07,-5.50062039244685e-07,-1.7542314659218185e-07,4.285994922836118e-07,-1.2874596474651242e-06,-1.0738860540758814e-05,-4.9086110343546196e-06,1.9389301232279728e-05,-3.206671568601374e-07,-3.917929974941038e-06,-4.979865688181958e-07,-8.406316971718625e-06,1.6169561714505236e-05,-3.3875074037602214e-07,-9.491939957740258e-06,-6.861423777877413e-06,-5.460556359838813e-07
8.817325753479366e-08,-1.0649237153822069e-07,-5.376972077762863e-07,-1.8728788867284043e-07,-2.0111294472902645e-07,-1.6026073632193388e-06,-1.195285459764019e-05,-4.4136270144690745e-06,1.6166489584343316e-05,-4.005703160166713e-07,-3.5656031854773355e-06,-1.6806909812502355e-07,-8.942628250998296e-06,1.969161026593162e-05,2.2006073013570365e-06,-1.2772624947091983e-05,-1.0580529516834292e-05,8.973862025543166e-07
9.589422618150658e-08,-1.0747015491464256e-07,-5.260063159876957e-07,-1.9825942419744227e-07,-7.804551873389514e-07,-1.3648623613141868e-06,-1.31987502589935e-05,-3.692767284535931e-06,1.2956635390117595e-05,-4.7670351641939393e-07,-3.251092963534527e-06,8.314294627794056e-08,-9.816219248258728e-06,2.131797836049784e-05,3.7022585113434004e-06,-1.4918401143105009e-05,-1.2661718184934452e-05,2.6175434922510366e-06
1.0717982102194008e-07,-1.094708313730991e-07,-5.151059443323428e-07,-2.0638401942737025e-07,-1.2244411965943103e-06,-5.710112741814916e-07,-1.485513322334411e-05,-2.9294326937245212e-06,1.0352148877602343e-05,-5.453149424222653e-07,-3.0928015507850617e-06,1.8517629758593815e-07,-1.0713014047742587e-05,2.1089301293664172e-05,4.324193318972527e-06,-1.5413218112012473e-05,-1.2648672306095418e-05,4.202080277419829e-06
1.2095161087952396e-07,-1.1289186534640518e-07,-5.03835184223364e-07,-2.0850048990277255e-07,-1.4747110850431317e-06,6.490122779938807e-07,-1.7772376555732944e-05,-2.2985128349499884e-06,8.662956639262792e-06,-6.046720835719829e-07,-3.1337655802332187e-06,1.218779163546415e-07,-1.118008245840647e-05,1.9715741314009503e-05,4.3932652848616966e-06,-1.4120405656765706e-05,-1.0576849943934542e-05,5.178456102858184e-06
1.3763259582134756e-07,-1.1734394025512173e-07,-4.904361273175445e-07,-2.1697731815591247e-07,-1.509701317989582e-06,1.9918938017035627e-06,-2.0212105457969467e-05,-1.907749252000626e-06,7.913037353192332e-06,-6.552895517833136e-07,-3.35217330007912e-06,-7.360593367481394e-08,-1.0879125176503933e-05,1.702283881595928e-05,4.266064380047976e-06,-1.1364676862749007e-05,-7.004423075421784e-06,5.139146470804621e-06
1.59192780746925e-07,-1.2108910487422822e-07,-4.728281758344695e-07,-2.1756486424886896e-07,-1.3441569553038163e-06,3.053285437632258e-06,-2.1220186356905605e-05,-1.7678362236212968e-06,7.903354430791953e-06,-6.989282814965188e-07,-3.7448884572774214e-06,-3.433875763124668e-07,-9.785404021389063e-06,1.4174202549292258e-05,4.199419200722923e-06,-7.867773064289637e-06,-2.845687520534347e-06,3.952138114956723e-06
1.8830417166410284e-07,-1.2111493938904337e-07,-4.4919203347890086e-07,-2.1343083612770362e-07,-1.0277379228305497e-06,3.485524713997445e-06,-2.145913146102567e-05,-1.8165393325140531e-06,8.35764820787324e-06,-7.373741037810091e-07,-4.327520678573124e-06,-6.259451568695744e-07,-8.222855304632905e-06,1.157628565170897e-05,4.20339980755954e-06,-4.537392313611644e-06,9.84925741470568e-07,1.7890983244004696e-06
2.2634867448777294e-07,-1.1452901134179094e-07,-4.189633789796287e-07,-2.0940889658222997e-07,-6.343635161967143e-07,3.1616262899713235e-06,-2.2025112351316967e-05,-1.970313447314335e-06,8.955237262923762e-06,-7.717802488442496e-07,-5.024830233472569e-06,-8.673653839874066e-07,-6.703594369807964e-06,9.36387217500142e-06,3.9896413516672075e-06,-2.148811441458226e-06,3.957662731509365e-06,-9.116013397881335e-07
2.7182171723280255e-07,-1.0031508708955452e-07,-3.838503972218573e-07,-2.0200071531797867e-07,-2.3414067216109239e-07,2.2407542800010172e-06,-2.23760293510961e-05,-2.162063761019767e-06,9.356245001678126e-06,-8.025484978035122e-07,-5.753345228152899e-06,-1.029375669760423e-06,-5.665108376205705e-06,7.926500372300584e-06,3.1498877853665685e-06,-1.046459053151248e-06,6.069657734467877e-06,-3.672263414009214e-06
3.208372446018427e-07,-7.975967483490047e-08,-3.4740480615085786e-07,-1.92128495065597e-07,1.3278075180563683e-07,1.0771870048969229e-06,-2.1770184997571407e-05,-2.355941268596832e-06,9.323542956883769e-06,-8.291925337004148e-07,-6.374938374737628e-06,-1.0952259699985493e-06,-5.303125004313256e-06,7.044263966373752e-06,1.491970102613633e-06,-1.0536064936327551e-06,7.601066267032877e-06,-6.21577270474028e-06
3.693412709460636e-07,-5.5285973680594485e-08,-3.1247276839453786e-07,-1.80079802315046e-07,4.5759560129547664e-07,3.993477889341836e-08,-1.9757391151952653e-05,-2.5442615097597263e-06,8.817805456338342e-06,-8.502276138377999e-07,-6.693677863036502e-06,-1.0670515486855981e-06,-5.604567594319131e-06,6.388840045891564e-06,-6.516549080738824e-07,-1.6492014117637899e-06,8.683966891495e-06,-8.352457454962498e-06
4.1486318054096595e-07,-2.908471084104054e-08,-2.8170431174518005e-07,-1.6478223345896578e-07,7.436055656830584e-07,-6.280148816612062e-07,-1.6207318737228017e-05,-2.728505492083325e-06,8.031461429984186e-06,-8.637650369217731e-07,-6.601430617630256e-06,-9.546845389659957e-07,-6.469487209350062e-06,5.499892656880118e-06,-2.7861783568144624e-06,-2.2458454341899895e-06,9.053603231177816e-06,-9.94272550992333e-06
4.5642436837334975e-07,-2.743840786120945e-09,-2.5630671844987127e-07,-1.4418597040264486e-07,9.839331988735446e-07,-8.535993381309139e-07,-1.1501294251596959e-05,-2.901420831604357e-06,7.301339969433794e-06,-8.688505819206911e-07,-6.094790906278225e-06,-7.669598751430881e-07,-7.76758086496496e-06,3.88653679975893e-06,-4.2173437060594585e-06,-2.3634949663721885e-06,8.178093691755128e-06,-1.0874733005053912e-05
4.934829003187239e-07,2.2388897959239613e-08,-2.3642021555919774e-07,-1.224035716886135e-07,1.148289168689455e-06,-7.148487796198436e-07,-6.431029472922666e-06,-3.042734620764887e-06,6.919248572482484e-06,-8.664497210524476e-07,-5.315116487752252e-06,-5.13978103328907e-07,-9.310110799477524e-06,1.372225345473182e-06,-4.382177336100836e-06,-1.6736937544519833e-06,5.663973666295213e-06,-1.1071729507872897e-05
