0,1,2,3,4,5,6,7,8,9,10,11,12,13,14,15,16,17
-1.724648626166409e-07,-9.457691989080135e-08,7.140606751028292e-08,-1.5013430657478066e-08,-1.6289194411914435e-07,-4.039368765576255e-07,-3.4936831250483574e-07,-2.3694660101041212e-07,-3.691293298578703e-08,6.072107730029745e-08,-2.0204550983611316e-08,-3.9088347977002075e-07,-3.979385752014798e-08,-1.9355771050246873e-07,-8.671407508845745e-08,-1.2863798242486511e-07,1.2148080919814385e-07,1.1858817631592487e-07
-1.7096973908785622e-07,-1.204397979142035e-07,5.2351983233241476e-08,-1.4155754828514496e-08,-1.3451867617741034e-07,-3.1880728264128427e-07,-2.7208090488338377e-07,-1.3130050797462105e-07,5.718241043151775e-09,6.114607845641164e-08,-2.8413103339115365e-10,-3.315965851067444e-07,-4.5202797491058764e-09,-1.6742809500049285e-07,-8.009565989412346e-08,-8.963640286333142e-08,1.2228142509970355e-07,1.0528397191276446e-07
-1.618827472272012e-07,-1.3893809063494485e-07,3.684847565223718e-08,-1.4834377654748134e-08,-1.1762024884523609e-07,-2.3494708086098609e-07,-2.0552408677946217e-07,-2.1615020974047224e-08,4.379402342773018e-08,6.046084784904576e-08,1.7742032454721973e-08,-2.946687370040883e-07,2.559789699971869e-08,-1.567239536375757e-07,-8.554663778335814e-08,-5.468940256330663e-08,1.1865983631617582e-07,9.268373072849358e-08
-1.4329239602650876e-07,-1.451326964556697e-07,2.7009304805945144e-08,-1.6084215347924672e-08,-9.866816085956228e-08,-1.238724470200555e-07,-1.5302234590359618e-07,7.251101514024386e-08,7.331951655736045e-08,6.128894251931734e-08,3.526156547367006e-08,-2.766068072914734e-07,4.94957545841196e-08,-1.584627189162335e-07,-9.685263853460094e-08,-2.170991018239096e-08,1.1308506916357643e-07,8.134435867858037e-08
-1.1466321243518107e-07,-1.3527100396899008e-07,2.2642869892093976e-08,-1.756219501010492e-08,-7.875874379798142e-08,-3.658265772098669e-08,-1.1574482815089552e-07,1.4412392587599586e-07,9.029875138751411e-08,6.487294413918383e-08,5.313636027292888e-08,-2.6890992230478646e-07,6.631538730567526e-08,-1.6658616901447932e-07,-1.037041875363113e-07,9.781521370845726e-09,1.0453798283029192e-07,7.002557612132867e-08
-7.726574117357803e-08,-1.0941274596831179e-07,2.154069152467906e-08,-1.8150229728129715e-08,-6.076196064017203e-08,2.4475297192009668e-08,-9.35571294574869e-08,1.8483457741102917e-07,9.475415623463222e-08,7.0476267986594e-08,7.083888477527564e-08,-2.600348408364366e-07,7.508312612330483e-08,-1.7248193884521898e-07,-9.859784347838325e-08,4.0224053842435633e-08,8.836512470692881e-08,5.7333009757252386e-08
-3.36915160503213e-08,-7.066097003765612e-08,2.078809738265977e-08,-1.7700717914714705e-08,-4.458369086269489e-08,7.38834299179661e-08,-7.952094515352938e-08,1.9233975500093253e-07,8.961657472144945e-08,7.448551391594178e-08,8.586213146148446e-08,-2.3315942488090239e-07,7.561574043576255e-08,-1.651954535267198e-07,-7.126896768058773e-08,6.972510495416838e-08,6.857155253879046e-08,4.2518667927283146e-08
1.2761325043838937e-08,-2.362006582928212e-08,1.7951031944016995e-08,-1.5856111593209425e-08,-2.9225080501468172e-08,1.0202203522663778e-07,-6.390915117273658e-08,1.7276077167439785e-07,7.781541048569845e-08,7.374556970044506e-08,9.415571087554455e-08,-1.6668425849096808e-07,6.882919835931764e-08,-1.3112234959441315e-07,-1.3720805601491756e-08,9.584175858577089e-08,4.7271158607088145e-08,2.58129209364468e-08
5.811434143726483e-08,2.5444192730706797e-08,1.146717904892602e-08,-1.2031174141943088e-08,-1.1890785021673533e-08,1.2177729323593483e-07,-3.5673590664522494e-08,1.3433936229940072e-07,6.269671848410739e-08,6.541322177884546e-08,9.207111349266122e-08,-5.284698836109939e-08,5.578248876241686e-08,-6.52391483495305e-08,6.451227118343797e-08,1.1489994458191625e-07,2.4712098134539115e-08,7.073122333575887e-09
9.755293709740771e-08,6.975262021141294e-08,6.147192333131166e-10,-5.179778559848636e-09,1.0251886967006788e-08,1.3802099630024324e-07,1.2179200080394442e-08,8.473545180442144e-08,4.473722492001183e-08,4.590322859120403e-08,7.414716225734887e-08,9.947532985700574e-08,3.640268855868471e-08,2.9007456545311807e-08,1.4899630803337445e-07,1.2205632344410935e-07,-1.6689541066189539e-09,-1.3156696387073383e-08
1.2608408900161956e-07,1.064605464337204e-07,-1.4241305707406405e-08,1.9122532094848157e-09,3.853892044827924e-08,1.4797719998940255e-07,7.861507693348243e-08,2.9459423274379566e-08,2.2520629160983453e-08,1.3386363598436855e-08,3.9371356393952545e-08,2.6851869092974e-07,1.1371225754144692e-08,1.3814500196175647e-07,2.1690805886159164e-07,1.1235323945176647e-07,-3.483873522758301e-08,-3.4871030515614285e-08
1.401549204708672e-07,1.30557799242798e-07,-3.1205157908346295e-08,9.517156700337484e-09,7.223459623146388e-08,1.3927857020697437e-07,1.5479860033230827e-07,-2.7681358600071488e-08,-7.156101363515846e-09,-3.1006947850196087e-08,-8.60652558424348e-09,3.798267452737735e-07,-1.8734511453605693e-08,2.1668641654892546e-07,1.9839488700455816e-07,8.387605853701299e-08,-7.334888074606119e-08,-5.810480111188434e-08
1.390935975225302e-07,1.3951256914750318e-07,-4.709906128300657e-08,1.9466967146562863e-08,1.0872252464936138e-07,1.275774031521729e-07,2.2678849460476508e-07,-8.259931712822514e-08,-4.928776276910684e-08,-8.211979452023699e-08,-6.349389675017737e-08,3.9299311678408993e-07,-5.190664679970758e-08,2.3733717717454703e-07,1.4721024628317862e-07,2.9558318685621814e-08,-1.1611137771348647e-07,-8.262289553255847e-08
1.2512446645542494e-07,1.3704836071394963e-07,-5.883027113119477e-08,3.0071447236896916e-08,1.441046229147895e-07,1.1004486893077298e-07,2.807664894173398e-07,-1.3107231571937402e-07,-1.0405093310439255e-07,-1.340672878764117e-07,-1.1669369724051171e-07,4.1532723242820233e-07,-8.51190388837196e-08,2.609865105354179e-07,1.0147457953695998e-07,-4.5013722477138324e-08,-1.5705056547484125e-07,-1.0840216050917998e-07
1.0202419270309296e-07,1.2477661776626613e-07,-6.498236613242134e-08,3.961091572567992e-08,1.7323127384136114e-07,8.223176657825464e-08,3.078585439250339e-07,-1.7283119001011476e-07,-1.6920836061501617e-07,-1.817102675973079e-07,-1.6045870545055727e-07,3.920153935047422e-07,-1.1682117598663418e-07,2.649218010766934e-07,-2.872338562874208e-08,-1.2531910510702033e-07,-1.9446947144986143e-07,-1.3803092067007244e-07
7.332034488524271e-08,1.0449958445350254e-07,-6.626225806502025e-08,4.5989245417658094e-08,1.9183546577308148e-07,5.085748407057092e-08,3.0739488937712374e-07,-2.1105797106393308e-07,-2.3865515558482204e-07,-2.229957579915711e-07,-1.928448104150958e-07,3.272345352689675e-07,-1.4759799649022096e-07,2.2971317354448075e-07,-2.1227214967704375e-07,-2.1330979783559536e-07,-2.314770718767834e-07,-1.654750299852685e-07
4.408422120732187e-08,8.492107224214551e-08,-6.444714375639244e-08,4.725325883093214e-08,1.9808338133384842e-07,1.0633050892014509e-08,2.880338808857087e-07,-2.4699266412020826e-07,-3.059881273007747e-07,-2.585364833693715e-07,-2.1467096528216754e-07,1.6312221600905773e-07,-1.7872344294203362e-07,1.2913435729890085e-07,-3.796453877599344e-07,-3.0974195086921145e-07,-2.7078613495885756e-07,-1.9161661852113382e-07
1.96545187537333e-08,7.336265522406797e-08,-6.08489436269865e-08,4.265640605774083e-08,1.9326949793205675e-07,-2.8682632401413077e-08,2.6550809557069996e-07,-2.848683729947586e-07,-3.6381798744615014e-07,-2.8942587726204064e-07,-2.3076180899922023e-07,9.625851705922582e-08,-2.1270428299120427e-07,3.52493744829842e-08,-5.05470114316618e-07,-4.1386449561341213e-07,-3.166218904354178e-07,-2.1986435569451062e-07
5.736957983345453e-09,7.753456509903517e-08,-5.563590136954292e-08,3.467510682307904e-08,1.8104520910870665e-07,-5.603091447432171e-08,2.5623767533172887e-07,-3.2562026367219426e-07,-4.043835580485756e-07,-3.1716825635863433e-07,-2.4270337124773964e-07,9.976705869962965e-08,-2.5021389367172746e-07,7.705141742473305e-09,-5.868563669853965e-07,-5.270311119242208e-07,-3.656399039618958e-07,-2.4948827443184067e-07
7.001594504444921e-09,1.0863934917477929e-07,-4.839080123116169e-08,2.269086750866067e-08,1.645775519705245e-07,-6.718033995915333e-08,2.743502023561807e-07,-3.694912243616913e-07,-4.223177234951537e-07,-3.4350526524025704e-07,-2.5247718484291303e-07,1.1712868032594121e-07,-2.9111286563582743e-07,-1.8147631012797632e-08,-6.17553964390948e-07,-6.45772105219305e-07,-4.1697884069280846e-07,-2.8185151644334604e-07
2.418212466891523e-08,1.6796830712676397e-07,-3.9090617709633645e-08,7.879770264887374e-09,1.4453007021719023e-07,-6.263603756055307e-08,3.236053943392392e-07,-4.183752219122049e-07,-4.1485550102888455e-07,-3.7203711939905667e-07,-2.6421883331588905e-07,8.094351513551556e-08,-3.3502254512718804e-07,1.50467691896232e-08,-6.063064163316096e-07,-7.635321333687816e-07,-4.694874648925185e-07,-3.165318332266224e-07
5.403712356008647e-08,2.502854664533908e-07,-2.8440067512066092e-08,-6.867097056036377e-09,1.1924486488583973e-07,-4.7114094269089904e-08,3.982610080238666e-07,-4.7127533329758145e-07,-3.8387722745349114e-07,-4.039512727211561e-07,-2.831498318371963e-07,1.8636425523893588e-07,-3.7938174400544025e-07,5.213905855662814e-08,-5.670348280067938e-07,-8.750746520067352e-07,-5.205852934284365e-07,-3.5169182087360954e-07
9.067320495588074e-08,3.471157343116756e-07,-1.7325231502900437e-08,-2.508511738013853e-08,8.715799410367034e-08,-2.5806710497448283e-08,4.879733048708215e-07,-5.240782060850712e-07,-3.339384582366833e-07,-4.271369924629459e-07,-3.1219389119440314e-07,3.2312122984420477e-07,-4.196204565646206e-07,8.580697441160214e-08,-5.143366261460522e-07,-9.753798554360884e-07,-5.686152228060853e-07,-3.8496908038591825e-07
1.2786392826612218e-07,4.4336315434989234e-07,-6.1685311614093145e-09,-5.087659792805602e-08,4.771017310739503e-08,-1.3583855157444103e-09,5.803268288818138e-07,-5.699414333222899e-07,-2.691563073919335e-07,-4.406269550678903e-07,-3.4797207092283827e-07,4.0609107580019164e-07,-4.5009272303314324e-07,1.069479682580664e-07,-4.5835983495719897e-07,-1.0545529076764244e-06,-6.102517197399778e-07,-4.2086198025892146e-07
1.6007769575674775e-07,5.265178972572898e-07,4.938075863684273e-09,-8.887165078119835e-08,5.097097360502427e-10,2.6171284040250133e-08,6.642258083720034e-07,-6.051811443874234e-07,-1.9865828235051988e-07,-4.4772576673815305e-07,-3.9475740870818126e-07,4.5021856576494587e-07,-4.6715722062722206e-07,1.1369223215406026e-07,-4.0811195501902337e-07,-1.105122885586421e-06,-6.45698582063631e-07,-4.4723000966160065e-07
1.823063167515756e-07,5.874141999814908e-07,1.5452296885681208e-08,-1.4635107521636998e-07,-5.5956847713253864e-08,5.715147891970056e-08,7.300061626672968e-07,-6.278704351752467e-07,-1.3285259447679941e-07,-4.453004889036949e-07,-4.3534830085381293e-07,4.7325229089442913e-07,-4.7146242740489067e-07,1.0856230121954718e-07,-3.6415878591006177e-07,-1.1245535676570528e-06,-6.665668166111673e-07,-4.612746691740266e-07
1.9404369449316298e-07,6.246651423094168e-07,2.4011167331790587e-08,-2.248909950389686e-07,-1.2540088257135021e-07,8.768579143815219e-08,7.770614764550681e-07,-6.426368817307783e-07,-7.942537501815559e-08,-4.3906164759280523e-07,-4.7109845966923136e-07,4.738572319609035e-07,-4.689042441403646e-07,9.600835854585137e-08,-3.273406715292085e-07,-1.1131469917209088e-06,-6.808614345973161e-07,-4.6394539455434515e-07
1.9426330327904967e-07,6.156371004279996e-07,2.91670063188145e-08,-3.244339287529882e-07,-2.1084162289959087e-07,1.141676959843799e-07,7.88429047577926e-07,-6.481380473062908e-07,-4.5504670948778787e-08,-4.303473648352354e-07,-5.083150659653303e-07,4.6354814991592156e-07,-4.673018207206841e-07,8.149048636549735e-08,-2.9973170165383275e-07,-1.080193957770803e-06,-6.931093079475279e-07,-4.5448184256125715e-07
1.8518040105966965e-07,5.90602179888509e-07,3.067972075324927e-08,-4.4347101725137235e-07,-3.1132245053816795e-07,1.3322805152377093e-07,7.642167401550342e-07,-6.522526189056871e-07,-2.4961251397938638e-08,-4.105523834327865e-07,-5.45056159566272e-07,4.4758582294188633e-07,-4.7333089129211807e-07,6.808569929777627e-08,-2.8078312367546685e-07,-1.026992098135258e-06,-7.063771408148996e-07,-4.356836351021771e-07
1.7272798101104935e-07,5.273447391100023e-07,3.021272613623615e-08,-5.756610396342242e-07,-4.2093755172504746e-07,1.438249293884653e-07,7.139400032588129e-07,-6.632576746995803e-07,-2.336464841166367e-08,-3.7397639068137935e-07,-5.65208166403921e-07,4.240520187588312e-07,-4.911083247318779e-07,5.773482763897647e-08,-2.7941241300655196e-07,-9.61843728681722e-07,-7.225540141571036e-07,-4.0922241305431495e-07
1.6760052247882866e-07,4.46129307992749e-07,3.09705898853968e-08,-7.10214000044253e-07,-5.300689248592793e-07,1.469923039669263e-07,6.251220477145166e-07,-6.875757432567163e-07,-4.483536473273976e-08,-3.1101842628943327e-07,-5.797697612006242e-07,3.877459370199765e-07,-5.21673905374531e-07,4.7302259864281604e-08,-3.093948027450322e-07,-9.11401381883848e-07,-7.280498551032908e-07,-3.6274836421136774e-07
1.8726987377045013e-07,3.926571010118259e-07,3.677074260965352e-08,-8.373757748562461e-07,-6.289963505059155e-07,1.379193330532785e-07,5.318315365166074e-07,-7.285150389361557e-07,-9.951638539452052e-08,-2.4021185231900505e-07,-5.615765995388922e-07,3.298662262959747e-07,-5.629376107099651e-07,2.5723187928327002e-08,-3.7761244688995913e-07,-8.803107567397544e-07,-7.253245764941585e-07,-3.0977969245762835e-07
2.3311911058769604e-07,3.7682838769124955e-07,5.1100590835731765e-08,-9.488135775723391e-07,-7.108411833324363e-07,1.1865645557234549e-07,4.391193883057072e-07,-7.772774549807467e-07,-1.468416197622135e-07,-1.8632554553458286e-07,-4.7455367991818353e-07,2.3945828516366336e-07,-6.095609519904471e-07,-2.082100121295687e-08,-4.462170475320942e-07,-8.693647360604922e-07,-6.904213707794173e-07,-2.7482822132014196e-07
3.123571019632665e-07,4.030044012343243e-07,7.613582986749103e-08,-1.0388994065745087e-06,-7.733656171130742e-07,9.087287370800224e-08,3.4778371225048223e-07,-8.135432687809001e-07,-1.4902516029544845e-07,-1.4966453515860154e-07,-4.334373138439075e-07,1.2186426778270612e-07,-6.535880464963068e-07,-9.308299874950079e-08,-5.03012288810608e-07,-8.797116952645168e-07,-6.277096415256997e-07,-2.265798457204513e-07
3.9740756976094966e-07,4.4507299729500127e-07,1.1148070281843366e-07,-1.1092456537361525e-06,-8.195820015352724e-07,4.9784080863983655e-08,3.0609176142443264e-07,-7.803124804382103e-07,-6.980412689398535e-08,-9.786273492617555e-08,-3.9462568512508225e-07,-2.4489265026664025e-09,-6.866084365592239e-07,-1.7981002821438353e-07,-4.595603151235124e-07,-9.069158310249957e-07,-5.86738008733737e-07,-1.846750083927331e-07
4.6218223495007125e-07,4.5161352662691146e-07,1.5289844630978517e-07,-1.1653088173090169e-06,-8.571076887684833e-07,3.337437334877076e-08,2.837874819792077e-07,-7.060537416542202e-07,5.108961372882785e-08,-4.544871114070531e-08,-3.4897511068796073e-07,-1.3029205274677349e-07,-7.025862436846919e-07,-2.658963507352071e-07,-3.4075669177863017e-07,-9.141506466001503e-07,-5.571512727082162e-07,-1.584886570633436e-07
4.6104854942714743e-07,3.612316494033898e-07,1.920039401814952e-07,-1.2167102878934077e-06,-8.952157587122333e-07,1.3647575426416175e-07,3.010256847268095e-07,-6.47264425998435e-07,1.5559961458114742e-07,3.51288668506612e-08,-3.152172751120821e-07,-1.9540241821607588e-07,-7.005065397944716e-07,-2.934809792925624e-07,-2.3800368256271202e-07,-8.494332508083202e-07,-5.31574074583339e-07,-1.43187108522791e-07
4.405828094580109e-07,2.779149725041852e-07,2.179767755983642e-07,-1.274516478955399e-06,-9.398871209021302e-07,2.198001460017865e-07,4.070307164554884e-07,-6.106752083562896e-07,2.5283621317178094e-07,1.1107274413312235e-07,-2.5578855718663296e-07,-1.9610264548041562e-07,-6.84988606826246e-07,-2.526678112013235e-07,-1.4154106105238025e-07,-7.322869095991902e-07,-5.03080477967946e-07,-1.2861888957685786e-07
4.1919228371154474e-07,2.1167508676630585e-07,2.2137009739735624e-07,-1.3476203906318365e-06,-9.895078222760305e-07,3.2284448968569607e-07,4.3009326383633157e-07,-5.660373595613728e-07,3.3751610026178475e-07,1.7990001833610493e-07,-1.1780499880750074e-07,-2.1219033195560429e-07,-6.640425476295142e-07,-2.3141668874839124e-07,-3.276894102891026e-08,-5.648563181901619e-07,-4.2848430906625925e-07,-1.1013696023981677e-07
3.844714948362877e-07,1.2416335613581106e-07,1.9839328869652836e-07,-1.435560922088328e-06,-1.035176530903901e-06,5.439346222234888e-07,4.24315836121249e-07,-5.132155467345954e-07,4.2244681248228145e-07,2.415923316480185e-07,-1.2295172900126594e-08,-2.0505829334692126e-07,-6.460052580185414e-07,-2.039940183987699e-07,1.276277372603579e-07,-4.527740583627923e-07,-3.1958174297530097e-07,-7.099818981644398e-08
3.586439482012742e-07,3.0454405049085615e-08,1.5304084720636195e-07,-1.5339610589909415e-06,-1.0666148729736176e-06,7.764564868563719e-07,5.082790123371649e-07,-3.9302688069950117e-07,5.650537097198988e-07,3.021669635312044e-07,3.5318931301871704e-08,-8.239404678361088e-08,-6.37697960486025e-07,-1.6480249731587177e-07,4.0068504379975134e-07,-3.0727858624053146e-07,-2.3635972111509042e-07,5.731456172779554e-09
2.631635957040802e-07,-1.5134779110808593e-07,9.552097648180661e-08,-1.6207827085348985e-06,-1.0798153820914486e-06,8.886990597353874e-07,6.356381584801977e-07,-2.723131748988294e-07,6.75770910468097e-07,3.490280724479204e-07,6.957917050398426e-08,4.185001884797774e-08,-6.432581915904742e-07,-6.710594480852045e-08,5.822280820396168e-07,-1.1394552541963098e-07,-1.6018124566793716e-07,8.405002513937795e-08
1.2273299815528026e-07,-3.047892299617022e-07,3.8001961158282535e-08,-1.6963876157759523e-06,-1.0802776360462773e-06,8.645334762765201e-07,7.229642413782027e-07,-1.9693506115695626e-07,7.497381432537998e-07,3.9708637270283637e-07,1.389866871803161e-07,1.1107830346582391e-07,-6.64211296271428e-07,1.7875401163950286e-08,7.041479440880042e-07,4.1043629209457044e-08,-7.035186325383669e-08,1.4270534494046008e-07
4.4052772676342174e-08,-3.905256390068837e-07,-9.634028932709934e-09,-1.7614772176814626e-06,-1.0798106528665318e-06,8.370569344878656e-07,7.433324845483229e-07,-1.4659660002361417e-07,8.26164627354907e-07,4.4615932310460634e-07,1.9511316895602053e-07,6.980448244459172e-08,-6.98391323234012e-07,2.1889945366528473e-08,8.068257958904264e-07,1.4213658906812838e-07,3.60707467022741e-09,2.1040413615523022e-07
-2.6219364059457268e-08,-4.4852273915336064e-07,-4.198023012527335e-08,-1.813123492822185e-06,-1.089848335866381e-06,7.824973252193481e-07,7.253618479131796e-07,-6.559423338122454e-08,9.177541185774712e-07,4.694861558748752e-07,2.6021286609404103e-07,-9.872176340073993e-08,-7.406341800016165e-07,-3.120717623110984e-08,8.542353952067946e-07,2.083735568007355e-07,2.07878684172261e-08,2.707926375978168e-07
-9.149053177310598e-08,-5.732219495454206e-07,-5.808119720736432e-08,-1.857958691770028e-06,-1.119709164331435e-06,7.646978453565913e-07,6.389618917601928e-07,5.6448617976956014e-09,9.936398435223175e-07,4.5538767176151277e-07,2.976142043660027e-07,-2.8623356610727345e-07,-7.846477936514882e-07,-5.290168160466274e-08,8.899430929075905e-07,2.29139512672042e-07,3.427031560393622e-08,3.13695327218624e-07
-1.0736206544346691e-07,-6.404359777269935e-07,-6.02547495132943e-08,-1.8810855094140953e-06,-1.1662320514648647e-06,7.022160969115806e-07,6.030255260938374e-07,4.314432942964818e-08,1.042449691902468e-06,4.353930535541115e-07,2.8483625225436093e-07,-4.308301117070823e-07,-8.255173306795932e-07,-1.0239638764282983e-07,8.904575933052254e-07,3.0402902522782816e-07,6.891926198115614e-08,3.49462816783907e-07
-9.190563420278167e-08,-6.093356534731374e-07,-5.2767860343232356e-08,-1.885182972651599e-06,-1.2182253312201275e-06,6.297323306458921e-07,6.007719954282182e-07,6.485813863905055e-08,1.0439292821186314e-06,4.1492068967053195e-07,2.47473683737209e-07,-5.603229775896677e-07,-8.628719630230691e-07,-1.7945939755750579e-07,8.474765091123771e-07,3.8398704816687817e-07,1.0325028525139906e-07,3.7597824874076574e-07
-9.4382761483184e-08,-5.721883963067651e-07,-4.0729311990612546e-08,-1.8655636990428341e-06,-1.2649872153582304e-06,5.580126327207711e-07,5.059597132003733e-07,-1.0437790603652227e-08,9.910308546297512e-07,3.934029195782765e-07,2.0630717974832633e-07,-6.65433621298117e-07,-8.995135294530838e-07,-2.418143477722614e-07,8.491172863755692e-07,4.056480391376411e-07,1.349099407083127e-07,3.8897499705262736e-07
-1.1861446758483705e-07,-5.593183673108394e-07,-2.9045055325178603e-08,-1.8000811138253952e-06,-1.2571795135074813e-06,4.382149029667017e-07,4.0665657364500254e-07,-1.0189691370641696e-07,9.15707877567066e-07,3.8743875858109825e-07,1.4160248028297141e-07,-7.208667366187014e-07,-9.385033794065394e-07,-3.219416660986841e-07,7.456565168407454e-07,3.7557116511763727e-07,1.4532276656216254e-07,3.9436342121170166e-07
-1.537882829031922e-07,-5.494393274360205e-07,-2.132886105677596e-08,-1.7819635811452623e-06,-1.1732907210322001e-06,2.884939309135141e-07,2.5573078667930943e-07,-1.9363400984770375e-07,8.205459014282956e-07,3.853305612095797e-07,7.249476313124617e-08,-8.686041062806463e-07,-9.81554895495929e-07,-4.369076002564121e-07,5.964579124283857e-07,3.158222617131381e-07,1.20665190345522e-07,3.8702255787968876e-07
-2.0383093468038286e-07,-5.860958504217152e-07,-1.9102316407566608e-08,-1.797698696480728e-06,-1.125255652270236e-06,1.337253638505819e-07,9.692348644664835e-08,-3.092027148335173e-07,7.278608972779147e-07,3.752444667217869e-07,1.3548891881780316e-08,-9.90914844971206e-07,-1.0272601858473044e-06,-5.301419831668034e-07,4.612346416286203e-07,2.718619803110662e-07,6.38092903237982e-08,3.8574918848481634e-07
-2.6189329831976417e-07,-6.352845074899081e-07,-2.1706390656061e-08,-1.8520865489692923e-06,-1.0649434457581937e-06,5.5362786090217514e-09,-4.230997682784329e-08,-3.8662771917000523e-07,6.61331803952087e-07,3.5763658787055074e-07,-5.687479349757349e-08,-1.0291858865498566e-06,-1.0718670103116978e-06,-5.899421037422279e-07,3.2107401177149555e-07,2.3147470713531158e-07,1.9481773405291963e-08,4.083307390111805e-07
-3.2211686848081385e-07,-6.792723015208787e-07,-2.7002559926288095e-08,-1.8492161808623086e-06,-8.854783595801244e-07,-8.089749590245427e-08,-1.6783851772074263e-07,-4.5318707824464586e-07,6.004424000231522e-07,3.250743355281401e-07,-1.351365547841395e-07,-1.0196473707250029e-06,-1.1108829587010771e-06,-6.145760864268632e-07,2.6045485071292434e-07,2.3799235796417263e-07,-7.906642957773946e-09,4.537339927967365e-07
-3.7814441552417617e-07,-7.155298031684987e-07,-3.2640437382517925e-08,-1.7589236396465327e-06,-6.771643557433555e-07,-1.2978037027638744e-07,-2.2616523191043255e-07,-5.175181764998825e-07,5.43418122765804e-07,2.81092827720888e-07,-2.0093031105647825e-07,-1.0733045541172846e-06,-1.140635038035971e-06,-6.196028656134074e-07,2.522019177756308e-07,2.896996098137287e-07,-6.343853802889646e-08,4.561698992117335e-07
-4.256676261126878e-07,-7.358819563844223e-07,-3.735458752951622e-08,-1.6570927799881615e-06,-5.005146539345982e-07,-1.4278666211864627e-07,-2.4214711461760014e-07,-5.542302764855929e-07,4.837787179777707e-07,2.3249267214351638e-07,-2.490176136909349e-07,-1.0689618191443784e-06,-1.159728572176139e-06,-5.694636543723839e-07,2.674433115571289e-07,3.5677913667977246e-07,-1.4539971997607127e-07,4.28590378039341e-07
-4.59326650824524e-07,-7.417911600470888e-07,-4.153039005985016e-08,-1.5705516920211722e-06,-3.563773493177163e-07,-1.3227516908328453e-07,-2.424654657746484e-07,-5.642489166094493e-07,4.176261446297383e-07,1.8234677957876883e-07,-2.8725275668646597e-07,-1.1155601109040346e-06,-1.1697183158294103e-06,-5.73539984687639e-07,3.095480166113406e-07,4.279633973943624e-07,-2.0245089249844874e-07,3.7644477413026584e-07
-4.807114326665429e-07,-7.41046817852426e-07,-4.6643870087040175e-08,-1.4524701546878985e-06,-2.4507028672997224e-07,-1.0608344508114397e-07,-2.3319289605174853e-07,-5.439420287830477e-07,3.917795460760709e-07,1.3302883680298515e-07,-3.256232560066724e-07,-1.1845906401780118e-06,-1.174415184797872e-06,-5.891908185361148e-07,3.557090036893554e-07,4.842901891977169e-07,-2.618162015877671e-07,3.0918044595760393e-07
-4.9494452926423e-07,-7.405527337012166e-07,-5.398788546360695e-08,-1.3771463036212737e-06,-1.6992153408242163e-07,-7.234183232027697e-08,-2.350890992728413e-07,-4.958920642250977e-07,3.961388138566677e-07,8.506490872669382e-08,-3.7387131150621647e-07,-1.1659602488599296e-06,-1.1776438958740163e-06,-5.861738525355224e-07,4.070561912617249e-07,5.223191918433234e-07,-3.0126990521602826e-07,2.5380356771735456e-07
-5.05826285491908e-07,-7.472366744992664e-07,-6.368654561186424e-08,-1.3320233561684591e-06,-1.2632739763138442e-07,-4.001644752780104e-08,-2.5011056603089145e-07,-4.258682788883374e-07,4.0831382544996914e-07,3.832601999430483e-08,-4.3704585927033716e-07,-1.1126714238160057e-06,-1.182265417795053e-06,-5.4176994115893e-07,4.679060389532213e-07,5.395322114420839e-07,-3.239235668492789e-07,2.0623700757345382e-07
-5.167058386183101e-07,-7.671971273273068e-07,-7.480407986417191e-08,-1.2964285032970934e-06,-1.0830986595740196e-07,-1.3598872514184469e-08,-2.75541516699276e-07,-3.459030226413884e-07,4.2903587490550125e-07,-6.9178258061486355e-09,-5.10548517407427e-07,-1.0361219039319553e-06,-1.189958131322401e-06,-4.716326524939068e-07,5.359971680595615e-07,5.379919428272813e-07,-3.595264786759424e-07,1.6373387189805552e-07
-5.284047032698361e-07,-8.002989249358059e-07,-8.636111160400724e-08,-1.2844472897964946e-06,-1.1191351253265745e-07,5.37308564798335e-09,-3.101193874254511e-07,-2.576801799963624e-07,4.4636641182521983e-07,-5.018453034329532e-08,-5.873381051019414e-07,-9.142658475022253e-07,-1.2016489829294104e-06,-3.7612325715216335e-07,6.074458382510074e-07,5.222815656403102e-07,-3.9594103871144705e-07,1.2239420769731896e-07
-5.40779496418938e-07,-8.423416821990099e-07,-9.829258418240535e-08,-1.299103259877574e-06,-1.3619746307520623e-07,1.7451691745781733e-08,-3.513142951591002e-07,-1.6515642623327418e-07,4.573990658049483e-07,-9.09247114126356e-08,-6.621000416926648e-07,-7.882009302477062e-07,-1.2174452715406162e-06,-2.737338081928518e-07,6.756144929991758e-07,4.968232800042819e-07,-4.355377706473763e-07,7.340914783948922e-08
-5.540318085592351e-07,-8.871351584751145e-07,-1.1173731516742864e-07,-1.3356811060530779e-06,-1.81798077942741e-07,2.450373801208149e-08,-3.971908173342084e-07,-8.003667070433893e-08,4.6823618574550217e-07,-1.285883044258615e-07,-7.351858089316523e-07,-6.84140637173616e-07,-1.2356985220067316e-06,-1.8970267490544812e-07,7.331414915944368e-07,4.6739581144385163e-07,-4.631877677982887e-07,2.1757933599981412e-08
-5.688294995035928e-07,-9.368888557141896e-07,-1.288298529323269e-07,-1.3914389202640334e-06,-2.486657894015557e-07,2.8206610925498e-08,-4.467511680528508e-07,-6.763465855158758e-09,4.727039801807621e-07,-1.6235921942533686e-07,-7.981143557520576e-07,-6.001568527672895e-07,-1.2531250378945496e-06,-1.302683042486499e-07,7.742919398459735e-07,4.376052662673596e-07,-4.851895475173714e-07,-2.0727851720137553e-08
-5.86291582793514e-07,-9.886572777671962e-07,-1.5217708851397975e-07,-1.471741519702673e-06,-3.3438676725504426e-07,2.9490969785499447e-08,-4.999690374387505e-07,4.90803312921982e-08,4.585753911048592e-07,-1.9166568947654767e-07,-8.438420448810315e-07,-5.312038844011482e-07,-1.2666803376508716e-06,-8.886521870109419e-08,7.964227124890918e-07,4.0943273293552745e-07,-5.055759125498378e-07,-5.7526959548902595e-08
-6.073076045721256e-07,-1.0401224246983683e-06,-1.837804526230249e-07,-1.563731880383966e-06,-4.3330640098328537e-07,2.7816709705167442e-08,-5.570542763570446e-07,8.305019365777059e-08,4.276479952298376e-07,-2.1621471330074476e-07,-8.718353172897489e-07,-4.7383988300048817e-07,-1.2741007797267896e-06,-5.457913228081697e-08,8.005194812147811e-07,3.838408067707724e-07,-5.231922240933938e-07,-9.075895871571296e-08
-6.313061301186228e-07,-1.0910966986739052e-06,-2.2346811834385888e-07,-1.6624050562310472e-06,-5.366516255135659e-07,2.259073447127077e-08,-6.171957506833761e-07,9.577381470783905e-08,3.8476058212470406e-07,-2.3591975302737347e-07,-8.814130623852745e-07,-4.15356544006849e-07,-1.2740253623902485e-06,-1.9653262098053508e-08,7.910403698860112e-07,3.622315194958985e-07,-5.412691795202958e-07,-1.1943993849210714e-07
-6.554609330328529e-07,-1.133733508907727e-06,-2.6782402420127595e-07,-1.7624249371392615e-06,-6.344475289800866e-07,1.311068531434466e-08,-6.778263803943382e-07,9.18422386371416e-08,3.3259034111371185e-07,-2.5050407309344746e-07,-8.756665682984938e-07,-3.5019915542455595e-07,-1.2655272511570393e-06,2.268282711603703e-08,7.748159067496827e-07,3.3614114462428076e-07,-5.502926020355232e-07,-1.4455332923848293e-07
-6.753677799645711e-07,-1.1715389083837024e-06,-3.107213896220281e-07,-1.8536409061925036e-06,-7.18822383213398e-07,4.2065054132729703e-10,-7.353558375428744e-07,7.476099547054202e-08,2.775946266696923e-07,-2.59483826732449e-07,-8.593234817358268e-07,-3.0234255191092807e-07,-1.2475811330942627e-06,5.9283665656074444e-08,7.590761679013186e-07,3.0676784177953775e-07,-5.499300232725233e-07,-1.6446457647976069e-07
-6.868253345291172e-07,-1.1997425812951526e-06,-3.4534681041987823e-07,-1.928708844512156e-06,-7.862822355603858e-07,-1.3711979001669198e-08,-7.867447818878677e-07,4.840561286200686e-08,2.232451615588523e-07,-2.6243220304190187e-07,-8.362819910771556e-07,-2.5809808289384596e-07,-1.2193416992485892e-06,9.672846455875138e-08,7.494461977232075e-07,2.748141792046248e-07,-5.382174637517497e-07,-1.7907772459146727e-07
-6.872420051627746e-07,-1.2126814510263074e-06,-3.6645209534132567e-07,-1.989238669460139e-06,-8.370187888023892e-07,-2.7473996535007566e-08,-8.304927896573329e-07,1.6895575856398526e-08,1.7021506751731298e-07,-2.588341783373574e-07,-8.095814733318069e-07,-2.0706419740221453e-07,-1.1805067864232334e-06,1.40380183310588e-07,7.485198644050043e-07,2.3677654234430718e-07,-5.196887174887318e-07,-1.8605223667729867e-07
-6.758745557863259e-07,-1.212807286047944e-06,-3.7177680662837713e-07,-2.021545025435078e-06,-8.722886190686429e-07,-3.88030138980638e-08,-8.665896666039503e-07,-1.6392949937704337e-08,1.1875418343513338e-07,-2.482423432506561e-07,-7.812011156975823e-07,-1.5774724542692854e-07,-1.1319012853008807e-06,1.845843722448847e-07,7.549380854745173e-07,1.9123622012608123e-07,-4.950145146574167e-07,-1.8754290678077136e-07
-6.534484112531556e-07,-1.2012258820252902e-06,-3.6244113784309007e-07,-2.0319590088537937e-06,-8.925440436593714e-07,-4.654827221987015e-08,-8.958164372139872e-07,-4.7242399083731866e-08,6.804555013891804e-08,-2.305973247299091e-07,-7.510798763876437e-07,-1.0148124381126226e-07,-1.0764824152589437e-06,2.334232112888701e-07,7.630844144437921e-07,1.3307118071965508e-07,-4.64868238892955e-07,-1.8602580517069313e-07
-6.218092831017878e-07,-1.1773102281646282e-06,-3.4238264841723546e-07,-2.0271220565151227e-06,-8.973145441166569e-07,-5.148966565875875e-08,-9.188097198305389e-07,-7.307065706705426e-08,1.6534481959576526e-08,-2.065717134275871e-07,-7.165240064455487e-07,-4.1867800082968946e-08,-1.0202115661211249e-06,2.8553437285144003e-07,7.641406069127569e-07,5.484188021847137e-08,-4.362947554287147e-07,-1.8329902183094546e-07
-5.834101492967454e-07,-1.1442233325524666e-06,-3.1680878014505334e-07,-2.019952776931875e-06,-8.85684061840234e-07,-5.731476556878067e-08,-9.350588134186477e-07,-9.310234855209528e-08,-3.48716725208535e-08,-1.7728112786614134e-07,-6.738024212125797e-07,1.2676204817577667e-08,-9.702957900660517e-07,3.3859429503141463e-07,7.487486639048808e-07,-3.8545475949063606e-08,-4.1060717977671347e-07,-1.8466059096137888e-07
-5.403498261927255e-07,-1.1045319324632112e-06,-2.900542021648672e-07,-2.006192030093949e-06,-8.566498443082969e-07,-6.735354107370056e-08,-9.421682924643467e-07,-1.074539090398887e-07,-8.293204693312736e-08,-1.437488424728775e-07,-6.185871346731923e-07,5.889476296902383e-08,-9.330400614965028e-07,3.930407130296593e-07,7.100408525793068e-07,-1.4878922007635645e-07,-3.8888602663644983e-07,-1.8973130886194848e-07
-4.934993361648652e-07,-1.051920619650675e-06,-2.638596713972198e-07,-1.976035102356818e-06,-8.101245511170012e-07,-8.897468178998578e-08,-9.363959634618654e-07,-1.1684520728734563e-07,-1.2300067216165468e-07,-1.0685044528397966e-07,-5.470015012492496e-07,9.306767071728237e-08,-9.120873531492465e-07,4.49895825570135e-07,6.453361455342421e-07,-2.7598525950420555e-07,-3.712464767424976e-07,-1.9822535062483039e-07
-4.4242417370195157e-07,-9.843540350154358e-07,-2.3688125950133652e-07,-1.925891802590383e-06,-7.488052161946797e-07,-1.2755679425811225e-07,-9.146177840471451e-07,-1.2569541668042772e-07,-1.5007043333826002e-07,-6.778619803267824e-08,-4.575475469472767e-07,1.0721131500579368e-07,-9.07694064152051e-07,5.012606766760998e-07,5.560761519096181e-07,-4.166226028431352e-07,-3.568595230673175e-07,-2.1016814622349354e-07
-3.858787024331266e-07,-8.862989482236149e-07,-2.0535984473448545e-07,-1.8506702624751826e-06,-6.793591651566927e-07,-1.8678754323028378e-07,-8.764511888397349e-07,-1.3886922956011063e-07,-1.6137622244576558e-07,-2.81672444049101e-08,-3.518121990779298e-07,9.12632210637249e-08,-9.170452690328601e-07,5.372141295122501e-07,4.4690009327735684e-07,-5.665852500114939e-07,-3.446842037726511e-07,-2.2434471815828407e-07
-3.2217278843737534e-07,-7.502394140983355e-07,-1.6443008049950713e-07,-1.7883480059622687e-06,-6.114423776913423e-07,-2.678263736876047e-07,-8.250574820281264e-07,-1.6156223192666926e-07,-1.5728971406851408e-07,1.07634998720523e-08,-2.3524031703055806e-07,3.814488160115418e-08,-9.351180481840773e-07,5.499871003662327e-07,3.24591756391572e-07,-7.214708214896161e-07,-3.3245789761417766e-07,-2.411970964483205e-07
-2.495758132677156e-07,-5.787297562047619e-07,-1.0979424808899158e-07,-1.7353298253118646e-06,-5.551583290057001e-07,-3.645378220258209e-07,-7.66533563786668e-07,-1.969835521740455e-07,-1.416324461759748e-07,4.905966722065812e-08,-1.1589014434699865e-07,-5.8515394903603834e-08,-9.5556082821544e-07,5.361831142338253e-07,1.9686780536670705e-07,-8.721391396080423e-07,-3.188158901978547e-07,-2.5678112718370785e-07
-1.6764677018879933e-07,-3.8044006339896485e-07,-3.96285667553448e-08,-1.6862510612933134e-06,-5.185577088396468e-07,-4.686845278062066e-07,-7.090462294266052e-07,-2.4728603475695343e-07,-1.199834137681206e-07,8.76742385713456e-08,-2.9729865227986464e-09,-1.9481575894213496e-07,-9.732293293083749e-07,4.961287023148196e-07,7.125362518987443e-08,-9.908790767139459e-07,-3.0208125610552704e-07,-2.704363954898658e-07
-7.941238144162848e-08,-1.950662714901088e-07,4.387976023150907e-08,-1.6155840465240718e-06,-5.053193767958758e-07,-5.656135059045347e-07,-6.61786303262631e-07,-3.0660254068516713e-07,-9.924208434641151e-08,1.271687145882948e-07,9.409030034072593e-08,-3.5716150103991976e-07,-9.857030700178962e-07,4.4144774780963714e-07,-4.485839468687944e-08,-1.0893593027326812e-06,-2.827516411769712e-07,-2.818621284749007e-07
7.504622433887087e-09,-6.397201687092776e-08,1.3438636624956299e-07,-1.5288693106233745e-06,-5.118939334239701e-07,-6.5295119540311e-07,-6.322466811696862e-07,-3.682491033987312e-07,-8.516232756465194e-08,1.669170664078287e-07,1.676319362470862e-07,-5.246013305559235e-07,-9.928721139284707e-07,3.8526013671384063e-07,-1.425868609184079e-07,-1.1410647166214214e-06,-2.625727006602555e-07,-2.6855429658049674e-07
8.286367734354729e-08,-2.706694870157408e-08,2.2317169914822322e-07,-1.441186310526792e-06,-5.256078206518994e-07,-7.265315345578918e-07,-6.216072061694303e-07,-4.384060909578301e-07,-7.906326188274464e-08,2.0570373471659907e-07,2.1419419137862277e-07,-6.232039385235787e-07,-9.953558015896407e-07,3.330579884207409e-07,-2.1067600812265424e-07,-1.1023688234496656e-06,-2.414710385558411e-07,-2.3072540762267395e-07
1.3826494641762252e-07,9.82150223866711e-09,3.0217916265889957e-07,-1.3554354121942995e-06,-5.274047898228876e-07,-7.426244483718802e-07,-6.219083250643416e-07,-4.773007775294446e-07,-7.707383753436348e-08,2.427534525723905e-07,2.357193479437708e-07,-6.337142354322433e-07,-9.929845420606275e-07,3.402259941944831e-07,-2.386058828060122e-07,-1.1274039042658876e-06,-2.1891650204275544e-07,-1.9682162516892352e-07
1.7073789890922799e-07,7.575861136067576e-08,3.6672180625399313e-07,-1.2814465619911663e-06,-5.003706338282244e-07,-6.861120993717608e-07,-6.190537399350273e-07,-4.5489057921377365e-07,-7.224337474975124e-08,2.7767414018149863e-07,2.3882812499266417e-07,-6.371826056775547e-07,-9.853637405918836e-07,3.877150504166118e-07,-2.2297577806243333e-07,-1.1816239630575979e-06,-1.9396600206738172e-07,-1.439868893458446e-07
1.8302367744647234e-07,1.4341188220451074e-07,4.1645986958506753e-07,-1.1917341288296701e-06,-4.3939150852655314e-07,-5.878502407107175e-07,-6.007022483682174e-07,-4.6368397427011584e-07,-5.901218799375392e-08,3.094552649051934e-07,2.3236333240830796e-07,-6.199947510066995e-07,-9.736230846596254e-07,4.2694678403920336e-07,-1.7167694249993363e-07,-1.1695864816829093e-06,-1.670027722406889e-07,-6.738693085951356e-08
1.8139155486333975e-07,1.5858597957198882e-07,4.544441002710097e-07,-1.0928041494252546e-06,-3.549369147752499e-07,-4.919722289235465e-07,-5.630375830364224e-07,-4.0218481276631897e-07,-3.599764118679445e-08,3.357716528713947e-07,2.2497757778995854e-07,-6.112079820739709e-07,-9.614551322547828e-07,4.832796183348635e-07,-1.0150628137022968e-07,-1.1081240367740386e-06,-1.4096081683702203e-07,5.772769824640484e-09
1.7338264241880002e-07,1.3410731389602175e-07,4.852844612114548e-07,-9.967635016569528e-07,-2.6767356991248725e-07,-3.969798528012377e-07,-5.116459306379297e-07,-3.218537107080473e-07,-5.0520391993670385e-09,3.5377351978375205e-07,2.2387080057566693e-07,-5.08223353636742e-07,-9.53659421114669e-07,5.576733842667482e-07,-3.064628152249244e-08,-1.0306389746440464e-06,-1.1857607204771955e-07,4.487678456442437e-08
1.6667093266650465e-07,1.0173588504570305e-07,5.136688067713768e-07,-9.301751780361379e-07,-1.9982646180177241e-07,-3.0884590138438326e-07,-4.5722011010039505e-07,-2.67197997541354e-07,3.070754164852677e-08,3.6184287221681847e-07,2.3421143307387778e-07,-3.950316131905452e-07,-9.53884595936402e-07,6.153252138992408e-07,2.8817246427763634e-08,-9.611243073436971e-07,-1.0140581756955599e-07,7.381659336258663e-08
1.6828157957927454e-07,8.685074176558178e-08,5.434311756563849e-07,-8.9356435120156e-07,-1.675322091291723e-07,-2.6070366596208454e-07,-4.100387758850742e-07,-2.2965477796363874e-07,6.896859125891678e-08,3.606078189757145e-07,2.581347648633825e-07,-3.3335391967235795e-07,-9.626278437440702e-07,6.479210056661021e-07,7.406371495394644e-08,-9.039049710497301e-07,-8.926526767753428e-08,8.523512908031566e-08
1.82919244438969e-07,8.103176658393608e-08,5.765977175295585e-07,-8.770336125761841e-07,-1.7399142129459065e-07,-2.2768256397259003e-07,-3.7678493517531604e-07,-2.196105053233889e-07,1.0847424933931851e-07,3.520558084939659e-07,2.9312771868395556e-07,-2.7534664741073353e-07,-9.774845327711631e-07,6.685492510662982e-07,1.0943167592467133e-07,-8.801270348601596e-07,-7.889757303434029e-08,8.094392513044014e-08
2.1058054485907552e-07,1.2746777329913645e-07,6.122917566269694e-07,-8.772487861667096e-07,-2.1325155068654603e-07,-2.0776572793908184e-07,-3.602559819811272e-07,-2.2887020098953157e-07,1.4666048322398433e-07,3.37520227918033e-07,3.3127753071605373e-07,-2.4918043376669975e-07,-9.952398322087783e-07,6.81902338255535e-07,1.4116987629767942e-07,-8.821219866121904e-07,-7.038498626605205e-08,8.300383956924536e-08
2.4527249419803087e-07,2.0823590657855954e-07,6.46330823056164e-07,-8.843309919388149e-07,-2.7252570725491775e-07,-2.066438790521608e-07,-3.6030617937606176e-07,-2.5298069877830186e-07,1.8138849960957347e-07,3.166423429267785e-07,3.615689732358961e-07,-2.470150630010801e-07,-1.0136442182607936e-06,6.916112064488475e-07,1.7245730971417967e-07,-8.918859143996443e-07,-6.55486629381871e-08,9.043861192697814e-08
2.766623137282095e-07,2.9014187867480416e-07,6.725282888210215e-07,-9.037351206235644e-07,-3.371838320488763e-07,-2.1920233354673303e-07,-3.741393473277171e-07,-2.9053038760054913e-07,2.0960395006802946e-07,2.8838351455308264e-07,3.739857397842749e-07,-2.462495871396205e-07,-1.031354468833245e-06,6.975011256597527e-07,2.010557144495648e-07,-9.014883974331902e-07,-6.59928608441485e-08,9.777382755882307e-08
2.9452833329535644e-07,3.5560259236649756e-07,6.855752522118573e-07,-9.312571322767805e-07,-3.92127214237349e-07,-2.5095747501819947e-07,-3.9591120275115027e-07,-3.287340491447558e-07,2.279846853148034e-07,2.5330599911424984e-07,3.64719684524306e-07,-2.5124048883712726e-07,-1.0470098810708916e-06,6.965616713741565e-07,2.19748105452339e-07,-8.998748268744062e-07,-7.195442507193159e-08,1.0335270842527323e-07
2.934039563094339e-07,3.7997443911587277e-07,6.837892303213441e-07,-9.585866866285095e-07,-4.221785928623065e-07,-2.9812817172890443e-07,-4.17318268712612e-07,-3.6163788443532533e-07,2.3547587967166088e-07,2.1470625287042477e-07,3.379193157476537e-07,-2.464076433610048e-07,-1.0592544357244408e-06,6.83738966068288e-07,2.1831128575858995e-07,-8.872913431275062e-07,-8.121884447780549e-08,1.0985190899982004e-07
2.741672705448203e-07,3.656966258680631e-07,6.6974566209089e-07,-9.728117407912902e-07,-4.165127295629279e-07,-3.5293010136936086e-07,-4.3015833661631905e-07,-3.8210342664405204e-07,2.3269803699417505e-07,1.76758680918917e-07,3.0209707872691724e-07,-2.3285143499843303e-07,-1.067830226526612e-06,6.520377482141981e-07,1.8599853109222962e-07,-8.666767731667001e-07,-9.265091170925361e-08,1.157993707741832e-07
2.4167578765809557e-07,3.2229322032742005e-07,6.484849536421618e-07,-9.68730891222308e-07,-3.707627536716073e-07,-4.106553870457711e-07,-4.2975220647789107e-07,-3.8800443172356796e-07,2.2061626427871616e-07,1.4210611755855369e-07,2.646423656405669e-07,-2.1892988066465077e-07,-1.0747697172781203e-06,5.935909310114247e-07,1.146226769979663e-07,-8.470562375728874e-07,-1.0451737668455238e-07,1.1979615489536615e-07
2.0094870392504576e-07,2.67042055984838e-07,6.250200690932084e-07,-9.464213651616677e-07,-2.8888775529153397e-07,-4.671090518273427e-07,-4.167884109439886e-07,-3.827006891096459e-07,2.0054061885525053e-07,1.1062091041987792e-07,2.2823258375544256e-07,-2.1228778051587705e-07,-1.0841656701327802e-06,5.004098984604011e-07,2.682768497059107e-09,-8.382811013133993e-07,-1.1743469249706613e-07,1.2077306842285272e-07
1.5533030006380893e-07,2.091730771008712e-07,6.03093028365047e-07,-9.073396352280097e-07,-1.8128615525448378e-07,-5.17763011244663e-07,-3.9627541979720984e-07,-3.7094535023575647e-07,1.7467936505469927e-07,8.042324304906294e-08,1.9172048988800584e-07,-2.2038033167703232e-07,-1.1000093543793366e-06,3.7687471731158205e-07,-1.405141832223101e-07,-8.481269963441388e-07,-1.3261267389210243e-07,1.1820026139805771e-07
1.0751551016299769e-07,1.544644870335598e-07,5.853867171521527e-07,-8.579033856482023e-07,-6.189987624067432e-08,-5.570209812374461e-07,-3.746862091745355e-07,-3.560411142133439e-07,1.4618307873783505e-07,5.0204849529295086e-08,1.5336209180581453e-07,-2.4669610068482343e-07,-1.124057389005644e-06,2.388675345093358e-07,-2.9382803967841125e-07,-8.809152390798607e-07,-1.494028473983841e-07,1.12685692958741e-07
6.119622633214556e-08,1.0850205627483688e-07,5.738076374671767e-07,-8.039859398818263e-07,5.4976547445815835e-08,-5.791368904960732e-07,-3.574810692642978e-07,-3.380828486096469e-07,1.198112833617582e-07,2.0342467752488438e-08,1.1334467256922498e-07,-2.896503407371139e-07,-1.1554872219803622e-06,1.0893783456849948e-07,-4.291865830660087e-07,-9.338149306003558e-07,-1.67281629290863e-07,1.0549512335720118e-07
2.0726848621549126e-08,7.257817831932024e-08,5.687662964823296e-07,-7.517401910934032e-07,1.5612461706230077e-07,-5.826087618061475e-07,-3.483838903905103e-07,-3.177986773985085e-07,1.0084816696286965e-07,-8.030858038346229e-09,7.301965664259776e-08,-3.438080644476613e-07,-1.1922909456714043e-06,6.009401803651442e-08,-5.215343758724332e-07,-9.99426304527942e-07,-1.8598179009128835e-07,9.741202492241783e-08
-1.1338471861623626e-08,4.521939571358598e-08,5.679688260241279e-07,-7.072531830037207e-07,2.2970643326699012e-07,-5.716759871016516e-07,-3.4999506093076344e-07,-2.9792686479540235e-07,9.19276603549557e-08,-3.4868605984399367e-08,3.2534529758188725e-08,-4.0178674844092174e-07,-1.2326334285968768e-06,4.998333076856449e-08,-5.584275090495247e-07,-1.0679364741686184e-06,-2.0677446306615082e-07,8.773302511598377e-08
-3.653547022132242e-08,2.1334485842679526e-08,5.661685356628928e-07,-6.757363279889666e-07,2.675793333046247e-07,-5.556614522044741e-07,-3.641014935424176e-07,-2.824495448835588e-07,9.200392271865723e-08,-6.178989504836343e-08,-1.0082093384463348e-08,-4.561067088446304e-07,-1.2749639488639e-06,6.714682588104401e-09,-5.432673962728249e-07,-1.1269826183886465e-06,-2.3161406401970778e-07,7.512166342999633e-08
-6.031024593285933e-08,-8.60213325184176e-09,5.566833943819262e-07,-6.606753500083868e-07,2.6816349437061636e-07,-5.431850715446997e-07,-3.9073510699676836e-07,-2.751572574802933e-07,9.7381855548312e-08,-9.093120598212079e-08,-5.779392912002044e-08,-5.003487564685618e-07,-1.3174703952564961e-06,-1.758645443723305e-08,-4.909212338572614e-07,-1.1668636990124428e-06,-2.6221455521685597e-07,5.8250212179435205e-08
-8.920552500144965e-08,-5.703940434614594e-08,5.341380121228679e-07,-6.627958935028014e-07,2.375738606610151e-07,-5.385235613102711e-07,-4.2696891262986285e-07,-2.7565907813327117e-07,1.0278620706185134e-07,-1.23222739938799e-07,-1.1233422112886146e-07,-5.290588834769421e-07,-1.3569383965740821e-06,2.0068175778308497e-08,-4.1989095172737455e-07,-1.180172782089757e-06,-2.9924105575599553e-07,3.6929795146755126e-08
-1.2723609334983068e-07,-1.2872243663646437e-07,4.970622389072992e-07,-6.803857971737684e-07,1.8848551669216944e-07,-5.402590787756509e-07,-4.6741185378529253e-07,-2.8156182053787394e-07,1.0323824802049202e-07,-1.57905251613334e-07,-1.7264432161463796e-07,-5.396800321890214e-07,-1.3895042588308258e-06,8.969052980131759e-08,-3.460905406319273e-07,-1.1627508219753838e-06,-3.4150220264557556e-07,1.1959467682729819e-08
-1.7372745607389287e-07,-2.2544287896705209e-07,4.488596580494101e-07,-7.119664839169593e-07,1.3345690972189107e-07,-5.441003912775059e-07,-5.069430009645891e-07,-2.9208016216633065e-07,9.397117699249213e-08,-1.9377639593577408e-07,-2.3521950090503813e-07,-5.343904336806017e-07,-1.4139607605499345e-06,1.3303910454031153e-07,-2.802595193300953e-07,-1.1169763897971188e-06,-3.8821554032374117e-07,-1.5980646310972717e-08
-2.2394858265401535e-07,-3.328439870822879e-07,3.962626566743944e-07,-7.558425392167204e-07,7.83978747144116e-08,-5.467686366848665e-07,-5.440051456178881e-07,-3.098718118374685e-07,7.135371677061331e-08,-2.307318771838353e-07,-2.96114002467362e-07,-5.197259091036365e-07,-1.4314477199492401e-06,1.577138842511448e-07,-2.2800318592485798e-07,-1.0515886422835643e-06,-4.392208350245982e-07,-4.6956790004311815e-08
-2.720211152604021e-07,-4.346976435016544e-07,3.4595111187805125e-07,-8.125533591557117e-07,1.6940689144974774e-08,-5.486034371832516e-07,-5.818435424447376e-07,-3.399620965121564e-07,3.361821665026189e-08,-2.7009262544516277e-07,-3.5351800239356736e-07,-5.035325543940145e-07,-1.4448238556469934e-06,1.688892451088554e-07,-1.906367589851458e-07,-9.79770934117928e-07,-4.935963908106188e-07,-8.147089644098067e-08
-3.1402362952345703e-07,-5.212399580405818e-07,3.0144004236399115e-07,-8.846319761422959e-07,-5.906890997879906e-08,-5.523852639189907e-07,-6.265258809649559e-07,-3.859938434043245e-07,-1.8824952766674742e-08,-3.134491591945042e-07,-4.087102993049867e-07,-4.912270926254485e-07,-1.4568321722386448e-06,1.6164044214360922e-07,-1.6611945038915502e-07,-9.148062925889027e-07,-5.493015816990213e-07,-1.195194581266653e-07
-3.4947203387229034e-07,-5.891673740768089e-07,2.6199617406141506e-07,-9.737419052529782e-07,-1.5734822550515513e-07,-5.607390792436529e-07,-6.833067338953014e-07,-4.4721419297781394e-07,-8.329126484882747e-08,-3.611922386224564e-07,-4.6484845513784825e-07,-4.839730473851587e-07,-1.4679737085052303e-06,1.3808139501455892e-07,-1.5061986335255474e-07,-8.686041222638444e-07,-6.030404082378294e-07,-1.6008232883659492e-07
-3.8094454135115723e-07,-6.448104670816628e-07,2.2369915058450786e-07,-1.079376701121298e-06,-2.7963829114897544e-07,-5.749122447394695e-07,-7.539973067796722e-07,-5.187321222169065e-07,-1.5600913407920633e-07,-4.1236835845093086e-07,-5.248413097697741e-07,-4.804110969340534e-07,-1.4779447727359582e-06,1.0342763905541891e-07,-1.410465685597938e-07,-8.440109219121258e-07,-6.530448638425317e-07,-2.0204822307829062e-07
-4.125495381325723e-07,-6.997291744250258e-07,1.8164017088704897e-07,-1.1964394255011177e-06,-4.18782708475092e-07,-5.950896981029026e-07,-8.366940589885404e-07,-5.951185542643527e-07,-2.3360323115866637e-07,-4.655497139136136e-07,-5.892999503562799e-07,-4.800067522000532e-07,-1.4873066870692233e-06,6.307845043000784e-08,-1.3745537072410263e-07,-8.390822198299236e-07,-7.002558853468229e-07,-2.453307997497371e-07
-4.478425046720435e-07,-7.610412741123458e-07,1.3216288329816355e-07,-1.3181578278772415e-06,-5.625514336909425e-07,-6.213721881544597e-07,-9.272129213675572e-07,-6.727758711537861e-07,-3.1387170479300583e-07,-5.19569076651558e-07,-6.556782065081248e-07,-4.854291804479587e-07,-1.4985428425456352e-06,2.0221529769391677e-08,-1.4337793724680572e-07,-8.526640381870267e-07,-7.478434096363174e-07,-2.9145668754513557e-07
-4.87847783707967e-07,-8.277952336480193e-07,7.435241398955048e-08,-1.436168942829784e-06,-7.02718505251215e-07,-6.534250157214803e-07,-1.0206477872516711e-06,-7.501340761100536e-07,-3.950443373708523e-07,-5.7343169601471e-07,-7.188530295393804e-07,-5.011188053851854e-07,-1.5148940503617884e-06,-2.424242761639665e-08,-1.632722451922825e-07,-8.820713806541721e-07,-7.988678292408091e-07,-3.42644192116809e-07
-5.30231261325861e-07,-8.952979192299208e-07,1.0321141619188495e-08,-1.5432412379607868e-06,-8.32818115525501e-07,-6.896471681495471e-07,-1.1121677206083623e-06,-8.263305292968263e-07,-4.748916990167254e-07,-6.257561560368372e-07,-7.732510174047417e-07,-5.295690101765868e-07,-1.5379223558348221e-06,-6.996663141019012e-08,-1.98788103398066e-07,-9.272564779492347e-07,-8.534420940156161e-07,-4.004045792213778e-07
-5.704091295399003e-07,-9.54208232845229e-07,-5.5747313836414185e-08,-1.6391001923899328e-06,-9.489617056497761e-07,-7.268492539701811e-07,-1.1974755998711722e-06,-9.001458523557122e-07,-5.505170223728181e-07,-6.748742730359991e-07,-8.155331857083912e-07,-5.685368996789807e-07,-1.5656529571203236e-06,-1.1583841724307846e-07,-2.467619233537312e-07,-9.873768720001e-07,-9.088768538878734e-07,-4.638627087278921e-07
-6.041885681637804e-07,-9.965358902764439e-07,-1.193397307477607e-07,-1.7194138730206073e-06,-1.0577513333290374e-06,-7.623257397736359e-07,-1.2735727239078751e-06,-9.702860988842569e-07,-6.190624574494881e-07,-7.19946206059946e-07,-8.466425844265411e-07,-6.11346171696411e-07,-1.5931182144510108e-06,-1.6028754770226274e-07,-3.004030594587851e-07,-1.0593186432361394e-06,-9.61633964729974e-07,-5.301753404023411e-07
-6.3031396096598e-07,-1.0208863592782762e-06,-1.771976847921597e-07,-1.787965243756263e-06,-1.161178083839786e-06,-7.957890217693675e-07,-1.3395754391454934e-06,-1.0366055682635247e-06,-6.790391650283162e-07,-7.621038593848138e-07,-8.717423389747337e-07,-6.498447432340139e-07,-1.6148075898649467e-06,-2.0242477290129772e-07,-3.525295232153304e-07,-1.1395899341451295e-06,-1.0090615588240223e-06,-5.960637481431144e-07
-6.509780686745323e-07,-1.0305246089774885e-06,-2.2771832347015457e-07,-1.851746042716772e-06,-1.2489817091101463e-06,-8.298435425266901e-07,-1.396819150023574e-06,-1.101023599458714e-06,-7.306618552930467e-07,-8.040291322465745e-07,-8.973988550074384e-07,-6.776454529454387e-07,-1.6265899031685732e-06,-2.423995746196374e-07,-3.9841932061936067e-07,-1.2259191421512227e-06,-1.0513615631581305e-06,-6.588205773126098e-07
-6.69570995500578e-07,-1.0299413235165564e-06,-2.6997702141985854e-07,-1.915415189427747e-06,-1.3289270365394964e-06,-8.67709661557084e-07,-1.4480075361262771e-06,-1.164528172421548e-06,-7.74768361717629e-07,-8.479724489157251e-07,-9.275098076519222e-07,-6.92144921681336e-07,-1.626957478614458e-06,-2.8049666263704503e-07,-4.367483668862783e-07,-1.3173552866296111e-06,-1.0892005805087867e-06,-7.169111196243902e-07
-6.87332496443774e-07,-1.0215039634907075e-06,-3.0252273926867707e-07,-1.983180275840783e-06,-1.4056823088246665e-06,-9.107340134461663e-07,-1.4960069775179555e-06,-1.2272013875215137e-06,-8.115896743880886e-07,-8.938409433999521e-07,-9.609398523129212e-07,-6.947347858237632e-07,-1.6172328584232943e-06,-3.163645283830314e-07,-4.688739175909891e-07,-1.413553666803428e-06,-1.1220025898211463e-06,-7.700176451844363e-07
-7.019019826907193e-07,-1.0013323099890546e-06,-3.234577903747333e-07,-2.043130959581718e-06,-1.4893342116673288e-06,-9.576707849175997e-07,-1.543062233338015e-06,-1.2885765494141472e-06,-8.414175776831027e-07,-9.391576792326536e-07,-9.930014778826937e-07,-6.897466550762862e-07,-1.6009915329943102e-06,-3.496434531441768e-07,-4.975854530078458e-07,-1.5150449368102495e-06,-1.149249284512165e-06,-8.189011424259028e-07
-7.091431359893834e-07,-9.661043046494658e-07,-3.3200307254063634e-07,-2.0952599906913733e-06,-1.5837158334144461e-06,-1.0059579249332683e-06,-1.5905313959105574e-06,-1.3493010177659708e-06,-8.650650127898256e-07,-9.804408138156454e-07,-1.0190142086202903e-06,-6.832230657147865e-07,-1.5834002987535376e-06,-3.81095198041918e-07,-5.260666387410524e-07,-1.6215929628556743e-06,-1.1711929001688287e-06,-8.649829047510177e-07
-7.065653487734367e-07,-9.156113770374048e-07,-3.3010592187527584e-07,-2.1372957579700963e-06,-1.6546375218922497e-06,-1.0534691555208011e-06,-1.6385437726026021e-06,-1.411265852917018e-06,-8.844613503865932e-07,-1.015327826246971e-06,-1.0377992359263401e-06,-6.814020627264369e-07,-1.571474018891568e-06,-4.124151088119828e-07,-5.571534653015302e-07,-1.731936522236411e-06,-1.1895384620205522e-06,-9.096706173685483e-07
-6.953912665978115e-07,-8.557441140885768e-07,-3.224029176271618e-07,-2.1656991492732567e-06,-1.7104173664350053e-06,-1.0982113467561605e-06,-1.6852472120477889e-06,-1.4751182360131059e-06,-9.015278662374064e-07,-1.0433199803630803e-06,-1.0515031826301634e-06,-6.891739985162347e-07,-1.5708801202425076e-06,-4.4447503767906056e-07,-5.928485462576458e-07,-1.8430652265216703e-06,-1.2066541408546439e-06,-9.532421066566098e-07
-6.798089449838598e-07,-7.983374216181694e-07,-3.142126938822682e-07,-2.1805822110977653e-06,-1.7493529475877638e-06,-1.1376588377398454e-06,-1.7263563929151356e-06,-1.5382134625697231e-06,-9.170275487466996e-07,-1.0648404635929808e-06,-1.0627684468643075e-06,-7.093370013754423e-07,-1.5842429142202062e-06,-4.7584494368739e-07,-6.342922099269531e-07,-1.9291684843424433e-06,-1.2239574071463724e-06,-9.943641790996741e-07
-6.643129887756862e-07,-7.537953879624244e-07,-3.0889712793995593e-07,-2.1782906159932617e-06,-1.7642929374620676e-06,-1.16763715732458e-06,-1.7561356369478334e-06,-1.5943965832899001e-06,-9.297158689965008e-07,-1.0803538443275717e-06,-1.0720208162479735e-06,-7.43114906625988e-07,-1.6113370006153937e-06,-5.033444571697841e-07,-6.822067745683371e-07,-1.9893186403740536e-06,-1.2423559714809985e-06,-1.0314914801235916e-06
-6.512021227847554e-07,-7.304975085948332e-07,-3.0643883243800337e-07,-2.1657949717885256e-06,-1.7579482032688216e-06,-1.1839505609602722e-06,-1.7698743907823288e-06,-1.6375666276215235e-06,-9.368837718815688e-07,-1.0900575395929203e-06,-1.0764608238104643e-06,-7.909056209372404e-07,-1.649802043017995e-06,-5.242462202236512e-07,-7.371095986448779e-07,-2.03320390997036e-06,-1.2619151577918438e-06,-1.0640940418471363e-06
-6.39859794998531e-07,-7.259817399938851e-07,-3.041606468029299e-07,-2.1379459097040613e-06,-1.7459713188734873e-06,-1.184442790261994e-06,-1.7662499451034438e-06,-1.6648287579448688e-06,-9.361635663420189e-07,-1.0942120848296834e-06,-1.0716650823981707e-06,-8.520873429462013e-07,-1.6963224791052162e-06,-5.37761351188068e-07,-7.98397965007399e-07,-2.0572086488737433e-06,-1.2829123579431454e-06,-1.09300978957052e-06
-6.280737274374869e-07,-7.31665743369206e-07,-2.990537836066742e-07,-2.1202351009664323e-06,-1.7221394928031392e-06,-1.169911207653148e-06,-1.747568237082237e-06,-1.6772009907768141e-06,-9.267175212909125e-07,-1.093345892196522e-06,-1.0541737951028073e-06,-9.228400216903428e-07,-1.7463157986780844e-06,-5.441186892291003e-07,-8.625401483436872e-07,-2.0771455536768034e-06,-1.3042736144994724e-06,-1.1194347922706756e-06
-6.143266367667168e-07,-7.386961251187903e-07,-2.902597224731043e-07,-2.1000163215672385e-06,-1.6541801834464818e-06,-1.1440635241124326e-06,-1.7175837582816143e-06,-1.6779040714366553e-06,-9.101522987630649e-07,-1.0880583125815726e-06,-1.0237250139106693e-06,-9.93600144022594e-07,-1.7946460922808383e-06,-5.422912151028981e-07,-9.220050252632931e-07,-2.0877962392285695e-06,-1.3232755059797332e-06,-1.1433225833353899e-06
-5.996479351976654e-07,-7.415718104344223e-07,-2.803421705238763e-07,-2.0665539490565187e-06,-1.6028117475476348e-06,-1.112670123485502e-06,-1.6788582873613698e-06,-1.6703205027244948e-06,-8.907212669401988e-07,-1.0789159901772274e-06,-9.841686797546844e-07,-1.049565848395866e-06,-1.831060847042997e-06,-5.290033571505156e-07,-9.66425824210556e-07,-2.078131001671811e-06,-1.335870187155097e-06,-1.1630322242683777e-06
-5.88189685152354e-07,-7.41681499463241e-07,-2.7479359452725117e-07,-2.031621821145594e-06,-1.5443305874979117e-06,-1.0832350874544209e-06,-1.63186871469811e-06,-1.6578462905898943e-06,-8.752457423031408e-07,-1.0670700896849739e-06,-9.430661192409673e-07,-1.0749842002759753e-06,-1.8363677999137775e-06,-5.00335512372109e-07,-9.857921849772674e-07,-2.04310963449747e-06,-1.3392238873746157e-06,-1.1761912429238623e-06
-5.862075523953106e-07,-7.444986999115949e-07,-2.8006286374421066e-07,-1.968623009828452e-06,-1.4587504166464916e-06,-1.0636666995931493e-06,-1.5761524912642827e-06,-1.6453852815856265e-06,-8.71721244480643e-07,-1.0549354844039375e-06,-9.095987527245662e-07,-1.0591157637701654e-06,-1.8467948040451585e-06,-4.544061191486338e-07,-9.738666905753655e-07,-2.016496386152846e-06,-1.3334673642366113e-06,-1.181467349516932e-06
-5.995252944747009e-07,-7.556660290772305e-07,-3.00904981701769e-07,-1.891267939308629e-06,-1.4025926418403465e-06,-1.0604798874074883e-06,-1.5120600203859138e-06,-1.6392353618950362e-06,-8.8777840229822e-07,-1.045729816504773e-06,-8.910448220293937e-07,-1.0005365239446768e-06,-1.8175866795478548e-06,-3.92736723992522e-07,-9.298870533701411e-07,-1.9873021037824777e-06,-1.3214092057316787e-06,-1.179402157325448e-06
-6.30700370095849e-07,-7.760838541980305e-07,-3.3821042749331423e-07,-1.7834939057398104e-06,-1.3238677602226173e-06,-1.0759492411398893e-06,-1.4418106285634475e-06,-1.6458341573365013e-06,-9.281073732115794e-07,-1.0421295126037385e-06,-8.901378899871669e-07,-9.074197279915992e-07,-1.7809895756593903e-06,-3.197634315073429e-07,-8.580205656331475e-07,-1.9322752521376718e-06,-1.3066818055467474e-06,-1.1718723565653621e-06
-6.781690004149666e-07,-8.036092065911433e-07,-3.88541231190919e-07,-1.651617959985182e-06,-1.1877531758005422e-06,-1.1070784313880823e-06,-1.3696943355907192e-06,-1.6690057673213047e-06,-9.925848482661823e-07,-1.0453325814786663e-06,-9.054491978224064e-07,-7.94122378717946e-07,-1.7394237103399864e-06,-2.418003785848026e-07,-7.657867001687967e-07,-1.8659436025091932e-06,-1.2914317301603952e-06,-1.1606777800148773e-06
-7.383578274768215e-07,-8.351584326909383e-07,-4.4570800455399946e-07,-1.534552744596789e-06,-1.0546038410332226e-06,-1.1472235480484159e-06,-1.3017051166697884e-06,-1.707971009662479e-06,-1.0762894835774296e-06,-1.055199595354408e-06,-9.34248651967249e-07,-6.763970345520487e-07,-1.6994245488713262e-06,-1.6638764880533716e-07,-6.63013542369832e-07,-1.7700075842372603e-06,-1.276145452952021e-06,-1.1464226310886723e-06
-8.086013653437255e-07,-8.740485515118769e-07,-5.031868338024658e-07,-1.4736659414338867e-06,-9.293884344563256e-07,-1.1892883710775302e-06,-1.2444367882818633e-06,-1.7570442597082534e-06,-1.1711868905865538e-06,-1.0709123738305614e-06,-9.746282444330735e-07,-5.675768625231012e-07,-1.6652321534287855e-06,-1.0151038614555307e-07,-5.613345385958522e-07,-1.6676685263667755e-06,-1.2609429795566893e-06,-1.128661710378828e-06
-8.876417355949713e-07,-9.262839244375701e-07,-5.557127397489827e-07,-1.4373166478530131e-06,-8.156877871546717e-07,-1.2278321388238615e-06,-1.2030640414381372e-06,-1.8073078677936155e-06,-1.2679501266798827e-06,-1.0909702230971715e-06,-1.0244474626319589e-06,-4.769103725346875e-07,-1.6374755536049875e-06,-5.3794888719819905e-08,-4.7274573212891537e-07,-1.585081504280759e-06,-1.2457406707378095e-06,-1.1068739936255588e-06
-9.733237678752684e-07,-9.94695117415772e-07,-5.995483170908194e-07,-1.4164007293523883e-06,-6.75482010533817e-07,-1.2593269992693736e-06,-1.17917140946161e-06,-1.849858831498064e-06,-1.3574802091129123e-06,-1.1129449470826142e-06,-1.0792365495118202e-06,-4.094102083206023e-07,-1.6156249421087962e-06,-2.6132220567955274e-08,-4.06662218423985e-07,-1.5258328630499277e-06,-1.2310796667356408e-06,-1.0813423681591012e-06
-1.0603359313333837e-06,-1.075998160950642e-06,-6.32128897171879e-07,-1.348461366138745e-06,-5.473399710031661e-07,-1.2812288522320133e-06,-1.1697977703418167e-06,-1.878216982665364e-06,-1.4320053557574173e-06,-1.1338359787453754e-06,-1.1320168877913285e-06,-3.663725073974127e-07,-1.598229976981065e-06,-1.6502298041804246e-08,-3.671356423896763e-07,-1.4636127329696984e-06,-1.218199549714759e-06,-1.0532014994594247e-06
-1.1405908234227258e-06,-1.1650941815246376e-06,-6.519237910922673e-07,-1.2680377337704658e-06,-5.267959677933944e-07,-1.2916600354729451e-06,-1.16833552178297e-06,-1.8900373758058344e-06,-1.4859423756560716e-06,-1.1509676974139883e-06,-1.1754460893452943e-06,-3.462549525156745e-07,-1.5836017629716512e-06,-1.9004449573103965e-08,-3.5222653521000144e-07,-1.3988421496921445e-06,-1.2081516045118232e-06,-1.0238642389133795e-06
-1.2059824940751814e-06,-1.2431139817292208e-06,-6.587795609435719e-07,-1.2578057351834277e-06,-5.349699645752896e-07,-1.2899412677387855e-06,-1.166626785352633e-06,-1.886994433138835e-06,-1.5167084387463484e-06,-1.1629304234549391e-06,-1.2043318674125755e-06,-3.4572608499951804e-07,-1.5714192148151887e-06,-2.604367249717993e-08,-3.5561160878734836e-07,-1.3423715902568258e-06,-1.202328682423512e-06,-9.94632010385094e-07
-1.2512553547109264e-06,-1.3004868532908164e-06,-6.542707767553611e-07,-1.278613062376289e-06,-5.328918790069193e-07,-1.2768738607292006e-06,-1.1570139761924497e-06,-1.873039731875292e-06,-1.524764512993596e-06,-1.1698179835451245e-06,-1.2164341824743215e-06,-3.6016521276842334e-07,-1.562123410978262e-06,-3.001901203261862e-08,-3.689790058719531e-07,-1.281093084061538e-06,-1.2014590862916583e-06,-9.663397312114887e-07
-1.2750920364019262e-06,-1.3341485265337473e-06,-6.413737216661412e-07,-1.2950481979142468e-06,-5.12143154344011e-07,-1.2543053173441793e-06,-1.1336240133416196e-06,-1.8520974537325283e-06,-1.512870374135918e-06,-1.1726178579337413e-06,-1.2117592382990223e-06,-3.8382516396932417e-07,-1.5561429173459951e-06,-2.4261805352048614e-08,-3.8418680351074244e-07,-1.2304004776056216e-06,-1.2044906238224e-06,-9.390696421958582e-07
-1.2792921810834214e-06,-1.3408742075950134e-06,-6.234584311825728e-07,-1.3208884790053386e-06,-4.733761642961135e-07,-1.2242669433442845e-06,-1.0931172213116707e-06,-1.8265764510421965e-06,-1.4847850192826834e-06,-1.1723243864860283e-06,-1.1915466879412791e-06,-4.105216630941234e-07,-1.55308967291032e-06,-4.274569666248338e-09,-3.952424325045768e-07,-1.1779033861408078e-06,-1.2099968330112125e-06,-9.121177041637043e-07
-1.2671838243249994e-06,-1.3237718802932593e-06,-6.032338592205151e-07,-1.319516625427859e-06,-4.247562666518897e-07,-1.188770990805303e-06,-1.0353404142929486e-06,-1.7978348322035222e-06,-1.4442715229945542e-06,-1.1694866647940471e-06,-1.1578170769181124e-06,-4.3550313671080125e-07,-1.5520816290724091e-06,3.039605622781443e-08,-4.001013811922714e-07,-1.1117539752182125e-06,-1.2127171384976718e-06,-8.845899894940963e-07
-1.2421510489550161e-06,-1.2855751893056268e-06,-5.820545342066906e-07,-1.2962219400518002e-06,-3.6419967737359705e-07,-1.1498101473780317e-06,-9.63577512048726e-07,-1.7664378995925238e-06,-1.3946555519909512e-06,-1.1640913974157378e-06,-1.113062477091598e-06,-4.572581348385019e-07,-1.551359971180251e-06,7.497664822102937e-08,-4.0148291163712414e-07,-1.0385978241213464e-06,-1.2086169335085574e-06,-8.556608608102264e-07
-1.2063295314347817e-06,-1.2285351206020718e-06,-5.595108497521804e-07,-1.2613326078251421e-06,-3.0230514437007327e-07,-1.1090252327488906e-06,-8.836426066409298e-07,-1.7320149151873325e-06,-1.3387678091192834e-06,-1.1552082715678822e-06,-1.0594883007535003e-06,-4.780472652271382e-07,-1.5486344337753216e-06,1.2042769018586593e-07,-4.059609837707586e-07,-9.711364178492153e-07,-1.1950845770925223e-06,-8.243049046271744e-07
-1.1596389717987983e-06,-1.1425872036126845e-06,-5.333245425348301e-07,-1.2180871205233182e-06,-2.29124021224954e-07,-1.0667760259746608e-06,-8.018383187589396e-07,-1.6936841780098755e-06,-1.2784733117396484e-06,-1.14056754527706e-06,-9.980936043431393e-07,-5.031069730801032e-07,-1.5403434618596187e-06,1.561193603129511e-07,-4.2162701172244865e-07,-9.182212734790489e-07,-1.154088518992796e-06,-7.892005360344208e-07
-1.1000461133327069e-06,-1.0421170696146445e-06,-4.999643089391297e-07,-1.177883015274153e-06,-1.5293935822504622e-07,-1.0221116612728352e-06,-7.229812594270732e-07,-1.6484874877566643e-06,-1.2143165853435173e-06,-1.1169845411824833e-06,-9.286802892786174e-07,-5.391490303578618e-07,-1.5216727077296771e-06,1.7240461437026821e-07,-4.552747974342005e-07,-8.8360490926865e-07,-1.0891251066558175e-06,-7.488885395488038e-07
-1.0255845771155478e-06,-9.301992637649213e-07,-4.561422346060408e-07,-1.1430792098049341e-06,-7.176024711122707e-08,-9.741769324109822e-07,-6.497437940605994e-07,-1.5935603945282324e-06,-1.1453613479325627e-06,-1.0819990853943764e-06,-8.512337699809887e-07,-5.922520400457575e-07,-1.4884753512716514e-06,1.6245287582125708e-07,-5.096464089065622e-07,-8.725744005452936e-07,-1.0497240420193535e-06,-7.025375696682415e-07
-9.36955993031778e-07,-8.055136566405495e-07,-4.004173122537398e-07,-1.1110594434341901e-06,-8.804880254883589e-09,-9.240406895912507e-07,-5.832188611012375e-07,-1.527444258289718e-06,-1.0703681749875984e-06,-1.0355264054602216e-06,-7.673741714150827e-07,-6.647631395503114e-07,-1.438892594027636e-06,1.245336745688525e-07,-5.808167732273899e-07,-8.78563837632842e-07,-9.729479100410444e-07,-6.503653712600517e-07
-8.385185320378254e-07,-6.75947011895826e-07,-3.3375165847174596e-07,-1.0794523208553983e-06,3.731594973469953e-08,-8.756354145684403e-07,-5.234757887369948e-07,-1.4495289290039767e-06,-9.879196132552373e-07,-9.801978383485034e-07,-6.798533973622249e-07,-7.519156985128847e-07,-1.3741824688518873e-06,6.685137057765835e-08,-6.566457452231234e-07,-8.979250830192499e-07,-8.714900118416169e-07,-5.934819143285667e-07
-7.367752840691292e-07,-5.431762483692119e-07,-2.5879879292531354e-07,-1.0449872749303657e-06,8.622221630001465e-08,-8.336253934186697e-07,-4.694634946883664e-07,-1.3600588548751484e-06,-8.965255152382023e-07,-9.20205577034076e-07,-5.911035962698823e-07,-8.410105973968201e-07,-1.29815699056389e-06,3.894584196197152e-09,-7.187272319401532e-07,-9.237929261368643e-07,-7.712505583793462e-07,-5.336207435898508e-07
-6.378561433769638e-07,-4.105083422958668e-07,-1.7888767622607468e-07,-1.0058643709920587e-06,1.4102191520870647e-07,-8.023223134514753e-07,-4.190495751743744e-07,-1.2601753912983843e-06,-7.955564557558374e-07,-8.599570006305512e-07,-5.026471745135004e-07,-9.157364070503895e-07,-1.2164713664725713e-06,-4.5996466015858766e-08,-7.493463933201553e-07,-9.448798128660193e-07,-6.79084508382267e-07,-4.731173284116826e-07
-5.46212689630371e-07,-2.812400575436035e-07,-9.761798942721792e-08,-9.593974574083926e-07,2.092195267159539e-07,-7.841680442832249e-07,-3.700726645753391e-07,-1.1530978152670841e-06,-6.862241093928041e-07,-8.038849043663073e-07,-4.161644503955888e-07,-9.638345179613792e-07,-1.1364886746516405e-06,-6.761268643815703e-08,-7.404190920204456e-07,-9.552348020708965e-07,-5.938883931926804e-07,-4.147629920851524e-07
-4.650321862745307e-07,-1.6620549211956692e-07,-1.887973927321515e-08,-9.049409489786855e-07,2.833973512030604e-07,-7.800595217035783e-07,-3.218469068724169e-07,-1.0442836453113259e-06,-5.7264812378005e-07,-7.556663586820232e-07,-3.3482733262898597e-07,-9.824411589032055e-07,-1.0660000916538684e-06,-5.829821157391486e-08,-6.980868235257234e-07,-9.535574144936712e-07,-5.227717139828332e-07,-3.615707268346971e-07
-3.96794712200604e-07,-5.977187203608125e-08,5.354056054571884e-08,-8.454801299175207e-07,3.5679837345529804e-07,-7.871357820202513e-07,-2.75681229603775e-07,-9.39965708180481e-07,-4.6183407741619236e-07,-7.169172789581582e-07,-2.6254326423182524e-07,-9.767980982674712e-07,-1.0106443473639346e-06,-2.150387494108698e-08,-6.398197144934931e-07,-9.438203106657216e-07,-4.685370412949211e-07,-3.1547899910121534e-07
-3.425293710679879e-07,3.3817974281551347e-08,1.169491482295163e-07,-7.852531201350209e-07,4.244903453426974e-07,-7.985163726097448e-07,-2.3393318674033675e-07,-8.44364471509335e-07,-3.617193624357563e-07,-6.860778754417419e-07,-2.0139398526690568e-07,-9.554246499907966e-07,-9.715190034741944e-07,3.352372267847686e-08,-5.870850688260898e-07,-9.332792771840593e-07,-4.2970065899564503e-07,-2.7642080569649374e-07
-3.0053590429550373e-07,1.0930141929112434e-07,1.7046185010737577e-07,-7.298132404553697e-07,4.849740934910324e-07,-8.051703233855874e-07,-1.9860664041302697e-07,-7.59119885550713e-07,-2.782959823603574e-07,-6.587425102457972e-07,-1.4992497394642802e-07,-9.265434530725186e-07,-9.449361399133806e-07,9.417412608469195e-08,-5.584122473895532e-07,-9.295788443246753e-07,-4.018250514230068e-07,-2.429717833725016e-07
-2.665915960177898e-07,1.7070033906184317e-07,2.146446551335056e-07,-6.84245175362629e-07,5.317988775387197e-07,-7.985729883070237e-07,-1.7068258171750354e-07,-6.843702712993156e-07,-2.139019420392888e-07,-6.301959771786862e-07,-1.0444978669890708e-07,-8.973124557191223e-07,-9.248873941408211e-07,1.4684049455444688e-07,-5.646544465075298e-07,-9.391999366371838e-07,-3.7902006012798e-07,-2.1334478717508222e-07
-2.3610186342455423e-07,2.1951967761448613e-07,2.504258012973424e-07,-6.505144549271945e-07,5.551744504367211e-07,-7.744198949073402e-07,-1.5032803493041393e-07,-6.209607046076553e-07,-1.6650552833994784e-07,-5.983821457682461e-07,-6.229198936790164e-08,-8.732114998210941e-07,-9.06751423211987e-07,1.7977439388445685e-07,-6.056799680285658e-07,-9.656153212660853e-07,-3.576531518080314e-07,-1.8703124619917368e-07
-2.0626922614773822e-07,2.598486004896172e-07,2.7838519076858876e-07,-6.318786873360446e-07,5.527294156256239e-07,-7.326758718926041e-07,-1.3726676147773374e-07,-5.707161043532829e-07,-1.3117365030548596e-07,-5.649610495483426e-07,-2.39383107819346e-08,-8.553868632923318e-07,-8.8907905479483e-07,1.8925242875349684e-07,-6.685112460985593e-07,-1.0069435886656618e-06,-3.370049708961059e-07,-1.657266435448049e-07
-1.7623674965519222e-07,2.953626274254766e-07,2.9897070647382483e-07,-6.279005218030885e-07,5.219612170529487e-07,-6.769338976097122e-07,-1.3079906612093765e-07,-5.341498607324128e-07,-1.0141325764154658e-07,-5.33592458002841e-07,7.807308451150385e-09,-8.382587131608087e-07,-8.736448857075039e-07,1.8366371117873711e-07,-7.291827671998323e-07,-1.0545988800645962e-06,-3.183385211433061e-07,-1.519549917532525e-07
-1.4544058640946453e-07,3.130367362653243e-07,3.129979874425207e-07,-6.362634682044714e-07,4.6037581337105094e-07,-6.114451839519007e-07,-1.2982440194791416e-07,-5.087430861717912e-07,-7.105929578213348e-08,-5.073535001415355e-07,3.04679771071871e-08,-8.11315054151143e-07,-8.637522588354503e-07,1.849280367750873e-07,-7.601167829530964e-07,-1.0955137175070642e-06,-3.0240458462459877e-07,-1.477091937585094e-07
-1.1233832122727483e-07,3.1682928659996346e-07,3.213464201038667e-07,-6.551429236735454e-07,3.7660990043083975e-07,-5.415310991312137e-07,-1.335472575907881e-07,-4.906161213708603e-07,-3.661566090816019e-08,-4.874514551230831e-07,4.347505298347271e-08,-7.653269177203186e-07,-8.634476528038747e-07,2.110734644391648e-07,-7.406640964913983e-07,-1.1173689343342272e-06,-2.89292265682831e-07,-1.5415532981565985e-07
-7.518675596778025e-08,3.294512796790516e-07,3.236213252560735e-07,-6.823304264183259e-07,2.771253006414225e-07,-4.740528780694353e-07,-1.427431110921327e-07,-4.775264637999623e-07,1.0932137659363456e-09,-4.7402672497085587e-07,4.7391639151520767e-08,-6.981605543236221e-07,-8.774617465364045e-07,2.7019671705350403e-07,-6.651216926725976e-07,-1.114315557634202e-06,-2.805508697401203e-07,-1.7178615833534656e-07
-3.4303001388154135e-08,3.4470721083149287e-07,3.169111074819987e-07,-7.173284806419672e-07,1.697608114571136e-07,-4.178989734470426e-07,-1.6036351331344224e-07,-4.709692606039006e-07,3.661275017638104e-08,-4.677698080829738e-07,4.2102979740027586e-08,-6.160741636963733e-07,-9.097440261981998e-07,3.5531206595849925e-07,-5.437801203597333e-07,-1.0889402860972744e-06,-2.787769952878767e-07,-2.005358929777286e-07
6.424412286447793e-09,3.572964177993427e-07,2.9618323958702104e-07,-7.608624553964719e-07,5.599954069055928e-08,-3.820882941500579e-07,-1.9033096330928803e-07,-4.75142661133695e-07,6.171491679651482e-08,-4.702276162254879e-07,2.6114555874087834e-08,-5.302178637674356e-07,-9.615867114356098e-07,4.3495830206216815e-07,-3.970211655593731e-07,-1.0498340432898793e-06,-2.863943987943607e-07,-2.393418631289902e-07
4.0397215688178086e-08,3.6052273005484645e-07,2.566363307267569e-07,-8.141400237137561e-07,-6.553991337342071e-08,-3.725304512095775e-07,-2.3497179597944568e-07,-4.927937901465097e-07,6.826590080197642e-08,-4.824951418613744e-07,-2.127266432941689e-09,-4.511714361460639e-07,-1.0294361996957738e-06,4.984230515214328e-07,-2.466099490184759e-07,-1.0068518915441479e-06,-3.0395970679046303e-07,-2.8535829702525945e-07
6.088094849552142e-08,3.410932092133171e-07,1.965460179801229e-07,-8.768263496470166e-07,-1.9003350148490832e-07,-3.8873333422171615e-07,-2.9303593830674273e-07,-5.223623378838979e-07,5.148854608257461e-08,-5.037957098199582e-07,-4.254293147278838e-08,-3.852667236306357e-07,-1.1041144060745388e-06,5.404703118466962e-07,-1.0932965797413822e-07,-9.672727425910798e-07,-3.290753518983019e-07,-3.339803804667431e-07
6.311490761615395e-08,2.95150507195885e-07,1.1862659363112373e-07,-9.47881572386067e-07,-3.0872828488877405e-07,-4.2409260016377963e-07,-3.59935989392369e-07,-5.588051546187964e-07,1.1110501111567013e-08,-5.314419256068537e-07,-9.344357326864212e-08,-3.3458718332209013e-07,-1.1742561273713883e-06,5.570151539847148e-07,4.448176696129704e-09,-9.349432250456461e-07,-3.5835030520585656e-07,-3.803688145464516e-07
4.45705736048451e-08,2.5707292064906156e-07,2.9136447114090147e-08,-1.0254249716306988e-06,-4.1305323644589984e-07,-4.700457945166266e-07,-4.3009063355335066e-07,-5.970564854639276e-07,-4.9785110280994625e-08,-5.625570204399696e-07,-1.5324303991085617e-07,-2.9966443954124503e-07,-1.2303743439690098e-06,5.415844460583698e-07,8.83622624594171e-08,-9.116790527322531e-07,-3.890620833104478e-07,-4.211418749004004e-07
4.029186464752237e-09,2.1745619621164644e-07,-6.431518579367105e-08,-1.1067970434430337e-06,-4.98557514455851e-07,-5.204733672260012e-07,-4.996416847031679e-07,-6.348490807708227e-07,-1.2658455820987272e-07,-5.955005069715621e-07,-2.2189035301967445e-07,-2.8240917579558165e-07,-1.2673163162785928e-06,4.902843235729477e-07,1.3692437350650005e-07,-8.993813312618169e-07,-4.2026697360623426e-07,-4.553663022782832e-07
-5.874673158206756e-08,1.3466162021332833e-07,-1.5457152823486254e-07,-1.188951198622494e-06,-5.622594265893486e-07,-5.737411471930085e-07,-5.675178191428365e-07,-6.726330132271549e-07,-2.1443900224384314e-07,-6.305351295826139e-07,-3.002180918026127e-07,-2.871482649891178e-07,-1.2840817313027372e-06,4.0069730232932116e-07,1.441685066884998e-07,-9.010499668394163e-07,-4.515113279098871e-07,-4.841761595345809e-07
-1.419048681828932e-07,2.5903770188903016e-08,-2.354613897230623e-07,-1.2672037939619546e-06,-6.036037121866686e-07,-6.316161443233136e-07,-6.343477063157746e-07,-7.111641282905571e-07,-3.0831000037095844e-07,-6.677479239284707e-07,-3.8756456128226683e-07,-3.196293678693545e-07,-1.2817266516597188e-06,2.9207028313365403e-07,1.0463178572254035e-07,-9.20209606738301e-07,-4.812682374468921e-07,-5.093858127564411e-07
-2.400024207268781e-07,-9.98415871185913e-08,-3.016029027650196e-07,-1.3347688476740058e-06,-6.130348276029237e-07,-6.977568296858442e-07,-7.008612932022078e-07,-7.50152457961913e-07,-4.0282009116897605e-07,-7.056012690201641e-07,-4.798286834627686e-07,-3.848643191916457e-07,-1.2619289021594637e-06,2.4036023283243885e-07,1.5749717566129238e-08,-9.59759082488776e-07,-5.067853577258102e-07,-5.331425348944184e-07
-3.439294616172412e-07,-2.297621139263203e-07,-3.4859993699716325e-07,-1.3838757430113168e-06,-5.776582928817932e-07,-7.791756519560302e-07,-7.676598093146041e-07,-7.892514479905151e-07,-4.931076927353556e-07,-7.412954319004046e-07,-5.698859394673035e-07,-4.844850907143923e-07,-1.2272302296253741e-06,2.2399568793890028e-07,-1.1942616283520546e-07,-1.0211803651286506e-06,-5.258520085959541e-07,-5.572973891141444e-07
-4.429289796650899e-07,-3.381146875078775e-07,-3.740664068447015e-07,-1.4083702787196603e-06,-5.001167197831849e-07,-8.807184107670974e-07,-8.362246985269696e-07,-8.301900273610239e-07,-5.761375031207871e-07,-7.720425902047372e-07,-6.501111154713178e-07,-6.143037630990451e-07,-1.1823251644063252e-06,2.2532879316780372e-07,-2.9021591678646546e-07,-1.1038606200634025e-06,-5.38681209699176e-07,-5.836793938910433e-07
-5.27521641037073e-07,-4.170461757674953e-07,-3.78771758206841e-07,-1.406414306114414e-06,-4.142223591446544e-07,-1.006213720820266e-06,-9.093376279672552e-07,-8.767953673830548e-07,-6.5153751575707e-07,-7.967817014470887e-07,-7.150607313815495e-07,-7.632886168765456e-07,-1.1338079290894225e-06,2.0869188068601518e-07,-4.786157747243937e-07,-1.204052428695273e-06,-5.476078949512619e-07,-6.138426624838257e-07
-5.914442740816714e-07,-4.90520457126337e-07,-3.6681022475182613e-07,-1.381393757278055e-06,-3.4744196556163454e-07,-1.155289389441669e-06,-9.897149913831372e-07,-9.320147742095521e-07,-7.20799563572501e-07,-8.152859071554139e-07,-7.625716323896386e-07,-9.156589064112802e-07,-1.088619677877738e-06,1.1569313460248086e-07,-6.633983889257319e-07,-1.3139983887013163e-06,-5.549702897905418e-07,-6.480110871289731e-07
-6.318947871052361e-07,-5.518987435981022e-07,-3.445507359286744e-07,-1.3405234213507801e-06,-3.772625265123218e-07,-1.3247742117699129e-06,-1.0778171846431735e-06,-9.95635565861486e-07,-7.856265701962648e-07,-8.273292881083579e-07,-7.933281694411825e-07,-1.056139706668234e-06,-1.0518255950453876e-06,-6.92574793442454e-09,-8.270129486681893e-07,-1.4228210697423456e-06,-5.612386200620022e-07,-6.846871511379177e-07
-6.490226771151653e-07,-5.741174237602582e-07,-3.1914518617525207e-07,-1.292194239201432e-06,-5.015401853707065e-07,-1.5079763295621732e-06,-1.1709825949884037e-06,-1.0642176385507206e-06,-8.471997750556333e-07,-8.319166259573493e-07,-8.101330820078073e-07,-1.175740182475339e-06,-1.025495521546357e-06,-1.3054669096913706e-07,-9.613675875725643e-07,-1.5198928021449104e-06,-5.658251878151972e-07,-7.21105809624151e-07
-6.45763931046692e-07,-5.75797738153874e-07,-2.9724218599110056e-07,-1.2435669220680383e-06,-6.187312608986572e-07,-1.698430724215386e-06,-1.2646779238649896e-06,-1.1337602019854015e-06,-9.065273991746903e-07,-8.278354299511435e-07,-8.174199539471398e-07,-1.274376633548577e-06,-1.0096111906433878e-06,-2.236264484231777e-07,-1.0686610810473985e-06,-1.5982161653232903e-06,-5.683262842790764e-07,-7.546048274149699e-07
-6.278316835850469e-07,-5.676381498193721e-07,-2.8377437984780153e-07,-1.1992996628794605e-06,-7.273843292031655e-07,-1.8868213400631745e-06,-1.3541832133100684e-06,-1.202993218682692e-06,-9.65430731002919e-07,-8.151543870863754e-07,-8.203258632341027e-07,-1.3584113318717738e-06,-1.003275605896175e-06,-3.0950089407227136e-07,-1.1567209149454939e-06,-1.6556203684772006e-06,-5.698571455981735e-07,-7.836162649898968e-07
-6.027728221245059e-07,-5.59514666242314e-07,-2.806271533644266e-07,-1.1615088765126299e-06,-8.563247349169278e-07,-2.0401028859394827e-06,-1.4347861711360362e-06,-1.2720935285703682e-06,-1.0270048429905884e-06,-7.954475088695907e-07,-8.230332412448423e-07,-1.4343998130296015e-06,-1.0045355357191322e-06,-4.0269168635492845e-07,-1.2320853642739494e-06,-1.693293641602861e-06,-5.72455488056874e-07,-8.078443180698872e-07
-5.77786191765178e-07,-5.67071019184126e-07,-2.8575091790748894e-07,-1.1306219417004104e-06,-9.83131739760684e-07,-2.1514132599692193e-06,-1.5010247026213234e-06,-1.3396595097147156e-06,-1.0920528504018061e-06,-7.711985181580437e-07,-8.267362365654439e-07,-1.503037043957741e-06,-1.010378050251607e-06,-4.980326131714699e-07,-1.295485036716598e-06,-1.7132312029690987e-06,-5.7740917497739e-07,-8.275144057184628e-07
-5.575749604284993e-07,-5.901236042118041e-07,-2.937111172725692e-07,-1.106579224921924e-06,-1.197854633691458e-06,-2.1743330575644645e-06,-1.5471029776755847e-06,-1.4015681418834558e-06,-1.1588730119351486e-06,-7.446958646904427e-07,-8.294695186732271e-07,-1.5575377814123662e-06,-1.0168152746484923e-06,-6.010017139185721e-07,-1.3422397106769456e-06,-1.7168734415291005e-06,-5.850954817208124e-07,-8.428570376012705e-07
-5.437795623179488e-07,-6.179728343819961e-07,-2.979689096095174e-07,-1.0897363266154687e-06,-1.3532039154121844e-06,-2.156180125070645e-06,-1.5691883166764309e-06,-1.4529798935096378e-06,-1.2239315304995015e-06,-7.182929360180028e-07,-8.281716680570541e-07,-1.5874379465620106e-06,-1.0202052002010816e-06,-6.657647090622739e-07,-1.3662147331207434e-06,-1.7054527521062172e-06,-5.949294852408947e-07,-8.541760862134043e-07
-5.360702226443252e-07,-6.494251490423308e-07,-2.9386857531563427e-07,-1.0809834721192911e-06,-1.4594140150391512e-06,-2.182510893609554e-06,-1.567999693455769e-06,-1.4916815369193081e-06,-1.2827272787590543e-06,-6.942419971760637e-07,-8.212739033510718e-07,-1.5847242811773777e-06,-1.019046409066558e-06,-6.949857190735975e-07,-1.3637320146774619e-06,-1.6809276970548704e-06,-6.066114446748259e-07,-8.621091550826913e-07
-5.335247830912407e-07,-6.898914883104143e-07,-2.8058348630350073e-07,-1.0810864113703415e-06,-1.5548004965444144e-06,-2.2425128286731677e-06,-1.549494530317468e-06,-1.5190471921750595e-06,-1.3316526082064604e-06,-6.747021368821033e-07,-8.097273537798922e-07,-1.5476761215665377e-06,-1.0140902216756752e-06,-6.983115739908186e-07,-1.3349072756700064e-06,-1.6459510337694184e-06,-6.193751877733809e-07,-8.673975134510181e-07
-5.350379713790491e-07,-7.345378940518678e-07,-2.608898517124832e-07,-1.089759813041595e-06,-1.5940697638857746e-06,-2.228566201996091e-06,-1.522822900104461e-06,-1.53768899546092e-06,-1.3684422480465354e-06,-6.611526811562013e-07,-7.956331213565637e-07,-1.4808136199822734e-06,-1.0069220878599093e-06,-6.784758563773058e-07,-1.282951888812533e-06,-1.6028196922426156e-06,-6.310840310291165e-07,-8.701412853542286e-07
-5.388901617489087e-07,-7.820510057658291e-07,-2.392343784427489e-07,-1.1051876179265893e-06,-1.619376984173396e-06,-2.1685647510075797e-06,-1.4967501427899709e-06,-1.5487029172874648e-06,-1.3922499015298026e-06,-6.533139339234221e-07,-7.801838507533401e-07,-1.3926794556455648e-06,-9.984670296887043e-07,-6.416480702975477e-07,-1.2135777339576463e-06,-1.5526131646541513e-06,-6.384481325192329e-07,-8.695412310761689e-07
-5.426379467154402e-07,-8.315462189231496e-07,-2.1968374814497547e-07,-1.1244227266580896e-06,-1.637395463814389e-06,-2.091924676691514e-06,-1.4766925238672015e-06,-1.5515003852775074e-06,-1.403722803120737e-06,-6.494614604187796e-07,-7.630377704930825e-07,-1.2938685678424736e-06,-9.889298323406667e-07,-5.956123629894171e-07,-1.135159656694683e-06,-1.495783185710152e-06,-6.385540997678165e-07,-8.646119433743648e-07
-5.440491508249736e-07,-8.798057313853345e-07,-2.0496319003812885e-07,-1.1444449890038894e-06,-1.6029029999982822e-06,-2.011953245377318e-06,-1.4637145832925242e-06,-1.5456036724057722e-06,-1.4049626029574583e-06,-6.475927031456121e-07,-7.435871815278644e-07,-1.1961517783809919e-06,-9.784681169553661e-07,-5.454690682836852e-07,-1.0581755934145377e-06,-1.4337104672718985e-06,-6.306202133303019e-07,-8.549671501729427e-07
-5.423927028357254e-07,-9.266553133901433e-07,-1.9650347873783818e-07,-1.16314649751417e-06,-1.5108953241799301e-06,-1.9289672179489654e-06,-1.4553961496934798e-06,-1.5325463984326556e-06,-1.3997821365037529e-06,-6.46403793922957e-07,-7.223040099042577e-07,-1.1117626977097257e-06,-9.682469851273677e-07,-5.001757461191009e-07,-9.925517094627325e-07,-1.3694048216011499e-06,-6.163095916817883e-07,-8.412760369865859e-07
-5.386557238950476e-07,-9.715295991365636e-07,-1.945744756619245e-07,-1.1796023835925253e-06,-1.4366351576653078e-06,-1.8717829249633326e-06,-1.4476098058173317e-06,-1.5155642660675438e-06,-1.392131242796652e-06,-6.45308933081424e-07,-7.005752665075758e-07,-1.051801217264466e-06,-9.5962619354125e-07,-4.779115880593179e-07,-9.438655539714791e-07,-1.3064362265100394e-06,-5.984293062611687e-07,-8.246755447384533e-07
-5.342748979080301e-07,-1.012401619194292e-06,-1.9801913298347264e-07,-1.1935770755330277e-06,-1.3768771841874657e-06,-1.8351684152809432e-06,-1.4361873874938744e-06,-1.4972564147066594e-06,-1.3847603381046452e-06,-6.435464477327718e-07,-6.792253405821155e-07,-1.0239117064179273e-06,-9.529091704998039e-07,-4.785413335050928e-07,-9.112213777506533e-07,-1.2472945849115603e-06,-5.792443614505331e-07,-8.057765432322263e-07
-5.29678748844926e-07,-1.0463388274734168e-06,-2.041593190915208e-07,-1.2047572534530954e-06,-1.3155321612177087e-06,-1.8041795045537357e-06,-1.4179533545138667e-06,-1.4784129725346385e-06,-1.3785465326670798e-06,-6.397203946278611e-07,-6.573815054356918e-07,-1.0303644949082208e-06,-9.473224609100827e-07,-5.013541943464918e-07,-8.885133660444873e-07,-1.1923640315078292e-06,-5.602109160249105e-07,-7.845928142111549e-07
-5.241513386754854e-07,-1.070133305665966e-06,-2.0955908307382124e-07,-1.2122413800069778e-06,-1.276287164335663e-06,-1.7752309668262142e-06,-1.391190004105639e-06,-1.4588889787817273e-06,-1.3725263839364835e-06,-6.325375061675236e-07,-6.330731755141312e-07,-1.071514410197436e-06,-9.420504434227397e-07,-5.396090142186082e-07,-8.677242130464176e-07,-1.1402355759372918e-06,-5.430245998350998e-07,-7.612951217830233e-07
-5.169210215128287e-07,-1.0814877322068631e-06,-2.1134515062073786e-07,-1.2144622620676604e-06,-1.2473039946115368e-06,-1.7399368368448383e-06,-1.3555604829598253e-06,-1.4386612794649687e-06,-1.3650040527483415e-06,-6.218446391418868e-07,-6.049440062334906e-07,-1.1354312140442745e-06,-9.373362857906553e-07,-5.777783849545671e-07,-8.413719053075335e-07,-1.0884409122200755e-06,-5.299637664279517e-07,-7.368901630830812e-07
-5.080179368103988e-07,-1.0794768411428108e-06,-2.0812154129528518e-07,-1.2094137688984353e-06,-1.210513094706861e-06,-1.70100864401016e-06,-1.311136406157237e-06,-1.4177562890251441e-06,-1.3539006956102817e-06,-6.088188275429589e-07,-5.731393972074185e-07,-1.1997110949604667e-06,-9.347194766442226e-07,-5.842271050003378e-07,-8.027366235833918e-07,-1.033841622773963e-06,-5.232177082807517e-07,-7.130129783059778e-07
-4.979537138948715e-07,-1.0640106556420051e-06,-1.9995419904918575e-07,-1.1950749828776497e-06,-1.1612101238039986e-06,-1.6585885558888188e-06,-1.2566864049946013e-06,-1.3951836036893753e-06,-1.3374802349929077e-06,-5.95068786375868e-07,-5.387833552576521e-07,-1.246646263035097e-06,-9.35185287112286e-07,-5.525336451616994e-07,-7.450569700870527e-07,-9.726757264063686e-07,-5.233736013576346e-07,-6.911268712851167e-07
-4.868385445609214e-07,-1.035152194497822e-06,-1.8778444850244014e-07,-1.1701314942610752e-06,-1.0875456485985935e-06,-1.6061237911275682e-06,-1.1885707814185505e-06,-1.3682949092456389e-06,-1.3139071161006421e-06,-5.817830155472798e-07,-5.031068739187092e-07,-1.2130304598802863e-06,-9.382181914362455e-07,-4.436126996682512e-07,-6.618741056573507e-07,-9.008191608788551e-07,-5.28907493235024e-07,-6.718447780818442e-07
-4.741360271254504e-07,-9.932171384461979e-07,-1.7298816869050638e-07,-1.1350089696910895e-06,-9.876117413955026e-07,-1.5357987071309204e-06,-1.1018150954358361e-06,-1.3344183911726433e-06,-1.2817645443866757e-06,-5.695913841016058e-07,-4.6751587519378977e-07,-1.0737448037483426e-06,-9.421954354686807e-07,-3.698132464031805e-07,-5.49370659218679e-07,-8.149950635432621e-07,-5.375546627901176e-07,-6.550040733048167e-07
-4.596165349362763e-07,-9.396967425272557e-07,-1.5736882582313713e-07,-1.0927165681836957e-06,-8.677556736305476e-07,-1.442698077473477e-06,-9.93423168884395e-07,-1.2932162395529104e-06,-1.2410055625317123e-06,-5.593714113835119e-07,-4.3418610071156997e-07,-1.0090489581364654e-06,-9.453505465888741e-07,-3.573762358129074e-07,-4.0919134589261e-07,-7.144861923473663e-07,-5.47288304045641e-07,-6.401200219138646e-07
-4.441792417781424e-07,-8.781898131288571e-07,-1.4317516471935922e-07,-1.0486144523552167e-06,-7.403505349834428e-07,-1.3289421927373378e-06,-8.65827891878057e-07,-1.247244582191651e-06,-1.1930935501947381e-06,-5.521626171762297e-07,-4.0574180990827044e-07,-9.204606687410282e-07,-9.465801947732094e-07,-2.260509948839215e-07,-2.4920428740476483e-07,-6.015909600570988e-07,-5.566737659420808e-07,-6.266392539669346e-07
-4.2971497839217917e-07,-8.142269399025409e-07,-1.3258374785302552e-07,-1.0087186918978578e-06,-6.188114640748712e-07,-1.2039390185877453e-06,-7.276987622824108e-07,-1.200508145608004e-06,-1.1406411046194316e-06,-5.486116581780201e-07,-3.8376782300453104e-07,-7.319098640029692e-07,-9.451643530952829e-07,-4.9154350661527825e-08,-8.110331228575017e-08,-4.808083580590309e-07,-5.642120153082037e-07,-6.139756368374994e-07
-4.1811169537735576e-07,-7.536830420007819e-07,-1.2677912153629448e-07,-9.773951118278279e-07,-5.131649766053954e-07,-1.0804154280204905e-06,-5.912130013043188e-07,-1.156482398355286e-06,-1.0865847386233665e-06,-5.483181197741615e-07,-3.6767761924812466e-07,-4.993098340718607e-07,-9.404951797685606e-07,9.692025747074423e-08,8.367131762587605e-08,-3.5726387033755477e-07,-5.688075737975391e-07,-6.01424215191562e-07
-4.104585585044559e-07,-7.010289551392457e-07,-1.2551054357772308e-07,-9.559364754892758e-07,-4.3187829898507316e-07,-9.695091564659829e-07,-4.6776363243453515e-07,-1.1175739120545637e-06,-1.0334182168779638e-06,-5.499474744745853e-07,-3.546890832949534e-07,-3.196970588448745e-07,-9.323490519250065e-07,2.566155013616196e-07,2.370032144054063e-07,-2.357102454908589e-07,-5.702185654184964e-07,-5.886147843452839e-07
-4.0736191973429947e-07,-6.589414840243851e-07,-1.2769797521022256e-07,-9.427564866384496e-07,-3.770524314805659e-07,-8.778542214091571e-07,-3.64860121007044e-07,-1.0849923163348894e-06,-9.830130659234123e-07,-5.52302044663081e-07,-3.4214729951588936e-07,-1.8421876735656886e-07,-9.214576365685703e-07,3.8876440172052315e-07,3.747366420553818e-07,-1.203798738351767e-07,-5.694539648696016e-07,-5.757280214062981e-07
-4.096062544414448e-07,-6.290854752949032e-07,-1.3247321488431122e-07,-9.346644761364718e-07,-3.46370237515458e-07,-8.072357654460679e-07,-2.850942447798566e-07,-1.059036505283798e-06,-9.368243198114568e-07,-5.543258152022897e-07,-3.289449499678114e-07,-7.938793206135874e-08,-9.089372650666198e-07,4.862861831183858e-07,4.956307166024285e-07,-1.4478908322907347e-08,-5.678934132071225e-07,-5.632120389005794e-07
-4.1792742322397087e-07,-6.124448631316763e-07,-1.3953309196086853e-07,-9.281685379220951e-07,-3.3503891875062917e-07,-7.551699388208094e-07,-2.2639574828082948e-07,-1.0398514623716915e-06,-8.962373795149655e-07,-5.559458488720106e-07,-3.153814992564168e-07,-4.348781128437546e-09,-8.953657455884789e-07,5.62850355211304e-07,6.001778561959633e-07,8.078687627473563e-08,-5.655894220516911e-07,-5.512181481768098e-07
-4.3184435863278424e-07,-6.085326250651099e-07,-1.4859875071019606e-07,-9.202630329672707e-07,-3.349684557084501e-07,-7.161015124855403e-07,-1.831204332697296e-07,-1.025690652174408e-06,-8.622595400859104e-07,-5.567248935302358e-07,-3.023627794879558e-07,5.033988130097273e-08,-8.803886028368345e-07,6.07875736073576e-07,6.89912680051629e-07,1.6669762238902273e-07,-5.603847784712508e-07,-5.390865456150294e-07
-4.49028684858681e-07,-6.146752165969462e-07,-1.5883778221290937e-07,-9.089250820907465e-07,-3.4352279891425574e-07,-6.834281833362806e-07,-1.4811076159563323e-07,-1.0146412524583085e-06,-8.341466128775157e-07,-5.556934896622812e-07,-2.906467907581496e-07,9.439393169811641e-08,-8.632581409928122e-07,6.379495341818931e-07,7.668528062464505e-07,2.4610252403349995e-07,-5.501271217152968e-07,-5.258752112838488e-07
-4.661379290215393e-07,-6.2660812642722e-07,-1.6895981954472258e-07,-8.936334503723914e-07,-3.5286127505314853e-07,-6.520265222229316e-07,-1.1526791598447903e-07,-1.005689718157709e-06,-8.112794160134017e-07,-5.526533029686455e-07,-2.8100817172651576e-07,1.3459733869382558e-07,-8.439140654106276e-07,6.548280386619026e-07,8.329881512198654e-07,3.216185982673444e-07,-5.342785080400911e-07,-5.112364655208725e-07
-4.803640312850822e-07,-6.398840609179059e-07,-1.7770853560216785e-07,-8.75679663217951e-07,-3.530045811675943e-07,-6.196141139770536e-07,-8.135096775165543e-08,-9.98142793731321e-07,-7.922557491980844e-07,-5.472638134099392e-07,-2.739210185231575e-07,1.737266539027705e-07,-8.231884872790558e-07,6.569048166232008e-07,8.903974533975197e-07,3.938002631193144e-07,-5.142529124871425e-07,-4.958142329856566e-07
-4.90210527765233e-07,-6.505576009415753e-07,-1.8401978557803285e-07,-8.578130535025541e-07,-3.4784781845822863e-07,-5.866494285293949e-07,-4.6122351025662925e-08,-9.91284240304603e-07,-7.746136033766701e-07,-5.396043470842992e-07,-2.690794764709809e-07,2.1164144713867593e-07,-8.019428341581091e-07,6.501658170628595e-07,9.420434818742402e-07,4.6243234653155524e-07,-4.925496662153091e-07,-4.808659978710085e-07
-4.947776242159367e-07,-6.546585709926188e-07,-1.867886453873246e-07,-8.433314446927448e-07,-3.4139863838916363e-07,-5.548788758808782e-07,-1.1383479888492994e-08,-9.837957071983633e-07,-7.561541007269695e-07,-5.300609807226608e-07,-2.6499415552593486e-07,2.4711103077118424e-07,-7.800561372486008e-07,6.430902484064092e-07,9.921098373051332e-07,5.264360502265423e-07,-4.7138118579665396e-07,-4.6768502208296303e-07
-4.931199974442778e-07,-6.476514597356779e-07,-1.8491390365044513e-07,-8.353520174463025e-07,-3.3798218577572225e-07,-5.267690135718352e-07,1.9783740355194475e-08,-9.749495419045725e-07,-7.350878626156589e-07,-5.193408878781017e-07,-2.599028967537462e-07,2.788455842738477e-07,-7.563526544292114e-07,6.409224623752181e-07,1.0448210679305394e-06,5.839597131950181e-07,-4.523685799665916e-07,-4.573122314330382e-07
-4.845172400899414e-07,-6.251507592705947e-07,-1.7791885901687008e-07,-8.36722307060175e-07,-3.437494405849657e-07,-5.054583570971162e-07,4.316381234756142e-08,-9.661883722569889e-07,-7.108496396974319e-07,-5.090260459756859e-07,-2.529977850519256e-07,3.0548613227483907e-07,-7.296872524814293e-07,6.516408959518834e-07,1.102288890060388e-06,6.318978559238784e-07,-4.366042196758854e-07,-4.510190998721299e-07
-4.692723189507885e-07,-5.847572707013114e-07,-1.666175200553959e-07,-8.501773838630702e-07,-3.613336675273718e-07,-4.949093935770459e-07,5.3850229108404235e-08,-9.619139085177539e-07,-6.854780267821953e-07,-5.017744285505517e-07,-2.4527332007837045e-07,3.254853215050239e-07,-7.00060375251792e-07,6.760775659846381e-07,1.163066640550624e-06,6.658509424298077e-07,-4.2548579081992e-07,-4.500097353203438e-07
-4.492885518962418e-07,-5.277280807829225e-07,-1.5325013582470184e-07,-8.780417263177346e-07,-3.89802335370786e-07,-4.986344339865984e-07,4.768473363798403e-08,-9.67464946514407e-07,-6.634064344102436e-07,-5.014794550974411e-07,-2.395986807900595e-07,3.375378002934564e-07,-6.689802743591804e-07,7.11223276794543e-07,1.2222998536865114e-06,6.821299600066968e-07,-4.2031526503586245e-07,-4.5479542222579525e-07
-4.27943022475653e-07,-4.5973878266454297e-07,-1.4114857182344252e-07,-9.213364483679588e-07,-4.279008885795049e-07,-5.180613022314932e-07,2.3032130363989657e-08,-9.8698214015874e-07,-6.495875660927563e-07,-5.103558696153954e-07,-2.405534927172948e-07,3.410904958797386e-07,-6.393156048818511e-07,7.46615370260933e-07,1.2728604303180405e-06,6.78751431041724e-07,-4.2228994228035955e-07,-4.6481105947059697e-07
-4.097596504749113e-07,-3.906964625044945e-07,-1.342789053652575e-07,-9.78846811999768e-07,-4.73759316855341e-07,-5.520660920702732e-07,-1.8292885530821595e-08,-1.022504981144147e-06,-6.484085711186378e-07,-5.297614275153543e-07,-2.511565678262196e-07,3.3628442904307535e-07,-6.150500608128301e-07,7.703559015513675e-07,1.306657484660265e-06,6.558044730464228e-07,-4.3450144474732995e-07,-4.788186988070745e-07
-3.9996056134840695e-07,-3.333032394651795e-07,-1.3663718655299022e-07,-1.046779264819175e-06,-5.22427872306568e-07,-5.971145182491105e-07,-7.126210025795955e-08,-1.0730058129902726e-06,-6.625700055272213e-07,-5.603896171715878e-07,-2.729199906587644e-07,3.236033590288871e-07,-6.006179801704833e-07,7.747048963776617e-07,1.3161485170724746e-06,6.143924175859895e-07,-4.5787995103122995e-07,-4.955410723232175e-07
-4.033736642460225e-07,-3.000469484861662e-07,-1.5121758201601746e-07,-1.1191688920426274e-06,-5.700176850803276e-07,-6.479872572913133e-07,-1.285599963756773e-07,-1.1343637457975808e-06,-6.91952307903969e-07,-6.016127151764982e-07,-3.080061960909781e-07,3.0386721646986966e-07,-5.996063947080653e-07,7.551646812239558e-07,1.2962119476243596e-06,5.560913726146584e-07,-4.9095996037089e-07,-5.140310350023325e-07
-4.2256078845332943e-07,-2.9910759198538173e-07,-1.786892437196796e-07,-1.1888750065111682e-06,-6.128558227874444e-07,-6.980954449394644e-07,-1.819800682506373e-07,-1.1995955339488708e-06,-7.337147062801286e-07,-6.553088603495953e-07,-3.564042308810975e-07,2.7842123194869034e-07,-6.131960718640161e-07,7.151430246701953e-07,1.2457392078162816e-06,4.838575051737361e-07,-5.332408459697664e-07,-5.338365931000301e-07
-4.563444306286709e-07,-3.31130529102932e-07,-2.165197748963551e-07,-1.2490753735714253e-06,-6.467674061360581e-07,-7.406962042206959e-07,-2.2438694613078527e-07,-1.2601599083323432e-06,-7.833178881037419e-07,-7.19294678546491e-07,-4.1771531275851467e-07,2.4877672375214726e-07,-6.395538483339931e-07,6.603154706617659e-07,1.1679851187781083e-06,4.0100335370551803e-07,-5.820053810053281e-07,-5.543215846836184e-07
-5.000125157043653e-07,-3.8896233867090215e-07,-2.592383738268975e-07,-1.2951218920388217e-06,-6.696895396931894e-07,-7.698965325387374e-07,-2.5183769110808934e-07,-1.309076542676663e-06,-8.35425198520469e-07,-7.889216499413217e-07,-4.87233655868936e-07,2.15564039417988e-07,-6.747887556881808e-07,5.969851075674763e-07,1.0696084478361923e-06,3.1184167926280904e-07,-6.36292250520736e-07,-5.754235724304473e-07
-5.470413161838327e-07,-4.604262731517599e-07,-3.0007980093032407e-07,-1.3262170794446748e-06,-6.813730123010044e-07,-7.815088114282749e-07,-2.648641940935363e-07,-1.3424799432185132e-06,-8.848672477394716e-07,-8.51983005428004e-07,-5.586497968758161e-07,1.7763664000520558e-07,-7.14239678384704e-07,5.291937883965576e-07,9.593614522307983e-07,2.2095790790372896e-07,-6.918616842386847e-07,-5.972108805167597e-07
-5.910453141912607e-07,-5.321021567920231e-07,-3.31676761235563e-07,-1.3461795916547593e-06,-6.878793270659396e-07,-7.726629814544718e-07,-2.6810947556741634e-07,-1.3593820852461789e-06,-9.260889229245752e-07,-8.997326646156457e-07,-6.149178704217657e-07,1.321721852329439e-07,-7.530698264990573e-07,4.597397628083642e-07,8.473090165361024e-07,1.3209962965748847e-07,-7.418703533410936e-07,-6.196920792833735e-07
-6.269176999718426e-07,-5.921587274382131e-07,-3.477317067191134e-07,-1.3629463090391031e-06,-7.004672699994074e-07,-7.409815366961984e-07,-2.684344849604678e-07,-1.3604015688648089e-06,-9.529414328960185e-07,-9.151402680390646e-07,-6.352106213804445e-07,7.565051057711152e-08,-7.869298634605715e-07,3.903265238479502e-07,7.445072892213876e-07,4.851418852757389e-08,-7.663077537925489e-07,-6.417999229782873e-07
-6.513157224278385e-07,-6.319830551121538e-07,-3.4421183201338737e-07,-1.3885933798121658e-06,-7.288246197200519e-07,-6.845686086403006e-07,-2.725102062501879e-07,-1.346789517680853e-06,-9.587905937472083e-07,-9.03551758377352e-07,-6.246756160492005e-07,4.980471322108257e-09,-8.12333447707177e-07,3.217442178426102e-07,6.624231209764127e-07,-2.7393130341467364e-08,-7.519998559053183e-07,-6.614943602911352e-07
-6.631548867861221e-07,-6.47348725065202e-07,-3.200510150624083e-07,-1.4306164772289018e-06,-7.812328530225581e-07,-6.03634593663038e-07,-2.848652553547359e-07,-1.3204315922577556e-06,-9.37453834162203e-07,-8.90029591935348e-07,-6.245844556353557e-07,-8.141491072478413e-08,-8.275601471273808e-07,2.5538397408371853e-07,6.116210908471835e-07,-9.331697170267965e-08,-7.044834927498643e-07,-6.761690769318803e-07
-6.639370801592796e-07,-6.394223316383222e-07,-2.777782391395468e-07,-1.4983389472092549e-06,-8.609331258373233e-07,-5.02217519986694e-07,-3.0657373323873556e-07,-1.2832787541525865e-06,-8.856324923537894e-07,-8.744667879780094e-07,-6.34773357553064e-07,-1.8226868474751636e-07,-8.333451831737058e-07,1.9481648450628663e-07,5.997437778391073e-07,-1.4649684481292566e-07,-6.678852610071139e-07,-6.827165471905281e-07
-6.574492776830694e-07,-6.149582746465268e-07,-2.2287361788449915e-07,-1.5951938965876946e-06,-9.630745993546705e-07,-3.885070875921812e-07,-3.3460494449590876e-07,-1.2370618907187884e-06,-8.05333963939724e-07,-8.416869601056059e-07,-6.364520639838674e-07,-2.9247628741016725e-07,-8.32435116642142e-07,1.436445470749716e-07,6.289034907377559e-07,-1.832946431395951e-07,-6.670150091206475e-07,-6.782627991773863e-07
-6.485491403770067e-07,-5.846541497183787e-07,-1.6242098443383295e-07,-1.716571855755131e-06,-1.075789379290268e-06,-2.738082643034443e-07,-3.6254594558896094e-07,-1.1832141639713505e-06,-7.05201944865408e-07,-8.070492147398253e-07,-5.968641558228541e-07,-4.0382793147365865e-07,-8.288296538563508e-07,1.0594904739826725e-07,6.930614876059918e-07,-2.0082090935340637e-07,-6.53721631746527e-07,-6.610359671560829e-07
-6.414401773037085e-07,-5.593650171060225e-07,-1.0339298118571364e-07,-1.8551585661766147e-06,-1.1832117432435125e-06,-1.7039056710052245e-07,-3.8322748797067166e-07,-1.1241629443892017e-06,-5.996775837737439e-07,-7.47962310126479e-07,-5.553899884543433e-07,-5.076372385865787e-07,-8.266954559059667e-07,8.149446581046525e-08,7.772350754056905e-07,-2.0000091495464597e-07,-5.959098946373012e-07,-6.317237460651671e-07
-6.381897438087122e-07,-5.458872070856079e-07,-5.148607964079171e-08,-1.9967176070776152e-06,-1.270013252576094e-06,-8.843950415544316e-08,-3.9200770972333276e-07,-1.0640944824214916e-06,-5.052822070804592e-07,-6.602898145137567e-07,-5.073410657125849e-07,-5.974603206008236e-07,-8.293712846128913e-07,6.896271194792642e-08,8.603705428056519e-07,-1.8673616644192478e-07,-5.230701307474648e-07,-5.936172419664347e-07
-6.38523020349223e-07,-5.457701672982717e-07,-1.012262832032931e-08,-2.1269389709326617e-06,-1.3260787400685428e-06,-3.275143962226921e-08,-3.8831413532098947e-07,-1.0071504034575395e-06,-4.3482640517779456e-07,-5.679648207085218e-07,-4.643163285372048e-07,-6.70142308965818e-07,-8.400924506751511e-07,6.829698754141275e-08,9.211701746887265e-07,-1.7003889120125874e-07,-4.550002833998406e-07,-5.52342047203924e-07
-6.412116744477312e-07,-5.584130081334374e-07,1.85538784826315e-08,-2.2208435752732306e-06,-1.3484835032955322e-06,-1.417599869540513e-09,-3.74590194986347e-07,-9.551458333946438e-07,-3.9340689816056806e-07,-5.081646904364216e-07,-4.5119666879354753e-07,-7.254392136781933e-07,-8.600261608878086e-07,7.613829785252202e-08,9.438775522331588e-07,-1.5781853725176848e-07,-4.082895513964978e-07,-5.118962073310441e-07
-6.455752157466975e-07,-5.845482911408182e-07,3.361102359530075e-08,-2.2729410718670605e-06,-1.3393100479249589e-06,1.2477224293529479e-08,-3.542917403869495e-07,-9.07300853397387e-07,-3.786481064675431e-07,-4.4824131956973126e-07,-4.676370566618281e-07,-7.656747450678765e-07,-8.896268843908212e-07,8.94018117873649e-08,9.216890991424438e-07,-1.541412290043548e-07,-4.1030612041969496e-07,-4.7601383382960256e-07
-6.514542327684608e-07,-6.256498143905261e-07,3.529815875738185e-08,-2.2975513871729664e-06,-1.3047359955438506e-06,1.7258505852147822e-08,-3.308845990751963e-07,-8.63476600699834e-07,-3.8394699411541395e-07,-4.2006056831175525e-07,-4.823141948986809e-07,-7.957600736385376e-07,-9.322559721542439e-07,1.1203471402480838e-07,8.574760542073613e-07,-1.5946843433834717e-07,-4.0951714027889754e-07,-4.4708589792231354e-07
-6.579151466925597e-07,-6.803044593569812e-07,2.4766899687060283e-08,-2.33296425059165e-06,-1.2542980489907923e-06,1.9966392089715375e-08,-3.073699014884438e-07,-8.262905017744149e-07,-4.019276371918534e-07,-4.195244869486859e-07,-4.864367341324539e-07,-8.223634415663895e-07,-9.907100227078329e-07,1.459350597914106e-07,7.6233261271782e-07,-1.7152149884290146e-07,-4.0460988424549717e-07,-4.318111738197107e-07
-6.624116858572125e-07,-7.42069372815637e-07,4.32028065045031e-09,-2.3668284292700464e-06,-1.1984522107034237e-06,2.5230866465669955e-08,-2.8562633432963943e-07,-8.007658150670322e-07,-4.2639578550809834e-07,-4.59600406527894e-07,-4.732092911120486e-07,-8.516480273772326e-07,-1.0662773318667967e-06,1.9062184038083602e-07,6.523619082263298e-07,-1.868183035734076e-07,-4.0269728775909566e-07,-4.308021775578375e-07
-6.613735749486924e-07,-8.008060973988244e-07,-2.2696378373794066e-08,-2.339867967048589e-06,-1.1462244891629657e-06,3.484186207979081e-08,-2.6606490944187867e-07,-7.91895974653123e-07,-4.5322604777525087e-07,-5.080381762617291e-07,-4.4967743315405215e-07,-8.869247637465387e-07,-1.1549606233990566e-06,2.4665975030525914e-07,5.443835052148502e-07,-2.0211027381016132e-07,-4.2456540633435684e-07,-4.43245574812526e-07
-6.519418934688988e-07,-8.461702361617637e-07,-5.258642799624314e-08,-2.2804939141709916e-06,-1.104079141450152e-06,4.700305017156672e-08,-2.483977578901597e-07,-8.03180211888035e-07,-4.802304320147948e-07,-5.353704835429055e-07,-4.16476848285984e-07,-9.279071456092594e-07,-1.2505271329958754e-06,3.048014292365766e-07,4.5179785352627714e-07,-2.1580727006797664e-07,-4.5516988160132437e-07,-4.626628748629623e-07
-6.339319133376089e-07,-8.714679404324846e-07,-8.193205277083223e-08,-2.236034225654826e-06,-1.0758814651910747e-06,5.622999319875834e-08,-2.3294378978120568e-07,-8.355205061171012e-07,-5.074845267575616e-07,-5.482381990356684e-07,-3.786952778531727e-07,-9.717506594927144e-07,-1.3301021082989584e-06,3.232948313261291e-07,3.8182788902105675e-07,-2.2808510103334614e-07,-4.681463166390683e-07,-4.7633770123688607e-07
-6.107662751052774e-07,-8.764323704786274e-07,-1.0778546872221556e-07,-2.1748978079846063e-06,-1.0625305136008458e-06,5.5541206200886477e-08,-2.207689754439132e-07,-8.857755541402976e-07,-5.360179445708706e-07,-5.519549762158064e-07,-3.471161490800528e-07,-1.0149991924705559e-06,-1.3627387631330327e-06,2.973743656723973e-07,3.3458533535296053e-07,-2.393912543786826e-07,-4.5855918836766293e-07,-4.833159120087948e-07
-5.88606460430509e-07,-8.67591259969258e-07,-1.2771844100192487e-07,-2.140951938339878e-06,-1.0613039784939228e-06,4.050074944539898e-08,-2.1227968305069313e-07,-9.448126989499053e-07,-5.660575135630687e-07,-5.502770084357297e-07,-3.3809122370534447e-07,-1.0558735662132032e-06,-1.3873307691794e-06,2.289126106165985e-07,3.0353796733823795e-07,-2.4815462171183626e-07,-4.1588715062832484e-07,-4.596635929613215e-07
-5.740155308670474e-07,-8.558301951809291e-07,-1.3956776107548684e-07,-2.1187837752687653e-06,-1.0668146889133184e-06,1.2569216112497438e-08,-2.0577337127120028e-07,-9.985659755909708e-07,-5.952675796033825e-07,-5.414482455724026e-07,-3.5180881706524146e-07,-1.0966051739698007e-06,-1.3839899437767892e-06,1.1151018762811822e-07,2.769321075221586e-07,-2.504174550439093e-07,-3.576005784930464e-07,-4.1687951816106174e-07
-5.716121486740713e-07,-8.522633899514407e-07,-1.416958089567144e-07,-2.098978756798212e-06,-1.0742697265680437e-06,-2.0734531807347415e-08,-1.9769081608646588e-07,-1.033010541865655e-06,-6.188464187697022e-07,-5.194329303789357e-07,-3.738543349404931e-07,-1.1446120576274676e-06,-1.4082102562575968e-06,6.982577364914676e-08,2.4058188652155187e-07,-2.4187043519707796e-07,-2.834324096708622e-07,-3.7380583218587837e-07
-5.829020120709615e-07,-8.644545447887717e-07,-1.3376832124304857e-07,-2.0908098194018978e-06,-1.0827578510971758e-06,-4.851939330292226e-08,-1.8444942258793532e-07,-1.0391966550994861e-06,-6.311204160679592e-07,-4.837682644495825e-07,-4.074290747125283e-07,-1.2104088572021115e-06,-1.4307709956015762e-06,7.402308733238388e-08,1.8269977481451338e-07,-2.201271770898391e-07,-2.2504522374378445e-07,-3.452726452354131e-07
-6.064652808181987e-07,-8.947321258781536e-07,-1.1723909100005176e-07,-2.0785781488003714e-06,-1.0953048082750274e-06,-6.039129830187224e-08,-1.6412686568904488e-07,-1.0161305690186787e-06,-6.273391101658738e-07,-4.344585662926561e-07,-4.1267154670008607e-07,-1.3016969111309726e-06,-1.413128211755622e-06,-1.94465199243894e-08,9.976509124045903e-08,-1.8542281827207337e-07,-1.637882818427285e-07,-2.985075842301539e-07
-6.388556402182309e-07,-9.40629941543068e-07,-9.508465731137306e-08,-2.0655740003700584e-06,-1.1152421365041717e-06,-4.942027519237163e-08,-1.366262583481341e-07,-9.685819017735516e-07,-6.055347079259395e-07,-3.7613512914537207e-07,-3.7770785196517795e-07,-1.4170408754525111e-06,-1.3737389498355961e-06,-1.5743924280037823e-07,1.985780381005397e-11,-1.3904326794792166e-07,-8.329566488602807e-08,-2.1672117386830869e-07
-6.753485012732708e-07,-9.961088613229183e-07,-7.105467575547354e-08,-2.0539025669763496e-06,-1.1423060045545235e-06,-1.3729909113342265e-08,-1.0281620779263334e-07,-9.03796230028676e-07,-5.672198012982615e-07,-3.1156340801080925e-07,-3.412807626975572e-07,-1.5443119585476743e-06,-1.3357373294984867e-06,-2.907726539308728e-07,-9.855335296772863e-08,-8.205724532082278e-08,2.5839462657921757e-08,-1.1881451991795075e-07
-7.106234057541207e-07,-1.0528493940559723e-06,-4.8481856808375837e-08,-2.043021752891415e-06,-1.1722084653495287e-06,4.280493201381112e-08,-6.41916104297571e-08,-8.303831584311461e-07,-5.172084338911711e-07,-2.423223933987498e-07,-3.006125841718083e-07,-1.665283347663806e-06,-1.2967936074372674e-06,-4.105625620652963e-07,-1.7500939713477188e-07,-1.577736739426565e-08,1.2613724598116363e-07,-2.2084563120387395e-08
-7.400176983055157e-07,-1.102013995359908e-06,-2.992584997217653e-08,-2.0350560211017657e-06,-1.199833750691324e-06,1.1104017970971518e-07,-2.350332543358564e-08,-7.584841509570976e-07,-4.6256827970496905e-07,-1.7132469675235813e-07,-2.5214560107738114e-07,-1.7624975265265773e-06,-1.2673392365741365e-06,-4.3067940704502664e-07,-2.126427040736133e-07,5.6860442446192085e-08,1.9410334148244564e-07,8.122090515199962e-08
-7.610197053675204e-07,-1.136402871589597e-06,-1.7270568168177205e-08,-2.0321842373837873e-06,-1.2229034598428165e-06,1.7853885191969532e-07,1.4870899242227235e-08,-6.992057078718716e-07,-4.107445466086582e-07,-1.0276561462969317e-07,-1.918188891787406e-07,-1.8238913308816585e-06,-1.2409039722725412e-06,-4.201329555507396e-07,-2.027615158280951e-07,1.3072674117960475e-07,2.0960352368597222e-07,1.6387728469320372e-07
-7.735931582289541e-07,-1.1517211970034407e-06,-1.1564541500566191e-08,-2.0365711998429083e-06,-1.24302823525103e-06,2.3352957804216075e-07,4.598932394939813e-08,-6.614138403436171e-07,-3.676280287405978e-07,-4.1548252582512774e-08,-1.3432723292394336e-07,-1.844136821808135e-06,-1.215437179454055e-06,-3.9206841340433843e-07,-1.4441057507359083e-07,2.000493175885284e-07,1.95480397040238e-07,2.1689122237078805e-07
-7.788373044373918e-07,-1.1461274248708787e-06,-1.2570429784466376e-08,-2.04966266225717e-06,-1.2639067181118802e-06,2.690222979019355e-07,6.64571107646397e-08,-6.493378699574732e-07,-3.3585614766428076e-07,8.596145815352541e-09,-9.584132452993333e-08,-1.8243333956244053e-06,-1.1906726069386017e-06,-3.425177568204881e-07,-4.2010951136537634e-08,2.6008743021421685e-07,1.89011190994292e-07,2.3091490134387297e-07
-7.774066676041133e-07,-1.1191003624339731e-06,-1.8362457839894808e-08,-2.071344656374708e-06,-1.2890106934427261e-06,2.846656361739851e-07,7.57392982477743e-08,-6.617136244614517e-07,-3.1408886486090574e-07,4.558923799021832e-08,-8.332227264926951e-08,-1.7713701641414861e-06,-1.1622532948024496e-06,-3.549273760014061e-07,9.673071974955233e-08,3.085680398287567e-07,1.7807452433187826e-07,2.2570791836183156e-07
-7.693738746158163e-07,-1.0713568075952216e-06,-2.6284168487198673e-08,-2.0996223539007817e-06,-1.3208120119034786e-06,2.8508168785960036e-07,7.548705100378316e-08,-6.93395243336448e-07,-2.9803795354081553e-07,6.881869411648781e-08,-5.7896439812016826e-08,-1.6968040040589481e-06,-1.1348519330439015e-06,-3.590701308401332e-07,2.617387571314257e-07,3.462651773621829e-07,1.6785542546259126e-07,2.1830063997570962e-07
-7.555035782769555e-07,-1.006027788878812e-06,-3.431904917883114e-08,-2.1311870713218855e-06,-1.3612196152550885e-06,2.7629871386061183e-07,6.775142625511605e-08,-7.381613444106486e-07,-2.8213754617671183e-07,7.840390081746602e-08,-1.810338754511757e-08,-1.6146627462788688e-06,-1.1142482836296021e-06,-3.2829239509997243e-07,4.411261266818143e-07,3.7635300348908476e-07,1.873930895822385e-07,2.0759621892593446e-07
-7.383484674060059e-07,-9.29527185665082e-07,-4.2131458948850016e-08,-2.1625633001885425e-06,-1.4114607414114327e-06,2.6299321428445485e-07,5.392848601591016e-08,-7.894199632430217e-07,-2.6128034946030737e-07,7.50091201952689e-08,2.3132318231658495e-08,-1.5382184160258195e-06,-1.1045461859245988e-06,-2.919050623302479e-07,6.225191949681554e-07,4.034417323052299e-07,1.9810108221220162e-07,1.9864188858051615e-07
-7.219395345661049e-07,-8.507048294369654e-07,-5.078462224211596e-08,-2.1911873712954336e-06,-1.4707308292169974e-06,2.47706624340329e-07,3.5229857243908844e-08,-8.400245774223514e-07,-2.318357917908291e-07,6.026213612310793e-08,7.42691760019888e-08,-1.4766220330926232e-06,-1.107556605512283e-06,-2.3514123293825548e-07,7.95090247739985e-07,4.3210759784362585e-07,1.9158253221533213e-07,1.9243769823277769e-07
-7.104993271347983e-07,-7.785412522724733e-07,-6.151353290257921e-08,-2.2159658356749136e-06,-1.5349764751178683e-06,2.308486848307252e-07,1.3623276598424976e-08,-8.835884307204319e-07,-1.9278972284787688e-07,3.694954570926247e-08,1.334832283895206e-07,-1.4328342573714688e-06,-1.12203465786086e-06,-1.540684803600685e-07,9.511081561832099e-07,4.6540694780890717e-07,1.6005313696968014e-07,1.8788341439131165e-07
-7.07392700829782e-07,-7.1989539781953e-07,-7.502007400275477e-08,-2.237231184245714e-06,-1.5973755577635527e-06,2.1022377731452692e-07,-8.196608909011047e-09,-9.177718624110195e-07,-1.4697400784820628e-07,6.596274682530576e-09,1.8412013219593178e-07,-1.4038965487806048e-06,-1.1450301915548934e-06,-9.698492745366554e-08,1.0859463806470368e-06,5.035482347439428e-07,1.1999918214101798e-07,1.823121089667975e-07
-7.147424642227128e-07,-6.784456362885063e-07,-9.157439114225286e-08,-2.2561806050161253e-06,-1.6502009311629867e-06,1.8092425749889589e-07,-2.7816761192176102e-08,-9.469287657975157e-07,-1.0166710896937683e-07,-2.5657816338944573e-08,2.2279940551335985e-07,-1.3832530357187536e-06,-1.173264682420762e-06,-3.824452832868845e-08,1.1967132043016644e-06,5.435605343569976e-07,7.952006249783639e-08,1.7420996517289287e-07
-7.330781966423584e-07,-6.542110639602459e-07,-1.111742811759412e-07,-2.2739027690225698e-06,-1.6866812659111243e-06,1.3718141738616748e-07,-4.381632303226405e-08,-9.80923744042107e-07,-6.730339515635562e-08,-6.385346192523028e-08,2.4306083143273987e-07,-1.3638956197993629e-06,-1.2036372802859356e-06,5.320475261962171e-09,1.2809304430581517e-06,5.800954502456733e-07,2.642123390160656e-08,1.6434463370106161e-07
-7.601955057207942e-07,-6.424091003459333e-07,-1.3286638568890567e-07,-2.290386505708702e-06,-1.702604588346595e-06,7.609303393236858e-08,-5.553059862890785e-08,-1.030790001317086e-06,-5.3787009554722946e-08,-1.0995200082819785e-07,2.416752172575723e-07,-1.341312628134072e-06,-1.2324554905178827e-06,3.0736949774985615e-08,1.3365724398479318e-06,6.069941108511739e-07,-3.242249903027749e-08,1.5037214132603762e-07
-7.90162757363283e-07,-6.327401782628403e-07,-1.5410083065148086e-07,-2.30431343687043e-06,-1.6982404203367873e-06,8.750643532054665e-10,-6.267385962047841e-08,-1.1039798260707866e-06,-6.628049299762913e-08,-1.6183136340897814e-07,2.2414423565435482e-07,-1.3155658291728294e-06,-1.2554797890595502e-06,5.428770057189456e-08,1.3630643787747794e-06,6.188228634590824e-07,-9.230282102892799e-08,1.3759797756689558e-07
-8.144776413437471e-07,-6.120830484364313e-07,-1.7086221346976952e-07,-2.3140104843592526e-06,-1.6798391992570315e-06,-7.882397430420164e-08,-6.566171660496575e-08,-1.2006952398832703e-06,-1.0288718182106872e-07,-2.1748511419321249e-07,1.9620963768872168e-07,-1.2917639172865868e-06,-1.269452015535042e-06,6.38299605438488e-08,1.3616684814920884e-06,6.117262249783984e-07,-1.4947674759580355e-07,1.2025952570545167e-07
-8.255402962946936e-07,-5.70754555119462e-07,-1.7927763555427173e-07,-2.318717125794497e-06,-1.6586066912408207e-06,-1.500197479381595e-07,-6.614512656131454e-08,-1.3179362371005656e-06,-1.5541037710843894e-07,-2.719528846219674e-07,1.6380700893361531e-07,-1.2785445445648062e-06,-1.2741122883420689e-06,6.15314391010284e-08,1.334705801452571e-06,5.84133637604338e-07,-1.991079676029301e-07,9.929729859677652e-08
-8.200548347646632e-07,-5.089136652784759e-07,-1.7715256069158344e-07,-2.318906704780381e-06,-1.646201462559315e-06,-2.0085094649466882e-07,-6.653349858105665e-08,-1.442250669941975e-06,-2.122847680052358e-07,-3.2665654800585185e-07,1.3077450559486905e-07,-1.2851725869468434e-06,-1.2722934457319113e-06,2.8278428047471062e-08,1.284458460224759e-06,5.375964370157452e-07,-2.437303786752946e-07,7.900999372060814e-08
-7.99986377151642e-07,-4.3450787703251116e-07,-1.6529213943958177e-07,-2.3155054141854003e-06,-1.6489313565774923e-06,-2.2405040383966511e-07,-6.832079067450544e-08,-1.5594144208598221e-06,-2.619417385521311e-07,-3.768096570084373e-07,9.806704372716354e-08,-1.318785243419427e-06,-1.2683032247018022e-06,6.936251398878178e-10,1.2122470085477913e-06,4.769537055572073e-07,-2.8487529114418747e-07,6.024743174243356e-08
-7.710977045756252e-07,-3.6258056010970874e-07,-1.4497004301951334e-07,-2.3090785017619734e-06,-1.6648162071738338e-06,-2.1831419015704119e-07,-7.076372180094496e-08,-1.6605047355178405e-06,-2.957361886707934e-07,-4.2135269541172443e-07,6.537966968220519e-08,-1.383181684655578e-06,-1.265893203181621e-06,-5.562077849506125e-08,1.117538962260486e-06,4.0917473633442256e-07,-3.2490035737339767e-07,4.674244949997152e-08
-7.406406906643912e-07,-3.0992066041161156e-07,-1.1753912503489708e-07,-2.299963854917609e-06,-1.6859095013323483e-06,-1.8799679083590256e-07,-7.137674083313353e-08,-1.7002110333586189e-06,-3.1029854242312623e-07,-4.5842447216341073e-07,3.194050491979004e-08,-1.478905639314388e-06,-1.2674835228932872e-06,-1.4353750495079112e-07,9.97922309548493e-07,3.4078284843879326e-07,-3.56412687971792e-07,3.9961320293543945e-08
