0,1,2,3,4,5,6,7,8,9,10,11,12,13,14,15,16,17
2.222407125885612e-08,1.3660380277669297e-07,-4.9380322971440474e-08,4.342477876220334e-07,-3.9056221957700776e-08,-8.459596689441614e-06,-2.4041245742332923e-06,1.1818801062295325e-07,-2.459593412293417e-08,2.676035482475098e-07,1.0211013358835614e-07,5.072272586655756e-07,5.30825768598074e-07,3.55513215859164e-07,3.889235502048548e-07,6.187195241986629e-07,2.9859504484475e-07,-4.9258937908490813e-08
1.0605629645805964e-08,1.4374566150730088e-07,-6.09264973860088e-08,5.4062448123732e-07,-3.497375889003869e-08,-5.556905951079276e-06,5.591647208797737e-07,1.4931759323917115e-07,-6.381093795760492e-08,2.603796468315222e-07,1.2055111088908777e-07,4.637208924816336e-07,4.939123887529118e-07,2.0437453354818035e-07,2.288430411531298e-07,5.3601954725987e-07,2.149848283662622e-07,-8.637914991982187e-08
-6.3680829743735256e-09,1.326000535392416e-07,-6.788692961018944e-08,6.500026268891466e-07,-2.8309582649842393e-08,-2.899936799609424e-06,3.3344974187114752e-06,1.521336438746987e-07,-1.1604426099325668e-07,2.4182340676102157e-07,1.3002864658662852e-07,4.290180131196192e-07,3.934879642831995e-07,4.6170571279034466e-08,4.4267344967620435e-08,4.351052403257833e-07,1.275362927721547e-07,-1.1772320032312426e-07
-2.7559045440732173e-08,1.069166079026102e-07,-6.973380072703966e-08,7.292306264324531e-07,-1.7688775139790478e-08,-1.1533884939275721e-06,5.487097081007637e-06,1.1389345341508379e-07,-1.680117425505781e-07,2.1341774752948093e-07,1.3704238945184597e-07,3.69581599912743e-07,1.7077825405758592e-07,-9.476339425408147e-08,-1.4655384740946142e-07,3.1903283660669384e-07,3.937785966967583e-08,-1.3871191801588703e-07
-5.110429689826806e-08,7.217928040323505e-08,-6.754202526952553e-08,7.400393201275792e-07,-5.4788218831749214e-09,-6.152317344136525e-07,6.82348996636029e-06,3.576487586519683e-08,-2.079755283553282e-07,1.6436440551057665e-07,1.3465108083864367e-07,2.7982617625926645e-07,6.734972571523477e-08,-2.0021963224831662e-07,-3.1705126068524363e-07,1.9793540784104426e-07,-4.074265534084344e-08,-1.4511256522428336e-07
-7.279126900679829e-08,3.609447838519532e-08,-6.346156613134382e-08,6.898525726713909e-07,4.821001479643038e-09,-1.1680734859744036e-06,7.320405846571304e-06,-6.496902532194091e-08,-2.2906525022134665e-07,9.912478560769844e-08,1.2176548524649473e-07,2.831862409589326e-07,5.711610779673458e-08,-2.460549381328956e-07,-3.557680352255302e-07,8.957698805296721e-08,-1.0150971132429617e-07,-1.34239699573644e-07
-8.67287840952799e-08,6.06777931232052e-09,-5.871810836071767e-08,5.780542219573816e-07,9.270958630455739e-09,-2.3455984233030908e-06,7.042563787902206e-06,-1.6208902801734015e-07,-2.26043555054628e-07,2.9455682772507078e-08,1.077650100005751e-07,2.8900699541321176e-07,8.62429792406002e-08,-2.2487997436209695e-07,-3.4049636834534943e-07,3.3724162662386935e-10,-1.35012249862685e-07,-1.0543287425914836e-07
-8.863321487717512e-08,-1.2928414259762361e-08,-5.217904174329142e-08,4.2340054983586135e-07,1.0106070305101308e-08,-3.495796054560344e-06,6.079224569994265e-06,-2.297432139336848e-07,-1.934603047268931e-07,-4.092407705616897e-08,8.979164095119971e-08,2.3684906681405288e-07,1.7007205496064519e-07,-1.5562075896236719e-07,-4.0654248186412e-07,-6.918164904970086e-08,-1.4126065049361008e-07,-6.214094567711918e-08
-7.605807410515544e-08,-2.089480359950004e-08,-4.1546765645542936e-08,2.389945683947517e-07,8.286498130347841e-09,-3.997199966014324e-06,4.490363965973425e-06,-2.5084422313934386e-07,-1.323572396889175e-07,-1.0216259702446306e-07,6.617667831473393e-08,1.0925986615276234e-07,1.5002944187266905e-07,-5.8550642792057655e-08,-3.301482416250906e-07,-1.2264122402795308e-07,-1.2777125803730804e-07,-1.1346832604612172e-08
-5.06615082742474e-08,-2.4279368911996867e-08,-2.4174796246643147e-08,3.716195437315919e-08,7.0454523671074606e-09,-3.437374285834094e-06,2.3096282816976962e-06,-2.2573611793480727e-07,-4.875273902825926e-08,-1.4816056775812193e-07,3.570192307691887e-08,-7.957008287361882e-08,4.283970164311448e-08,4.045369151992668e-08,-1.528173616643106e-07,-1.691308911208819e-07,-1.0503657073488485e-07,3.912827671191833e-08
-1.747143653291531e-08,-3.001935736634302e-08,2.1952018898034676e-09,-1.941410629156866e-07,5.328647950103011e-09,-1.6971859957440635e-06,-3.679999036350027e-07,-1.635444800991217e-07,4.6673882461648633e-08,-1.774952869941885e-07,-6.834423496648576e-09,-2.434787224475223e-07,-8.982497771793152e-08,1.1838500950868912e-07,1.961135447524339e-08,-2.126503022958375e-07,-8.130287355320221e-08,8.252194426624663e-08
1.8799816899028916e-08,-4.256456681723245e-08,3.748082143672622e-08,-4.4548712230441124e-07,1.0719534713700362e-09,1.0500950859836756e-06,-3.316345464215674e-06,-7.504199240171521e-08,1.4108652619335123e-07,-1.873349502331604e-07,-6.360416786782156e-08,-3.428818564965418e-07,-2.2151646553620513e-07,1.5910124426703656e-07,1.7411503406734448e-07,-2.5433098340000696e-07,-5.912322352656876e-08,1.1682948681331755e-07
5.488199041917219e-08,-6.58724189591174e-08,7.902173065257182e-08,-7.160763778706438e-07,-2.198295652675959e-09,4.386295665888272e-06,-6.214414983034689e-06,2.609645099450296e-08,2.3004286892244648e-07,-1.792716806731817e-07,-1.322689260469177e-07,-4.61674146880458e-07,-3.6709882319716123e-07,1.5843620377010978e-07,3.1444774927909503e-07,-2.925486041429623e-07,-3.486930199878149e-08,1.4036676751260825e-07
8.95454154890377e-08,-1.0043852827658942e-07,1.204111232335587e-07,-1.0065637000349078e-06,-6.996973805714125e-10,7.785335319486232e-06,-8.736054019301448e-06,1.2465814026258522e-07,2.9375890775477365e-07,-1.608588863198982e-07,-2.0718010496843705e-07,-5.922800868475961e-07,-4.6112327774437633e-07,9.262343618069162e-08,3.6593617054124927e-07,-3.253100179266978e-07,-1.7923447173604592e-09,1.535936182859827e-07
1.223959842492822e-07,-1.4415875383602058e-07,1.5003344687660264e-07,-1.2689534310383183e-06,2.0576252071997932e-08,1.0460383550046476e-05,-1.0630028263434922e-05,2.0384537381509452e-07,3.34782345937256e-07,-1.4367664833839172e-07,-2.8764111165621713e-07,-6.210785965284311e-07,-5.049462273342471e-07,-2.877776621178716e-08,3.3410160494014686e-07,-3.576897105059331e-07,4.474600872254197e-08,1.5954162936413633e-07
1.5892280424376174e-07,-1.9305145180003407e-07,1.6640753000248134e-07,-1.4303870153771085e-06,6.189831914766824e-08,1.1144178258497185e-05,-1.1777468431243036e-05,2.4807053875866715e-07,3.637729614302706e-07,-1.3628452886274246e-07,-3.4805536490844556e-07,-6.267126177036299e-07,-5.181446153908472e-07,-1.6619079896923155e-07,1.791317471904225e-07,-3.932434034416757e-07,1.0318080521415567e-07,1.583644005519168e-07
1.9802318920354355e-07,-2.4050461871577507e-07,1.692825592597272e-07,-1.5342882306418925e-06,9.149080135182583e-08,1.1578265623592655e-05,-1.2186059877244715e-05,2.4830520283937666e-07,3.9115598807837275e-07,-1.4836926556632277e-07,-3.857666830414264e-07,-6.589002859471896e-07,-5.283593483088223e-07,-3.4002552373581553e-07,-3.98279588693599e-08,-4.416498615322525e-07,1.6518844223256446e-07,1.5314199784664167e-07
2.3597831314521294e-07,-2.79233761898395e-07,1.1732538416845282e-07,-1.5203747000510464e-06,1.0205197460489617e-07,9.38936965349841e-06,-1.191697860511421e-05,2.0033584733164106e-07,4.3390101494307946e-07,-1.80580845679187e-07,-3.951482777546906e-07,-7.21225843859051e-07,-5.503135916515014e-07,-5.046425704973175e-07,-6.780524800387326e-08,-5.010141057713107e-07,2.1863132806162423e-07,1.4590736032891853e-07
2.761105534475466e-07,-3.0487774503552847e-07,4.857395226382467e-08,-1.4295570633311008e-06,1.1221738991212146e-07,6.440636441102522e-06,-1.1054585186458958e-05,1.0191141575513775e-07,4.985155718241634e-07,-2.30830892597469e-07,-3.725129583351464e-07,-8.067933342526965e-07,-5.560093314128419e-07,-6.485726681648745e-07,-4.735942237106792e-08,-5.5231750152932e-07,2.525242632613128e-07,1.3541114955055014e-07
2.841405709823165e-07,-3.175046791676663e-07,-1.1117169394331329e-08,-1.4176031409144713e-06,1.1288715067695414e-07,3.3023435846018815e-06,-9.771894147845444e-06,-4.479148421927534e-08,5.924300297006269e-07,-2.944238538440643e-07,-3.3154944067495175e-07,-9.065278381983283e-07,-5.572347780952739e-07,-8.013477710890293e-07,-2.2493648779175925e-07,-5.912994890177425e-07,2.6198511738547114e-07,1.1949688117072933e-07
2.5408081938544495e-07,-3.2331934913183997e-07,-5.5108502136986126e-08,-1.4528156842602183e-06,1.0512782689153105e-07,8.915129036452754e-07,-8.355560578946407e-06,-2.243478403932348e-07,6.923297094908283e-07,-3.443602480046441e-07,-2.966280968453894e-07,-1.0072845001777767e-06,-5.625641833760927e-07,-8.835186502801475e-07,-4.57428692438064e-07,-6.14747138512284e-07,2.5070057016013416e-07,9.662759980089645e-08
2.1473130573694602e-07,-3.2889365974705973e-07,-8.985481177708799e-08,-1.3323013334766987e-06,1.2832262200450053e-07,-1.1843529297541277e-07,-7.087703033582152e-06,-4.1315587986864876e-07,7.82947166025286e-07,-3.665228757893356e-07,-3.281848788510234e-07,-1.051154286781613e-06,-5.840591044285586e-07,-8.882659308822417e-07,-5.463221440395846e-07,-6.199792514617393e-07,2.2936209651957056e-07,6.803055236507914e-08
1.6575398744627463e-07,-3.4223920587318207e-07,-1.1027084105240733e-07,-1.2671911804927497e-06,1.2100998209492408e-07,5.239276472020345e-07,-6.101685844271652e-06,-5.793566012873004e-07,8.54844984348698e-07,-3.5364584505852e-07,-4.815657642334108e-07,-1.0468671268604987e-06,-5.995081972400971e-07,-9.243826572140815e-07,-5.701099907735783e-07,-6.321748205820383e-07,2.1132915683082315e-07,3.74634757162585e-08
1.073927760140479e-07,-3.700075000760339e-07,-1.199356761907381e-07,-1.3793345939089126e-06,1.0875552568799819e-07,2.638220525091542e-06,-5.362306578455965e-06,-6.943009270549549e-07,8.720477293207976e-07,-3.240006858982105e-07,-6.055330923611613e-07,-1.0557619352526075e-06,-6.131586699509817e-07,-9.801495448632757e-07,-4.737675887299065e-07,-6.668077908537076e-07,2.0834184884390152e-07,1.0581026934912558e-08
9.172779728216837e-08,-4.19727673122106e-07,-1.3136053055725408e-07,-1.4674390562205343e-06,1.0534334397432108e-07,5.698465203333455e-06,-4.765410511424818e-06,-7.416446131035542e-07,8.403971721177747e-07,-3.31484092588468e-07,-6.918821471165415e-07,-1.0568526523788937e-06,-6.533631795852508e-07,-1.0019107346048246e-06,-3.5705917586658286e-07,-6.006815108325536e-07,2.276054325563004e-07,-7.885531803922452e-09
1.0961732604355971e-07,-4.831032283686196e-07,-1.562317062906726e-07,-1.546553994612224e-06,9.00395308193465e-08,8.97402404607037e-06,-4.247371600530547e-06,-7.059372442985604e-07,7.776121386466977e-07,-4.1334442634237054e-07,-7.826616213683704e-07,-1.0318967189410934e-06,-8.331333138117936e-07,-9.996020431786395e-07,-2.312509594394789e-07,-5.071058907703506e-07,2.7005252184585314e-07,-1.4319451419794775e-08
1.3049997276024628e-07,-5.591634228593985e-07,-2.0028986992830036e-07,-1.5945277343324039e-06,8.684986635314517e-08,1.1712673198145469e-05,-3.792752814981589e-06,-6.076037686184779e-07,7.009142565353501e-07,-4.935393155724115e-07,-8.253319402203201e-07,-1.018079763754473e-06,-1.0714434668676768e-06,-1.0418034726953747e-06,-1.3965931379775598e-07,-4.746045611019741e-07,3.299583559898027e-07,-7.193800342259406e-09
1.5783379359950708e-07,-6.543035013088925e-07,-2.62116683692785e-07,-1.6455987881689753e-06,6.713799414288705e-08,1.3307253094913942e-05,-3.3247062313076766e-06,-4.953473040659358e-07,6.29600411788672e-07,-5.482642427074709e-07,-8.995607497295759e-07,-1.0465432499379549e-06,-1.223074106461925e-06,-1.033800313856363e-06,-4.8560389400435925e-08,-4.5234584881467414e-07,3.964736147072612e-07,1.0137412297285581e-08
2.4668534764564626e-07,-7.242682595573972e-07,-3.331258243940786e-07,-1.7297151631380632e-06,4.540608539217371e-08,1.3392255598655381e-05,-2.6190216995886556e-06,-4.2430059630880195e-07,5.629480851855045e-07,-6.139305927763259e-07,-9.980044920893745e-07,-1.1233448238861629e-06,-1.289320923576429e-06,-9.800667581227004e-07,1.5751627216351434e-07,-4.2126123743527646e-07,4.570478287518007e-07,3.0479593465068044e-08
3.518168946050762e-07,-7.363450711900712e-07,-4.049622473402883e-07,-1.696557061938922e-06,4.741636142545633e-08,1.1884789394933533e-05,-1.4044449459146443e-06,-4.272838583365115e-07,5.391540042816391e-07,-7.216352015313173e-07,-1.0525980367576642e-06,-1.1712975056457312e-06,-1.3764447846163447e-06,-9.35335094205299e-07,4.457172087278505e-07,-4.367541243492986e-07,5.017530188544244e-07,4.3961793562621224e-08
4.0071855208066924e-07,-6.71831439142578e-07,-4.7242598101932266e-07,-1.6631030280099384e-06,4.100917407663437e-08,9.024870913324704e-06,3.934687742341082e-07,-5.85324914776206e-07,4.979425884686493e-07,-7.871155725611798e-07,-1.0490655918014667e-06,-1.1844171141878855e-06,-1.4270311311442616e-06,-8.55480839740099e-07,6.226689050981823e-07,-4.510200006854118e-07,5.26572060846712e-07,4.218073742209441e-08
4.065678573339206e-07,-6.213054236365796e-07,-5.343882283032379e-07,-1.6957566711080725e-06,1.500028775559497e-08,5.422759973108824e-06,2.4988170287731023e-06,-7.713507962355769e-07,4.5849648349346306e-07,-8.097182149926842e-07,-1.0987183099804061e-06,-1.2406976976494196e-06,-1.4237999810128957e-06,-7.976731753837517e-07,6.838701833459732e-07,-4.665415331639717e-07,5.336303163133475e-07,2.0775382232196647e-08
3.932839014595896e-07,-6.164335493078357e-07,-5.936933105615921e-07,-1.6473233061100803e-06,-5.001089100012752e-08,1.9944993156498554e-06,4.3677456127293474e-06,-9.290832121356563e-07,4.4142060493222033e-07,-7.575635805763908e-07,-1.1269660760860631e-06,-1.2091972271355884e-06,-1.4509385948848398e-06,-7.496424025609855e-07,7.609074404796272e-07,-5.043021726968917e-07,5.28064667248887e-07,-2.00577404171625e-08
3.995372956145765e-07,-6.537154298838246e-07,-6.540623132137662e-07,-1.577330861842099e-06,-1.0176918452061581e-07,-3.293081048789696e-07,5.429573202350242e-06,-1.023423026359614e-06,4.0410538916387074e-07,-7.0683381103903e-07,-1.150359436785021e-06,-1.162303706631228e-06,-1.510844073360953e-06,-6.988070386251771e-07,8.734724098749273e-07,-5.373587343480077e-07,5.136921317358155e-07,-7.555380442761346e-08
3.950009341685028e-07,-6.448004825279355e-07,-7.180111975487822e-07,-1.5205717517750415e-06,-1.5347493275185244e-07,-9.62642931077259e-07,5.354189576003086e-06,-1.2229973726571893e-06,4.076613240788701e-07,-6.664967574066815e-07,-1.2167514006802526e-06,-1.1255626914857634e-06,-1.5153555818173394e-06,-6.273990142855631e-07,1.0225741890730812e-06,-5.465992322959185e-07,4.904698393126272e-07,-1.39375012177052e-07
3.7217953345883197e-07,-5.727946830283491e-07,-7.844254855604855e-07,-1.3611794280582057e-06,-2.0602740256949466e-07,8.07950177950956e-08,4.248838950808511e-06,-1.4415559422324218e-06,4.1340689871418204e-07,-6.455875615379707e-07,-1.2451672417858397e-06,-1.1087843269379128e-06,-1.510477970726206e-06,-5.353847040082367e-07,1.1001821203059737e-06,-5.279939534519425e-07,4.552654640819284e-07,-2.046803427894639e-07
3.301944656749454e-07,-4.690917160505723e-07,-8.490601875067354e-07,-1.291546179285949e-06,-2.5273376813889596e-07,2.1744693423884396e-06,2.63946357178353e-06,-1.7263940931220286e-06,3.7147180417699776e-07,-6.427898453890835e-07,-1.2461268883898714e-06,-1.1085732420813003e-06,-1.5050789243063832e-06,-4.4209180783876045e-07,1.1197498612581983e-06,-4.834176911021496e-07,4.050800103269245e-07,-2.6820221045551696e-07
3.009937166475682e-07,-3.541460765224687e-07,-9.052871859413657e-07,-1.260605236323821e-06,-2.9983640242742255e-07,4.306023496686142e-06,1.1660886694903067e-06,-2.0703513765568364e-06,2.810850216881693e-07,-6.188525676489448e-07,-1.1922706793661211e-06,-1.0890945189884067e-06,-1.4624379495197793e-06,-3.8034534791500046e-07,9.649505878052531e-07,-4.1758166295685543e-07,3.40348689107625e-07,-3.2723940069832594e-07
2.571426039562597e-07,-2.33525896855836e-07,-9.467914797796945e-07,-1.194078152544335e-06,-3.427742933504716e-07,5.472341811483026e-06,2.1458649320447084e-07,-2.2977901530406292e-06,1.4300010153807463e-07,-5.484248009258332e-07,-1.1511457913277624e-06,-9.985524050567708e-07,-1.383667989578397e-06,-3.4518659347650083e-07,8.166960799383552e-07,-3.429669030323012e-07,2.664331757410927e-07,-3.779104996814097e-07
2.0431016645476688e-07,-1.5568282024739242e-07,-9.712567931314885e-07,-1.0672996037551463e-06,-3.9265330168972757e-07,5.053065554873701e-06,-1.9418386173893755e-07,-2.435588027394027e-06,-7.985447215054024e-09,-4.3472116723750535e-07,-1.1075865678937179e-06,-8.455844985719158e-07,-1.3060688204880306e-06,-3.1858243771220413e-07,6.654675709632784e-07,-2.7181021981414287e-07,1.9310838890637098e-07,-4.1675030692388755e-07
1.8460139035230484e-07,-1.1587738089781922e-07,-9.80692829341906e-07,-8.613560116588997e-07,-4.312169977325733e-07,3.0705919295399777e-06,-2.3064287125043815e-07,-2.590130263684484e-06,-1.0702086609009096e-07,-3.3512047009318274e-07,-1.0579777361772702e-06,-6.929934920880247e-07,-1.3371231756188859e-06,-2.9149200918398917e-07,5.083646942684001e-07,-2.1012398762743795e-07,1.3409251772724838e-07,-4.389067714851818e-07
1.9167891061902644e-07,-7.450344751043666e-08,-9.792651883675276e-07,-6.905104001369048e-07,-4.733024964326978e-07,1.0694737741966375e-07,-5.95628113578563e-08,-2.6476714935796313e-06,-1.5522886731956895e-07,-2.7510200993141575e-07,-1.0435885955715917e-06,-5.62107131019088e-07,-1.3231339926861955e-06,-2.515128092940768e-07,4.5443102936253015e-07,-1.6746236752632663e-07,1.0175632954100244e-07,-4.409916207169867e-07
2.0927421754179315e-07,-3.157545083902524e-08,-9.705346764238827e-07,-7.202614956181745e-07,-5.134289197234399e-07,-2.9868521125492624e-06,1.6432188709923642e-07,-2.616243829435895e-06,-1.795285063123428e-07,-2.517509148078947e-07,-1.0190537361438745e-06,-4.571632251849912e-07,-1.2363677365987945e-06,-2.084258093377698e-07,4.4156833795510435e-07,-1.5193428487278342e-07,1.06026599081794e-07,-4.221811011930173e-07
2.3649744759040672e-07,-8.567421026671789e-10,-9.562962035556159e-07,-7.567098488393528e-07,-5.141796525461319e-07,-5.4403367339533555e-06,1.7883822908806386e-07,-2.577122433451548e-06,-1.7464122695249734e-07,-2.469846585501129e-07,-9.984752917942928e-07,-3.971166823270996e-07,-1.1793534121852515e-06,-1.6238934887021823e-07,4.539519951145858e-07,-1.607898218491116e-07,1.5232482779772818e-07,-3.856613491026327e-07
2.5894936068650213e-07,2.595806036110042e-08,-9.375823824298593e-07,-6.830415293236342e-07,-4.945574355285138e-07,-6.776368015417064e-06,-3.6267209489523053e-07,-2.5527378727606164e-06,-1.5711583171215043e-07,-2.3739351188449712e-07,-9.771369403961697e-07,-3.524467404824702e-07,-1.1647276792146822e-06,-1.0851189107469008e-07,5.116379780563671e-07,-1.8940733197900752e-07,2.3896612413641815e-07,-3.352968550716932e-07
2.8621010130156836e-07,4.602031283053471e-08,-9.142944130784911e-07,-5.699591956824313e-07,-4.6547063024518936e-07,-6.836327035439704e-06,-1.6627364632770806e-06,-2.5060584699832914e-06,-1.2483348238315855e-07,-2.3813227859328282e-07,-9.452864715678326e-07,-3.1847012168228867e-07,-1.1551477835638433e-06,-3.614748359670463e-08,5.846877990228796e-07,-2.3332627251666317e-07,3.580956354984676e-07,-2.7883888886703946e-07
3.104987910615912e-07,5.646575235639321e-08,-8.850312243537219e-07,-5.137438643335198e-07,-4.331256108855494e-07,-5.865468660557842e-06,-3.6226895414929627e-06,-2.4434690404431447e-06,-8.834758018374781e-08,-2.3523506742482888e-07,-9.035159972269883e-07,-2.9260692686484985e-07,-1.153195130924547e-06,5.6516377531457236e-08,6.781337089374444e-07,-2.8558970096130275e-07,4.919469531312296e-07,-2.2599063224292285e-07
3.206011183519566e-07,6.054780534128337e-08,-8.477378910136175e-07,-4.798605975298461e-07,-4.1254949113961626e-07,-4.273002216244569e-06,-5.957673729146653e-06,-2.348944958479418e-06,-9.774899375509351e-08,-2.3841086915364432e-07,-8.875075862295466e-07,-2.728864940117928e-07,-1.169896593792975e-06,1.6322976695785208e-07,7.857078527545859e-07,-3.3795232799592244e-07,6.202242653014733e-07,-1.8479798071986153e-07
3.2321032106841373e-07,5.2907454616894775e-08,-8.017475581976938e-07,-4.5611645944557544e-07,-4.1323526995473123e-07,-2.528404046907199e-06,-8.402057089910117e-06,-2.2821323539036e-06,-1.399551495078122e-07,-2.404196010782087e-07,-8.93087988429872e-07,-2.7222783897789106e-07,-1.189984880935746e-06,2.73731572779406e-07,8.899982043542018e-07,-3.8160376368657385e-07,7.22302124557909e-07,-1.641149702813002e-07
3.1466805194798257e-07,2.4834275114649444e-08,-7.500818457982526e-07,-4.998354691909431e-07,-4.216506022793272e-07,-1.016732263349829e-06,-1.0759530698771681e-05,-2.191430392841899e-06,-1.972702368779426e-07,-2.3228103950167837e-07,-9.134739585617444e-07,-2.6322505570276324e-07,-1.2301983434966871e-06,3.721530387537389e-07,9.827582476332016e-07,-4.087873011169909e-07,7.837981063392042e-07,-1.6966848513126996e-07
2.922776604803914e-07,-2.007189061693165e-08,-6.993371652161369e-07,-5.52462659585315e-07,-4.307019542815569e-07,1.023980924307903e-07,-1.2819438430687758e-05,-2.0875934505413513e-06,-2.222669280946223e-07,-2.2734429743503887e-07,-9.517029858042986e-07,-2.424944537238138e-07,-1.2316455032978318e-06,4.4699555433704927e-07,1.0576693681267575e-06,-4.16653191037832e-07,8.028476698217071e-07,-1.949611033786653e-07
2.569316233137533e-07,-6.953565602828147e-08,-6.57462418402355e-07,-6.084997775247649e-07,-4.595330838257964e-07,8.637543975023923e-07,-1.4283403475356887e-05,-2.004802700167244e-06,-1.9741854987947932e-07,-2.232041138867729e-07,-9.850016119858478e-07,-2.2814367499101385e-07,-1.1954090348767936e-06,4.9406617696587e-07,1.1111681217028941e-06,-4.084024546825817e-07,7.933256036652365e-07,-2.5383634417708846e-07
2.0899310112780927e-07,-1.186856185771562e-07,-6.305154549592127e-07,-7.461796782915644e-07,-4.945494173734301e-07,1.3662077162074161e-06,-1.4755038404007859e-05,-1.9423477217072816e-06,-1.594108733494572e-07,-2.2152842482027486e-07,-1.0195460346849965e-06,-2.171951888190038e-07,-1.1586405443230032e-06,5.176950277444365e-07,1.1440321497276712e-06,-3.9114737355073273e-07,7.768475240935712e-07,-3.1074055820214314e-07
1.5451311939650005e-07,-1.6099988147343047e-07,-6.213295194344735e-07,-8.841914067213292e-07,-5.283341553017925e-07,1.3167579877165191e-06,-1.3796470902084797e-05,-1.9184471198335334e-06,-1.2414306387000344e-07,-2.243936078333212e-07,-1.0721838136796632e-06,-2.2599746395107903e-07,-1.1329831126024009e-06,5.283653842730537e-07,1.1605886190158195e-06,-3.76577706215926e-07,7.740364888331794e-07,-3.6450242258289436e-07
1.0054865753796485e-07,-1.934076982026414e-07,-6.287572121593878e-07,-1.010780392675433e-06,-5.571028323676302e-07,1.072378084333693e-06,-1.1084877022349496e-05,-1.926035731015461e-06,-1.0390539562558638e-07,-2.2867054164997634e-07,-1.1364942155382373e-06,-2.4113816943927836e-07,-1.1371198731493898e-06,5.365937993411634e-07,1.166127366640041e-06,-3.7317070341746274e-07,7.967183665494644e-07,-4.0172136668247404e-07
5.371934439361958e-08,-2.1939980209705459e-07,-6.479915539349254e-07,-1.115124719027704e-06,-5.688961371604868e-07,6.413792264064917e-07,-6.663451023542046e-06,-1.956085801024744e-06,-6.910112154246194e-08,-2.2961415780770372e-07,-1.1989551344022794e-06,-2.462282845446738e-07,-1.167222493381359e-06,5.485036303619727e-07,1.1666255821166214e-06,-3.81281018475436e-07,8.401529180882201e-07,-4.18780125222035e-07
1.737250445406684e-08,-2.42638979695916e-07,-6.710359584014107e-07,-1.1739407820559243e-06,-5.64640850386238e-07,-2.491433751300261e-07,-1.1305564774659285e-06,-1.9507486039661144e-06,-1.851900932096282e-08,-2.2720664391800497e-07,-1.2524964381756089e-06,-2.3163853112318362e-07,-1.1962753199708141e-06,5.651151144082498e-07,1.1654739088840825e-06,-3.9412495662774995e-07,8.872617266660059e-07,-4.1932739356794353e-07
-6.389927687924948e-09,-2.669029820617103e-07,-6.881654423317914e-07,-1.221569645262856e-06,-5.494612257402035e-07,-8.695611063758546e-07,4.466947535392803e-06,-1.938305057508371e-06,4.789188329462486e-08,-2.1989315313861884e-07,-1.2875559185659562e-06,-1.8917346397897517e-07,-1.217155979146659e-06,5.841537545396527e-07,1.1621507652770893e-06,-4.04534209924975e-07,9.17933791027334e-07,-4.1081219953161825e-07
-1.6771933532314608e-08,-2.9514206947544507e-07,-6.909401893095803e-07,-1.3027115955053221e-06,-5.318170898510663e-07,-1.519019229768933e-06,9.045181828963597e-06,-1.903796812339176e-06,1.1124631521718454e-07,-2.00378855928624e-07,-1.3022967993746056e-06,-1.2414534896093863e-07,-1.208700524024591e-06,6.0209271151546e-07,1.1532050194917767e-06,-4.0901246410216183e-07,9.171784009842179e-07,-4.0129007598872353e-07
-1.5773770233277326e-08,-3.2776338311611234e-07,-6.757974498405686e-07,-1.4398855782306955e-06,-5.151053374102592e-07,-1.6227255195344575e-06,1.1871928080067254e-05,-1.8282983673938939e-06,1.7284795113243082e-07,-1.7078329629473183e-07,-1.3045112427682943e-06,-4.110283997671035e-08,-1.1554711798794764e-06,6.155203300766704e-07,1.1333286534998999e-06,-4.1118794644897477e-07,8.804238747387405e-07,-3.958742282890286e-07
-6.2471706759694266e-09,-3.621053805455038e-07,-6.460515680726824e-07,-1.5804576682016122e-06,-5.078971582395965e-07,3.4243320405431393e-07,1.2657492323301566e-05,-1.73617254093704e-06,2.432429525895072e-07,-1.4042665123452677e-07,-1.2938411921685879e-06,5.143331805790285e-08,-1.0588745162056217e-06,6.221719188983627e-07,1.0987202531925148e-06,-4.2212839100630714e-07,8.164853032920507e-07,-3.976688373066367e-07
9.393164747585081e-09,-3.9205412599947474e-07,-6.090208111190002e-07,-1.7170816545470636e-06,-5.148602581649009e-07,3.4276360967017986e-06,1.1464042246734611e-05,-1.6290584490036712e-06,3.1830667847026355e-07,-1.09177230901833e-07,-1.2656039930761946e-06,1.4873209727064875e-07,-9.333920968829689e-07,6.224397271441099e-07,1.0506812018229919e-06,-4.5057704615664575e-07,7.422094167150969e-07,-4.067602418873258e-07
2.9852992186334086e-08,-4.0995266507199644e-07,-5.729623538237661e-07,-1.8147733285005073e-06,-5.369251606119434e-07,6.27053910932451e-06,8.659501439583838e-06,-1.5339791936033645e-06,3.883050483746313e-07,-7.906447248250712e-08,-1.2222474346028107e-06,2.4274698716364846e-07,-7.786214262992521e-07,6.205515073084797e-07,9.97441901130451e-07,-4.968601701589548e-07,6.772002222213966e-07,-4.163283577716231e-07
5.422806190220776e-08,-4.0990459887452307e-07,-5.444829745688421e-07,-1.844615734203153e-06,-5.681710199088903e-07,7.599839094903707e-06,4.874690178402543e-06,-1.4775701035905407e-06,4.2622595785558456e-07,-5.118777148948471e-08,-1.163826802741531e-06,3.3160508914078785e-07,-6.009080399765395e-07,6.239446516177112e-07,9.518748885727764e-07,-5.499997623420503e-07,6.34581194066049e-07,-4.2684371943820844e-07
8.063861380962084e-08,-3.903263297041884e-07,-5.268138198490399e-07,-1.8142464147535937e-06,-6.000155445567988e-07,7.713810674167871e-06,8.304146916239047e-07,-1.442053309226472e-06,4.2511914545911945e-07,-2.509280956269642e-08,-1.0943381757366651e-06,4.125753882829978e-07,-4.136162955904282e-07,6.40528448813246e-07,9.274789942007343e-07,-5.915987319531221e-07,6.171288999744378e-07,-4.395879120693491e-07
1.0613524626197234e-07,-3.543636429606671e-07,-5.18797183183256e-07,-1.7137345098065015e-06,-6.283960484509483e-07,7.645185116197547e-06,-2.8835453405618867e-06,-1.4120120391277319e-06,3.8612135046787786e-07,-1.7571635217537297e-09,-1.0235275950506122e-06,4.772419706836178e-07,-2.235606471304518e-07,6.751679972413075e-07,9.338216539187216e-07,-6.016709844722802e-07,6.222095565691665e-07,-4.51778770669409e-07
1.2766913856801847e-07,-3.0810394487544013e-07,-5.160416710298924e-07,-1.6081798226472805e-06,-6.492416258389684e-07,7.168887671162239e-06,-5.909296876543098e-06,-1.3799843289705297e-06,3.281726077157941e-07,1.696068687999456e-08,-9.641676551612697e-07,5.270637634784962e-07,-5.3049489617570995e-08,7.270001778529544e-07,9.730829628799786e-07,-5.672985932865078e-07,6.414232326118354e-07,-4.6018881421977957e-07
1.4312634492082668e-07,-2.58743853237158e-07,-5.112239788667736e-07,-1.5233194335055925e-06,-6.60154966833269e-07,5.823950378995311e-06,-8.099598029151768e-06,-1.332243363433748e-06,2.658080491436654e-07,2.91379227856411e-08,-9.321788822637429e-07,5.657012574222756e-07,7.345305941924308e-08,7.891358303110285e-07,1.0392048136343427e-06,-4.882928263256747e-07,6.676122472280359e-07,-4.654881546889599e-07
1.51913398978943e-07,-2.1298756317132772e-07,-5.007982049690414e-07,-1.47119598849461e-06,-6.620297337507734e-07,4.118374840431847e-06,-9.47423518153231e-06,-1.2631640493122949e-06,2.1913259968169927e-07,3.6462829027350815e-08,-9.360552284544071e-07,5.964364895677964e-07,1.2547105237522048e-07,8.517391915254029e-07,1.1198780605473325e-06,-3.7011070459451774e-07,6.992058666157899e-07,-4.6368418276048345e-07
1.553638881904211e-07,-1.7545860222364356e-07,-4.851854911012912e-07,-1.4640514464955015e-06,-6.56469516107991e-07,2.8115889253385034e-06,-1.0182505831519134e-05,-1.1982581605896816e-06,2.0083087160044317e-07,3.720347431295611e-08,-9.701382847145259e-07,6.312779690309162e-07,1.8364632688499098e-07,9.066093900161513e-07,1.2026915183982644e-06,-2.301667471996697e-07,7.380509781591833e-07,-4.5269761224179206e-07
1.569324701120248e-07,-1.4695976546388782e-07,-4.6706641967146736e-07,-1.456311177579279e-06,-6.459819600706057e-07,1.3705952744351743e-06,-1.0442161328013085e-05,-1.1354350479773347e-06,2.1082828401865864e-07,2.94942908982533e-08,-1.0256660537561575e-06,6.71917925896096e-07,1.6961912567325292e-07,9.498175631670273e-07,1.2777087207856738e-06,-7.879580529419457e-08,7.870992001377829e-07,-4.3507684655282383e-07
1.6122404035934092e-07,-1.245005641131527e-07,-4.5032393786793514e-07,-1.4363338039414242e-06,-6.356418860257791e-07,1.4775686827758192e-07,-1.046005253174992e-05,-1.0694981213152211e-06,2.455068411995728e-07,1.638665670566828e-08,-1.0876107876447683e-06,7.235157770031465e-07,1.5512899485062378e-07,9.811903849629431e-07,1.3408900074134237e-06,6.638210308800682e-08,8.477111583862392e-07,-4.11414797631264e-07
1.7154598818481902e-07,-1.0289870899081711e-07,-4.3808918327255024e-07,-1.3884072959558257e-06,-6.259181294357066e-07,-9.191051194050819e-07,-1.0377394956031563e-05,-1.02751935619305e-06,3.0157127593792814e-07,5.6368289240551066e-09,-1.1412854612965832e-06,7.875917319367625e-07,1.4325518728311445e-07,1.0022493461705035e-06,1.3938035400850682e-06,1.898293353786562e-07,9.056845134469894e-07,-3.8635325500984397e-07
1.875313234007024e-07,-7.743798467016395e-08,-4.3212940728392736e-07,-1.3026244870076119e-06,-6.143495357176824e-07,-2.2385587280268423e-06,-1.024525909959429e-05,-1.0184015424019802e-06,3.72758125280575e-07,-5.0141700163369915e-09,-1.1796302035177013e-06,8.566174702729467e-07,1.3995371135570804e-07,1.0145551263489639e-06,1.4401997916962219e-06,2.8215157679597583e-07,9.551174898571865e-07,-3.6830426038547975e-07
2.049525422580541e-07,-4.561435106214999e-08,-4.33009517251387e-07,-1.1711587259191713e-06,-5.9790260594873e-07,-3.7355343047522012e-06,-9.999349767892153e-06,-1.0474552298798047e-06,4.5463391477099993e-07,-1.2986935972234646e-08,-1.2004796838847847e-06,9.235107594573224e-07,1.4829036458522836e-07,1.018941315836076e-06,1.4855080805667683e-06,3.3704438166482014e-07,9.915125886865878e-07,-3.634971719025337e-07
2.1783233744072447e-07,-7.116123933909562e-09,-4.399508805285214e-07,-1.005337987447808e-06,-5.733954621887818e-07,-5.475850628610319e-06,-9.473055368998597e-06,-1.1114095093937373e-06,5.450520184279472e-07,-1.7869362208573607e-08,-1.207510949830708e-06,9.785172719869218e-07,1.651865518770779e-07,1.0156007638647063e-06,1.5338049090015051e-06,3.558397873241784e-07,1.0075062421895036e-06,-3.7631721780723213e-07
2.2074044957210002e-07,3.641256892750901e-08,-4.4920033334938237e-07,-9.163710309409457e-07,-5.397679854860824e-07,-7.298082895403002e-06,-8.521370069224705e-06,-1.1878327496186375e-06,6.352825630591059e-07,-1.903655301499384e-08,-1.210057148064671e-06,1.014170230636656e-06,1.8514831555401912e-07,1.0049176297552023e-06,1.5859049245326912e-06,3.4633500488089235e-07,1.0023686273371822e-06,-4.079173076530852e-07
2.0976617724740716e-07,8.146308681882105e-08,-4.5605083663128225e-07,-8.884614927828926e-07,-4.988380191905195e-07,-9.284876815255333e-06,-7.181647675083766e-06,-1.2439071362606927e-06,7.150065207145292e-07,-1.5349498600163256e-08,-1.2208625796029298e-06,1.0261068518868907e-06,2.026652571900842e-07,9.884219386416843e-07,1.639499383136981e-06,3.170575942559922e-07,9.688664505115048e-07,-4.524802667847793e-07
1.8297937299254914e-07,1.2249860811819505e-07,-4.56680214864722e-07,-1.0225432645850353e-06,-4.553226970180206e-07,-1.095082076699188e-05,-5.697001966581919e-06,-1.258235654780183e-06,7.82759671039742e-07,-5.201905215304018e-09,-1.2518012755421977e-06,1.0163893230897699e-06,2.0450274397554384e-07,9.691754358946651e-07,1.691346659939679e-06,2.7598129343920267e-07,9.341273041877421e-07,-5.066817924540456e-07
1.416236989496417e-07,1.5328196709461966e-07,-4.465043576835787e-07,-1.2395832144304205e-06,-4.1592205560730025e-07,-1.1753071828456083e-05,-4.3822593199866755e-06,-1.2262893125377687e-06,8.322007589143435e-07,6.656032080433548e-09,-1.3090671884066614e-06,9.930041802445185e-07,1.778642044893254e-07,9.518714539426766e-07,1.7396363659623039e-06,2.3546866568168159e-07,9.022086330867585e-07,-5.743345151664035e-07
9.125348842810541e-08,1.690790842848848e-07,-4.212741561614819e-07,-1.3053689534332681e-06,-3.859449918468349e-07,-1.1298682198931437e-05,-3.4928079614230407e-06,-1.1607767981976182e-06,8.449880534675687e-07,1.574377884049756e-08,-1.3934143458487102e-06,9.655700400159861e-07,1.1907178804114346e-07,9.428600388347192e-07,1.785522833158489e-06,2.193835533109544e-07,8.774777806976847e-07,-6.505197383544522e-07
4.077714595068039e-08,1.6814030772212838e-07,-3.800778011900506e-07,-1.324992582427437e-06,-3.6764303036537127e-07,-9.525400135147836e-06,-3.1902546431970314e-06,-1.080822305339354e-06,8.381622857000119e-07,3.4232233234457406e-08,-1.5007819056302277e-06,9.422822229620837e-07,3.1373653019321945e-08,9.488052032586047e-07,1.8329286121810157e-06,2.4146379410499767e-07,8.466119809742068e-07,-7.240216069424568e-07
-9.13825074673291e-10,1.5215035370800885e-07,-3.237069711911556e-07,-1.5088107894191345e-06,-3.601997626170512e-07,-6.756709829983538e-06,-3.53147949867121e-06,-1.0075468645670028e-06,8.14475615704885e-07,5.68358419473595e-08,-1.6249664374161456e-06,9.273819953294932e-07,-7.470291532848e-08,9.73375994346698e-07,1.8858132377344109e-06,2.9972473605325065e-07,8.077836061564419e-07,-7.924456934790586e-07
-2.8441377765179813e-08,1.2489730601237164e-07,-2.5519637438037813e-07,-1.7856786836768682e-06,-3.615974109738378e-07,-3.5365393532786902e-06,-4.428285773840263e-06,-9.571808612631215e-07,7.741911164745138e-07,7.625601765954895e-08,-1.756910913943356e-06,9.300771865200949e-07,-1.855840073507723e-07,1.014448440598593e-06,1.946061142012468e-06,3.98896094687109e-07,7.710931928606066e-07,-8.337498793217821e-07
-4.113442304931394e-08,9.618455142987753e-08,-1.762763492382695e-07,-2.107038937486602e-06,-3.671612354056355e-07,-1.020983665819839e-06,-5.6533666929798204e-06,-9.355780832203058e-07,7.403743279611428e-07,8.378961592589763e-08,-1.8861383070412443e-06,9.563273559137966e-07,-2.8450182982580223e-07,1.064947451337684e-06,2.0123614658329505e-06,5.25023831912293e-07,7.418511616993096e-07,-8.467068401451769e-07
-4.186354759316011e-08,7.36929709883508e-08,-9.35549174478822e-08,-2.364805245853063e-06,-3.7187935848417385e-07,1.2098299375946679e-06,-6.934988096423857e-06,-9.366319523034872e-07,7.194746367531029e-07,9.299772723423882e-08,-2.0010211397129685e-06,1.0087821084911985e-06,-3.6040810480969196e-07,1.1172183729330883e-06,2.079532395993827e-06,6.517268411470906e-07,7.382664599763304e-07,-8.621254304397349e-07
-3.52336290285626e-08,6.150663568213987e-08,-5.6491761131572785e-09,-2.4833116428616583e-06,-3.785847676150269e-07,8.210881643242572e-07,-8.057275886944877e-06,-9.570656961365557e-07,7.11389355181831e-07,1.0741308801090704e-07,-2.0888433463073786e-06,1.0774417416949863e-06,-4.006981296555994e-07,1.1669559732641441e-06,2.1401651035753924e-06,7.7036896413277e-07,7.233224128626259e-07,-8.852908607331641e-07
-2.615970569769215e-08,6.63673214948213e-08,8.175048996087304e-08,-2.4749218861327705e-06,-3.789898320055747e-07,-3.8636203428505363e-07,-8.905246852796434e-06,-9.94375587793792e-07,7.218076503007225e-07,1.6030233455222982e-07,-2.143520193066297e-06,1.1506177985761277e-06,-3.980193766194892e-07,1.2139415371179275e-06,2.191720917929828e-06,8.896935005869022e-07,6.801748179803863e-07,-9.44429290460673e-07
-1.842390446912703e-08,8.883566896834337e-08,1.4490235947849194e-07,-2.4703934992281076e-06,-3.7972081600661936e-07,4.482838932620262e-07,-9.48738471531383e-06,-1.0392918889278595e-06,7.183153943199131e-07,2.6232869200215127e-07,-2.1601818151014367e-06,1.1828845210400534e-06,-3.5951528653159764e-07,1.259824945842297e-06,2.226736670481406e-06,9.676055264320675e-07,5.782404090762763e-07,-1.0889985506871488e-06
-1.3026605241682718e-08,1.3056366034999662e-07,1.5113039406548608e-07,-2.486196697815816e-06,-3.966817517915415e-07,-1.0512992746452e-06,-9.94252042890222e-06,-1.085699777921191e-06,6.464965170862371e-07,3.326667254110481e-07,-2.1367049369849108e-06,1.1324864019143865e-06,-2.7219651493888866e-07,1.3044162786129265e-06,2.242542163107632e-06,1.0735350886872853e-06,3.859040620776599e-07,-1.1887552576871074e-06
-5.527919836228452e-09,1.8999919421958468e-07,1.533338909261467e-07,-2.5000956727940764e-06,-4.3444167351984646e-07,-3.524894690710229e-06,-1.0464430738004082e-05,-1.1249441340980454e-06,5.982812956367698e-07,3.788912939916926e-07,-2.0761381787477926e-06,9.79687167818093e-07,-1.5263703814572664e-07,1.3423444648129066e-06,2.242261921188681e-06,1.2644887016255248e-06,2.2513527520344294e-07,-1.3024647850261664e-06
6.964248736137814e-09,2.69842580238545e-07,1.5018158308409042e-07,-2.465784722157867e-06,-4.795398197857305e-07,-2.4249408716344e-06,-1.112679807518834e-05,-1.145172860978906e-06,5.38378888606355e-07,4.3054745112074266e-07,-1.9942429310731505e-06,8.258352760985725e-07,-1.8141511839093923e-08,1.3618182592503513e-06,2.244293596614947e-06,1.3912033720011686e-06,7.155915501131545e-08,-1.4390606923857774e-06
2.983896661091512e-08,3.404334680081392e-07,9.132486437230345e-08,-2.2770782526239317e-06,-5.182573101168242e-07,-1.3903953700666448e-07,-1.173762173634595e-05,-1.1343011748636616e-06,4.107782114630658e-07,5.156285811085461e-07,-1.903505027881576e-06,7.012779351117426e-07,1.0683457712672803e-07,1.3476497266520015e-06,2.2800520240633496e-06,1.5182296886089788e-06,-7.178205034013254e-08,-1.559205397630024e-06
6.832503174291069e-08,3.575369289250516e-07,3.33116136467258e-08,-2.018198364761602e-06,-5.036660028866716e-07,1.6988003253998584e-06,-1.1878298684961745e-05,-1.082271797125666e-06,3.212789717195287e-07,6.782229802033403e-07,-1.8526545227682219e-06,6.084846212245101e-07,1.942172508548721e-07,1.2885227077921644e-06,2.3717454771484673e-06,1.6620640517987657e-06,-1.9808743844473896e-07,-1.6800548287453198e-06
1.2656894278397095e-07,3.392947566257991e-07,3.8654969634602554e-08,-1.7473366749865842e-06,-4.325275423960972e-07,1.971736045592271e-06,-1.1103485529951708e-05,-9.81413123450469e-07,2.4704833330595097e-07,8.028987037620924e-07,-1.8615753069865627e-06,4.800090037573621e-07,2.256652617693306e-07,1.1844329321019744e-06,2.5267151303235513e-06,1.6970657415046147e-06,-3.608885262204414e-07,-1.7923103340287506e-06
2.064358225406178e-07,2.8639585431269e-07,9.397631564405238e-08,-1.5690703581022028e-06,-3.631185430164388e-07,3.803930244841062e-06,-9.146625379239578e-06,-8.298140657125414e-07,1.1638406452053635e-07,8.892527244681425e-07,-1.8707562996076338e-06,3.2597190917309837e-07,1.9841043812271436e-07,1.0488023493617961e-06,2.677805208925186e-06,1.7244598350959371e-06,-4.977036140311143e-07,-1.932084449901495e-06
3.0558964315382674e-07,2.6865465550102514e-07,1.6788850919463287e-07,-1.576104767243334e-06,-3.248689019086418e-07,6.9005832216944515e-06,-6.0551493874257225e-06,-6.375414352429131e-07,1.3426647542984404e-08,9.453449372952483e-07,-1.824057240170409e-06,1.8926605680585152e-07,1.9829674750422042e-07,9.025073460963417e-07,2.7367163782042886e-06,1.928563747245479e-06,-6.635210668254368e-07,-2.04207119294115e-06
4.1213219932102687e-07,2.527870227574661e-07,2.294859534042856e-07,-1.5883508414595685e-06,-2.726713658965675e-07,7.858897443381977e-06,-2.255947837925872e-06,-4.2158502666479885e-07,-6.635438722960383e-08,1.0176276993165483e-06,-1.7060161630380556e-06,7.842093815431712e-08,2.801302728757196e-07,7.629442906207768e-07,2.646941334461901e-06,2.0632591056065764e-06,-8.41160989956347e-07,-2.186288530835557e-06
4.800121186212427e-07,1.4549684594629855e-07,2.765283754435523e-07,-1.5586317242691313e-06,-2.2430442288671222e-07,7.269552320322173e-06,1.499949282853432e-06,-2.0116808298094872e-07,-1.604572127711952e-07,1.0675351229986822e-06,-1.571333314134574e-06,-3.4273676731537195e-08,3.949579267905176e-07,6.36113490879146e-07,2.5554340448871895e-06,2.1232648588495354e-06,-1.0172255841906271e-06,-2.3265543049260994e-06
5.253301231190106e-07,4.4760619346967784e-08,3.385590512042112e-07,-1.5250529091681369e-06,-1.4273532212315795e-07,7.73036810799494e-06,4.362331881168134e-06,1.1550771074248643e-08,-1.8053290877083516e-07,1.0746179637356916e-06,-1.4627682088594878e-06,-8.576037398832622e-08,5.087019512118847e-07,5.178868550540335e-07,2.472424659452916e-06,2.177967254935081e-06,-1.1891254303969314e-06,-2.4609616581841927e-06
5.523354709256938e-07,-3.74415610885602e-08,4.172280187620727e-07,-1.4706965975934709e-06,-5.626802082119199e-08,8.153346911354067e-06,5.6790827258041785e-06,2.107870277283916e-07,-1.8596282498179097e-07,1.0800418985464463e-06,-1.3428969494253335e-06,-1.326783886965195e-07,7.044620205575396e-07,4.023571916126264e-07,2.371394583175729e-06,2.1803899481101053e-06,-1.3495081319289865e-06,-2.5802785022254283e-06
5.710469512443704e-07,-1.2477390814670286e-07,5.396431750247723e-07,-1.395307745945951e-06,2.5161564187175042e-08,7.874478287234351e-06,5.184463769533241e-06,3.9023862830561524e-07,-1.6288573158494803e-07,1.089565043658781e-06,-1.1588311038512227e-06,-1.6744270336336017e-07,9.022732550772926e-07,2.8953931894549e-07,2.3032998143622006e-06,2.27300106398056e-06,-1.5105113479820273e-06,-2.703713561402507e-06
6.186203655356786e-07,-1.2163582578552487e-07,6.664122028736858e-07,-1.3209533244066565e-06,7.322535194130811e-08,5.281179256702429e-06,3.007537489688983e-06,5.432062348290702e-07,-1.4119941757767403e-07,1.087152295850165e-06,-1.0844122205357232e-06,-1.0099260845835805e-07,9.600102085571034e-07,1.873501821092543e-07,2.136901998047383e-06,2.3854067325415644e-06,-1.660888270808827e-06,-2.834326833614694e-06
6.082387833022179e-07,-1.1718752822212212e-07,7.834015770276012e-07,-1.2526704097652684e-06,1.4094237940050245e-07,1.2391619879858881e-06,-4.4019400417193614e-07,6.560653590368643e-07,-1.2929079377787488e-07,1.1108723430819225e-06,-1.0229704047379427e-06,2.369622005982724e-08,1.0017433816987857e-06,1.0771990864628953e-07,1.8969230796798748e-06,2.4406858159765804e-06,-1.8085726277821255e-06,-2.962635377146237e-06
5.731674455884044e-07,-1.1284396283213165e-07,8.9034217559942e-07,-1.196206022498271e-06,1.9303686945025395e-07,-7.582946052500037e-07,-4.6009443871090644e-06,7.179342228065867e-07,-7.292748006201059e-08,1.1348897892614698e-06,-9.904604671804317e-07,7.762616119748206e-08,1.0851380422176198e-06,5.934154962340313e-08,1.7500224174412502e-06,2.4660727287469646e-06,-1.97472148077471e-06,-3.0939867790658928e-06
5.50056678797977e-07,-1.0736995730800266e-07,9.60694691417111e-07,-1.1598198928232233e-06,2.3116781978773813e-07,-2.3701687024161743e-07,-8.863666207007126e-06,7.269997374352843e-07,-4.8459583936243564e-08,1.1192514701518213e-06,-9.760248802263193e-07,1.321832067143096e-07,1.0831264870603942e-06,4.129762089850166e-08,1.6111988327185087e-06,2.495751859208978e-06,-2.091095262859842e-06,-3.1910666452553616e-06
5.089430936861567e-07,-1.1087688790912489e-07,1.0030659705879425e-06,-1.1535400065297307e-06,2.6309243706195936e-07,-1.9044434312936536e-06,-1.2649099761595276e-05,6.918612446482814e-07,-1.747576047009648e-07,1.0957417236762366e-06,-9.385972117045518e-07,1.5580817431273797e-07,1.011215062550592e-06,4.220569355978274e-08,1.5026861120633695e-06,2.5100202881690953e-06,-2.180584200553239e-06,-3.2697218764940137e-06
4.696166569737813e-07,-1.2626588819262312e-07,1.0259952351184798e-06,-1.1861192301187752e-06,2.7581042007116514e-07,-2.7461295784736877e-06,-1.552171241299162e-05,6.320913486936861e-07,-3.039196477981862e-07,1.0488755845376815e-06,-1.0089788364087649e-06,1.5386195299888517e-07,9.212129265176594e-07,4.63541699766072e-08,1.6051147009781647e-06,2.5731854788728813e-06,-2.233595812930544e-06,-3.3194221619097957e-06
4.324029933494771e-07,-1.56550704694433e-07,1.0332801090438277e-06,-1.25488222486068e-06,2.65765630040044e-07,-1.7391636772379951e-06,-1.7230002518785625e-05,5.707692015799282e-07,-3.597257167932826e-07,9.823180879425007e-07,-1.0899412068422037e-06,1.2586914046082288e-07,8.724221103817654e-07,4.1977082822166666e-08,1.7439580566150984e-06,2.656853278272947e-06,-2.29072399550696e-06,-3.346162111547418e-06
3.905369399435371e-07,-1.9930536017500384e-07,1.0332938806790008e-06,-1.3472129612927442e-06,2.552420471844348e-07,1.1645899975808637e-06,-1.763590638384965e-05,5.241532203047346e-07,-3.3386451190279504e-07,9.352816513517643e-07,-1.157208842908956e-06,7.861196367192282e-08,8.601854482604204e-07,2.5042042889336645e-08,1.799385551313386e-06,2.7659420738637353e-06,-2.350161429391235e-06,-3.3563377723093108e-06
3.5434661548471195e-07,-2.481045735739546e-07,1.027692341823419e-06,-1.4448443576137563e-06,2.431071683699411e-07,2.832336856899532e-06,-1.66779416057533e-05,4.957222910845452e-07,-2.8561791887586834e-07,9.047653466706671e-07,-1.2204703661743216e-06,3.713470603579152e-08,8.699879556626735e-07,-2.6768903267655806e-09,1.7617875188789157e-06,2.8397824590105065e-06,-2.377587946198624e-06,-3.3456671822819508e-06
3.1795735395597875e-07,-2.968331925838668e-07,1.0185983182415521e-06,-1.5305215104522877e-06,2.2257794352565785e-07,3.332934238051093e-06,-1.4453277276946848e-05,4.824996023363721e-07,-2.404841429540968e-07,8.595307439510479e-07,-1.2327602520993981e-06,5.394035095007288e-10,8.966458697459435e-07,-3.727923038041921e-08,1.671871647854843e-06,2.862138828361931e-06,-2.400134175518967e-06,-3.333693441177103e-06
2.8149770928798715e-07,-3.417241726673462e-07,1.0070604141338471e-06,-1.5933050693808719e-06,2.117232746357798e-07,3.003904128204391e-06,-1.1313676953057356e-05,4.814665186384001e-07,-2.0009843601105824e-07,8.040142857816382e-07,-1.2138096770917101e-06,-3.224659120224554e-08,9.313313850483485e-07,-7.530961382948298e-08,1.5444381295524674e-06,2.8620230827584472e-06,-2.415008712837581e-06,-3.32946476351123e-06
2.4650652683094546e-07,-3.8134310845295065e-07,9.940659291453558e-07,-1.6317811280972177e-06,1.9785395165833915e-07,2.8034918782801865e-07,-7.85667840457567e-06,4.995745585855171e-07,-1.7245152737648226e-07,7.391669700541345e-07,-1.1702315692069641e-06,-5.993691383600015e-08,9.71187529624816e-07,-1.149912034387894e-07,1.3933341222208655e-06,2.8422021404568424e-06,-2.4350922272076388e-06,-3.328175467297249e-06
2.1252275873617476e-07,-4.155535211906128e-07,9.811690370984916e-07,-1.659457791640732e-06,1.7712457873842834e-07,-3.953651585953866e-06,-4.813135239568569e-06,5.495427377007916e-07,-1.4128329476300057e-07,6.72103324724058e-07,-1.104905352619512e-06,-8.072601031769065e-08,1.0184300516274785e-06,-1.5643754128607126e-07,1.2281929263333059e-06,2.8457017594697855e-06,-2.4615565628468043e-06,-3.337160895876321e-06
1.7984921826912315e-07,-4.4588352042180343e-07,9.691719793258223e-07,-1.6930679954997244e-06,1.5690407204787606e-07,-8.257647718581174e-06,-2.8679492192804094e-06,6.444094541405009e-07,-9.389036113735615e-08,6.350323314494381e-07,-1.0374634183916872e-06,-9.440982402205955e-08,1.0784760075378272e-06,-2.010864181469619e-07,1.0506505367413312e-06,2.8223143558662e-06,-2.5306569050863804e-06,-3.3659221454793643e-06
1.484907389193997e-07,-4.7563034399177844e-07,9.573052564606965e-07,-1.7488606075101034e-06,1.3453399336086598e-07,-1.132911813416866e-05,-2.423565132399394e-06,7.8840782959551e-07,-2.5724897305687253e-08,6.206025956436256e-07,-9.684189282709048e-07,-1.017127084126887e-07,1.154580462232682e-06,-2.5035260398079155e-07,8.586281308865593e-07,2.787363795103824e-06,-2.6366984274900475e-06,-3.4139911291087596e-06
1.1832532926635313e-07,-5.09295605661553e-07,9.455605480203681e-07,-1.8427998481463036e-06,1.1567831050876004e-07,-1.174263988550223e-05,-3.412484955143818e-06,9.755658962460772e-07,5.531295966742183e-08,6.09719531307426e-07,-9.02617296572633e-07,-1.014864263880855e-07,1.245459920388113e-06,-3.0376426852098687e-07,6.504611477309915e-07,2.749747004305086e-06,-2.771963329321389e-06,-3.49361317019867e-06
9.010129647917997e-08,-5.502616970430221e-07,9.344173110622541e-07,-1.95732492981429e-06,1.0064312882050956e-07,-9.492589811448185e-06,-5.359575476691725e-06,1.1828180810296963e-06,1.5158213795833475e-07,6.038462098815682e-07,-8.515282570706656e-07,-9.290409913734537e-08,1.341677836006315e-06,-3.577811443690095e-07,4.4142874282811044e-07,2.720881505570834e-06,-2.9421090240599376e-06,-3.5849705587067487e-06
6.552983295753941e-08,-5.988430231410441e-07,9.261836925976055e-07,-2.0843813356421726e-06,8.751735761070763e-08,-6.992967442863716e-06,-7.70734223244866e-06,1.3733953059843597e-06,2.5115741825573644e-07,6.003301088470505e-07,-8.23977410710258e-07,-7.565530880150244e-08,1.4252848595884473e-06,-4.0675932339792417e-07,2.4089944217143945e-07,2.7004057614986035e-06,-3.1182297508792547e-06,-3.6637830075677334e-06
4.538760793285508e-08,-6.526661313842217e-07,9.246976005953806e-07,-2.2187692025655085e-06,7.177664464323073e-08,-5.098303154442104e-06,-1.0115908003582466e-05,1.520119450355592e-06,3.318443825855432e-07,5.952848083611562e-07,-8.239249033259364e-07,-5.127373865082726e-08,1.4790958680297004e-06,-4.458070013201615e-07,6.036956425106693e-08,2.6545106568628156e-06,-3.277561356844367e-06,-3.7201557583013762e-06
2.7206346786470326e-08,-7.082750974852489e-07,9.329327537726616e-07,-2.3519238917098054e-06,5.216461322909874e-08,-2.6988926490720715e-06,-1.2456464110237125e-05,1.5963896168785196e-06,3.8099288275470863e-07,5.877012049308382e-07,-8.489427199959994e-07,-1.926709073442957e-08,1.477993659693913e-06,-4.735183303336676e-07,-8.83930867384721e-08,2.589407787605037e-06,-3.410792456015086e-06,-3.751506943602922e-06
5.64607168991661e-09,-7.620223101447309e-07,9.488891578395259e-07,-2.48044402298325e-06,2.9960684330048987e-08,-5.868411653773711e-07,-1.4563047762865351e-05,1.5847291138291628e-06,3.88152307308395e-07,5.745632735076614e-07,-8.907976750180341e-07,1.758993077969261e-08,1.3951223474803378e-06,-4.924540069663826e-07,-2.0221619946070307e-07,2.506299492436127e-06,-3.5162371873438672e-06,-3.7636445322086395e-06
-2.4113167965780424e-08,-8.095392698954331e-07,9.66958956213592e-07,-2.5905082546255593e-06,7.207782913276718e-09,-1.0502446770854748e-07,-1.6076354048268093e-05,1.4850297209991374e-06,3.5595338872985776e-07,5.480936182737829e-07,-9.376510353683465e-07,4.744506735498724e-08,1.3135883967064194e-06,-5.073846576740128e-07,-2.8181224368608254e-07,2.427943163270508e-06,-3.5896841243091536e-06,-3.773333509525098e-06
-6.349594309736883e-08,-8.454543182568321e-07,9.81126359041005e-07,-2.670855234181437e-06,-1.2491227089859004e-08,-6.161464559953806e-07,-1.657974897061763e-05,1.3117030963606756e-06,3.010324470013702e-07,5.122862374885215e-07,-9.774497346687142e-07,1.1306202555400933e-08,1.1671818089515406e-06,-5.238592093794326e-07,-3.3295447051676595e-07,2.365405546362253e-06,-3.648435636285688e-06,-3.786550212410038e-06
-1.1030761435695876e-07,-8.644448040344559e-07,9.860811515182678e-07,-2.6788423072915114e-06,-2.7197143109001485e-08,-1.45247866133403e-06,-1.5888287799206664e-05,1.0912761043161612e-06,2.441189119850804e-07,4.752045959041368e-07,-1.0015013167621962e-06,-8.761249577381036e-08,1.029450095736691e-06,-5.485851062450099e-07,-3.666886779872312e-07,2.3171182373479093e-06,-3.697887218254932e-06,-3.801985233380445e-06
-1.6173237046122651e-07,-8.64508176609102e-07,9.79834879018206e-07,-2.603809609233873e-06,-3.751763921857073e-08,-2.4663524438697696e-06,-1.4215418054539085e-05,8.56551471429087e-07,2.031056647491162e-07,4.3922323837439336e-07,-1.0071876041021085e-06,-1.7377056579348234e-07,9.115235183727182e-07,-5.894459592151074e-07,-3.9619683536841907e-07,2.273500603265677e-06,-3.752114723621757e-06,-3.828245825776751e-06
-2.1616789198506764e-07,-8.478825279412412e-07,9.64315717483555e-07,-2.456229687082703e-06,-4.4652939942259766e-08,-2.783202320320001e-06,-1.2089578776306831e-05,6.473503844722651e-07,1.897371659635855e-07,4.101105152288175e-07,-9.978760058573895e-07,-2.366060702505156e-07,8.264879582319161e-07,-6.529296307777444e-07,-4.288457568059021e-07,2.2291743777490163e-06,-3.818294100503791e-06,-3.855673277625816e-06
-2.7277019117951866e-07,-8.205134702800924e-07,9.435289855042949e-07,-2.2596544561763308e-06,-4.766023969753662e-08,-2.121050963571442e-06,-1.0128462096659079e-05,4.890325554926218e-07,2.0484294358084727e-07,3.921874745217451e-07,-9.806090997962487e-07,-2.9840805941556684e-07,7.764145613152164e-07,-7.403222428912743e-07,-4.689017512468569e-07,2.187495582848692e-06,-3.8955850992563146e-06,-3.879259218131414e-06
-3.303171215477434e-07,-7.898474229227705e-07,9.18990779469238e-07,-2.0607833495296513e-06,-4.614718079414491e-08,-5.415002880726848e-07,-8.866439938368446e-06,4.0365564074433853e-07,2.422396185650951e-07,3.846274249620435e-07,-9.636381703989487e-07,-3.381220513035829e-07,7.555448906805014e-07,-8.457483920721431e-07,-5.168542155004642e-07,2.143200488628436e-06,-3.984864906029347e-06,-3.90390687883367e-06
-3.86909626941123e-07,-7.635807311686052e-07,8.973808276706321e-07,-1.8980766256131027e-06,-3.9966566160753874e-08,1.837464624218506e-06,-8.6711844109453e-06,4.0190467435685025e-07,2.928597844178081e-07,3.8524655522119364e-07,-9.545338376888067e-07,-3.542817502968716e-07,7.513526343639244e-07,-9.573788518387604e-07,-5.693254813301353e-07,2.0864834591815375e-06,-4.083634859705441e-06,-3.928442069488035e-06
-4.406168093883436e-07,-7.484016187547166e-07,8.813237256195564e-07,-1.7968736706424301e-06,-3.006283317907142e-08,4.534477387860577e-06,-9.62651218705926e-06,4.896738295042059e-07,3.4551332449059255e-07,3.9045718342129493e-07,-9.582841024581958e-07,-3.712635889999481e-07,7.51857612483859e-07,-1.0610564061762124e-06,-6.223047857120113e-07,2.031929008315813e-06,-4.1835688072820316e-06,-3.954823966057628e-06
-4.896169703234909e-07,-7.479756856528924e-07,8.709716069165819e-07,-1.7649000413670044e-06,-1.8899842868303003e-08,7.056738272278311e-06,-1.1391134862273167e-05,6.445762191185835e-07,3.891558786066083e-07,3.959315603494998e-07,-9.75978224759815e-07,-3.856847871412519e-07,7.504723654231652e-07,-1.1447408916192529e-06,-6.726275583614168e-07,1.9647152560710803e-06,-4.277700840011199e-06,-3.983708554986059e-06
-5.319324670310576e-07,-7.61246507906713e-07,8.65811002550436e-07,-1.7858387481710806e-06,-8.478984653321913e-09,8.93813897179431e-06,-1.3265848224848347e-05,8.161300326894113e-07,4.1410744955712237e-07,3.9856683594642714e-07,-1.004804152531724e-06,-3.997039783743753e-07,7.460466923058093e-07,-1.201876040835716e-06,-7.289801983744579e-07,1.8845585383219346e-06,-4.36244759943302e-06,-4.010487422022713e-06
-5.653786421129088e-07,-7.824354675685285e-07,8.624453661573624e-07,-1.8306680977482849e-06,-4.1483482713995573e-10,9.74607053549795e-06,-1.457101202324071e-05,9.673647177555695e-07,4.1406219324435053e-07,3.9545434518373833e-07,-1.0394948845789638e-06,-4.1409353465115227e-07,7.432464296803685e-07,-1.2323891254346947e-06,-7.882875609359152e-07,1.8030063982389193e-06,-4.429250507937635e-06,-4.029148865257033e-06
-5.884427717701329e-07,-8.036897766100359e-07,8.576128755408929e-07,-1.8673458765049505e-06,4.4673270441335445e-09,9.275051887192026e-06,-1.505286396689856e-05,1.0600065280527428e-06,3.8845732598810825e-07,3.858208987250404e-07,-1.0742744118026366e-06,-4.2388860783905924e-07,7.484498862946635e-07,-1.2412835783551611e-06,-8.432587943344159e-07,1.7306559592771032e-06,-4.474667281160425e-06,-4.038453078945594e-06
-6.009921815324391e-07,-8.179340230205968e-07,8.521652061671758e-07,-1.8672055895769569e-06,6.725234831195262e-09,7.664530192038547e-06,-1.497344862477141e-05,1.0713774345436561e-06,3.4545640239403956e-07,3.7101403607310436e-07,-1.1023061272395298e-06,-4.3264686803798897e-07,7.673318551674919e-07,-1.2360644990860376e-06,-8.872461433285939e-07,1.6874451347081388e-06,-4.497967618433024e-06,-4.03865592905945e-06
-6.039436452591032e-07,-8.205329468844065e-07,8.454176218913167e-07,-1.8090343507605139e-06,8.063824412139083e-09,5.474503444377785e-06,-1.4865720246477687e-05,1.0092535780510557e-06,3.027969999290465e-07,3.510727453886392e-07,-1.118487502721621e-06,-4.4453535157415393e-07,7.991684449375386e-07,-1.2247192166480661e-06,-9.163883759433591e-07,1.671987366803177e-06,-4.501750258604145e-06,-4.031618562509105e-06
-5.986613820965111e-07,-8.093036725189191e-07,8.384150904879782e-07,-1.693096287056368e-06,1.08007257626029e-08,3.4368663539191056e-06,-1.5154410711692657e-05,8.876191551006058e-07,2.7849816171179436e-07,3.2947653582214065e-07,-1.1184100140360807e-06,-4.6097841499606083e-07,8.35622045493851e-07,-1.2147142828947956e-06,-9.372489501010453e-07,1.669748514137332e-06,-4.493704616494534e-06,-4.022415516066438e-06
-5.86517712593085e-07,-7.840761873838952e-07,8.358469682706336e-07,-1.5461155533084846e-06,1.6002370833544218e-08,2.1621701995419963e-06,-1.5831831062945947e-05,7.267679409753427e-07,2.871587864605013e-07,3.1288878777848314e-07,-1.09916341810059e-06,-4.804432288408851e-07,8.717697337483167e-07,-1.2119821830779925e-06,-9.610460590478818e-07,1.6509051729756526e-06,-4.489497913188831e-06,-4.0249599748547954e-06
-5.690632346892021e-07,-7.461862852641333e-07,8.394734321120505e-07,-1.3822731408234463e-06,2.2302043115152072e-08,1.9219395844412887e-06,-1.637709150301789e-05,5.595524809641978e-07,3.330282087220154e-07,3.036766900064874e-07,-1.061308946231278e-06,-4.977152853183532e-07,9.038594977536773e-07,-1.2192360661706903e-06,-9.747892095905674e-07,1.596363939439752e-06,-4.497010547918826e-06,-4.034306249599138e-06
-5.474966048673958e-07,-6.978520439423503e-07,8.530606876860678e-07,-1.225808020872197e-06,2.6660280262228363e-08,2.586142307279899e-06,-1.601572525042921e-05,4.1740962184641533e-07,4.0963279241998203e-07,3.0612488616392145e-07,-1.004996013899266e-06,-5.081672378505196e-07,9.299859448103891e-07,-1.233811400700396e-06,-9.928362634862606e-07,1.5035625241273238e-06,-4.52061061510196e-06,-4.04805167250417e-06
-5.222934393878796e-07,-6.411300766525431e-07,8.788569268435671e-07,-1.0892921471794497e-06,2.6951517979797193e-08,3.7549811811861226e-06,-1.4144920781805544e-05,3.2027931728260255e-07,5.02789871465827e-07,3.2273825495421264e-07,-9.379870319851976e-07,-5.055764306853776e-07,9.505425084195823e-07,-1.252510418195721e-06,-1.0133975540100953e-06,1.3897168505069754e-06,-4.5529390414900125e-06,-4.063874275083762e-06
-4.92899636958556e-07,-5.78081958273353e-07,9.157009377336792e-07,-9.822029206042795e-07,2.4160651279792484e-08,4.968193389157942e-06,-1.0638073372088921e-05,2.8354672083917437e-07,5.94489428702388e-07,3.4721940236775996e-07,-8.666741467792571e-07,-4.873622531121864e-07,9.64623697191127e-07,-1.2668636959616672e-06,-1.0164374058456518e-06,1.2860627791557063e-06,-4.580069142269847e-06,-4.07584462073428e-06
-4.5860357944638155e-07,-5.115624010388965e-07,9.603077652288453e-07,-9.116358170392718e-07,2.128968628760326e-08,5.875852454198208e-06,-5.9130757719891715e-06,3.0689889358206313e-07,6.705742315844199e-07,3.794588797479526e-07,-7.970047290146998e-07,-4.5540603380080865e-07,9.70724841045183e-07,-1.2723125113604024e-06,-9.988279316504642e-07,1.2211212260706986e-06,-4.5870352286956815e-06,-4.072172675003252e-06
-4.194418243516175e-07,-4.449215263849953e-07,1.0055257523479685e-06,-8.922987139557014e-07,2.219680598704252e-08,6.279111064652071e-06,-8.106328117336458e-07,3.5864646602873627e-07,7.213559534337738e-07,4.1712136424988096e-07,-7.353044810155117e-07,-4.1450170137939076e-07,9.69069939591045e-07,-1.2685762460601582e-06,-9.481675525901621e-07,1.2165964841428804e-06,-4.561009112456766e-06,-4.0591933530523e-06
-3.7568370266771313e-07,-3.811325318196311e-07,1.0484583407437842e-06,-8.934011836780229e-07,2.9601628588592822e-08,6.115102868418966e-06,3.6412550482475214e-06,4.2812139142284114e-07,7.448116504355093e-07,4.5538405085536835e-07,-6.86451824137408e-07,-3.714480803772797e-07,9.636225033210958e-07,-1.2550050223547233e-06,-8.577230999862145e-07,1.2682968845688304e-06,-4.52047045242342e-06,-4.038229033495497e-06
-3.273897827982407e-07,-3.2183929944743433e-07,1.0887193575328511e-06,-9.112495701436102e-07,4.34510246154756e-08,5.405061125623116e-06,6.498589805113122e-06,5.031105725300871e-07,7.458994474376965e-07,4.895861812518776e-07,-6.521873707177309e-07,-3.3442502793846303e-07,9.60299175681536e-07,-1.231731786245028e-06,-7.307537774219948e-07,1.3742106480123546e-06,-4.445408102749986e-06,-4.00417805026197e-06
-2.748101339704573e-07,-2.667551016754408e-07,1.1254395646532617e-06,-9.464322523859205e-07,6.030961629703259e-08,4.254092062318478e-06,7.136720148342792e-06,5.865699655572439e-07,7.329481700935199e-07,5.240990663981269e-07,-6.307015197382723e-07,-3.093945453753447e-07,9.69805637993877e-07,-1.1985895944514294e-06,-5.779095697516703e-07,1.5138683834172103e-06,-4.349700364768992e-06,-3.962914385315973e-06
-2.193530485755162e-07,-2.1681147031756925e-07,1.1609731564230947e-06,-9.653420407447627e-07,7.656477573428903e-08,2.8862603592639936e-06,5.423309747514341e-06,6.652168709193901e-07,7.147080979517387e-07,5.557857337089718e-07,-6.201473238769399e-07,-2.975658640038744e-07,9.948505776940247e-07,-1.156418244870976e-06,-4.0097615298637595e-07,1.6589235211876724e-06,-4.255277113968588e-06,-3.914829408177487e-06
-1.6364980280961755e-07,-1.699080921884732e-07,1.1944715827125447e-06,-1.0171034548050699e-06,8.886115571912255e-08,1.59159832588733e-06,1.8040347801686574e-06,7.21430221974989e-07,6.967073888148603e-07,5.817233497269736e-07,-6.156807618059038e-07,-2.9630964705642264e-07,1.035699616214001e-06,-1.1029922636150131e-06,-2.569693668509082e-07,1.7888138873425314e-06,-4.169936213184549e-06,-3.862125436805299e-06
-1.107763148125281e-07,-1.2636379470256198e-07,1.2240228692993392e-06,-1.074837383222078e-06,9.540527851412219e-08,6.267917709766528e-07,-2.7928000402112304e-06,7.609302362339492e-07,6.914438595951005e-07,6.032994874442757e-07,-6.098104382465398e-07,-2.9878749799237064e-07,1.0913747655794558e-06,-1.0386098345756946e-06,-1.452316370538425e-07,1.8846997329903943e-06,-4.106586871255804e-06,-3.8090993844863028e-06
-6.361310865041733e-08,-8.722039780031367e-08,1.2475828086033357e-06,-1.094894046510254e-06,9.779412273183512e-08,1.4480129028274774e-07,-7.277924964100362e-06,7.650277308078082e-07,7.050028547588378e-07,6.172766328879376e-07,-6.100084022614488e-07,-2.979873363094371e-07,1.1330181278735557e-06,-9.684940770466736e-07,-6.06998560773356e-08,1.9421558331627248e-06,-4.064245090577342e-06,-3.7633310658634548e-06
-2.4939854028115125e-08,-5.347984859536713e-08,1.264818158671228e-06,-1.0965742823683813e-06,9.608401560831559e-08,2.2001604299378434e-07,-1.0795785822824154e-05,7.228811688666716e-07,7.181255799434446e-07,6.310797845434905e-07,-6.14120895895547e-07,-2.926964118921693e-07,1.1618494003265252e-06,-8.92019550767932e-07,2.169544501664614e-08,1.96453000188363e-06,-4.037094163515324e-06,-3.7277098814979483e-06
3.6443270646062447e-10,-2.7348009951455084e-08,1.2736177644933675e-06,-1.0833513304724666e-06,9.153098000041257e-08,8.515409692850182e-07,-1.2964813679846708e-05,6.768217496973049e-07,7.312645783117912e-07,6.449697816045691e-07,-6.198777819420261e-07,-2.878897270287962e-07,1.2037423389175623e-06,-8.136604875460684e-07,1.0471516365286386e-07,1.9635837629341248e-06,-4.0237097554786905e-06,-3.704116722674607e-06
1.1344699618234836e-08,-1.0151449316936366e-08,1.2715129522601052e-06,-1.0800060959860258e-06,8.22089795658291e-08,1.8780485700913473e-06,-1.3882957008062542e-05,6.487485787259308e-07,7.436831392308372e-07,6.59751961564235e-07,-6.33138436045619e-07,-2.85433523690149e-07,1.2379959399995076e-06,-7.42056249386858e-07,1.7286648929141253e-07,1.953699898592684e-06,-3.994428887510489e-06,-3.689348997491169e-06
9.558639618347366e-09,-1.7882444196984735e-09,1.2624280329681875e-06,-1.080091760401373e-06,6.863187554140032e-08,2.9694638107574727e-06,-1.397484029825114e-05,6.398186158539878e-07,7.602290694015857e-07,6.739629796584084e-07,-6.516831319961425e-07,-2.844269549665529e-07,1.2243350704784055e-06,-6.861220381947176e-07,1.7372738622695396e-07,1.9528676912514606e-06,-3.947644482563397e-06,-3.681202814446914e-06
-1.9247886482203494e-09,-2.3357235101332187e-09,1.2466294868903516e-06,-1.071880946985721e-06,5.381284730336666e-08,3.822833478683216e-06,-1.3762959342493e-05,6.488779546097103e-07,7.79140650972699e-07,6.811724722916248e-07,-6.831666004613499e-07,-2.743766207741384e-07,1.1753359378109487e-06,-6.63471991867196e-07,1.1323018082147715e-07,1.9786872975827813e-06,-3.889658167863391e-06,-3.677489727852295e-06
-1.8100001312552392e-08,-1.4413085720203953e-08,1.2236381048309285e-06,-1.046323323488605e-06,4.084451066684433e-08,4.424884898045855e-06,-1.3593171428781378e-05,6.489811506135979e-07,7.851027452402215e-07,6.879445224114406e-07,-7.156196440591133e-07,-2.686464592394984e-07,1.0454662584396243e-06,-6.69339720985372e-07,9.331430200806462e-08,2.021032965368356e-06,-3.819651670017742e-06,-3.676352452212097e-06
-3.236057110124364e-08,-3.7663169825101665e-08,1.195321247000094e-06,-9.256943376761143e-07,4.2792408813908455e-08,5.058747634401594e-06,-1.3421322195181507e-05,5.897936181330282e-07,7.287017501122559e-07,7.03113695954332e-07,-7.819578262956476e-07,-2.8238130082875575e-07,8.205161082384254e-07,-7.188906291666512e-07,6.19133750748933e-08,2.0672153171197928e-06,-3.733779223051805e-06,-3.6760600134603895e-06
-4.073312979005351e-08,-6.953969965241314e-08,1.1568709361445406e-06,-6.899594030050515e-07,7.607369932321408e-08,6.037593870408414e-06,-1.2859558355416488e-05,4.883170615806161e-07,5.998897535834396e-07,7.153950927756894e-07,-8.669513585823705e-07,-3.225111725701263e-07,7.360280208737528e-07,-7.781841456774203e-07,1.4196659018016646e-07,2.105600753454094e-06,-3.599312085666243e-06,-3.6746405794806864e-06
-3.890615505517567e-08,-1.1482832284592143e-07,1.1184934016962518e-06,-4.955820119121177e-07,1.0373004545676503e-07,7.430038849334162e-06,-1.1494534439429305e-05,4.1089617942969533e-07,4.1514476707831416e-07,7.00615007089881e-07,-9.868678789981762e-07,-3.714067813258726e-07,6.822654641462303e-07,-8.311183806603727e-07,3.619680651587492e-07,2.1393410457650017e-06,-3.3763103662209256e-06,-3.6629023447908384e-06
-2.2958180337653118e-08,-1.6733833505835968e-07,1.0810988780289584e-06,-3.759184967715272e-07,1.231988038187958e-07,8.995012704123709e-06,-9.197911726209722e-06,3.451329862278312e-07,1.8468324709439847e-07,6.626177388984324e-07,-1.1916861224863136e-06,-4.219907192792356e-07,5.567812626662443e-07,-8.234944038403517e-07,4.046860504774544e-07,2.1892009734721876e-06,-3.133398497737573e-06,-3.632593648567509e-06
5.111090306093786e-09,-2.172228320427458e-07,1.0420034529455903e-06,-2.7048602510962397e-07,1.6868025096498936e-07,1.0319714574247439e-05,-6.207138696358003e-06,3.0665910325116215e-07,1.0712706568182545e-07,5.70238610395447e-07,-1.3043337835340481e-06,-4.2738855308771673e-07,4.332838550306102e-07,-7.044861361057136e-07,4.565212643262382e-07,2.302076451119291e-06,-2.936856149254312e-06,-3.5784856828565892e-06
3.8473234070822627e-08,-2.6204996228982843e-07,1.0038241612291238e-06,-1.8245185976079273e-07,1.894602719795825e-07,1.102203285582137e-05,-3.0510763023957504e-06,1.436378923349143e-07,1.390195131264741e-07,4.52899984975599e-07,-1.3747009845871888e-06,-3.290365421130728e-07,2.73121071106432e-07,-6.156257532036176e-07,5.348459801500211e-07,2.521991434888105e-06,-2.7366037791069553e-06,-3.4999389724042156e-06
6.752535157484944e-08,-2.915158049478377e-07,9.664019401210025e-07,-9.296270926065971e-09,1.6961577465140137e-07,1.0881388713707062e-05,-4.402549339562906e-07,-1.0948545831360712e-07,1.4046554374451024e-07,3.6271429889482336e-07,-1.418155908311811e-06,-2.594658318671654e-07,1.2528317565757026e-07,-5.008293919656027e-07,6.397461897157214e-07,2.691113708729849e-06,-2.5664585564247522e-06,-3.402537043631224e-06
8.420161870591707e-08,-3.232482233170705e-07,9.330995425261509e-07,2.2553667685831961e-07,1.4656442164657072e-07,9.825560140225242e-06,9.29615493466177e-07,-3.289605034004324e-07,7.113948693871254e-08,3.019174607513211e-07,-1.5158560645575269e-06,-2.017437511717009e-07,4.602143984774331e-08,-3.852952832040959e-07,8.24965778249417e-07,2.8341694708995976e-06,-2.3665326804447093e-06,-3.2938103514269746e-06
8.55694632117675e-08,-3.6978043290855115e-07,9.07090668146689e-07,4.22559765055099e-07,1.5382256570073638e-07,7.848560776388926e-06,6.747191796792373e-07,-5.033632585434143e-07,-4.495620556013063e-08,2.567865999732485e-07,-1.6404291274372305e-06,-1.2618371759348652e-07,-5.513417946637381e-08,-2.9281845535480405e-07,1.1649789919687558e-06,3.040675955073989e-06,-2.1311811793345937e-06,-3.1885774623852213e-06
7.447873397581099e-08,-4.1264082399489985e-07,8.789096492016599e-07,6.101379401871771e-07,1.4968570629870868e-07,5.031669619576767e-06,-1.0851215322813485e-06,-5.844190819321455e-07,-7.083781535042765e-08,2.38075599885846e-07,-1.6918988077084104e-06,-5.63521540851144e-08,-1.4729577124195185e-07,-1.8185318895175288e-07,1.426074581685536e-06,3.164951985289165e-06,-1.9106643824209245e-06,-3.0866122014852354e-06
5.5499439833547035e-08,-4.0297374456392377e-07,8.368780613520486e-07,8.287757575575604e-07,1.3736659568595584e-07,1.6952933541327194e-06,-3.8248375261609085e-06,-7.094111150982066e-07,-5.798696763181258e-09,2.2262138731500742e-07,-1.738496236580405e-06,3.070151133817489e-08,-2.265875061537157e-07,-6.928153431926694e-08,1.683474375322114e-06,3.092634746821795e-06,-1.7457241268856974e-06,-2.9829824738356043e-06
3.247954743679232e-08,-3.4127947161132235e-07,7.843580644965309e-07,1.0326982869526472e-06,1.6503448789827477e-07,-1.4880246120322333e-06,-6.904617429375074e-06,-8.769798981122487e-07,3.1290825084253744e-08,1.8842328419258966e-07,-1.7986450450802314e-06,1.3906118616491858e-07,-3.16980883667976e-07,3.5589922589914506e-08,1.9351673044286e-06,2.9622847443451644e-06,-1.6179668594138162e-06,-2.8745652180598812e-06
6.473654761051292e-09,-2.7496281824969565e-07,7.214945380735636e-07,1.1216858067563663e-06,2.0596930813873022e-07,-3.626062844224012e-06,-9.817814222121171e-06,-1.0741653960837953e-06,-3.505783782383802e-08,1.2368535530595264e-07,-1.8422018590965363e-06,2.9281256616633517e-07,-3.679358067683372e-07,9.860150902371758e-08,2.1169867508920797e-06,2.8539771990730135e-06,-1.498046274831787e-06,-2.7666254264124123e-06
-2.3563509357666972e-08,-1.8781879250306508e-07,6.435095646743535e-07,1.140271880696876e-06,2.2969210214180635e-07,-3.963997330251888e-06,-1.2274371209770447e-05,-1.2637475341442854e-06,-1.5322017681238217e-07,5.219700725422079e-08,-1.903934752559015e-06,3.9464838607753493e-07,-4.6989439414927107e-07,1.182551003770381e-07,2.2909747131147364e-06,2.7692333141749894e-06,-1.3627433640506787e-06,-2.6764197389976504e-06
-5.938453684078172e-08,-1.2153732766027773e-07,5.538396190504187e-07,1.2220163882628217e-06,2.6291300091700866e-07,-2.2840451719382462e-06,-1.4131062245856741e-05,-1.4126731830005902e-06,-1.8257642840094926e-07,9.64473229189098e-09,-1.9941599753741998e-06,5.061206058765692e-07,-5.281434107760025e-07,8.948396025255362e-08,2.460038530385443e-06,2.7439219657105404e-06,-1.2330957836402575e-06,-2.6607330490779598e-06
-1.0198534925628606e-07,-3.689383847803634e-08,4.5662842269232606e-07,1.2654046547893516e-06,3.1375564084590934e-07,1.1356767128024498e-06,-1.5247622977352286e-05,-1.566284962203482e-06,-2.7654787648203623e-07,2.0875887881384178e-08,-1.9782728435499857e-06,5.815444463886119e-07,-6.33687977470047e-07,9.699214586136757e-08,2.3952523018034584e-06,2.7015971378707564e-06,-1.166876164727665e-06,-2.6819884202919628e-06
-1.4995140490081906e-07,6.872951434890091e-08,3.501824269558735e-07,1.266137110748439e-06,3.644660759140968e-07,5.512076688017628e-06,-1.539370782974284e-05,-1.6395998487650362e-06,-3.326390843594235e-07,5.546885602201485e-08,-1.9286104988850294e-06,5.98045770682385e-07,-7.071561272932911e-07,7.553925652386044e-08,2.247585182087081e-06,2.636532627816443e-06,-1.1714122100349278e-06,-2.6912688964534936e-06
-1.974161267700977e-07,1.7930608254696074e-07,2.601556264864337e-07,1.3085603833728724e-06,4.296427269898851e-07,9.72787367957474e-06,-1.4317929947723108e-05,-1.6316008844379082e-06,-3.498656844574187e-07,8.443632811579396e-08,-1.8480784971793482e-06,6.621052220518501e-07,-7.120029806662688e-07,-1.3000993693977402e-08,2.171201605880536e-06,2.6176034054867404e-06,-1.1775253368787164e-06,-2.6844097162120744e-06
-2.3767012966321134e-07,3.0061835128862494e-07,2.2017836400965173e-07,1.3307942128784322e-06,4.6759260148531825e-07,1.2712853236629287e-05,-1.1955076894465865e-05,-1.6441330288929343e-06,-3.3824719079612137e-07,1.0681771389312161e-07,-1.7847497335157572e-06,7.50752416661795e-07,-7.190044258831526e-07,-9.269184029473768e-08,2.0988113613561623e-06,2.607107482432509e-06,-1.1932185979582773e-06,-2.677177039854231e-06
-2.652941775604742e-07,4.112665010182263e-07,2.016750582978357e-07,1.3796839152236102e-06,4.903984423894188e-07,1.3814386437799381e-05,-8.612894310225756e-06,-1.6648264374384319e-06,-2.478814126447919e-07,1.0910756117274466e-07,-1.7486730677920352e-06,8.496198439887432e-07,-7.02410323924775e-07,-2.0157817949668339e-07,1.9864832872098744e-06,2.489974627617051e-06,-1.1962808858564982e-06,-2.653624500183692e-06
-2.77946538655114e-07,5.03490346396245e-07,1.7783171258296615e-07,1.4344863493459714e-06,5.430372880246966e-07,1.310114164287538e-05,-4.996426453353572e-06,-1.63810385252058e-06,-1.7558385854481014e-07,6.815078815451891e-08,-1.6781592669940733e-06,1.0049456327238242e-06,-6.967286303749335e-07,-2.8893268908681627e-07,2.0999799054029535e-06,2.4114826130493283e-06,-1.202161582176976e-06,-2.6653442177352313e-06
-2.7676067442730653e-07,5.663175261820293e-07,1.2792744743425845e-07,1.4537708400582268e-06,5.764979486736498e-07,1.1297202151029732e-05,-2.0316869029514337e-06,-1.6177231404053227e-06,-1.2907883724469409e-07,7.153839945701385e-08,-1.6684675262382318e-06,1.204973703716411e-06,-6.707846012136191e-07,-3.118791753691511e-07,2.25683009454103e-06,2.3914204913532517e-06,-1.2319688530692238e-06,-2.7003667263998946e-06
-2.654541897447483e-07,5.98017168113307e-07,1.3197588603622024e-07,1.460902871157977e-06,5.985572489571833e-07,9.388879987968439e-06,-5.536042403999641e-07,-1.6141282955215323e-06,-9.206386923419256e-08,1.214096958454433e-07,-1.7286900705267887e-06,1.3931613214412913e-06,-6.042731445146774e-07,-3.1250879492875125e-07,2.3692745748025512e-06,2.345276112777328e-06,-1.2858959861560157e-06,-2.7584261297367263e-06
-2.4843358698705776e-07,6.213175356783024e-07,1.861505173759761e-07,1.4418119205283969e-06,6.051678291545919e-07,8.193818882111475e-06,-9.917797902272023e-07,-1.6164637929495625e-06,-4.5124809419445816e-08,1.6927769206623065e-07,-1.7892690677993053e-06,1.4932682429059025e-06,-5.406469262507492e-07,-3.6263314615234125e-07,2.358898942238218e-06,2.198611968625945e-06,-1.3481609773752895e-06,-2.8379270990134027e-06
-2.3045489795989636e-07,5.844640731881672e-07,2.2359867453186758e-07,1.3960663227176695e-06,6.063575180684823e-07,7.984915346825065e-06,-3.2067142829945718e-06,-1.6428333940714728e-06,1.5858643462929723e-08,2.2218354144710256e-07,-1.842037490709804e-06,1.5186321820857253e-06,-4.807955497524871e-07,-4.3359796756000403e-07,2.2324889602626505e-06,2.003311056489837e-06,-1.409329172163455e-06,-2.9172994577679028e-06
-2.1716714694751006e-07,5.376276054705465e-07,2.682780478094798e-07,1.3233306186547853e-06,5.948039830908794e-07,8.623163805795409e-06,-6.587638249472524e-06,-1.644807224250623e-06,7.891984042078913e-08,2.925781454741267e-07,-1.8983379171485502e-06,1.60191040210935e-06,-4.162968313287862e-07,-4.869488671652107e-07,1.9969026087706005e-06,1.8099149058134769e-06,-1.4652018776969168e-06,-2.988820491087729e-06
-2.126773590307241e-07,4.838867813286523e-07,3.238002022625625e-07,1.2382416725864668e-06,5.721924654869781e-07,9.760684051982223e-06,-1.0358831423447798e-05,-1.597617012159592e-06,1.3834008728349576e-07,3.404249774223914e-07,-1.939498772250645e-06,1.6664867657022822e-06,-3.7964279971064007e-07,-5.375410274826711e-07,1.7410100493747954e-06,1.6826439559830583e-06,-1.516262197155423e-06,-3.0415424460500677e-06
-2.1416564423736036e-07,4.3691737425885187e-07,3.459833106547017e-07,1.1501892909858556e-06,5.554055327151126e-07,1.1028489305313327e-05,-1.3886068907775935e-05,-1.5213401481199052e-06,1.5463434551365747e-07,3.7219929046698645e-07,-1.9523994723022463e-06,1.65784470347281e-06,-3.695533654330934e-07,-5.848405023158108e-07,1.4946192330664352e-06,1.5786398560409663e-06,-1.5777566110198642e-06,-3.0805470818900847e-06
-2.2029890140019402e-07,3.991969936892638e-07,3.5063621522850445e-07,1.0876654425475881e-06,5.305696419127144e-07,1.2202833574062434e-05,-1.6817435239905797e-05,-1.4935795415241853e-06,1.4300587021421461e-07,3.9010901385272147e-07,-1.94396907284818e-06,1.6016794715152192e-06,-3.3010289031050356e-07,-6.356367759466163e-07,1.2946861094966317e-06,1.4774928441254317e-06,-1.6537761632574654e-06,-3.1234006062919904e-06
-2.267062764199432e-07,3.703119779093347e-07,3.394263201690545e-07,1.0411766193878262e-06,4.95991201642189e-07,1.3154866167879908e-05,-1.903409732910446e-05,-1.5121014741213262e-06,1.1755784604145723e-07,3.843069190718016e-07,-1.9151902931651767e-06,1.558639810330945e-06,-2.657789827708117e-07,-7.043450020414055e-07,1.184326106529642e-06,1.3417843370835668e-06,-1.759154580605434e-06,-3.175770305005799e-06
-2.3203941604722664e-07,3.353237600368481e-07,3.1015315040636183e-07,1.0160569851793415e-06,4.4993690112193574e-07,1.3936263807785807e-05,-2.0506642330514803e-05,-1.576876273486523e-06,7.794856089374504e-08,3.6748141804837343e-07,-1.8783061790065456e-06,1.5235417743707421e-06,-1.882886233202732e-07,-7.899604010994843e-07,1.1550029081162683e-06,1.1979407409056764e-06,-1.8895492799576489e-06,-3.245313930153076e-06
-2.3917830703341196e-07,3.0410263266551256e-07,2.747173156349862e-07,1.0161799041183424e-06,3.87513504680236e-07,1.4470891426953663e-05,-2.118094215040138e-05,-1.6924764323747648e-06,2.4340629126467045e-08,3.38895370451199e-07,-1.8470425563031563e-06,1.4918595235542872e-06,-1.2601636924007754e-07,-8.824642958662724e-07,1.1525030212338309e-06,1.0476797506720556e-06,-2.0354452219074226e-06,-3.3087138750569966e-06
-2.5456472529776656e-07,2.7188811550461853e-07,2.3264957142578995e-07,1.0230630659223166e-06,3.297782251424417e-07,1.4830796940996856e-05,-2.0926274126955008e-05,-1.8173632519681546e-06,-4.1309544661992675e-08,2.9479719405375674e-07,-1.828141483850208e-06,1.46758048237154e-06,-9.645672752635018e-08,-9.831800369731208e-07,1.1912641484962087e-06,8.868839314236329e-07,-2.1891171247759506e-06,-3.3754539419312346e-06
-2.7822298066886875e-07,2.360142568660963e-07,1.8622793023842178e-07,1.0332089933033352e-06,2.802517441711007e-07,1.5201929972083842e-05,-1.9548877080357188e-05,-1.957619451539837e-06,-1.13250639706642e-07,2.4460218055115044e-07,-1.821275691304265e-06,1.4474164680692235e-06,-9.632462505622319e-08,-1.0982004764462783e-06,1.2143207867593584e-06,7.544943005410249e-07,-2.3334516512892438e-06,-3.4463441172095384e-06
-3.078703440528229e-07,2.04896911630837e-07,1.435464617207388e-07,1.0399989861978903e-06,2.3634161482009732e-07,1.5554904796914858e-05,-1.6910834469986677e-05,-2.094192504728169e-06,-1.8286830751508875e-07,1.9303158204359784e-07,-1.8285830380672227e-06,1.4279415742831967e-06,-1.194144562688401e-07,-1.2180831818711794e-06,1.2227798332731984e-06,6.537062647639357e-07,-2.455718352640084e-06,-3.5157392715645736e-06
-3.430518498211203e-07,1.8223400808430253e-07,1.0508955685479767e-07,1.0237440838805619e-06,2.028542012119979e-07,1.5603341155365916e-05,-1.3094065076843728e-05,-2.2183901030387712e-06,-2.2703088625791084e-07,1.444775174298962e-07,-1.8472743067048325e-06,1.4073079062754404e-06,-1.480973486725446e-07,-1.3367738445770876e-06,1.2699683207026024e-06,5.776765794625071e-07,-2.5576396906087436e-06,-3.5860805259690394e-06
-3.8064113026885707e-07,1.5922670596983884e-07,7.012731631672818e-08,9.84847332175531e-07,1.8491398286561457e-07,1.4888858480722078e-05,-8.449325331063728e-06,-2.2948198436465247e-06,-2.4408892413304037e-07,1.0143443725437093e-07,-1.8716046617522524e-06,1.3835972899033945e-06,-1.8376454528254835e-07,-1.4495463304249645e-06,1.3438711147465018e-06,5.338682584551527e-07,-2.636483765995663e-06,-3.6499123335259576e-06
-4.1920361281229085e-07,1.3665010095987525e-07,3.9507016524629274e-08,9.316684393874343e-07,1.7800086064402335e-07,1.3102462369919908e-05,-3.4787993582564986e-06,-2.327906370206927e-06,-2.4086148374012927e-07,5.978194130576367e-08,-1.8960350589079205e-06,1.355001112918412e-06,-2.1865837303298495e-07,-1.5508863778474091e-06,1.4236527382350083e-06,5.181645865076701e-07,-2.6960005717326697e-06,-3.7055410172538392e-06
-4.5617608804686045e-07,1.1833335639402948e-07,1.1000891236528215e-08,8.819448727652039e-07,1.7882376072106286e-07,1.0306741767910686e-05,1.2892684569963577e-06,-2.3366792820187635e-06,-2.1946839738856988e-07,1.8813926962218835e-08,-1.912384608627537e-06,1.3241375155126286e-06,-2.4392957213454327e-07,-1.6414378767433418e-06,1.5238132811498549e-06,5.228154889923473e-07,-2.7475032486589767e-06,-3.7522882414209513e-06
-4.886695018277743e-07,1.034100088471784e-07,-1.5745824077882785e-08,8.575421441590022e-07,1.8918081399784337e-07,6.87242135019298e-06,5.316244888051239e-06,-2.3089479172755103e-06,-1.8953732422744147e-07,-2.068150299800878e-08,-1.914676658791794e-06,1.2931719866443225e-06,-2.517463248811999e-07,-1.7236340339318237e-06,1.6586036489680284e-06,5.29420165828824e-07,-2.7974071750523263e-06,-3.785445194076857e-06
-5.154914809919529e-07,9.628215621647494e-08,-4.026431809091047e-08,8.649932277443965e-07,2.0313007785496587e-07,3.503148134608836e-06,8.029179370182655e-06,-2.26393434934293e-06,-1.589898791237589e-07,-5.6985038238538225e-08,-1.8992544338105575e-06,1.2633662845126827e-06,-2.3744281368942354e-07,-1.799502594076224e-06,1.747927046207239e-06,5.28729529176125e-07,-2.853847938828254e-06,-3.805755230889081e-06
-5.395380553087737e-07,9.447993956669503e-08,-5.778737944532933e-08,9.250051270343821e-07,2.2496614049934083e-07,6.963751327199096e-07,8.9296784159562e-06,-2.224370624825467e-06,-1.3481776585930858e-07,-9.103995509003632e-08,-1.8637175493101708e-06,1.2349722648491556e-06,-1.9993756440417477e-07,-1.869611974406572e-06,1.7965856275183451e-06,5.050954099977299e-07,-2.924428416524965e-06,-3.821183104702186e-06
-5.653892846483944e-07,9.050905830282694e-08,-7.16748696530175e-08,1.0113302361286257e-06,2.599573613463604e-07,-1.4353938425446995e-06,7.83105126346771e-06,-2.2107668412780517e-06,-1.2764110228409776e-07,-1.2160440101472938e-07,-1.8062859269278456e-06,1.206236293766723e-06,-1.3663242911429036e-07,-1.9318530898295714e-06,1.6311094361282993e-06,4.4682163515667116e-07,-3.0177179947468863e-06,-3.836462342599317e-06
-5.971138518491371e-07,7.71844453470405e-08,-7.909305238201261e-08,1.0951688288430626e-06,2.926556857035739e-07,-3.0077758246614897e-06,4.991332095437319e-06,-2.243847314227834e-06,-1.8446577134712416e-07,-1.465190192385651e-07,-1.7258113387566515e-06,1.1766081288471267e-06,-4.5053520355618584e-08,-1.9827583907784965e-06,1.2716656293467727e-06,3.482008596436118e-07,-3.1327745720242086e-06,-3.85773067592906e-06
-6.373089024149046e-07,5.257705545207601e-08,-7.693894455847411e-08,1.152859769862056e-06,3.1963070488639136e-07,-4.236116133596315e-06,1.0093729721456802e-06,-2.338329569963332e-06,-3.104271717108634e-07,-1.65231327244187e-07,-1.6225952255598632e-06,1.1441437119180955e-06,7.814068115844018e-08,-2.019511344597705e-06,1.0112020667499503e-06,2.0990073829608378e-07,-3.267789652638172e-06,-3.883483140505549e-06
-6.881134279609959e-07,1.3489019378301205e-08,-6.86241821702259e-08,1.136454391628098e-06,3.065978563983951e-07,-5.197434064343926e-06,-3.439816433168028e-06,-2.4960939889139777e-06,-4.7519383853879894e-07,-1.7469469742044982e-07,-1.500134667531511e-06,1.1060996469324173e-06,2.3183402230042941e-07,-2.0405560416826045e-06,7.804975439844379e-07,4.4847559418497824e-08,-3.384017709675613e-06,-3.918144702841177e-06
-7.51429707797641e-07,-3.789791332982424e-08,-5.6296634807864834e-08,1.116227363588038e-06,2.8097747659951644e-07,-5.899454430545699e-06,-7.823849112466626e-06,-2.698205450701599e-06,-6.949653844093894e-07,-1.762623964754907e-07,-1.3656088938152667e-06,1.062937875317257e-06,4.084626456982839e-07,-2.045678985901323e-06,3.8568176599683495e-07,-1.496796183739375e-07,-3.4796873798822797e-06,-3.9625356073426755e-06
-8.236395765281039e-07,-8.913154867424866e-08,-4.4700670899741444e-08,9.97310804525379e-07,2.535214631373008e-07,-6.102229621966064e-06,-1.1799677239106673e-05,-2.9204704753397627e-06,-9.020717230555717e-07,-1.735400199459212e-07,-1.2291961635774092e-06,1.0158899781023971e-06,5.942400675664509e-07,-2.0367052921585206e-06,-4.298519122770852e-08,-3.610438288603542e-07,-3.562945969172946e-06,-4.015459792807037e-06
-8.973631212655819e-07,-1.3146496787359802e-07,-3.7574166640373276e-08,8.676924093077867e-07,2.2092370203168857e-07,-5.642919958097725e-06,-1.5108321311519605e-05,-3.154307284086622e-06,-1.098738581798333e-06,-1.7126776083234476e-07,-1.1032393581487018e-06,9.67893392841895e-07,7.704388732520597e-07,-2.0187800857018444e-06,-4.3587479818326065e-07,-5.6005594138193e-07,-3.6101010939425232e-06,-4.0719050926794544e-06
-9.691606006240034e-07,-1.5908737472969562e-07,-3.7207774221376057e-08,7.42647504162298e-07,1.723992305440675e-07,-4.502817949009856e-06,-1.7473529356584903e-05,-3.3712088623380383e-06,-1.3412398817239518e-06,-1.78793304726138e-07,-1.0012752292350198e-06,9.222688629935252e-07,9.176958154443296e-07,-1.9996021343090834e-06,-7.864480558775955e-07,-7.439013820274525e-07,-3.622752068192698e-06,-4.098845254210365e-06
-1.0295747019222902e-06,-1.8334642451439737e-07,-4.1029061363645934e-08,6.566229573334202e-07,1.0766606715674092e-07,-2.7632384233866695e-06,-1.8620013303130913e-05,-3.542733372819144e-06,-1.576667558384705e-06,-1.972786013170592e-07,-9.333526303087132e-07,8.80127969142203e-07,1.0216179702152716e-06,-1.986741115946886e-06,-1.0296340984057956e-06,-9.087809695784974e-07,-3.5837295594605727e-06,-4.063957566214805e-06
-1.0769238407817166e-06,-2.097284415502058e-07,-4.780085592502067e-08,6.174260729618604e-07,7.179001678852522e-08,-6.974051520009558e-07,-1.8374129976623327e-05,-3.6538831855682365e-06,-1.8189969363601885e-06,-2.2284372779630665e-07,-8.99736628130533e-07,8.400787999841797e-07,1.0777364473154144e-06,-1.9846684795120703e-06,-1.1452680539936553e-06,-1.0290428218242336e-06,-3.4847243144999482e-06,-3.9661597532879356e-06
-1.1183850923840643e-06,-2.3822386426562285e-07,-5.667934074713911e-08,6.140629777602239e-07,1.9766889235300765e-08,1.3706693990529073e-06,-1.6753695925920414e-05,-3.697091531625419e-06,-2.006505049759624e-06,-2.5401388543665924e-07,-9.187915848341411e-07,7.9982193497566e-07,1.0938674068649847e-06,-1.9930187129562184e-06,-1.1204573142792014e-06,-1.0839290829783158e-06,-3.3224762531964787e-06,-3.894942264608929e-06
-1.156593996727501e-06,-2.7386657073713254e-07,-6.442114280408552e-08,6.287264828214676e-07,2.8621758948755012e-11,3.187143125957353e-06,-1.3964716278975305e-05,-3.6724294869912363e-06,-2.0883315885248663e-06,-2.877683914159561e-07,-9.615268342019557e-07,7.570009875715649e-07,1.0860021762740972e-06,-2.0072787692703486e-06,-9.967620254965378e-07,-1.0455037144772869e-06,-3.1879381513700242e-06,-3.835834299234363e-06
-1.18728055190131e-06,-3.1002801292359214e-07,-7.220237738623206e-08,6.190287375144226e-07,-1.1824483055705326e-08,4.655632604235605e-06,-1.0311756564897163e-05,-3.590282930809471e-06,-2.2383740303646626e-06,-3.216000193546115e-07,-1.0294580905550398e-06,7.086505538605598e-07,1.0703820532962652e-06,-2.020770643280115e-06,-8.173868473202806e-07,-9.210148031422994e-07,-3.1295393516512595e-06,-3.774335267547953e-06
-1.2039512775716534e-06,-3.6295916479316943e-07,-8.174077793490214e-08,5.485302140102048e-07,-2.3685331172658137e-08,5.855365781454542e-06,-6.134142967104253e-06,-3.47122789063128e-06,-2.290458636831763e-06,-3.5541496987629953e-07,-1.1092521532959246e-06,6.538184512566896e-07,1.0565353851460578e-06,-2.0261765098826003e-06,-7.786156835948751e-07,-8.426743214643067e-07,-3.092742642016752e-06,-3.7313091541689425e-06
-1.1983964332215225e-06,-4.3493226851212894e-07,-9.425447116152305e-08,4.506005454719365e-07,3.2298955170383787e-08,6.757434584240064e-06,-1.8349220106238588e-06,-3.3217199330407924e-06,-2.284518697556064e-06,-3.91857206673172e-07,-1.1925583480756963e-06,5.950455030339442e-07,1.044190895195371e-06,-2.016422821074261e-06,-7.655172011024206e-07,-8.329968584723042e-07,-3.094887750844022e-06,-3.72373286484113e-06
-1.1737746145408637e-06,-5.170643970706858e-07,-1.1142697496052109e-07,2.936725840179249e-07,7.758978997359168e-08,7.336177278451991e-06,2.0988550366866747e-06,-3.152152013294081e-06,-2.306622846126614e-06,-4.243902594440519e-07,-1.2736401325904523e-06,5.381916126668532e-07,1.0257217991535097e-06,-1.9861789481310813e-06,-9.988249476975772e-07,-9.053377868843921e-07,-3.0598945324745233e-06,-3.7008651921639707e-06
-1.1379351316986304e-06,-5.875092711229657e-07,-1.3148275792104442e-07,8.712245750747726e-08,6.493040864428064e-08,7.577206994108049e-06,5.212189153174712e-06,-2.9772593224414387e-06,-2.3570949059570967e-06,-4.284160467941771e-07,-1.3479599143468023e-06,4.907900071009972e-07,9.92194353114387e-07,-1.9343618627294898e-06,-1.348029486788112e-06,-9.505700721684998e-07,-2.910689344874017e-06,-3.6266063178613292e-06
-1.1062524168295577e-06,-6.243670862510534e-07,-1.505177906140121e-07,-1.0388142013116265e-07,7.621849172564564e-08,7.460284116712558e-06,7.271940677798262e-06,-2.8090691883204855e-06,-2.4128625814660167e-06,-3.915774810688565e-07,-1.4110345934303907e-06,4.5888356784659573e-07,9.397816783830594e-07,-1.8640808082636184e-06,-1.5030974452366036e-06,-9.542751119013334e-07,-2.724405310853198e-06,-3.551184421987532e-06
-1.0864011270303691e-06,-6.030693023547544e-07,-1.653840481941701e-07,-2.3374103438845266e-07,7.656425778856348e-08,7.066535419701369e-06,8.34290742453844e-06,-2.666900761370241e-06,-2.472436030030193e-06,-3.5038666695260595e-07,-1.4588163414192563e-06,4.4423811210279734e-07,8.724587333426945e-07,-1.7798580698449934e-06,-1.5473791722077037e-06,-9.785143511302164e-07,-2.5376292628276864e-06,-3.45922071325277e-06
-1.0793040984550016e-06,-5.80844080608309e-07,-1.7511215126753023e-07,-2.3576007595591718e-07,2.918407736755247e-08,6.530321474539511e-06,8.670155468882736e-06,-2.558768522390566e-06,-2.526962017376958e-06,-2.8889581856402703e-07,-1.4893355467108451e-06,4.433025036145958e-07,8.00827414107406e-07,-1.6851439827205168e-06,-1.4641400563774535e-06,-9.956136885698903e-07,-2.360707295416419e-06,-3.3343002460348688e-06
-1.083617540116001e-06,-5.906393935885575e-07,-1.806074161013545e-07,-2.003303655619269e-07,-4.3431916470741314e-08,6.021514566404039e-06,8.459836971638221e-06,-2.4868865051088966e-06,-2.568372753398162e-06,-2.743478412837057e-07,-1.503974394960916e-06,4.491280446787076e-07,7.380438866958496e-07,-1.5815945727151252e-06,-1.4530419438692658e-06,-9.767539017139953e-07,-2.216217449694464e-06,-3.19881509338615e-06
-1.0921634020481715e-06,-6.441114567334742e-07,-1.8512005255542103e-07,-1.5633370919994136e-07,-1.2922398436489932e-07,5.620698572392329e-06,7.758231033011545e-06,-2.4563814974209567e-06,-2.592872003896494e-06,-2.6491141944561294e-07,-1.5067468598796394e-06,4.5513201091959907e-07,6.957146246816127e-07,-1.4708226183074652e-06,-1.3618461759957316e-06,-9.531562019666489e-07,-2.0979351492866294e-06,-3.1468501089564486e-06
-1.101403192239522e-06,-7.251153660183875e-07,-1.9545366727535679e-07,-1.7371047748919882e-07,-2.0252901937051216e-07,5.397927985685971e-06,6.5271217899219665e-06,-2.465940028015386e-06,-2.6018415383223845e-06,-2.2101430100335814e-07,-1.5018520832672399e-06,4.5897477128120206e-07,6.810998392704887e-07,-1.3560824363759463e-06,-1.2510489181934835e-06,-8.789995681866987e-07,-1.9694904750557896e-06,-3.1238366843107427e-06
-1.1076223841561953e-06,-7.871773762610917e-07,-2.1339819219675077e-07,-2.6417761061449417e-07,-2.5555461291341406e-07,5.3953995274653765e-06,4.801878807878703e-06,-2.510090273645005e-06,-2.5998260891135314e-06,-1.627533402393912e-07,-1.4916206361493683e-06,4.628933810114868e-07,6.955688906089803e-07,-1.2419063617787918e-06,-1.2268516115127499e-06,-7.954870491970724e-07,-1.8243855466431228e-06,-3.0780297001858523e-06
-1.1200792575022436e-06,-7.989336847785515e-07,-2.3542542893477087e-07,-3.532131821478471e-07,-3.0020859412089087e-07,5.621698948905121e-06,2.765752676933923e-06,-2.576022106644178e-06,-2.591578773662234e-06,-9.663621348745679e-08,-1.4764370971049052e-06,4.7137378537952347e-07,7.344770628996129e-07,-1.1324346965066206e-06,-1.195081775139783e-06,-7.136602097184654e-07,-1.7077208573247568e-06,-3.0065831309908724e-06
-1.1369588774434231e-06,-7.986255136913222e-07,-2.6225555699329907e-07,-3.209204790072911e-07,-3.318474429687544e-07,6.092171791599531e-06,6.876514250739685e-07,-2.6384329534952725e-06,-2.5799049078829478e-06,-5.0741734275598667e-08,-1.456014234702413e-06,4.873384026463674e-07,7.881412198085946e-07,-1.030782755085139e-06,-1.1535431933219807e-06,-6.179590083000763e-07,-1.6056630060187145e-06,-2.9416288334586122e-06
-1.152090702741508e-06,-7.88206620443045e-07,-2.8919815722147297e-07,-2.1290130417660137e-07,-3.358837074555858e-07,6.771577078936547e-06,-1.214443335747127e-06,-2.6756887774026108e-06,-2.5650065549305172e-06,-3.89918032091051e-08,-1.430303622829889e-06,5.102304080755512e-07,8.437725182196337e-07,-9.395786228854618e-07,-1.1268722798198626e-06,-5.516622512314085e-07,-1.5203676138059193e-06,-2.891224116282652e-06
-1.153189766462289e-06,-7.781550382880077e-07,-3.1214001898077664e-07,-9.819056153801471e-08,-3.200749845103341e-07,7.555169422147279e-06,-2.880598108433781e-06,-2.6740219186322324e-06,-2.5453186484834685e-06,-5.090299544317608e-08,-1.399382669302546e-06,5.37352860421737e-07,8.895134241819753e-07,-8.608657153689431e-07,-1.1193527228457694e-06,-4.840749222567956e-07,-1.472962982165758e-06,-2.8489724577770533e-06
-1.1429218277580142e-06,-7.922097902079093e-07,-3.2975710995420904e-07,2.2788970566656495e-08,-2.9509270444377744e-07,8.275953753456742e-06,-4.390550995733066e-06,-2.6287626425369113e-06,-2.519015200723029e-06,-8.674785565875839e-08,-1.3631937855121033e-06,5.65327998502027e-07,9.185039184202526e-07,-7.952088777345031e-07,-1.1278066063819766e-06,-4.3403764592053663e-07,-1.4486886380634297e-06,-2.8184364092987674e-06
-1.1266690678189145e-06,-7.986842676707593e-07,-3.4039332472278664e-07,3.1119919935880404e-08,-2.7248023194325865e-07,8.740739216814787e-06,-5.8273999448961915e-06,-2.5490624313595948e-06,-2.4852730159774656e-06,-1.3647150821204593e-07,-1.322128968076851e-06,5.910494531522402e-07,9.295593899231082e-07,-7.409318576383266e-07,-1.226640135940741e-06,-4.1272518719697336e-07,-1.437776866686273e-06,-2.781427784910092e-06
-1.1067570146069642e-06,-7.976741700416405e-07,-3.438136838165124e-07,3.9231755923514915e-08,-2.583826355745772e-07,8.829230683174304e-06,-7.152751369927384e-06,-2.4589800965050183e-06,-2.445355694024474e-06,-1.7967829803092565e-07,-1.2782290108480078e-06,6.121304250748171e-07,9.251574327935618e-07,-6.945446682138609e-07,-1.3154308240011976e-06,-4.3281472316075653e-07,-1.4361056119337766e-06,-2.740301394747656e-06
-1.0878052109914741e-06,-7.888243337419494e-07,-3.4212566392132853e-07,7.09557381363508e-08,-2.5218088278024503e-07,8.428154581872738e-06,-8.21339369707156e-06,-2.3747210433646474e-06,-2.4035586750336826e-06,-2.2013737041984062e-07,-1.2359357311314286e-06,6.282168605024866e-07,9.096207564790257e-07,-6.521700547490364e-07,-1.3237137899099534e-06,-4.928981786413053e-07,-1.425233389273246e-06,-2.6979142483811386e-06
-1.0645384958552722e-06,-7.675901486134271e-07,-3.3456290779223813e-07,1.0901528562250326e-07,-2.548118326914979e-07,7.396011163055962e-06,-8.840047944390184e-06,-2.305851203891412e-06,-2.3667123238207314e-06,-2.587254037021288e-07,-1.2019161481328618e-06,6.424257854530706e-07,8.886820385377147e-07,-6.100336078575687e-07,-1.2647650877948727e-06,-5.693612127997115e-07,-1.3813267805124526e-06,-2.6452295016745447e-06
-1.035774999536688e-06,-7.404689008257309e-07,-3.1675281504008755e-07,1.877599612690356e-07,-2.6166414427755875e-07,5.6796754967502426e-06,-8.920299821274544e-06,-2.2537865940935842e-06,-2.341052627682365e-06,-2.8669987046985214e-07,-1.184314324584137e-06,6.613055295644526e-07,8.688632558663907e-07,-5.646108047989222e-07,-1.13603327605624e-06,-6.427801740024014e-07,-1.3001732952682143e-06,-2.5729210141439826e-06
-1.0019850977696712e-06,-7.220563599395948e-07,-2.851137596224703e-07,2.637078766270443e-07,-2.700420644544766e-07,3.5209701778831923e-06,-8.421885537601214e-06,-2.207447903155318e-06,-2.32759148086036e-06,-3.0298214218205673e-07,-1.1915317745074746e-06,6.930418714450941e-07,8.556966741540036e-07,-5.12751389877694e-07,-9.638147908296009e-07,-6.816563453916713e-07,-1.1758535425013002e-06,-2.4868105474678814e-06
-9.659520168277722e-07,-7.082937018236584e-07,-2.335919032287453e-07,2.709437391292607e-07,-2.778775611759918e-07,1.558796741141369e-06,-7.408344538814138e-06,-2.1535349915896376e-06,-2.3192721205367682e-06,-3.032470015070523e-07,-1.2301383378256593e-06,7.44811387426688e-07,8.520912413790159e-07,-4.5177189708977747e-07,-7.4845218791887e-07,-6.526067386250144e-07,-1.004769461828559e-06,-2.375582007316047e-06
-9.255219022155071e-07,-7.035088326119172e-07,-1.6217691139945683e-07,2.13241621517666e-07,-2.815363917034046e-07,5.930325456305761e-07,-6.07937621945191e-06,-2.0869878700969064e-06,-2.302933583682092e-06,-2.824087540783548e-07,-1.302172220854416e-06,8.207628989214401e-07,8.579443337937878e-07,-3.795818812591834e-07,-4.871187444204862e-07,-5.830727671323936e-07,-7.917321673635068e-07,-2.234897123690063e-06
-8.83388693485928e-07,-7.036761580310836e-07,-7.397704693158919e-08,1.0896433460497067e-07,-2.7786243584600086e-07,1.0814967341708162e-06,-4.812748328546708e-06,-2.006419170775377e-06,-2.2657549193616712e-06,-2.4160517433771973e-07,-1.403104026568372e-06,9.210315924461013e-07,8.717555643424235e-07,-2.948842542657618e-07,-1.7275619389774553e-07,-4.859582054718098e-07,-5.447011305804632e-07,-2.077078108539038e-06
-8.432339836104585e-07,-7.068968650138099e-07,2.7037232966801898e-08,-5.699521194893391e-08,-2.597673142297026e-07,2.7784775785086165e-06,-4.115227831210061e-06,-1.8995723632629864e-06,-2.2020179369159413e-06,-1.8860303797470377e-07,-1.521568849581973e-06,1.0417467691133381e-06,8.927862166505526e-07,-1.9773844059663474e-07,1.6395745325156155e-07,-3.6370859078662027e-07,-2.8035704364342065e-07,-1.9059656226519643e-06
-8.084376092592123e-07,-7.201169852912956e-07,1.326553964562742e-07,-2.547884897784142e-07,-2.3136889489749033e-07,4.790850607038098e-06,-4.366609241129913e-06,-1.770398414779757e-06,-2.1159176082187656e-06,-1.20617139649315e-07,-1.641120480859453e-06,1.1760139958860565e-06,9.219682402032252e-07,-8.941893989981271e-08,4.935357166846864e-07,-2.349356320398791e-07,-2.178591719916365e-08,-1.7383592076057212e-06
-7.716235165439037e-07,-7.417035959574643e-07,2.3296090558327995e-07,-4.5851970676066507e-07,-1.9900505029617603e-07,6.105760109728008e-06,-5.466940547930088e-06,-1.6333001691296288e-06,-2.0193040026091363e-06,-5.392196530450107e-08,-1.7438000350259026e-06,1.3150267517427292e-06,9.610930157096893e-07,2.8834643457490312e-08,8.060091130582542e-07,-1.046128152579565e-07,2.0899062632139677e-07,-1.5867188642069081e-06
-7.311608431832169e-07,-7.65324622969449e-07,3.2083801866660775e-07,-6.539610471212026e-07,-1.6830570785767827e-07,6.179142413601328e-06,-6.713123548086244e-06,-1.4999957750287596e-06,-1.926217486949426e-06,2.1048071987292323e-08,-1.8147020704530405e-06,1.4495221230105864e-06,1.0109729371293586e-06,1.563460808315402e-07,1.0505920471830148e-06,1.670904754504313e-08,3.985166943662116e-07,-1.4524205502732728e-06
-6.894903215238707e-07,-7.755692229861079e-07,3.906531919627755e-07,-8.193132079610671e-07,-1.48718043668083e-07,5.168808201729941e-06,-7.061688428076175e-06,-1.3872184078091805e-06,-1.8476598738584303e-06,9.735823571191435e-08,-1.8458841530527634e-06,1.5710865256581114e-06,1.0696273036769677e-06,2.915684802733399e-07,1.2359237490407406e-06,1.4324226749595692e-07,5.445909360998464e-07,-1.3592706927620036e-06
-6.556100029356071e-07,-7.646267923367789e-07,4.389226982678161e-07,-9.365489748274107e-07,-1.4247376355954866e-07,3.6940038225431233e-06,-5.548126096937134e-06,-1.3087616114200558e-06,-1.789268066261454e-06,1.6253857790459206e-07,-1.8380320121105508e-06,1.6727651531121027e-06,1.1319905911427242e-06,4.3079236010878226e-07,1.379693408222276e-06,2.501872899644079e-07,6.531586133872735e-07,-1.2559153352612228e-06
-6.313083317809269e-07,-7.340496887831867e-07,4.676287379742839e-07,-1.0132210634133533e-06,-1.5134845748876612e-07,2.4310670353365942e-06,-1.5114633019659289e-06,-1.2686305730001695e-06,-1.751568517080317e-06,2.15894613949769e-07,-1.7992810466192437e-06,1.7495580719220015e-06,1.191193719314149e-06,5.688984619407605e-07,1.470439504915464e-06,3.2079814215437705e-07,7.326125215868795e-07,-1.1796549481966882e-06
-6.14641702209678e-07,-7.015797863424236e-07,4.810626650189372e-07,-1.054388121895389e-06,-1.6838970965009e-07,1.8858908756969676e-06,4.6049201773410176e-06,-1.2623238998924332e-06,-1.7310340972721031e-06,2.5143959111318047e-07,-1.7418848417725923e-06,1.7989423807326198e-06,1.241340728212547e-06,7.001662334383356e-07,1.5236485350599472e-06,3.675749134337834e-07,7.901743983542704e-07,-1.1628476211138389e-06
-6.045472220044732e-07,-6.691171032017391e-07,4.84696682326147e-07,-1.0589439275410282e-06,-1.9066275947536219e-07,2.2567001652623867e-06,1.1761865598800436e-05,-1.2801194606767256e-06,-1.7215122535175613e-06,2.611450978501271e-07,-1.6785420119406304e-06,1.8213697504798457e-06,1.2802872740572101e-06,8.181688073470136e-07,1.5474535822053468e-06,3.915482934183419e-07,8.30425445051485e-07,-1.1784622700165641e-06
-5.973680915829573e-07,-6.36385288332352e-07,4.842518177875447e-07,-1.0387455655723058e-06,-2.121275249816887e-07,3.412697474373293e-06,1.8166435585156674e-05,-1.3097530764080295e-06,-1.7163138722648802e-06,2.495661873767878e-07,-1.6199902404727697e-06,1.8202107285937175e-06,1.3106163626716589e-06,9.162394966932631e-07,1.5481520561462656e-06,4.027063769230656e-07,8.560612227748735e-07,-1.1779819180553323e-06
-5.968197851191964e-07,-6.075808436622256e-07,4.82116543194819e-07,-1.0037248603145495e-06,-2.3141311909816746e-07,4.964067916704826e-06,1.942166094645892e-05,-1.3406982346846905e-06,-1.7103921654181052e-06,2.2548719700644924e-07,-1.573988211170684e-06,1.8011515507447796e-06,1.3383683506428878e-06,9.893515594110443e-07,1.5503255768530747e-06,4.141413933821858e-07,8.702720573975798e-07,-1.181207964395837e-06
-6.054860997181088e-07,-5.859550973126336e-07,4.778089667172024e-07,-9.563810416772187e-07,-2.4993113551315766e-07,6.510465309794235e-06,1.824980367151341e-05,-1.367519998029819e-06,-1.7017813677467788e-06,1.8848687796535171e-07,-1.5449745359942721e-06,1.7714017861703561e-06,1.3702225950382295e-06,1.036595556403262e-06,1.5816573040223326e-06,4.348142268884361e-07,8.787038964278847e-07,-1.1851357021719862e-06
-6.239181333955738e-07,-5.763637655540601e-07,4.708946845371626e-07,-9.091697237047932e-07,-2.656684825210756e-07,7.897265066517081e-06,1.6695970522496633e-05,-1.3820954135804861e-06,-1.6919546471326434e-06,1.4703991629862894e-07,-1.5341533364600564e-06,1.7389648712510309e-06,1.4106697878719292e-06,1.0622579272685835e-06,1.6438589772089594e-06,4.646341196735087e-07,8.89617234325919e-07,-1.180942287002279e-06
-6.464818112087297e-07,-5.812242019365721e-07,4.61586266209618e-07,-8.792180253718318e-07,-2.7499459127735605e-07,9.202541658330203e-06,1.0591022494151511e-05,-1.3821263202758126e-06,-1.6849339452962662e-06,1.075750439613008e-07,-1.5401784074294135e-06,1.7117113032646454e-06,1.4607521377298082e-06,1.0749506697470208e-06,1.7246201558410499e-06,5.016479360739087e-07,9.113385579213858e-07,-1.1843738036549655e-06
-6.734753471170679e-07,-5.985360017512823e-07,4.5245257733444475e-07,-8.831353513571039e-07,-2.743692427391813e-07,1.045252397442549e-05,2.3886288214101246e-06,-1.3664721045789578e-06,-1.6849045910962547e-06,7.365954430625887e-08,-1.560260933410006e-06,1.6956530063647588e-06,1.5189170164484824e-06,1.0847187702060254e-06,1.8173489706024381e-06,5.5538225324361e-07,9.479752914913e-07,-1.189823004506722e-06
-7.039667790071058e-07,-6.280642187905305e-07,4.467898048371612e-07,-9.364179985846377e-07,-2.615817000404079e-07,1.168764918875797e-05,-3.944263236460966e-06,-1.3328726258203405e-06,-1.692716835438322e-06,4.779520142931997e-08,-1.5910704394586532e-06,1.692843217659306e-06,1.5820403765115098e-06,1.0992062770133547e-06,1.9002853119240084e-06,6.107000986619474e-07,9.962597601201326e-07,-1.1942142948762502e-06
-7.358938916909841e-07,-6.719949356704239e-07,4.473455863567926e-07,-1.0462908935125578e-06,-2.4024411909216587e-07,1.2780670249550344e-05,-7.295686677449158e-06,-1.2866286737969121e-06,-1.703321363210322e-06,3.088404194788211e-08,-1.6290078004112596e-06,1.7007397272782506e-06,1.645390377088083e-06,1.1205756944523864e-06,1.9614739959087554e-06,6.510618538257657e-07,1.046125969934336e-06,-1.2004734727055093e-06
-7.660900520496381e-07,-7.301442383640748e-07,4.539992045638798e-07,-1.203100499111676e-06,-2.100733846824083e-07,1.3650086967891528e-05,-8.070986860121068e-06,-1.2311351633408811e-06,-1.7066350663675605e-06,2.0454036775271685e-08,-1.6700965121534237e-06,1.7124976680373077e-06,1.7023989647352708e-06,1.1444365276485842e-06,1.9977768995254047e-06,6.658321912451625e-07,1.084761744156614e-06,-1.2082152378344696e-06
-7.922024380225442e-07,-7.960909243340319e-07,4.6426102779766757e-07,-1.3804633273744803e-06,-1.738258083209355e-07,1.4138160192204151e-05,-6.404173726150412e-06,-1.1713637935832484e-06,-1.6919760397885784e-06,1.556834294700853e-08,-1.7099366964436295e-06,1.7194332425094989e-06,1.745741341259464e-06,1.1615331927867682e-06,2.002110011444949e-06,6.441522106662664e-07,1.10146069020988e-06,-1.2225653394708937e-06
-8.120120644037134e-07,-8.364664105676098e-07,4.7561394314406126e-07,-1.5450425394766401e-06,-1.3879588088794515e-07,1.4095013819114277e-05,-2.8851146346659433e-06,-1.1184894153787531e-06,-1.6533075025824055e-06,1.069795876156686e-08,-1.7437146684260112e-06,1.7136707345310258e-06,1.7707259022589481e-06,1.1619931533594074e-06,1.9830393194597237e-06,5.997722440842428e-07,1.0908871315350828e-06,-1.2489921786420502e-06
-8.255794266483115e-07,-8.468334328996083e-07,4.84727098453334e-07,-1.6626851743568008e-06,-1.117302486238123e-07,1.3421878990472613e-05,1.674047721784046e-06,-1.0837305029449582e-06,-1.5917622796213582e-06,7.517217626382949e-09,-1.766146835517599e-06,1.6904196874030105e-06,1.7794445235030538e-06,1.1403565051571843e-06,1.9390487618193283e-06,5.367462531609247e-07,1.0539681614070127e-06,-1.2885883267299804e-06
-8.355943212869364e-07,-8.044894843762604e-07,4.914365926353971e-07,-1.710406168665779e-06,-1.0022286190371669e-07,1.2076062972864397e-05,6.124827566686091e-06,-1.0685152383486422e-06,-1.514035698576116e-06,1.0842474202318357e-08,-1.771829336826804e-06,1.6500526217361043e-06,1.7822510653944909e-06,1.0982282580550533e-06,1.8686799811899718e-06,4.779130876652265e-07,9.968664767650947e-07,-1.3359947512822775e-06
-8.458273175879865e-07,-7.114989350588397e-07,4.983281972988968e-07,-1.6820525664988173e-06,-1.0671741137330102e-07,1.051537630531233e-05,9.138519118140452e-06,-1.0609423064073075e-06,-1.4286760863959786e-06,2.3935915175459294e-08,-1.7566380248649334e-06,1.5984534733086356e-06,1.7947319683056278e-06,1.043011089783672e-06,1.7813043638801012e-06,4.5040087093918626e-07,9.287929209379923e-07,-1.3826420241992676e-06
-8.584577383425252e-07,-6.85397669204444e-07,5.093309449507931e-07,-1.5868390774738425e-06,-1.3043338587127305e-07,9.060504706520146e-06,9.674335005428867e-06,-1.041675878613792e-06,-1.3434990300407544e-06,5.1095738432793416e-08,-1.7198301991133135e-06,1.5458280826971127e-06,1.831116982149107e-06,9.841553667457622e-07,1.6868840501765221e-06,4.553538197190073e-07,8.591718024990404e-07,-1.4197780938493079e-06
-8.723560786481797e-07,-7.074020697642054e-07,5.270864260138605e-07,-1.448792771712285e-06,-1.6524792300708454e-07,8.094205148873958e-06,7.4689495465112264e-06,-9.910726707530132e-07,-1.2651962507781869e-06,9.494242619069323e-08,-1.6653303727529727e-06,1.503270442533485e-06,1.8975080729795132e-06,9.29201024143252e-07,1.5902483166078812e-06,5.118476920072306e-07,7.950077017000159e-07,-1.4443707486077668e-06
-8.851419901224702e-07,-6.56995843451479e-07,5.514457250090042e-07,-1.2893979841955797e-06,-2.0716140452343e-07,7.387567582829915e-06,3.1868150715622425e-06,-9.07207033412026e-07,-1.199654115215309e-06,1.5106180153920699e-07,-1.6008173304246618e-06,1.4792740704025293e-06,1.98844317068105e-06,8.812911584984988e-07,1.5022430039220206e-06,6.108054625483061e-07,7.397754253698286e-07,-1.4579361336281314e-06
-8.91684343740957e-07,-5.584599322834684e-07,5.791997857605567e-07,-1.1269183314609967e-06,-2.520637178990467e-07,6.624723485669387e-06,-1.92283929370688e-06,-8.065640883873909e-07,-1.151315507414963e-06,2.1344901917172255e-07,-1.5348632592967622e-06,1.4779645519408909e-06,2.088847521620495e-06,8.389122054344168e-07,1.4296969928050503e-06,7.310421976019539e-07,6.940713328849324e-07,-1.4640737733433106e-06
-8.852508577261964e-07,-4.458856071391587e-07,6.048854250164289e-07,-9.727629475620807e-07,-2.959853939137339e-07,5.349423370203767e-06,-6.544763070620263e-06,-7.153003605055664e-07,-1.1218637581875236e-06,2.7881099501954354e-07,-1.4740141947255627e-06,1.498797170099726e-06,2.1805386474452977e-06,7.97892832021412e-07,1.371819828740321e-06,8.569134801782836e-07,6.566070180070838e-07,-1.4667495564991299e-06
-8.622589103507979e-07,-3.350609900103134e-07,6.230260010879771e-07,-8.306694248666914e-07,-3.376655823282123e-07,2.9316251036384097e-06,-9.716736371686961e-06,-6.636222483557294e-07,-1.1098795197648577e-06,3.427519017758279e-07,-1.4216046212864233e-06,1.5368874224671577e-06,2.249753704910326e-06,7.543049655125985e-07,1.3335362393898027e-06,9.74156789435569e-07,6.246578559543283e-07,-1.46905217599477e-06
-8.23012959972994e-07,-2.290743983875577e-07,6.280297776907111e-07,-6.945146651998829e-07,-3.7602956629464864e-07,-6.380697363409894e-07,-1.0965598625617352e-05,-6.736016451776213e-07,-1.1119164901296687e-06,4.0221759800704496e-07,-1.37843086395081e-06,1.5841946637001179e-06,2.2922444531435188e-06,7.06752828891907e-07,1.3125647100602376e-06,1.0646377699801874e-06,5.94941886985332e-07,-1.4742375424045644e-06
-7.727893319956461e-07,-1.5978811188936853e-07,6.175893286805242e-07,-5.565752559136899e-07,-4.103349213452058e-07,-4.8571957872914606e-06,-1.0418749069812999e-05,-7.510850911031445e-07,-1.1233109181600879e-06,4.5592514312872666e-07,-1.3440814326301832e-06,1.632271103682608e-06,2.3133359728620305e-06,6.579347211925138e-07,1.2995921334787836e-06,1.1247634530848927e-06,5.655760175816282e-07,-1.4835491542023302e-06
-7.148037193076476e-07,-1.2205445339464302e-07,5.936082147793079e-07,-4.153785611623086e-07,-4.394483235237278e-07,-8.848774042689757e-06,-8.73909014044608e-06,-8.817119707391099e-07,-1.1373294792270328e-06,5.045622933690062e-07,-1.3178668247462524e-06,1.6752824773765118e-06,2.32437851002244e-06,6.153813411629429e-07,1.2890573842396414e-06,1.1592108823785531e-06,5.37404028772885e-07,-1.4952936018249018e-06
-6.52514160316798e-07,-9.819758044570326e-08,5.616677665517276e-07,-2.7545368223425666e-07,-4.615267118612869e-07,-1.1766675179370408e-05,-6.8501998478348755e-06,-1.0335927272907931e-06,-1.1441316479807849e-06,5.501702026749254e-07,-1.299163831439829e-06,1.7114767936703216e-06,2.3378831215069684e-06,5.896223438650954e-07,1.276959211145781e-06,1.1641789975991428e-06,5.127827967419105e-07,-1.5068771138131656e-06
-5.90273790082586e-07,-8.101049588213678e-08,5.293850342340693e-07,-1.483337945636316e-07,-4.790094696748591e-07,-1.1206406417321488e-05,-5.576899223426716e-06,-1.1647361727029456e-06,-1.132613455739213e-06,5.896588959747466e-07,-1.2874614297683638e-06,1.7426924514825124e-06,2.3629500693709197e-06,5.898926410776898e-07,1.2609623171550958e-06,1.1472251194573524e-06,4.932056925012449e-07,-1.5130892413367134e-06
-5.319539055525422e-07,-6.00253470333029e-08,5.024816554047858e-07,-4.711240664063722e-08,-4.958176053482001e-07,-1.009588947353132e-05,-5.303103537924096e-06,-1.2370530568752925e-06,-1.0956546958910378e-06,6.31441795922537e-07,-1.2823017941062888e-06,1.7721944455057433e-06,2.4023030180030497e-06,6.197241720269659e-07,1.2433160257950584e-06,1.1212410863367076e-06,4.790931028286957e-07,-1.5098405717774475e-06
-4.825465704034491e-07,-3.9165201269405296e-08,4.822582778706101e-07,1.971589037751765e-08,-5.147860495956566e-07,-7.835490084622492e-06,-5.8911970998330774e-06,-1.2329601600351019e-06,-1.0350372599332257e-06,6.70289572502734e-07,-1.283232393029815e-06,1.8026348659181736e-06,2.451726130327301e-06,6.753785108719977e-07,1.2281099053476325e-06,1.0984028893595127e-06,4.7206198607322966e-07,-1.4947820026087124e-06
-4.445915128532926e-07,-2.5156972313413013e-08,4.670178971598952e-07,4.8244126933280805e-08,-5.366491723183891e-07,-4.137042890335824e-06,-6.9028606192264365e-06,-1.1590150378190064e-06,-9.614786959510909e-07,7.04505474927726e-07,-1.2900736883497443e-06,1.8349020519515076e-06,2.5018356149471977e-06,7.472125780148135e-07,1.2201386171160922e-06,1.094677777509947e-06,4.764211131554377e-07,-1.4666272004006661e-06
-4.173556499560412e-07,-2.041459634641128e-08,4.533387876513802e-07,3.7550508216833346e-08,-5.588779865904283e-07,8.856944339038412e-07,-7.951351898857814e-06,-1.0441771001364227e-06,-8.893010319358699e-07,7.355190608815649e-07,-1.3036494326393282e-06,1.867531125030716e-06,2.5414892261469727e-06,8.221569636656495e-07,1.2263821300827132e-06,1.1181736820915373e-06,4.976044024074082e-07,-1.4264425259373957e-06
-3.982499394303837e-07,-2.684318680247913e-08,4.3782553562024295e-07,-1.1023924852109582e-08,-5.781990431965576e-07,4.528230161395373e-06,-8.930541859315287e-06,-9.288509730930993e-07,-8.297269051469416e-07,7.589108399401473e-07,-1.3262934324630274e-06,1.8967605078070663e-06,2.5610284384472336e-06,8.868654240676244e-07,1.252893101467952e-06,1.161314596064238e-06,5.386789048183657e-07,-1.3779093428414114e-06
-3.866412911376875e-07,-4.6212881993416927e-08,4.179647259016489e-07,-9.488375057775351e-08,-5.935427114847005e-07,6.144701230597451e-06,-1.0000240289607032e-05,-8.469313162906377e-07,-7.869300205186459e-07,7.738741328803581e-07,-1.3610386233284116e-06,1.9176843418860987e-06,2.554831004238119e-06,9.315312672789711e-07,1.301466589608146e-06,1.2127724126099657e-06,5.978769954807087e-07,-1.3274632604422475e-06
-3.834794986501841e-07,-7.963239886444948e-08,3.930902869596483e-07,-2.0542373066478087e-07,-6.079963634660165e-07,6.223075513956905e-06,-1.1402103729500762e-05,-8.154206129032835e-07,-7.581735556226543e-07,7.796677580063551e-07,-1.4094793175776238e-06,1.9269660557604125e-06,2.523282912285007e-06,9.531711548811398e-07,1.3722001723282072e-06,1.2566120292579947e-06,6.691196641862871e-07,-1.2810926491116934e-06
-3.89558416316831e-07,-1.2607878190539675e-07,3.656760484726502e-07,-3.3698260295967976e-07,-6.225993685323597e-07,5.073364117648077e-06,-1.3226596341362323e-05,-8.319095691535715e-07,-7.372730948092915e-07,7.789890420137397e-07,-1.4698204500377643e-06,1.925204744227434e-06,2.473167221397238e-06,9.568454628728912e-07,1.4605089190959037e-06,1.2883757501954094e-06,7.446467314041144e-07,-1.2436245404178023e-06
-4.0468720252260437e-07,-1.8069443603834228e-07,3.4147502181699213e-07,-4.812190288051825e-07,-6.35670888393733e-07,3.3726226876624665e-06,-1.5232583935252022e-05,-8.816175572101416e-07,-7.191671050494588e-07,7.736320646107426e-07,-1.5367007134039409e-06,1.9168411966537493e-06,2.415632970631144e-06,9.529621126506791e-07,1.5603702047246124e-06,1.3159905268124237e-06,8.172474679676489e-07,-1.2164333650727497e-06
-4.275818474138997e-07,-2.3583460155230638e-07,3.274577411219981e-07,-6.294410539892736e-07,-6.452973083413876e-07,1.7014255486425773e-06,-1.685410933601891e-05,-9.469662892924928e-07,-7.02733755336318e-07,7.685158390439446e-07,-1.6029369533968858e-06,1.9078929172859956e-06,2.3620020910746173e-06,9.518450072349371e-07,1.6659991479880942e-06,1.352724816622856e-06,8.811039791298106e-07,-1.199241276862122e-06
-4.5746939364868795e-07,-2.83745359813344e-07,3.282715585500692e-07,-7.685964739491369e-07,-6.49220337583687e-07,3.317641568023824e-08,-1.7440222064102853e-05,-1.016097616811849e-06,-6.907447955988687e-07,7.654391719512296e-07,-1.6618725461323867e-06,1.9036017097079857e-06,2.319658512325859e-06,9.592159453324323e-07,1.770617196049145e-06,1.4104204432120138e-06,9.322116072445136e-07,-1.1892014376641496e-06
-4.955850527098971e-07,-3.1892083289893447e-07,3.4517310718959356e-07,-8.881322168690073e-07,-6.473188775590131e-07,-1.632532564289689e-06,-1.6585114069669574e-05,-1.0826127312745176e-06,-6.880119784973863e-07,7.633728894265157e-07,-1.7088609619924823e-06,1.907489367440371e-06,2.2903519750253323e-06,9.750187714524386e-07,1.8702465468009778e-06,1.4945669539743618e-06,9.69092834603065e-07,-1.1817236107217792e-06
-5.408004811595597e-07,-3.3791468008504065e-07,3.7667070982732734e-07,-9.817342107477235e-07,-6.414318158669815e-07,-3.3361649096353175e-06,-1.4298972195150553e-05,-1.1463092690330658e-06,-6.989157147676159e-07,7.660119258453461e-07,-1.7416509526410518e-06,1.9215492762307027e-06,2.271752355150237e-06,9.959151047637938e-07,1.9634450421381035e-06,1.6014961417499699e-06,9.934190367373023e-07,-1.1714101720082583e-06
-5.908633630324851e-07,-3.387156435381646e-07,4.2019092523174866e-07,-1.0436363007141068e-06,-6.339789110249922e-07,-4.984615346456312e-06,-1.1040914464050733e-05,-1.208862373126856e-06,-7.250107074600106e-07,7.727199513537529e-07,-1.7628019228844056e-06,1.9464123470010996e-06,2.2599744770654215e-06,1.0182570880957694e-06,2.0504594686620406e-06,1.7210776206508149e-06,1.0100604651766213e-06,-1.1524686035744145e-06
-6.412448008522244e-07,-3.215025445832564e-07,4.7261182197404864e-07,-1.0712133782983718e-06,-6.271267904254784e-07,-6.2871346080280026e-06,-7.64208835910825e-06,-1.2790836320461672e-06,-7.635097210060498e-07,7.810400791315412e-07,-1.775076274444564e-06,1.9805469375179164e-06,2.250648925349082e-06,1.0395487337458108e-06,2.131944291010993e-06,1.8470917672166903e-06,1.0264585732974053e-06,-1.1206880334338164e-06
-6.858512484868049e-07,-2.8995463212198116e-07,5.276425872320543e-07,-1.0609407151530405e-06,-6.210881628027674e-07,-6.9979764145806715e-06,-5.05719891664633e-06,-1.372458562535192e-06,-8.07348961665978e-07,7.85009002326549e-07,-1.7836184955931247e-06,2.019784435731141e-06,2.2389146023447853e-06,1.0583972460413823e-06,2.2086469921603566e-06,1.9711310503154294e-06,1.0512437038350597e-06,-1.0756705087688398e-06
