0,1,2,3,4,5,6,7,8,9,10,11,12,13,14,15,16,17
2.910387596466716e-07,-6.022981369218483e-08,1.8716824208524823e-07,1.6882039880472393e-08,5.4469026684742544e-08,-3.523484875090747e-07,-5.136545853546314e-07,-1.2329872562343497e-07,-2.6719874600859115e-07,1.4773692443927286e-07,-5.011679126795409e-08,2.0447844308857858e-07,-2.0794937379168438e-07,1.2766958293148705e-07,2.319877981214732e-07,4.6909586132342704e-07,2.157045717947569e-07,5.44094820431878e-07
2.857397592296718e-07,-4.69118098520115e-08,1.6092045440513808e-07,-1.7658513563455897e-07,2.4345404649783518e-08,-3.0402323200213597e-07,-3.9432470719237413e-07,-1.2015812940437477e-07,-1.676216060595882e-07,1.223121625396638e-07,-1.1723670813976179e-07,1.7721895883278726e-07,-1.9217764443537196e-07,1.0923969882813946e-07,1.7371951492181964e-07,3.9540919470628996e-07,2.0091093121540483e-07,4.4551915072503005e-07
2.748878476475987e-07,-4.256371598172832e-08,1.2424687955963734e-07,-5.2977103941383115e-08,-1.6894978024559475e-08,-2.52398731433309e-07,-2.6927571184367223e-07,-1.4172568714681417e-07,-1.1300411848498727e-07,9.76018667725307e-08,-1.6592901673018442e-07,1.0848828044556775e-07,-1.5796488054505664e-07,9.334004307919193e-08,1.3720199879841183e-07,3.2746559598258084e-07,1.6081904699886865e-07,3.441187564873635e-07
2.351071746037337e-07,-4.747040219961744e-08,7.913054835700054e-08,1.2718318849646033e-07,-4.911251907310154e-08,-1.7776828257589026e-07,-2.072158234233961e-07,-1.6092908541616567e-07,-6.426608138823819e-08,7.218257487655683e-08,-1.5247001782407422e-07,4.1069115620077486e-08,-1.2219413460129214e-07,8.38692814526559e-08,1.2308890234898516e-07,2.694026781217888e-07,1.429102160761861e-07,2.547217011489907e-07
1.932855130430029e-07,-5.9338841916579466e-08,4.945641459978539e-08,1.370445689877315e-07,-6.361199318527792e-08,-8.958461693222353e-08,-1.1817827537476121e-07,-9.851751013155087e-08,1.9686992655477433e-08,5.063634298057066e-08,-5.340415822297701e-08,4.352029935417061e-08,-1.1369453914639335e-07,8.41623269517943e-08,1.0046767090036991e-07,1.9786498703395986e-07,1.446330991728772e-07,1.6960496206015947e-07
1.5924406410766748e-07,-7.289728126102459e-08,3.253602495300961e-08,-5.049219423262843e-08,-5.846907750961464e-08,-9.917685724142064e-09,-2.8370416619148853e-08,-9.724242289729465e-09,7.908350805277482e-08,3.242075334053636e-08,-4.080485811711209e-08,4.375629961201779e-08,-9.862426387838293e-08,9.274269828066269e-08,6.706340674057133e-08,1.330468201897924e-07,1.1531503163419082e-07,8.203634848512541e-08
9.892604513966012e-08,-8.044413209617813e-08,1.4225674896371895e-08,-2.876459177794803e-07,-2.271523612615522e-08,5.6725507053224704e-08,6.993286610976812e-08,2.1552890134600026e-08,8.510898960298299e-08,2.054738220288365e-08,-6.86012704279866e-08,3.39151119079329e-08,-5.763113300703503e-08,8.234877714871199e-08,3.418726390711318e-08,6.812228153280508e-08,7.902159815022324e-08,-5.8076719568121685e-09
3.126198588468534e-08,-7.464142235568653e-08,-6.820249772999628e-09,-5.031881483133016e-07,2.761954745366979e-08,1.0384698840601476e-07,1.3538055689160307e-07,2.2746169642603334e-08,7.229876663884782e-08,1.4264006767669345e-08,-7.11829984228091e-08,1.1211874781721785e-08,-1.434462145154833e-08,7.006794889266607e-08,-5.902505001026896e-09,-5.362500033970527e-09,4.1157372939691485e-08,-9.102200328767551e-08
-3.355896320259629e-08,-5.2036776408493404e-08,-2.0443705004843423e-08,-5.954789408179757e-07,7.577157457935875e-08,1.4972101783884302e-07,1.7012200298724395e-07,6.814412496748061e-08,1.0282252338821692e-07,5.574905523771103e-09,-6.748408557671113e-08,-2.39237771766059e-08,2.3202381910771704e-08,4.246028418688781e-08,-4.6985933689538516e-08,-7.734137555026102e-08,-3.0420390159590843e-09,-1.600193229018536e-07
-9.478828087949974e-08,-1.4563415682269573e-08,-3.162239249672644e-08,-6.401068428275414e-07,7.722146230349475e-08,1.655313771202826e-07,1.969184236998256e-07,1.0424901028495851e-07,9.73717608513948e-08,-8.414849965428216e-09,-2.167685573194218e-08,-6.827512765228753e-08,6.279532588681365e-08,-3.230698049845772e-09,-8.452569395657212e-08,-1.5092782841381112e-07,-5.5509296968202505e-08,-2.097259460888495e-07
-1.4893781127617584e-07,3.1530386832380405e-08,-4.542791607109811e-08,-4.025878336097628e-07,4.271991096734039e-08,1.6959106890997335e-07,1.970584795882658e-07,1.458537033362321e-07,8.512908968352922e-08,-2.642792154468097e-08,3.766714745297238e-08,-1.1067945006401306e-07,9.504471400392299e-08,-5.150047759449504e-08,-1.134866189312767e-07,-2.160670094483375e-07,-1.2339423177834307e-07,-2.381257617487829e-07
-2.0131606758712145e-07,7.742120285712863e-08,-6.291646675328226e-08,-9.664076337221668e-08,2.567910866968362e-08,1.683944703957967e-07,2.1020143128285926e-07,1.895959107531521e-07,1.058081977317121e-07,-4.960242232565666e-08,1.056449297876225e-07,-1.3259714038521482e-07,1.2372168443858659e-07,-9.870021904544234e-08,-1.2792498506995063e-07,-2.6620423143436684e-07,-1.6017860299266894e-07,-2.4915852133361713e-07
-2.5457013331228203e-07,1.1289687432901073e-07,-8.132226788631395e-08,2.4978769605868887e-07,1.9629611922616493e-08,1.482484998770478e-07,1.9389501103950907e-07,1.2973491668748437e-07,8.01636225402355e-08,-7.637212843533261e-08,1.6177578083987266e-07,-1.2524006749265385e-07,1.480050240711682e-07,-1.3464509090625864e-07,-1.3345538658766987e-07,-2.906184297946617e-07,-1.7643282678787805e-07,-2.460371779822294e-07
-2.913769964783741e-07,1.282408159402811e-07,-1.0443121222919361e-07,5.534593804458283e-07,1.222613535350566e-08,1.2370786655286463e-07,1.5545955570937915e-07,4.114450172946232e-08,4.2839736885115575e-08,-1.0440511814657878e-07,1.8138166454772163e-07,-9.985835503183758e-08,1.6289855164371692e-07,-1.5458312260022858e-07,-1.2886398320983227e-07,-2.970309172874655e-07,-1.9224257626354166e-07,-2.3254624456940756e-07
-2.86431063249274e-07,1.1780772825840538e-07,-1.3181902423307396e-07,7.850081378601642e-07,-4.095230026796129e-08,7.587098681781516e-08,1.1559487712931996e-07,-1.0281561112154846e-08,-3.498582022204821e-08,-1.3300485129910756e-07,1.8427614595292588e-07,-6.987972372385455e-08,1.7471828512878622e-07,-1.6630417712990186e-07,-1.182350674225885e-07,-2.880039999554694e-07,-1.95705779582696e-07,-2.159528258111108e-07
-2.585118333173674e-07,8.320060322856741e-08,-1.628810044086597e-07,9.363378687995016e-07,-1.079256783975253e-07,2.4403253204912597e-08,8.645631537020895e-08,-5.838628641175019e-08,-1.2323681586683406e-07,-1.6504962772666934e-07,1.381610918803988e-07,-3.320474211638688e-08,1.741946237729982e-07,-1.769368564260255e-07,-1.0833638187028872e-07,-2.6885112697230026e-07,-1.939665145929097e-07,-1.9170026365820898e-07
-2.3104069316267295e-07,3.3264947873513943e-08,-2.019103745502413e-07,1.0056801230416935e-06,-1.4435970675977394e-07,1.6449305503815182e-10,4.333988435494092e-08,-4.849346142906511e-08,-1.9672813746510357e-07,-1.9674518717666171e-07,6.726068522841724e-08,-6.990634046924099e-09,1.746155870459163e-07,-1.726158045246708e-07,-9.590771524997529e-08,-2.49674850280585e-07,-1.948824642140728e-07,-1.671579112914801e-07
-2.011422203235069e-07,-1.91651128002387e-08,-2.3422501259067923e-07,1.0073853359462664e-06,-1.8088474953926703e-07,-6.054827161266462e-09,2.0889644230375177e-09,-3.844389833921459e-09,-2.5594256798737005e-07,-2.248882358915637e-07,-2.643211824647379e-09,1.768844934856476e-08,1.7681719098133885e-07,-1.5331736567431964e-07,-8.849377182452425e-08,-2.3366010380788244e-07,-2.0370293084011564e-07,-1.476963826993234e-07
-1.827404185595389e-07,-6.172657790001222e-08,-2.6031343059127917e-07,9.641137047332865e-07,-1.9501018601569566e-07,8.141618094391722e-09,-2.7278459218229924e-08,5.119750927475356e-08,-2.9574514833647263e-07,-2.432093916890342e-07,-5.855387449122546e-08,4.100506918178039e-08,1.866590345663807e-07,-1.36408381823743e-07,-8.54633919568547e-08,-2.2322717747738708e-07,-2.1424720688612482e-07,-1.3291084757040294e-07
-1.6446624716599467e-07,-8.575000850701464e-08,-2.827894928972641e-07,8.992094421068112e-07,-1.8613431017484793e-07,4.1068655733023796e-08,-5.359137376690103e-08,1.1169900045428992e-07,-3.108452192243653e-07,-2.5319621179716334e-07,-8.569502850254057e-08,6.233655273541222e-08,2.0837878117868283e-07,-1.2060331102659903e-07,-8.451867719978819e-08,-2.1662199125574192e-07,-2.284267931124614e-07,-1.2397149584952655e-07
-1.5461148532061136e-07,-8.674124111428817e-08,-2.951753873559171e-07,8.341228675204033e-07,-1.6701934084594447e-07,7.850963577161004e-08,-4.6284992739905055e-08,1.649482584264106e-07,-3.1390242100133695e-07,-2.575679816473752e-07,-9.413023629793046e-08,7.789737167823465e-08,2.2773521702379402e-07,-1.1114223163365147e-07,-8.569533250937334e-08,-2.0896364370728042e-07,-2.5295410675289356e-07,-1.1749206761874985e-07
-1.5632997209657243e-07,-6.318958159331573e-08,-2.985677774749471e-07,7.85577623509955e-07,-1.3418627042065235e-07,1.1688885760878197e-07,-2.0738133436093764e-08,2.0833808553547481e-07,-3.1286579587043685e-07,-2.565898767875049e-07,-8.397981944932474e-08,9.158632772162623e-08,2.4986908049583154e-07,-1.0838895339977104e-07,-8.500822294236608e-08,-1.9534629901229742e-07,-2.8302242790140073e-07,-1.0983294454105305e-07
-1.586849353908392e-07,-1.6139617038695745e-08,-2.912483653650525e-07,7.762811021950725e-07,-9.575902543243531e-08,1.5468725218187312e-07,1.0561754427241427e-09,2.4020501196442463e-07,-3.107922304322481e-07,-2.525179449584795e-07,-7.558197968121124e-08,1.0631965981821577e-07,2.7494121520424364e-07,-9.641787614418074e-08,-8.184485298928715e-08,-1.728958635848664e-07,-3.0033999636837446e-07,-9.917327912346531e-08
-1.5786655963899227e-07,4.982851177017094e-08,-2.7222872920930755e-07,7.899525052652135e-07,-5.734692404426656e-08,1.8856696455562984e-07,1.365568315417412e-08,2.6071141720166045e-07,-2.9894785898533514e-07,-2.4471649484272724e-07,-4.679529903834901e-08,1.1999470432730816e-07,3.110799886473616e-07,-7.760016700772177e-08,-7.583722465026517e-08,-1.4205217287139967e-07,-3.246783419715314e-07,-8.773018908955966e-08
-1.5356321694293325e-07,1.257626753298189e-07,-2.4304272444186884e-07,8.194159624978477e-07,-2.27702973382534e-08,2.1736498939711305e-07,2.483224662673655e-08,2.6727059400081783e-07,-2.8585841383867015e-07,-2.3348207017211793e-07,3.621175108013856e-09,1.3672572805143798e-07,3.579910826809615e-07,-6.803236469484493e-08,-6.99173917342328e-08,-1.0597298183665579e-07,-3.5563207789875413e-07,-7.570269347727585e-08
-1.4792112123135875e-07,1.9948365810860124e-07,-2.103392692346256e-07,8.582098923162901e-07,3.3886283187803256e-09,2.4082314544884486e-07,2.981757561603195e-08,2.6287465949389383e-07,-2.7616894201659056e-07,-2.220014991372853e-07,4.625047335871454e-08,1.5128273852087703e-07,3.961586245714613e-07,-6.48855746518668e-08,-6.363985742604753e-08,-6.882318813078853e-08,-3.934767684854961e-07,-6.282367143646491e-08
-1.491998651293383e-07,2.590305191483829e-07,-1.755730998678803e-07,8.920466827505707e-07,1.7880597284275527e-08,2.598094975924362e-07,3.0698168292204134e-08,2.5456506424905984e-07,-2.619469081739736e-07,-2.1293631351304925e-07,8.434706742878802e-08,1.6349557717249106e-07,4.2732839214293114e-07,-6.446375069501463e-08,-5.654622552809045e-08,-3.440970387030643e-08,-4.322209878012896e-07,-4.916711911083515e-08
-1.5393890570387529e-07,2.9644722128212133e-07,-1.38552603529146e-07,9.204041352904644e-07,2.5048277597013702e-08,2.7639765126349603e-07,3.3178133632486106e-08,2.49747739925692e-07,-2.456777391334721e-07,-2.0615865189685306e-07,1.1290628392006798e-07,1.7340256914103274e-07,4.5063536843682113e-07,-6.800711912822815e-08,-4.820563520638821e-08,-5.911216162899413e-09,-4.6654776030735944e-07,-3.340456538586862e-08
-1.536149721992835e-07,3.094696900869202e-07,-1.0222413147995322e-07,9.435211503513933e-07,3.143380778030663e-08,2.925792315702459e-07,2.9139472854240243e-08,2.5209621340538215e-07,-2.2739897748363366e-07,-2.0193726580574845e-07,1.3122930413098e-07,1.7787138399678449e-07,4.663363289450678e-07,-7.231529802941652e-08,-3.790093377601224e-08,1.4312798759681416e-08,-4.963645224101836e-07,-1.4920741914869293e-08
-1.486802312396906e-07,3.009652346644056e-07,-6.818615082175493e-08,9.63952723361867e-07,4.127600705935475e-08,3.0916927914441275e-07,2.2068377561530143e-08,2.605242685096533e-07,-2.081084941315687e-07,-2.0032551833353388e-07,1.4545741378205665e-07,1.7386142908986918e-07,4.785203186894324e-07,-7.937845283839018e-08,-2.6108053308082603e-08,2.5858788207878765e-08,-5.201080700588286e-07,6.296566243631432e-09
-1.4111591167108094e-07,2.7765279713903414e-07,-3.884548268552227e-08,9.830848908469417e-07,5.554758148325681e-08,3.257861769689739e-07,1.5514560433934644e-08,2.7486270143525414e-07,-1.9147381827552122e-07,-2.0143038146132022e-07,1.5835155771373428e-07,1.6221830223758751e-07,4.853385360930537e-07,-8.706461035727832e-08,-1.2454519955088401e-08,3.142249616057352e-08,-5.445208521652106e-07,3.003163996710704e-08
-1.3046952765826404e-07,2.4853879257430267e-07,-1.54451774255615e-08,1.0087456648449755e-06,7.080053999791275e-08,3.415708778897782e-07,7.578417979511118e-09,2.9449234267712847e-07,-1.8010562334011803e-07,-2.0412850564844972e-07,1.652988695493922e-07,1.442808791908815e-07,4.845005902210491e-07,-9.233280205857861e-08,3.8290648902537774e-09,3.61992309651531e-08,-5.605675349496166e-07,5.327505011379337e-08
-1.1876387418721256e-07,2.223957994417137e-07,3.7006343307978487e-09,1.0412229288655902e-06,8.202676877357849e-08,3.5564226441494284e-07,4.8012836474035195e-09,3.1508524268394824e-07,-1.7215067916914644e-07,-2.0822856138611174e-07,1.647753474752196e-07,1.319190157433595e-07,4.777626466745706e-07,-8.645109809639835e-08,2.095417543079761e-08,4.5460106095987625e-08,-5.629621966661622e-07,7.707284428416932e-08
-1.0922993219257146e-07,2.0476034625820285e-07,1.6150625641681284e-08,1.0760427895917828e-06,8.549303613138122e-08,3.671396050923175e-07,1.6678101443347693e-09,3.3081777960523467e-07,-1.6305307510078512e-07,-2.1339742524085617e-07,1.5954876999086687e-07,1.2422734801720997e-07,4.7267840235243976e-07,-8.036418136052593e-08,4.136315283521593e-08,6.213893485382731e-08,-5.515948755481409e-07,1.0279761872510275e-07
-1.0275429001738672e-07,1.9635772021180218e-07,2.239850999575979e-08,1.1086171875532792e-06,8.052296589933312e-08,3.755220051944143e-07,-3.3925751521275437e-09,3.3677600766114595e-07,-1.4884486445337514e-07,-2.214615480708889e-07,1.4642254009973857e-07,1.1223120948016544e-07,4.671436169728062e-07,-7.451494039188199e-08,6.49123312745371e-08,8.629532819215238e-08,-5.308309523036592e-07,1.3138995938731627e-07
-1.0033793875122203e-07,1.940252606610104e-07,2.3037692684038892e-08,1.1319100739140779e-06,6.86294721958135e-08,3.8123380535347147e-07,-6.6224464432198045e-09,3.3065339564087296e-07,-1.25591814754714e-07,-2.3257080279813683e-07,1.2388977612547847e-07,9.801857484671196e-08,4.5986291731036625e-07,-6.87450731661755e-08,8.968269157947698e-08,1.1651960883793605e-07,-5.014994225084394e-07,1.652236009212365e-07
-9.84874831789463e-08,1.9326027033434998e-07,1.7739137503695228e-08,1.1428205806199095e-06,5.259467303756478e-08,3.8586832488944035e-07,-7.308631771614498e-09,3.1571337805011167e-07,-9.152699380402011e-08,-2.4611716095994705e-07,9.510509315069933e-08,8.292660962155971e-08,4.5666425473960645e-07,-6.669299670081734e-08,1.1523442368206159e-07,1.515216458842318e-07,-4.6098472404660907e-07,2.0538421409291313e-07
-9.854597804344412e-08,1.9091144675441462e-07,9.089024505481513e-09,1.1423903076907079e-06,3.436696658502884e-08,3.9119384625607106e-07,-2.2027733813040114e-09,2.968829611825629e-07,-4.877176374162247e-08,-2.620725801705142e-07,6.193470383214273e-08,6.718157403084215e-08,4.554872431262449e-07,-6.686861202650224e-08,1.398001979254828e-07,1.9020180187555418e-07,-4.1496959933317135e-07,2.513291243685901e-07
-1.0181738866472006e-07,1.8691054260728157e-07,-6.354361144249384e-10,1.1305567307812873e-06,1.395379171628566e-08,3.9766651442141667e-07,8.876912479615498e-09,2.792777783161721e-07,-2.593821130794767e-09,-2.797792107193273e-07,4.396529224109269e-08,5.112255650746033e-08,4.563356411251902e-07,-6.965453201580629e-08,1.6182430483030934e-07,2.303509039856799e-07,-3.7988690654643445e-07,2.999531614634003e-07
-1.09284629816628e-07,1.845570278992769e-07,-9.916993079021527e-09,1.1169451233980095e-06,-9.602007511157101e-09,4.0368636648102676e-07,2.2265230884479488e-08,2.6542410454672887e-07,3.993048563332254e-08,-2.999427772075907e-07,4.120127053266395e-08,3.595913322549027e-08,4.58645542167768e-07,-8.197354975154501e-08,1.7926191726631383e-07,2.6770949534023755e-07,-3.5357030628621546e-07,3.4610844503313613e-07
-1.2312997201654776e-07,1.8959837204604998e-07,-1.718312942805818e-08,1.107903943810855e-06,-3.640905463262497e-08,4.061706813160644e-07,3.141676920770188e-08,2.55823445547694e-07,7.383784471011832e-08,-3.1971069578599864e-07,4.762789475484627e-08,1.2686001127370133e-08,4.55645552129508e-07,-1.0619644945323909e-07,1.9112952530875594e-07,2.966510220081391e-07,-3.4430669528944754e-07,3.8262595989625243e-07
-1.3927972169581206e-07,2.0809407011813362e-07,-2.1757851715337367e-08,1.1099908814871774e-06,-6.383480996152824e-08,4.0197993687114457e-07,3.206140803866786e-08,2.511970204742798e-07,9.65649422743384e-08,-3.3930815741772046e-07,7.368382725777586e-08,-2.0062186178271687e-08,4.585879578249558e-07,-1.3685778103983916e-07,1.9570370640513055e-07,3.1206104863255366e-07,-3.5300037269211133e-07,4.037118951350266e-07
-1.510935685297924e-07,2.430508375783715e-07,-2.4663565465299575e-08,1.132821233706998e-06,-8.67664454488794e-08,3.8923117689624707e-07,1.9372652071406657e-08,2.5270564771492374e-07,1.0792355137411592e-07,-3.5820047772226145e-07,1.1785342385166737e-07,-5.999988745734453e-08,4.6756311828297213e-07,-1.7196557036652184e-07,1.9214002041109123e-07,3.1127563459489894e-07,-3.749623613726064e-07,4.070004631628234e-07
-1.5845234636762403e-07,2.918042630328148e-07,-2.7511642888200694e-08,1.1820011178230213e-06,-1.0021633518903846e-07,3.678468386524089e-07,-1.0657435012391063e-08,2.6155592433529816e-07,1.0933890635603447e-07,-3.7524297511082405e-07,1.779943862886677e-07,-1.1004075628515599e-07,4.807011153758042e-07,-2.080212128475228e-07,1.8081761981947403e-07,2.953915464653942e-07,-4.0615904981728385e-07,3.938004514676316e-07
-1.6207324044448315e-07,3.468814403186494e-07,-3.22538757373107e-08,1.259443889858441e-06,-1.0213052752256863e-07,3.3960894032583116e-07,-5.809628035292917e-08,2.761695266697358e-07,1.0315261546558233e-07,-3.906722940474619e-07,2.516788987207084e-07,-1.6874560699533883e-07,4.967536491739187e-07,-2.4265159017275943e-07,1.6298621175440473e-07,2.695174812229109e-07,-4.381150759136322e-07,3.6942478646544797e-07
-1.6100048143738259e-07,3.9987680352740835e-07,-4.040582613332386e-08,1.3589260026718406e-06,-9.397960669204973e-08,3.0828462345700667e-07,-1.1996949155446098e-07,2.919452299553301e-07,9.303743417238126e-08,-4.0387900584256303e-07,3.28389266619927e-07,-2.3269243900911218e-07,5.143726371281181e-07,-2.7482305640620195e-07,1.4207738332422062e-07,2.415034360757641e-07,-4.623744855207602e-07,3.4187458408880376e-07
-1.5795512354417686e-07,4.446200732728557e-07,-5.1431369003e-08,1.464526080197301e-06,-7.946579616103461e-08,2.794646485022813e-07,-1.8942305279071629e-07,3.0461376976221534e-07,8.308621487586951e-08,-4.147940012690337e-07,3.896583824471755e-07,-2.9584178660639973e-07,5.325363919359821e-07,-3.040014388047355e-07,1.231051586551038e-07,2.192410780040497e-07,-4.6938352528257555e-07,3.1988382068848497e-07
-1.5497816247881166e-07,4.77440223445541e-07,-6.289974670735864e-08,1.5505451586264149e-06,-6.24061922969072e-08,2.592753898503878e-07,-2.576025420028993e-07,3.115904048302709e-07,7.718997668072632e-08,-4.233234656434588e-07,4.2378377816209235e-07,-3.495304777090035e-07,5.466252926657679e-07,-3.2579227000288016e-07,1.110619828967447e-07,2.0759527403574653e-07,-4.589202133406203e-07,3.1042646145174536e-07
-1.537642542053482e-07,4.961929980033321e-07,-7.19746475255806e-08,1.5926451400936766e-06,-4.586078564237317e-08,2.5226283422502713e-07,-3.166228804680935e-07,3.1306298880868524e-07,7.681248599210245e-08,-4.3243406868323954e-07,4.242885264191963e-07,-3.873354042193632e-07,5.526924349486848e-07,-3.38578774952314e-07,1.089807867239052e-07,2.0652900051786132e-07,-4.3382464215523775e-07,3.163804071906189e-07
-1.5676239049996598e-07,4.999571976349944e-07,-7.580299617495343e-08,1.5769042080085852e-06,-3.180329335779777e-08,2.5993638042506716e-07,-3.60494993395352e-07,3.122853543071904e-07,8.129771651769038e-08,-4.4363756698939063e-07,3.8767127256574536e-07,-4.048099930535022e-07,5.436901694333937e-07,-3.401937341297528e-07,1.1628551138129589e-07,2.116703390498947e-07,-3.9914966104365297e-07,3.3591847893017314e-07
-1.6580964670373569e-07,4.888075250616402e-07,-7.182670002748682e-08,1.5051524222020495e-06,-2.1100991722834245e-08,2.8086613690210185e-07,-3.853430240367537e-07,3.142065075463754e-07,8.991758735545805e-08,-4.563320001020139e-07,3.2478544378954924e-07,-4.013129447417447e-07,5.205040313641814e-07,-3.3165904091199175e-07,1.3021687368787236e-07,2.1713745697077446e-07,-3.597862919486441e-07,3.6409739606889847e-07
-1.79279558133671e-07,4.630408275879474e-07,-5.74794489013867e-08,1.3950854359585548e-06,-1.4334662103639187e-08,3.115698761853716e-07,-3.8884413341160856e-07,3.2419640645716495e-07,1.032317886205595e-07,-4.6876754673538127e-07,2.526506696732646e-07,-3.82820349991658e-07,4.898207734727505e-07,-3.1701786181614746e-07,1.4756721233821776e-07,2.185836038652201e-07,-3.189295742474692e-07,3.954825509206377e-07
-1.9516806041316417e-07,4.2309043942375657e-07,-3.051091379823983e-08,1.2717302723011255e-06,-1.2504840845839286e-08,3.4700885282702343e-07,-3.703073736882819e-07,3.447922797224551e-07,1.2321640715285388e-07,-4.78123339609855e-07,1.8366028215814387e-07,-3.5575397719928856e-07,4.5820445710226635e-07,-2.9910252296126695e-07,1.6558137493371662e-07,2.14421993605341e-07,-2.793879443270449e-07,4.2612442842111215e-07
-2.1119948729937731e-07,3.7101123886943647e-07,9.481935595019874e-09,1.1585284349761905e-06,-1.6660747704936846e-08,3.80913807798747e-07,-3.325100766861094e-07,3.738198428189229e-07,1.518965157250335e-07,-4.832304589062935e-07,1.265741264460152e-07,-3.2746451482339073e-07,4.307580795104628e-07,-2.812013800227165e-07,1.8246307801792131e-07,2.0526902815595693e-07,-2.41112370647832e-07,4.541011153089356e-07
-2.2512652400727098e-07,3.121773057502939e-07,6.028876012310694e-08,1.0676898593621863e-06,-2.6772907938177588e-08,4.070755093900791e-07,-2.8176324994201497e-07,4.059690422352833e-07,1.9051878627825046e-07,-4.86132416057303e-07,8.05423456292667e-08,-3.047742538035949e-07,4.089169836315125e-07,-2.6614316706751676e-07,1.9719559100646465e-07,1.9302547380236365e-07,-2.0119459906927488e-07,4.789903132904987e-07
-2.3555072883862705e-07,2.5513791543761724e-07,1.1771765750937565e-07,1.0098131172637933e-06,-4.070809842114233e-08,4.2147065590275095e-07,-2.2594670835437313e-07,4.3686040024108774e-07,2.3890919455243605e-07,-4.888524355966492e-07,4.651481248238489e-08,-2.91867813688097e-07,3.919919472899541e-07,-2.5311701729681195e-07,2.09266310411759e-07,1.8032090446268927e-07,-1.6262139704351557e-07,5.010155834502766e-07
-2.402884733618069e-07,2.0918413951462175e-07,1.766170068724128e-07,9.82433398186654e-07,-5.3950191061077926e-08,4.2362669752205946e-07,-1.7225024503466934e-07,4.6566388672111823e-07,2.9607749531946087e-07,-4.926055691672378e-07,2.5099530176272925e-08,-2.8742852448540496e-07,3.796361510710902e-07,-2.408208906501084e-07,2.1924109118836788e-07,1.6989957474902303e-07,-1.2508628726035524e-07,5.203129606134936e-07
-2.3819879586058105e-07,1.8095481331902101e-07,2.3209044195787644e-07,9.75791943717044e-07,-6.071306043792556e-08,4.1625334498908767e-07,-1.2596232150588572e-07,4.944781010902486e-07,3.596369434138143e-07,-4.987184861664782e-07,1.1827285883622142e-08,-2.886659855391578e-07,3.6721433187781635e-07,-2.293322138117385e-07,2.2792802592321505e-07,1.6359787443531408e-07,-8.926558698200372e-08,5.365218479107544e-07
-2.3159633920104167e-07,1.7198849274693083e-07,2.793741186904906e-07,9.795201110606053e-07,-5.597875496316962e-08,4.037693965952759e-07,-9.034643356868393e-08,5.258092274132344e-07,4.254871954342094e-07,-5.079267609491749e-07,1.121415865134515e-09,-2.9220160386948644e-07,3.536726365737644e-07,-2.1854348895414362e-07,2.3564821113710736e-07,1.6156875762581497e-07,-5.772387333749593e-08,5.489247934788756e-07
-2.217382728435339e-07,1.786032164812164e-07,3.1467483338682047e-07,9.81407230277276e-07,-3.750132378208645e-08,3.9079946569217997e-07,-6.649243735557555e-08,5.600774680867248e-07,4.889787007132629e-07,-5.218619159922736e-07,-1.4722209875643108e-08,-2.9314193851690877e-07,3.384494570585565e-07,-2.0896946548618253e-07,2.4259125887124995e-07,1.6270729246342396e-07,-3.042393107417815e-08,5.572018597786335e-07
-2.1080851722244762e-07,1.9399035607107112e-07,3.370216250763862e-07,9.746569077411382e-07,-7.1577842405840395e-09,3.809719617210878e-07,-5.269425571485076e-08,5.957865117406256e-07,5.464260270208116e-07,-5.401265676820703e-07,-4.156267436835448e-08,-2.880676290505015e-07,3.2133762777084346e-07,-2.0032025938818818e-07,2.4905269061816527e-07,1.6601400431543894e-07,-6.704685854989315e-09,5.622779023113007e-07
-2.011693499783281e-07,2.1086145879894836e-07,3.4895445727438037e-07,9.593035867075693e-07,2.8813719570423852e-08,3.7581454744694107e-07,-4.446480686471336e-08,6.310138948867738e-07,5.961879388832085e-07,-5.599321539263096e-07,-8.131595216266275e-08,-2.7411702594016245e-07,3.0334829633208254e-07,-1.906458605702481e-07,2.553647982762664e-07,1.7143799258074347e-07,1.511316030208646e-08,5.663690918757954e-07
-1.9233805687985603e-07,2.2325222918817856e-07,3.554099088892846e-07,9.4262087089521e-07,6.130548424293261e-08,3.7388784372075323e-07,-3.677537338415256e-08,6.632488492386557e-07,6.372737199963904e-07,-5.781411499445733e-07,-1.3116352671730757e-07,-2.518052129674138e-07,2.860297019779106e-07,-1.7782012274903373e-07,2.612857264671514e-07,1.7936561051935987e-07,3.655499401161141e-08,5.719661367892825e-07
-1.8351827592318643e-07,2.2769607586667737e-07,3.612794907883381e-07,9.349291188936066e-07,8.11725894514733e-08,3.7079089916237413e-07,-2.7153047138907755e-08,6.890576183000102e-07,6.682484013337648e-07,-5.921286738368738e-07,-1.8418262729437608e-07,-2.256159142237537e-07,2.727281665029408e-07,-1.6195462570818777e-07,2.656000512502312e-07,1.8962125769016912e-07,5.9073760447468745e-08,5.805018775563678e-07
-1.737387051409597e-07,2.2411975904657056e-07,3.695002168302696e-07,9.506168411964081e-07,8.229766259416286e-08,3.6056610949465673e-07,-1.7016955222888457e-08,7.043853639449577e-07,6.869875744807827e-07,-5.998218749678612e-07,-2.2961452644212913e-07,-2.03128064431809e-07,2.6770224690794964e-07,-1.4490264316269037e-07,2.6675550248325377e-07,2.013480869681635e-07,8.177072752386306e-08,5.916278614223799e-07
-1.6092896841837336e-07,2.156373776824913e-07,3.8026057413622345e-07,1.0045426093083276e-06,6.335346047494628e-08,3.3822658490682847e-07,-1.0292952147079525e-08,7.06229734759867e-07,6.921175567627563e-07,-5.998087259648985e-07,-2.5451298492194903e-07,-1.92439032681842e-07,2.768368831417008e-07,-1.2950933497864084e-07,2.633264114524744e-07,2.1373609501196945e-07,1.0283637095971868e-07,6.034185657845347e-07
-1.4193708129670305e-07,2.0674290051401087e-07,3.911683751107754e-07,1.1077802109632e-06,2.7664571039444004e-08,3.0198562686457456e-07,-1.0706409764045442e-08,6.939808480651562e-07,6.846746476110955e-07,-5.911698781700501e-07,-2.4779022400284687e-07,-1.995026471289302e-07,3.0451204877719506e-07,-1.1903585753834248e-07,2.553588272491655e-07,2.262876096423556e-07,1.2098213450798623e-07,6.131812429044364e-07
-1.149014884595276e-07,2.0097311673889252e-07,3.9762571954378237e-07,1.265469161539834e-06,-1.8607286798666182e-08,2.5358366910399886e-07,-2.0107087629940104e-08,6.693956911518654e-07,6.682106540175483e-07,-5.736601201876991e-07,-2.006210816328063e-07,-2.2639596562359422e-07,3.5302669343558855e-07,-1.1583803145513461e-07,2.441050425780108e-07,2.3809120825183748e-07,1.3492586752719854e-07,6.182715954764269e-07
-8.183780234895403e-08,1.995690335034028e-07,3.9394053086482615e-07,1.4734599533596788e-06,-6.915983956034883e-08,1.9672281812092675e-07,-3.85104969290198e-08,6.350929866110229e-07,6.478658173803667e-07,-5.49614025072426e-07,-1.1126828939043206e-07,-2.7367644491251533e-07,4.207081670824178e-07,-1.2155178448642464e-07,2.3122465886390022e-07,2.472411709889401e-07,1.4337418433713137e-07,6.165846670457888e-07
-4.620926491606234e-08,2.0167973708605425e-07,3.758864454034087e-07,1.7181784716369864e-06,-1.1928085892924722e-07,1.3537116933154202e-07,-6.468191831873039e-08,5.944366042774673e-07,6.289009286212718e-07,-5.238904839280922e-07,1.6892064111647423e-08,-3.384476010700708e-07,5.025809968294413e-07,-1.3632154915492646e-07,2.183042110744507e-07,2.5160616877741455e-07,1.446672139707856e-07,6.069334414675306e-07
-1.3745328894769786e-08,2.0541687927342907e-07,3.4361447629329286e-07,1.979364330580986e-06,-1.6585390553092152e-07,7.332975647627408e-08,-9.641615421713e-08,5.527986833122733e-07,6.154971203134439e-07,-5.018335034520408e-07,1.7187196823460648e-07,-4.131308722085344e-07,5.90871422756262e-07,-1.5870411798241572e-07,2.0665767791086097e-07,2.504612250524278e-07,1.3744276778060828e-07,5.895443091258072e-07
9.905687456861817e-09,2.0874654119710304e-07,3.027804487435987e-07,2.2301889869671934e-06,-2.064045289208325e-07,1.4508948468205043e-08,-1.310217043770157e-07,5.170884028733989e-07,6.095793118754233e-07,-4.884394147624535e-07,3.3310040341476283e-07,-4.900941592787444e-07,6.759139398575337e-07,-1.823035196050885e-07,1.9742583004485993e-07,2.4531329841149016e-07,1.201626490987559e-07,5.662814983092189e-07
2.159714266074588e-08,2.0987704106136239e-07,2.625397601034144e-07,2.445866572686956e-06,-2.389810718941192e-07,-3.744342340736755e-08,-1.6636599949981891e-07,4.933640184910149e-07,6.098715197866793e-07,-4.881207181007138e-07,4.790370181633552e-07,-5.567221016971667e-07,7.484102537501609e-07,-2.007128336991519e-07,1.9073084406322956e-07,2.390787410987946e-07,9.5973843900788e-08,5.400304350354385e-07
1.8991854273156944e-08,2.0744651440313999e-07,2.3155270211463923e-07,2.609119521324704e-06,-2.6298458686352325e-07,-8.027441751320059e-08,-2.0161846413692347e-07,4.841445983648023e-07,6.116443946611185e-07,-5.014689659247093e-07,5.901207685921909e-07,-6.044458698676365e-07,8.016777557333412e-07,-2.1027032651991802e-07,1.8557176084211472e-07,2.3446107464971887e-07,6.855187945280226e-08,5.134560094890504e-07
2.3329313003939743e-09,2.0102542651701692e-07,2.1463092384234374e-07,2.71480026417963e-06,-2.7943034587137285e-07,-1.1394715172843391e-07,-2.3683802710767185e-07,4.879935840424876e-07,6.091805661289717e-07,-5.26695409875457e-07,6.610398356483831e-07,-6.316327738015155e-07,8.341949689272742e-07,-2.103779660370577e-07,1.8023352149310873e-07,2.3285940252401326e-07,4.0992381270344455e-08,4.880176024322516e-07
-2.5591508278176443e-08,1.9224644657241485e-07,2.117599612845269e-07,2.7738092369547235e-06,-2.9009395808461974e-07,-1.4053863258427989e-07,-2.7187592849921297e-07,5.014654455722429e-07,5.99037293710923e-07,-5.59257929430092e-07,6.977560563771162e-07,-6.413328397911674e-07,8.503920750425862e-07,-2.041986025333425e-07,1.7317717642135081e-07,2.3413362999032284e-07,1.5790551161829018e-08,4.637586253387282e-07
-5.9119781541134584e-08,1.858654107549632e-07,2.1916150869142344e-07,2.810149850617521e-06,-2.9650834919551664e-07,-1.6360906855352222e-07,-3.0589421169716166e-07,5.211040317648666e-07,5.82045300190595e-07,-5.926021842765155e-07,7.158846920593767e-07,-6.41291814318591e-07,8.599362617354424e-07,-1.9644076632633382e-07,1.641786987407016e-07,2.3676660904569875e-07,-7.426930621889474e-09,4.397096589701969e-07
-9.191693346843975e-08,1.8890386691146725e-07,2.3096451387194346e-07,2.8542773157973184e-06,-3.0004467710375715e-07,-1.8753465572955817e-07,-3.3814239893724444e-07,5.434654303879895e-07,5.625476408277283e-07,-6.212818083709624e-07,7.387844854017036e-07,-6.412889851035969e-07,8.717013097091356e-07,-1.924097281312153e-07,1.5421118012481038e-07,2.3832171155748553e-07,-3.059018080753767e-08,4.146208050707417e-07
-1.1924236690000205e-07,2.0699278712066204e-07,2.4085176488955065e-07,2.932972297080646e-06,-3.027142543028469e-07,-2.166851792543704e-07,-3.691591961958159e-07,5.633897447489793e-07,5.453047179435634e-07,-6.426375512558043e-07,7.854932631432379e-07,-6.503711265535082e-07,8.907040691583031e-07,-1.9680309237964994e-07,1.4461945210579045e-07,2.365147835714454e-07,-5.6044734601875207e-08,3.878767181622782e-07
-1.397326810547848e-07,2.401596021617205e-07,2.439915566825202e-07,3.0606934982573825e-06,-3.072616431375988e-07,-2.541075341169463e-07,-4.008464521858172e-07,5.741365835077987e-07,5.335650677378412e-07,-6.564873081081083e-07,8.639383319792859e-07,-6.733426461994702e-07,9.188114905001274e-07,-2.1276896147248452e-07,1.3654952247057246e-07,2.3079590661339347e-07,-8.488292184193739e-08,3.6027392872402893e-07
-1.5615528619418854e-07,2.81446234590002e-07,2.38824290898298e-07,3.234173971021494e-06,-3.155173049171566e-07,-3.000617082016613e-07,-4.350319033745513e-07,5.698092197541786e-07,5.285948481780282e-07,-6.661325591984715e-07,9.695724536629053e-07,-7.103645719898405e-07,9.524068780159648e-07,-2.396265630772609e-07,1.3074272941542727e-07,2.2346656680858063e-07,-1.1721420614585887e-07,3.3406589144910015e-07
-1.7313092898021521e-07,3.1929631259356747e-07,2.2713275388217182e-07,3.43476767915856e-06,-3.2672937142131155e-07,-3.515165040247704e-07,-4.7198841788547163e-07,5.49244949538716e-07,5.30357537947825e-07,-6.757467057217122e-07,1.089078356700462e-06,-7.566444539814476e-07,9.866377981484323e-07,-2.731843835516213e-07,1.275959337633809e-07,2.191109390392433e-07,-1.514999997592583e-07,3.1193838773694603e-07
-1.9594870776033984e-07,3.423853035527751e-07,2.1183746346861143e-07,3.6359698623655317e-06,-3.3801784850489917e-07,-4.032588289218091e-07,-5.102079159551306e-07,5.172910141103315e-07,5.370422767501226e-07,-6.885072653816496e-07,1.2053357630614905e-06,-8.033015396026055e-07,1.0182196576279393e-06,-3.0834079832876933e-07,1.2663120898995462e-07,2.2229580227032677e-07,-1.8575991112698494e-07,2.953763687817246e-07
-2.2899603801604733e-07,3.4501711556479767e-07,1.944072817877301e-07,3.8121097934654333e-06,-3.467149368773728e-07,-4.498639254657081e-07,-5.468792254373182e-07,4.825480253688139e-07,5.442729666204554e-07,-7.068034085521152e-07,1.3048923489833737e-06,-8.436961824936097e-07,1.0450435952866817e-06,-3.4138250142854496e-07,1.2639011494379664e-07,2.3512196178772507e-07,-2.1891500819708117e-07,2.835095805756933e-07
-2.721923046242157e-07,3.30618663617568e-07,1.7435336307876463e-07,3.946127030575893e-06,-3.52539789226166e-07,-4.871766459806165e-07,-5.780692668183394e-07,4.544971966099141e-07,5.464162549267606e-07,-7.309649419387317e-07,1.3828254624039262e-06,-8.748742528847093e-07,1.0670790767247754e-06,-3.709483144112625e-07,1.2494383985612522e-07,2.5633474758723543e-07,-2.5036256348627167e-07,2.7334307173377565e-07
-3.237261918632185e-07,3.1100617653409554e-07,1.509310340527164e-07,4.033202798270236e-06,-3.578375558640283e-07,-5.12836116598443e-07,-5.989522530420881e-07,4.4069367590232975e-07,5.39576231702659e-07,-7.591468181953547e-07,1.440200168388691e-06,-8.966864072700273e-07,1.0861062374113763e-06,-3.965549212387389e-07,1.209682662114052e-07,2.8230160336082224e-07,-2.7957331115967746e-07,2.613246199829485e-07
-3.777968750795152e-07,3.012162401208139e-07,1.2479953737834555e-07,4.079258926839838e-06,-3.657314582130883e-07,-5.263155126571814e-07,-6.050962533164038e-07,4.4470251049847604e-07,5.240465883546957e-07,-7.882256063216407e-07,1.4845594690611801e-06,-9.117768509355557e-07,1.1039062508957532e-06,-4.1642553613701704e-07,1.1461108684986895e-07,3.0895469590858753e-07,-3.0568591765140936e-07,2.4521299090525593e-07
-4.2693475222293384e-07,3.123721097130594e-07,9.785622277014915e-08,4.09486891474934e-06,-3.776302242086126e-07,-5.288605116693441e-07,-5.946609827169496e-07,4.6489518630855176e-07,5.032805275885139e-07,-8.16473163292175e-07,1.5215666525026346e-06,-9.213641427116649e-07,1.1224702241034043e-06,-4.28260746398421e-07,1.0729995469135715e-07,3.335254532986732e-07,-3.274322554069038e-07,2.2502904853535819e-07
-4.6721963894973287e-07,3.4643784612045575e-07,7.186975802379706e-08,4.088218069786042e-06,-3.9201286701200277e-07,-5.232108661821498e-07,-5.698446189125885e-07,4.952678857270395e-07,4.815984055370238e-07,-8.439345223905048e-07,1.5519605882769856e-06,-9.263814468808247e-07,1.1412983536548518e-06,-4.298010797079963e-07,1.0090458018725275e-07,3.553067435641409e-07,-3.451793671146454e-07,2.0265226441666873e-07
-4.987834383705041e-07,3.9577390746676946e-07,4.780939209747001e-08,4.062240111491778e-06,-4.050993229442372e-07,-5.127388423903752e-07,-5.360487672680783e-07,5.283752642667754e-07,4.6271390739035437e-07,-8.717917393883098e-07,1.5718653843439101e-06,-9.250039353083181e-07,1.1578962828770626e-06,-4.2023117832796145e-07,9.690675843126527e-08,3.7548390619274463e-07,-3.600206047399057e-07,1.8064835146121486e-07
-5.244997580037757e-07,4.4753040910579964e-07,2.6530862682648115e-08,4.017065928714764e-06,-4.1245790528248183e-07,-4.99940183021275e-07,-4.991927752138933e-07,5.589187320179224e-07,4.4893722689926427e-07,-9.006496224961923e-07,1.5778012432765905e-06,-9.13807275006075e-07,1.1696152883593766e-06,-4.007291200801299e-07,9.62164220823599e-08,3.964635905494494e-07,-3.729000237512964e-07,1.612511171100618e-07
-5.487797241036222e-07,4.899852710202915e-07,9.429970893766133e-09,3.953777700231444e-06,-4.1041653227239337e-07,-4.851556278610613e-07,-4.6329576025371845e-07,5.862894585018502e-07,4.415521837086543e-07,-9.28813669433978e-07,1.5679969911595762e-06,-8.904821692607762e-07,1.1743023043867263e-06,-3.7361271539053425e-07,9.927414381332644e-08,4.20843185510726e-07,-3.8411592134006975e-07,1.459499111881575e-07
-5.73941124690869e-07,5.168444031486138e-07,-2.379882340920803e-09,3.8755429997749735e-06,-3.970844559632529e-07,-4.6675077214829764e-07,-4.299511169208648e-07,6.126288297673101e-07,4.407568155892894e-07,-9.541469592187855e-07,1.5435050743296124e-06,-8.542035791146493e-07,1.1704603848644436e-06,-3.422333199579982e-07,1.0583359097546473e-07,4.5024255048974616e-07,-3.9311627057329433e-07,1.3556449702914827e-07
-6.002652502566934e-07,5.273726627520381e-07,-9.644444451461255e-09,3.786409195063683e-06,-3.7316857407779396e-07,-4.4276019829589683e-07,-3.994132352580042e-07,6.393000755582457e-07,4.447360343845102e-07,-9.75688802204789e-07,1.507143919467309e-06,-8.057087318381372e-07,1.1575674711282795e-06,-3.108620765582585e-07,1.1482723976582634e-07,4.847304602783503e-07,-3.9960216292950453e-07,1.3053243976021286e-07
-6.283422955961795e-07,5.239128398229914e-07,-1.5092634124925962e-08,3.6903838152400857e-06,-3.4226806280334475e-07,-4.126479496826008e-07,-3.7178363550390293e-07,6.649368095990702e-07,4.498408131069551e-07,-9.937371918185346e-07,1.461525952491352e-06,-7.499474791180956e-07,1.137004883843374e-06,-2.838908410884839e-07,1.247890554093391e-07,5.23354430541466e-07,-4.03669166209858e-07,1.3119556577275956e-07
-6.580771269119968e-07,5.100027766499625e-07,-2.135508365539802e-08,3.592072487092938e-06,-3.100328187685938e-07,-3.7808110361106157e-07,-3.4725380149498283e-07,6.856162908149279e-07,4.5222082247522596e-07,-1.0091582589161369e-06,1.4099010579796798e-06,-6.927727818712073e-07,1.1105165348640615e-06,-2.639935739093066e-07,1.3451366835445478e-07,5.652419208208334e-07,-4.0523543774435467e-07,1.3784870693565234e-07
-6.881345597197613e-07,4.900452139723366e-07,-2.8737591652491635e-08,3.497915860678881e-06,-2.8247020311978005e-07,-3.427630385295367e-07,-3.258907161887111e-07,6.967412473176565e-07,4.4909761912543585e-07,-1.0213494236195162e-06,1.358380281975138e-06,-6.391004957879208e-07,1.082986990669101e-06,-2.515442496688879e-07,1.431311238628393e-07,6.101150356856913e-07,-4.035590901633537e-07,1.5034858148518008e-07
-7.163981559207755e-07,4.689305800675252e-07,-3.538982137704146e-08,3.416482870328068e-06,-2.6427948482996255e-07,-3.117621255709189e-07,-3.079780035864389e-07,6.94126517809615e-07,4.392451375214141e-07,-1.0286862829220417e-06,1.314988787770533e-06,-5.947573739108061e-07,1.061417770736457e-06,-2.4577303576847885e-07,1.4940576492887216e-07,6.577153698747282e-07,-3.984590416214433e-07,1.6742232040715465e-07
-7.409797215090175e-07,4.506601416097169e-07,-3.979556420874579e-08,3.357188247666878e-06,-2.5771518704907954e-07,-2.9040171970943705e-07,-2.945472450118361e-07,6.746499978636526e-07,4.2258129215354224e-07,-1.0299338082047792e-06,1.28776963051321e-06,-5.665945942359138e-07,1.0521085349126641e-06,-2.4656540272046607e-07,1.5125296796951976e-07,7.069821205938412e-07,-3.914686002924937e-07,1.863154507288975e-07
-7.612307212607882e-07,4.370977866833841e-07,-4.3009332899102734e-08,3.3274532049372546e-06,-2.6190220207291575e-07,-2.8261765437179006e-07,-2.8677228204332477e-07,6.377100637191467e-07,3.993065910755148e-07,-1.025323032317819e-06,1.2828555682133367e-06,-5.611751008149294e-07,1.0589086406171392e-06,-2.547948636734476e-07,1.4653100738824399e-07,7.561527643154016e-07,-3.856257507580744e-07,2.0347796646836576e-07
-7.790095327426962e-07,4.2826713728161516e-07,-4.850486287850943e-08,3.3286244686789185e-06,-2.7244275776056784e-07,-2.8907468787745275e-07,-2.843550005400661e-07,5.86060316895911e-07,3.699267879206992e-07,-1.0168452067992133e-06,1.3012946358506515e-06,-5.811015557719601e-07,1.0797263817053846e-06,-2.7054431036841794e-07,1.3469568081281004e-07,8.035917205638014e-07,-3.840103615978263e-07,2.1612706260130684e-07
-7.962069865735421e-07,4.238463578739417e-07,-6.009477124261607e-08,3.352480422465915e-06,-2.825661114747216e-07,-3.0606595534213384e-07,-2.8485531403176915e-07,5.257114235188565e-07,3.3596349190088016e-07,-1.0076662056503634e-06,1.335377482526219e-06,-6.229018361661558e-07,1.1088771507643985e-06,-2.9168714831972346e-07,1.1783316540273747e-07,8.480163750957966e-07,-3.880212239608044e-07,2.2351506557177394e-07
-8.140790129730857e-07,4.239861358949066e-07,-8.00200042532427e-08,3.3816272318827436e-06,-2.855662949088912e-07,-3.2646104928596496e-07,-2.851805104673661e-07,4.6373557252217053e-07,2.9994110885573374e-07,-1.001454152537133e-06,1.369917598363778e-06,-6.761344764890068e-07,1.1374467802973509e-06,-3.14641799246194e-07,9.981104544882779e-08,8.876546002598244e-07,-3.969874208367163e-07,2.2697857448270518e-07
-8.339533655284782e-07,4.2835252774127056e-07,-1.0842323695685606e-07,3.3952884750998276e-06,-2.7814802549930493e-07,-3.427439763237605e-07,-2.8400016351718816e-07,4.0493827409611967e-07,2.6457572643237777e-07,-1.0010611912189711e-06,1.3890065479513958e-06,-7.273947346224758e-07,1.1559498580410583e-06,-3.363913588188184e-07,8.430557573654378e-08,9.195377344332124e-07,-4.0888374261490004e-07,2.290842001335181e-07
-8.567727140392784e-07,4.3452594633074956e-07,-1.4366330993756935e-07,3.3777483730400133e-06,-2.6220351409681957e-07,-3.502817292605876e-07,-2.8287665673059836e-07,3.5098756041156747e-07,2.3180922124941014e-07,-1.0076549480373763e-06,1.3797299690210082e-06,-7.659921337774468e-07,1.1583274046569343e-06,-3.5555769125316277e-07,7.347258538669607e-08,9.403707113577993e-07,-4.210558915589041e-07,2.3273310558314969e-07
-8.832798486621118e-07,4.3792010505369866e-07,-1.8261709724948072e-07,3.32448342156504e-06,-2.435107101921761e-07,-3.486836729514392e-07,-2.8542956397354297e-07,3.017363075331077e-07,2.024919225130676e-07,-1.0201724027240175e-06,1.3381313689938447e-06,-7.860824315372013e-07,1.1419576014563094e-06,-3.7186536178634384e-07,6.78635091118169e-08,9.487533800000097e-07,-4.306546390996321e-07,2.4047110035368745e-07
-9.132173260574694e-07,4.340513030480654e-07,-2.211345868529025e-07,3.242889668979522e-06,-2.2887907814026533e-07,-3.410091968611299e-07,-2.957332650032123e-07,2.573418815848385e-07,1.7620289870876248e-07,-1.0356235469169694e-06,1.2679174431074038e-06,-7.875251235267446e-07,1.1093394261894374e-06,-3.8547021977466454e-07,6.67576807538799e-08,9.467194516265559e-07,-4.3537453433564633e-07,2.536764996961659e-07
-9.450480170626063e-07,4.2134862580779794e-07,-2.5528151423369097e-07,3.1481819543373188e-06,-2.235590704623655e-07,-3.3219882458714e-07,-3.171918873479515e-07,2.1842878729893034e-07,1.5099655631112366e-07,-1.0513305521227608e-06,1.1809733723636318e-06,-7.753877745759546e-07,1.0670315327821485e-06,-3.972956359281098e-07,6.822768642674667e-08,9.388920247001772e-07,-4.3466829821377066e-07,2.7164235914313665e-07
-9.773924323997943e-07,4.017121642506671e-07,-2.830156134334076e-07,3.05728233253519e-06,-2.3002994213307375e-07,-3.2756724531307595e-07,-3.518479374767628e-07,1.8498659118897992e-07,1.2382257083345055e-07,-1.0658409031828836e-06,1.0927512073528473e-06,-7.582828625578734e-07,1.0223606114596563e-06,-4.094887934010854e-07,6.916663068315119e-08,9.298895199575135e-07,-4.3049798620402715e-07,2.912866164600897e-07
-1.0091469829888891e-06,3.7883524647403504e-07,-3.048881650530188e-07,2.9835231533283755e-06,-2.4784072488656245e-07,-3.311296192960799e-07,-3.995333523734399e-07,1.5568307071698294e-07,9.22915516586012e-08,-1.0795867106600018e-06,1.0172034310427898e-06,-7.456676945600129e-07,9.816380647101656e-07,-4.2467462155724247e-07,6.611804191462996e-08,9.222447977245719e-07,-4.2663297597554356e-07,3.081846813728228e-07
-1.038808633594676e-06,3.571162798408316e-07,-3.2337459411593235e-07,2.9338178231312055e-06,-2.7440165172513784e-07,-3.4398001949864793e-07,-4.5722728499122286e-07,1.2859675422837703e-07,5.662390485808584e-08,-1.0935209563706913e-06,9.646049554331698e-07,-7.437214659767281e-07,9.492162236654365e-07,-4.44422540224268e-07,5.674067500843616e-08,9.162589486560754e-07,-4.2679637756006017e-07,3.185378621682068e-07
-1.0642108053958384e-06,3.418505037480737e-07,-3.408356430849546e-07,2.908488199214098e-06,-3.0594523675049585e-07,-3.6383513563802613e-07,-5.197837863284168e-07,1.0243738418478696e-07,1.95149367754358e-08,-1.1083870339950644e-06,9.38193581885829e-07,-7.544942373757782e-07,9.265098798203699e-07,-4.685254544553546e-07,4.075863696065108e-08,9.112182296764755e-07,-4.3310009135660256e-07,3.207310160836058e-07
-1.08307372387722e-06,3.3792460528028556e-07,-3.5928403385804913e-07,2.9027945244461966e-06,-3.3931122800817556e-07,-3.8628475154088953e-07,-5.820933650970442e-07,7.725649319941816e-08,-1.5359997167359406e-08,-1.123672265512989e-06,9.349551324453456e-07,-7.764424310116003e-07,9.124442895870787e-07,-4.956309244416687e-07,1.9832274555834207e-08,9.066233166076664e-07,-4.4565145839501045e-07,3.155718206734786e-07
-1.0941861635900342e-06,3.458510934491425e-07,-3.796617838371653e-07,2.9090659290173157e-06,-3.732361180214108e-07,-4.068194129674494e-07,-6.409613536134276e-07,5.441740487397271e-08,-4.4999926539352294e-08,-1.1383958047919377e-06,9.456030807228093e-07,-8.056217730675922e-07,9.040935894211976e-07,-5.241279157055023e-07,-3.25200400937366e-09,9.028378173686011e-07,-4.6282314958998566e-07,3.055710912269019e-07
-1.0979245685981932e-06,3.5872459749666303e-07,-4.029777622509177e-07,2.918917641855975e-06,-4.081544487154507e-07,-4.2227386125004255e-07,-6.95154644185071e-07,3.6178608492799405e-08,-6.733126368395606e-08,-1.151877918633789e-06,9.630774111634452e-07,-8.378349373062971e-07,8.974455055049632e-07,-5.523085101786523e-07,-2.5489687410926733e-08,9.011639821378051e-07,-4.816052460872676e-07,2.940503281915434e-07
-1.095858339231902e-06,3.6449760503464614e-07,-4.29105956297953e-07,2.925242315102405e-06,-4.4458444361393387e-07,-4.3130934975966937e-07,-7.441078706862807e-07,2.4480389574178912e-08,-8.065908808180306e-08,-1.163364367503314e-06,9.809622983301576e-07,-8.68683580179884e-07,8.890063388537129e-07,-5.782229253994096e-07,-4.456307909360378e-08,9.031477921441951e-07,-4.983654255732921e-07,2.8426109061381186e-07
-1.0903800549011647e-06,3.5308682102801795e-07,-4.544207520598856e-07,2.9234149279103104e-06,-4.809684488448794e-07,-4.3439109290046104e-07,-7.870023575687298e-07,2.0196450533336805e-08,-8.412434003768207e-08,-1.17269623094134e-06,9.93919016945601e-07,-8.943177398326354e-07,8.770511315783379e-07,-6.000993338473964e-07,-5.957393939790388e-08,9.092461732262128e-07,-5.103068568492093e-07,2.7837471159414794e-07
-1.0837470896052266e-06,3.2315246391200553e-07,-4.7469569005488537e-07,2.9113981680682754e-06,-5.131811204470079e-07,-4.3347612834770895e-07,-8.230151901476006e-07,2.270034096718031e-08,-7.891773788492678e-08,-1.1803972747250772e-06,9.987290048901618e-07,-9.123495309339731e-07,8.605691568013692e-07,-6.172207866548203e-07,-7.122151212386452e-08,9.180233090521492e-07,-5.168624790363548e-07,2.7664218387563497e-07
-1.0785446894526385e-06,2.8402779262991624e-07,-4.872684625037673e-07,2.8892533001776165e-06,-5.366564146032899e-07,-4.312517692422367e-07,-8.519052764173206e-07,3.013399189584575e-08,-6.853639466884083e-08,-1.1871124179786835e-06,9.926871240986477e-07,-9.219037351021989e-07,8.397406556698016e-07,-6.303096227056932e-07,-8.104670421821023e-08,9.268737920577189e-07,-5.197542261606972e-07,2.7734079949558845e-07
-1.0762741902224151e-06,2.5194621865335915e-07,-4.912991588343827e-07,2.8590107612811946e-06,-5.489549914240496e-07,-4.2998922219094366e-07,-8.737252295654823e-07,4.070661688592082e-08,-5.6792273894220525e-08,-1.1932848250899917e-06,9.763136920085076e-07,-9.235393269303027e-07,8.158454922477321e-07,-6.409307327372377e-07,-9.025833841121591e-08,9.335514050408049e-07,-5.215213816830234e-07,2.776394747666991e-07
-1.0764985991136653e-06,2.425325328922422e-07,-4.875363363285263e-07,2.8252655941088016e-06,-5.500955636944354e-07,-4.3050552235595037e-07,-8.878267848136395e-07,5.393217718884755e-08,-4.5295237424520786e-08,-1.198760291297111e-06,9.548752421615753e-07,-9.184751808894248e-07,7.915557039763307e-07,-6.506067503561187e-07,-9.926519480583096e-08,9.368304665473108e-07,-5.239601422485354e-07,2.7475855538264873e-07
-1.0770235205913846e-06,2.633108439756983e-07,-4.774686373013027e-07,2.7958215267784524e-06,-5.412499487626432e-07,-4.3194347879629526e-07,-8.927230753227862e-07,7.071005622532534e-08,-3.335916047465995e-08,-1.2023995519224437e-06,9.386902761906414e-07,-9.094989167901325e-07,7.706836260448847e-07,-6.606683537405623e-07,-1.0825203504596279e-07,9.358148296897729e-07,-5.279366862743267e-07,2.667062602437085e-07
-1.074454341637822e-06,3.10417133115537e-07,-4.624983036273379e-07,2.78137994063314e-06,-5.24052969093158e-07,-4.327551600810891e-07,-8.875142385522804e-07,9.16511347520438e-08,-1.8958142693629552e-08,-1.2034901826277318e-06,9.385536171308403e-07,-9.014160018680761e-07,7.565651755223475e-07,-6.727532267130282e-07,-1.1794046098535916e-07,9.291265327129297e-07,-5.342383650902097e-07,2.525170974022504e-07
-1.0666084989773072e-06,3.7136490015263576e-07,-4.441082246933117e-07,2.793702985401312e-06,-5.012053329658129e-07,-4.322724528534428e-07,-8.733184278272729e-07,1.1495938358743408e-07,-3.376692581697427e-10,-1.2017647025180519e-06,9.63599507749532e-07,-9.002441932293856e-07,7.511991310660697e-07,-6.887922655778442e-07,-1.2950307831697366e-07,9.152976462399082e-07,-5.438489590125605e-07,2.3244832124827707e-07
-1.0524555592239283e-06,4.3180865899896896e-07,-4.2369136122992817e-07,2.842172913806856e-06,-4.766259817365978e-07,-4.315280160796046e-07,-8.529439171388973e-07,1.36605142038565e-07,2.295393984955872e-08,-1.196641498234723e-06,1.0175336862509051e-06,-9.11201354523534e-07,7.553487454915431e-07,-7.099183452199017e-07,-1.4360377218081738e-07,8.942224560116893e-07,-5.570666166436804e-07,2.0829861367942866e-07
-1.0313570329974893e-06,4.816856744474629e-07,-4.012229920112331e-07,2.929419617089966e-06,-4.5391825805191757e-07,-4.3266632307940645e-07,-8.294333501705633e-07,1.5280964122653936e-07,5.083215485161144e-08,-1.1878668728219762e-06,1.0979753900950625e-06,-9.364527396803386e-07,7.679651588667787e-07,-7.352350866062956e-07,-1.596769060857048e-07,8.682581811975851e-07,-5.727454212193947e-07,1.8328544860329143e-07
-1.0029211209566027e-06,5.169769787072296e-07,-3.754968743290227e-07,3.0480348178110013e-06,-4.3448272572782454e-07,-4.3764865162527123e-07,-8.053562160764349e-07,1.621643281474717e-07,8.232392450974724e-08,-1.1756336921878504e-06,1.1982387029262718e-06,-9.735084931353024e-07,7.857538492897282e-07,-7.617483130875001e-07,-1.763126310872712e-07,8.41740087267848e-07,-5.888134906296512e-07,1.609211028177746e-07
-9.680305521743318e-07,5.375183843531406e-07,-3.4628069743544343e-07,3.1809322350709653e-06,-4.174886036813883e-07,-4.473133509455328e-07,-7.830055847710504e-07,1.6602128244975575e-07,1.151128794197774e-07,-1.1612413465342735e-06,1.3003477768101842e-06,-1.0169253314290915e-06,8.045054901142496e-07,-7.856378495168321e-07,-1.9227841480642784e-07,8.190742548272447e-07,-6.034419505207026e-07,1.4338227103399033e-07
-9.295877543744925e-07,5.44450748305551e-07,-3.1547090440880754e-07,3.3059812023185e-06,-4.013502482458123e-07,-4.6100441774960525e-07,-7.640353249750137e-07,1.6773689062730253e-07,1.461810673024045e-07,-1.147681659035979e-06,1.3876236547969452e-06,-1.0601299124870159e-06,8.190368116695799e-07,-8.038143026217806e-07,-2.0700595786346133e-07,8.028180734598067e-07,-6.155484698025049e-07,1.3067585482165748e-07
-8.916021970484709e-07,5.393056451742484e-07,-2.865752591315583e-07,3.4025382808345964e-06,-3.85084106380044e-07,-4.763622672394715e-07,-7.481498995773598e-07,1.720543492665023e-07,1.7350315722299114e-07,-1.138120533835542e-06,1.4490240641911576e-06,-1.0962321195617922e-06,8.256946507138076e-07,-8.146642521367566e-07,-2.201508482967535e-07,7.948054227849671e-07,-6.243647652179344e-07,1.2124690620559226e-07
-8.576221252742678e-07,5.23988193751782e-07,-2.618116603390072e-07,3.4567285550229718e-06,-3.684985924006054e-07,-4.893486739737948e-07,-7.324424112150702e-07,1.842646261336026e-07,1.9754977189388375e-07,-1.1340493406196862e-06,1.4808296193106462e-06,-1.1193324096682346e-06,8.235703212091679e-07,-8.179644126058193e-07,-2.3105614644441175e-07,7.93086728438831e-07,-6.289105068859712e-07,1.1330491194665703e-07
-8.293651472729876e-07,5.010479905845125e-07,-2.4122346138329924e-07,3.464039007941546e-06,-3.5156809603512756e-07,-4.951344293875091e-07,-7.127268562500852e-07,2.0866091036642612e-07,2.2112336991781213e-07,-1.1353611773676325e-06,1.4884662563545284e-06,-1.1284586667560653e-06,8.133644961016106e-07,-8.146156709512591e-07,-2.3893218838621296e-07,7.945321292584498e-07,-6.281845489247927e-07,1.0576092868102968e-07
-8.070648379315064e-07,4.743973297335283e-07,-2.2349940447131117e-07,3.4290915937182397e-06,-3.339741686637134e-07,-4.898453765891996e-07,-6.858879366076535e-07,2.4694945027720894e-07,2.4783683918556183e-07,-1.1393109502490331e-06,1.4842755327644742e-06,-1.1236812229847406e-06,7.981648537179186e-07,-8.062470169874609e-07,-2.435606180165221e-07,7.9828469452538e-07,-6.218472300018262e-07,9.851307905965595e-08
-7.907860007442778e-07,4.501211086440311e-07,-2.0688868904953743e-07,3.3628054402162196e-06,-3.149108778915331e-07,-4.7204443995273667e-07,-6.510663003717073e-07,2.9771324495420935e-07,2.8056393579996364e-07,-1.1441105289334935e-06,1.4741632370253142e-06,-1.107865221157223e-06,7.815497924746951e-07,-7.942453483159908e-07,-2.4532202882872706e-07,8.049183343075257e-07,-6.103636867492545e-07,9.256255581004236e-08
-7.802253502581986e-07,4.365220818998082e-07,-1.9014986083059512e-07,3.278394634990313e-06,-2.9328657590201186e-07,-4.429140631618464e-07,-6.089156392922622e-07,3.573211973992846e-07,3.2100436758924677e-07,-1.14804354070296e-06,1.4621644261887108e-06,-1.0853678333867746e-06,7.66857135281776e-07,-7.786433550437185e-07,-2.445317561435102e-07,8.177437343626807e-07,-5.942914132553777e-07,9.017780125882092e-08
-7.740042292585817e-07,4.4248701405341856e-07,-1.716232389846423e-07,3.188451064999004e-06,-2.680563710985405e-07,-4.0532961606262774e-07,-5.602131988556203e-07,4.212363095253303e-07,3.693622808563711e-07,-1.1492235478150495e-06,1.4527669802132183e-06,-1.0573074416328374e-06,7.571707794439354e-07,-7.581585906175473e-07,-2.410227022589045e-07,8.426343853230775e-07,-5.73749180524665e-07,9.467213074270611e-08
-7.693859157783651e-07,4.7380832212597035e-07,-1.49831195092589e-07,3.1033482229629437e-06,-2.3872371461295146e-07,-3.6271848561597784e-07,-5.054137626899424e-07,4.847256227243044e-07,4.240567635014252e-07,-1.1465130018875643e-06,1.4443863037289556e-06,-1.025587998165366e-06,7.539976868915699e-07,-7.317164337442245e-07,-2.3447813021018565e-07,8.822444224759766e-07,-5.489167124026848e-07,1.0940341520099453e-07
-7.632215509838692e-07,5.291139546166378e-07,-1.2367185688870787e-07,3.0292488859221634e-06,-2.058425761900175e-07,-3.18179784650143e-07,-4.451997299697683e-07,5.437260454713988e-07,4.81570410977494e-07,-1.1396662778316667e-06,1.4395302875296978e-06,-9.916474447255533e-07,7.586778528441824e-07,-6.999510828032565e-07,-2.249979944277308e-07,9.384021153197597e-07,-5.208671067199237e-07,1.36352966876038e-07
-7.548454441141778e-07,5.986151634943529e-07,-9.646561937237475e-08,2.9655705028205157e-06,-1.710598286825448e-07,-2.737653343081079e-07,-3.8068631405958583e-07,5.958622186345251e-07,5.378366961801281e-07,-1.1303401974567907e-06,1.4323802663683651e-06,-9.560342455909864e-07,7.70986508759571e-07,-6.649657011714848e-07,-2.1302886448219942e-07,1.0098363435589813e-06,-4.91526305857177e-07,1.7512695187865826e-07
-7.457695612222747e-07,6.67199143090663e-07,-7.273483847512706e-08,2.9040451187356105e-06,-1.3654062658779687e-07,-2.298847839022022e-07,-3.12613597877307e-07,6.411781193356453e-07,5.897589987746826e-07,-1.1189383580211716e-06,1.4205877171209629e-06,-9.183036260765404e-07,7.894617712036368e-07,-6.286728836711436e-07,-1.9862282213072435e-07,1.0917896556237857e-06,-4.6285102565601013e-07,2.2285580842889798e-07
-7.380160350532862e-07,7.202532455817751e-07,-5.563595596772321e-08,2.830835639065162e-06,-1.041149404994433e-07,-1.853009879539376e-07,-2.4070953533560096e-07,6.81721069748297e-07,6.358342813554363e-07,-1.1100777049407548e-06,1.407561581743049e-06,-8.773632464342475e-07,8.123145716879458e-07,-5.917623097694754e-07,-1.8109377794678342e-07,1.1790794132154615e-06,-4.363961464870921e-07,2.747518750831808e-07
-7.327495607313804e-07,7.489372002722455e-07,-4.607091563253183e-08,2.731126557545675e-06,-7.501832143689553e-08,-1.3823696333430513e-07,-1.6463168516426143e-07,7.199705646878541e-07,6.750949047431734e-07,-1.1072344553270446e-06,1.392370129891523e-06,-8.320859332530055e-07,8.371801514484759e-07,-5.543099176712753e-07,-1.5950021346773707e-07,1.2665439158828614e-06,-4.140554421961039e-07,3.249493226277301e-07
-7.298873050066548e-07,7.519821379669278e-07,-3.9148913816034616e-08,2.594786088072637e-06,-5.0275689088623155e-08,-8.819089592434065e-08,-8.591371629449937e-08,7.565305239437215e-07,7.051090941099349e-07,-1.1144526044896053e-06,1.3757141403066328e-06,-7.825738620196854e-07,8.626438995514937e-07,-5.168023025571871e-07,-1.3332936073159577e-07,1.352471299287793e-06,-3.9694431412089864e-07,3.67765337166664e-07
-7.289041217831264e-07,7.337850368597327e-07,-3.1504373116349893e-08,2.421581649113937e-06,-3.0906228058672456e-08,-3.714971372530995e-08,-8.788148991649549e-09,7.886892607068738e-07,7.221776246130428e-07,-1.132410586125249e-06,1.3584859344933687e-06,-7.30516520609947e-07,8.829525523183729e-07,-4.800242175122336e-07,-1.0258883290182766e-07,1.4342222339088115e-06,-3.870932017015157e-07,3.995549765057196e-07
-7.289480317664672e-07,7.013984185576121e-07,-2.0580941259992225e-08,2.2240861848848838e-06,-1.699749436752669e-08,1.0686442087728297e-08,6.124801583563553e-08,8.12054848628874e-07,7.231353542341136e-07,-1.1584668818654263e-06,1.3391924841674231e-06,-6.771777295191529e-07,8.949805913642711e-07,-4.44103966686516e-07,-6.736927796541779e-08,1.5122906677392997e-06,-3.847362416636541e-07,4.203416761892963e-07
-7.283833560472952e-07,6.622053327233997e-07,-9.389959483776267e-09,2.026507447022358e-06,-6.87054458682736e-09,5.028100087224544e-08,1.200314606634284e-07,8.24372116455118e-07,7.087070148776925e-07,-1.188559285209769e-06,1.3181681288976495e-06,-6.216865791748226e-07,8.978935867714932e-07,-4.0844503808250575e-07,-2.787895501970432e-08,1.5718768853854386e-06,-3.868819620455032e-07,4.3383015057916924e-07
-7.248179094283043e-07,6.217177220930972e-07,5.503589862123725e-09,1.8589428496362365e-06,2.0899992338654366e-09,7.715428431489318e-08,1.6652032126119122e-07,8.274648702694604e-07,6.848052479253088e-07,-1.2154246795913974e-06,1.2996902393937893e-06,-5.666626995292809e-07,8.929425740969546e-07,-3.731254863856937e-07,1.4644679917479165e-08,1.6145752771752382e-06,-3.8933328928430515e-07,4.4540994925606117e-07
-7.148868215186897e-07,5.816438256029707e-07,3.1631207742656476e-08,1.7486925440156658e-06,1.1488199333261762e-08,8.811267298298e-08,2.0259353173119676e-07,8.263272828810249e-07,6.604470617800555e-07,-1.2338382814250528e-06,1.2886795287859181e-06,-5.153907969507492e-07,8.847939675560634e-07,-3.400480093561313e-07,5.7116858010722864e-08,1.6505983524198923e-06,-3.8844231158298257e-07,4.59319086721025e-07
-6.98890189394741e-07,5.40267954857401e-07,6.192035556581889e-08,1.711915266476529e-06,2.060311065722871e-08,8.157419783702175e-08,2.3102810738217734e-07,8.265383919794692e-07,6.443090391279354e-07,-1.240395705041682e-06,1.287894931688719e-06,-4.7182784007656057e-07,8.747618202531357e-07,-3.120165463870078e-07,9.529110730834122e-08,1.6788021687074565e-06,-3.8287048189188004e-07,4.767697307918489e-07
-6.792044492547351e-07,4.960107124147134e-07,8.564503216375784e-08,1.748760745601932e-06,2.6540586001450285e-08,5.863113821851469e-08,2.52880157172192e-07,8.316256664263699e-07,6.41713360914494e-07,-1.2341765515044673e-06,1.2991456838013772e-06,-4.391555764477323e-07,8.636985966019108e-07,-2.902468055150073e-07,1.2581536284502236e-07,1.7003651678830045e-06,-3.730225292062802e-07,4.957431903017584e-07
-6.590137841096702e-07,4.5158191687220644e-07,9.748281569655282e-08,1.843581871983136e-06,2.5333243768202358e-08,2.1614361829629077e-08,2.65615431186492e-07,8.422516993598916e-07,6.533155150407666e-07,-1.2166917414431682e-06,1.314358179385885e-06,-4.1597506650458154e-07,8.509032938596488e-07,-2.725726667263795e-07,1.4803302641173875e-07,1.6864372299323441e-06,-3.597627885993208e-07,5.142516704853758e-07
-6.430460557742693e-07,4.1468102045893876e-07,9.584919463406784e-08,1.97012757601309e-06,1.3037300146360348e-08,-2.4400826687688804e-08,2.627764424774166e-07,8.55574894045711e-07,6.743569198682356e-07,-1.1907266213689195e-06,1.3223833293710223e-06,-3.981167875712007e-07,8.326563115877679e-07,-2.53887292603455e-07,1.639922206816072e-07,1.6314512179418758e-06,-3.431396997015117e-07,5.287513788010361e-07
-6.346614589269151e-07,3.9400685568103227e-07,8.430420440256054e-08,2.0996073822057838e-06,-1.3574128888066877e-08,-7.363363955659239e-08,2.3560568690066993e-07,8.661232357750747e-07,6.959516678449244e-07,-1.1589843188765109e-06,1.311991166724874e-06,-3.7963413144015757e-07,8.046472644176228e-07,-2.283153371971043e-07,1.7686778322624356e-07,1.5344695335356433e-06,-3.239742910002741e-07,5.371772216231077e-07
-6.347537090632382e-07,3.9347910196415444e-07,6.00659377635017e-08,2.2077637290566338e-06,-5.6215958771053336e-08,-1.215876819281648e-07,1.7656398834215097e-07,8.682142492919021e-07,7.081388304858779e-07,-1.1234950731191235e-06,1.2766780773904932e-06,-3.562873537385482e-07,7.645018018017774e-07,-1.9136624766990678e-07,1.894247404513551e-07,1.4105345907176088e-06,-3.0461118321324227e-07,5.384451652323843e-07
-6.445512265088577e-07,4.086905044759048e-07,3.2852101315218366e-08,2.278072555543772e-06,-1.1409111340469196e-07,-1.6464838976569061e-07,8.34546195493744e-08,8.58606239277385e-07,7.02737194589574e-07,-1.086291945255055e-06,1.2126386461478812e-06,-3.266482509407229e-07,7.118092915948247e-07,-1.4084003355765885e-07,2.0356481021207797e-07,1.4168001874864397e-06,-2.8703480754998084e-07,5.316811249108358e-07
-6.631587589499584e-07,4.274941055511867e-07,4.461302954511727e-09,2.301766264984531e-06,-1.8351149193394177e-07,-2.004156119324215e-07,-3.8219523213648494e-08,8.375891779798521e-07,6.758775846130809e-07,-1.0504994437947764e-06,1.1262176577574799e-06,-2.9176564313953914e-07,6.546649018887543e-07,-7.690117612402607e-08,2.2050831066837286e-07,1.4491503996091435e-06,-2.729082547767579e-07,5.144650594019955e-07
-6.918836573985593e-07,4.340906670745797e-07,-2.541000678026397e-08,2.277649998478871e-06,-2.587200682564947e-07,-2.2780614341744638e-07,-1.7632381980824912e-07,8.076684637156053e-07,6.287974898377502e-07,-1.0184884134019865e-06,1.0302901742887794e-06,-2.564349100825026e-07,6.176445214389452e-07,-2.4474282983102466e-09,2.407503553064436e-07,1.4510042032691494e-06,-2.628698805254169e-07,4.869779543459288e-07
-7.325759098719263e-07,4.15088307469322e-07,-5.1752020779673174e-08,2.2134313573671744e-06,-3.3342763822332124e-07,-2.4801168116083633e-07,-3.1585060109010416e-07,7.710942707519225e-07,5.66602026412524e-07,-9.87419106954584e-07,9.401974529566432e-07,-2.2877620082429477e-07,6.0910621158382e-07,7.640778128937756e-08,2.63632513504399e-07,1.4341528783815762e-06,-2.565269420204175e-07,4.5160268808346467e-07
-7.822566765260702e-07,3.658392662981108e-07,-8.368625535378697e-08,2.1273142016409525e-06,-4.0216520262513183e-07,-2.646060490187944e-07,-4.430620846464575e-07,7.290047755717769e-07,4.968888912435886e-07,-9.535042909251266e-07,8.721744060388602e-07,-2.167795885045297e-07,6.630335239003639e-07,1.5113313002152875e-07,2.871307704926091e-07,1.366086403784039e-06,-2.535349536353867e-07,4.093488321347558e-07
-8.263493105835258e-07,2.9400354910636597e-07,-1.3518780932573915e-07,2.04703028893048e-06,-4.6091356845558174e-07,-2.832766493771352e-07,-5.484723781378667e-07,6.832061300171619e-07,4.285923236696563e-07,-9.200878213659986e-07,8.419274107236796e-07,-2.2505366893518548e-07,7.425153955720771e-07,2.131786202297855e-07,3.0826501319843495e-07,1.2772671131028468e-06,-2.516044177510115e-07,3.640338596352362e-07
-8.577831907154376e-07,2.169184595974724e-07,-1.9650216301841688e-07,2.0044992630486485e-06,-5.07219769358211e-07,-3.11161898177155e-07,-6.285440983024901e-07,6.369658323280847e-07,3.697005760432922e-07,-8.886836883658413e-07,8.585218792675648e-07,-2.5228685542821207e-07,7.936488114543856e-07,2.565102534432816e-07,3.2384203653196813e-07,1.1506114291174618e-06,-2.4803106320553394e-07,3.206760454549273e-07
-8.551699349564141e-07,1.5460122381516874e-07,-2.510980396893443e-07,2.0267929390086064e-06,-5.401651142383692e-07,-3.49722883902231e-07,-6.861797395584371e-07,5.929254136590645e-07,3.2449071707457254e-07,-8.580332681660816e-07,9.20979665159791e-07,-2.918117677661282e-07,8.03091151191854e-07,2.7894253364047805e-07,3.311697814217994e-07,9.90031313990552e-07,-2.3922240427325667e-07,2.843509546069502e-07
-7.979003717483473e-07,1.2085037702604713e-07,-3.3491981049748435e-07,2.1266417278632904e-06,-5.604461293492458e-07,-4.0155623556378815e-07,-7.294892190386914e-07,5.505457078488758e-07,2.918033031533182e-07,-8.302536626109381e-07,1.0212081673361867e-06,-3.335615576162554e-07,8.413646846590379e-07,2.823662109595771e-07,3.2876951762669627e-07,8.58583503727187e-07,-2.2132737078234533e-07,2.5967694471122237e-07
-7.726731523750543e-07,1.19191359119386e-07,-4.15274040627659e-07,2.2970053140262574e-06,-5.705960065629776e-07,-4.646925851334825e-07,-7.685018293465039e-07,5.072450776615601e-07,2.6582178055528185e-07,-7.921791513279327e-07,1.143400389347234e-06,-3.6784812128482633e-07,9.169239007660254e-07,2.723805666547295e-07,3.1718348829391984e-07,7.793432284733447e-07,-1.939065912696082e-07,2.4927291773066195e-07
-7.530230990007544e-07,1.4406710994311053e-07,-5.001805977071875e-07,2.5125823664530433e-06,-5.750921636045514e-07,-5.323684903431774e-07,-8.111364949979784e-07,4.615259339835216e-07,2.3951836187537483e-07,-7.415689061312163e-07,1.267948157067643e-06,-3.8838793429689576e-07,1.0186692297328596e-06,2.5704835490780724e-07,2.995006398223372e-07,7.625712370458853e-07,-1.593949718306521e-07,2.5318603427045055e-07
-7.320955199166524e-07,1.8493450568793492e-07,-5.857915245603679e-07,2.737487421402361e-06,-5.799058460874973e-07,-6.013446340855054e-07,-8.609203691385674e-07,4.1575005940542925e-07,2.0814332438939428e-07,-6.867832604404284e-07,1.382836344743647e-06,-3.916653801518431e-07,1.0623202221331801e-06,2.4432381920755647e-07,2.8076536801702925e-07,7.95228975571391e-07,-1.224300510947464e-07,2.669946560290496e-07
-7.201991453214205e-07,2.30738983512408e-07,-6.591250797230633e-07,2.936060705422719e-06,-5.915818833241265e-07,-6.572912710114875e-07,-9.174617049120997e-07,3.754865592110503e-07,1.7014903119989613e-07,-6.287474633279555e-07,1.4809126704327014e-06,-3.7782651186190567e-07,1.0797280026942057e-06,2.389386671166283e-07,2.661879762931604e-07,7.981795982313246e-07,-8.858424783670931e-08,2.842934073149347e-07
-6.520502836513329e-07,2.720839635408362e-07,-7.314474793366194e-07,3.0828167811755918e-06,-6.153419859354447e-07,-6.954898911033346e-07,-9.780624863860656e-07,3.463938828049976e-07,1.2624931266263065e-07,-6.004537609623006e-07,1.5571934727919234e-06,-3.506982436186166e-07,1.0940336549891472e-06,2.4072392142178676e-07,2.5940995314092204e-07,7.219267106956323e-07,-6.396273528082233e-08,2.991683821063651e-07
-6.112489997621687e-07,3.022779146504059e-07,-8.167363347591115e-07,3.1662921338923177e-06,-6.51988705397431e-07,-7.04602280839176e-07,-1.0381975130643007e-06,3.31915330102895e-07,7.84049635842628e-08,-6.131630575200234e-07,1.6122859901159487e-06,-3.1511006595174024e-07,1.1062030627100798e-06,2.4569585718404474e-07,2.621079005121284e-07,6.898189185527874e-07,-4.956979400751631e-08,3.0622151510820744e-07
-6.098404015648437e-07,3.1796474489490976e-07,-9.007750722767473e-07,3.1840562276943488e-06,-6.950762043956315e-07,-7.146230178956741e-07,-1.0905503865111014e-06,3.326753716270725e-07,2.9787738836340378e-08,-6.283397779870725e-07,1.6271218129651974e-06,-2.748228027104958e-07,1.0987939813048555e-06,2.4899110910951756e-07,2.7450194097145925e-07,6.950430687443366e-07,-3.337202038985112e-08,3.0689622004212054e-07
-6.204148630676977e-07,3.1943647587361954e-07,-9.617043134893901e-07,3.134052030781233e-06,-7.311457147822429e-07,-7.208523396336602e-07,-1.1247663663955834e-06,3.460871851082006e-07,-1.5071606000807055e-08,-6.374633789560834e-07,1.5991559395319534e-06,-2.3151083328556026e-07,1.0879615916850594e-06,2.4728290532134395e-07,2.9538560237565195e-07,6.837415921911779e-07,-9.97261069294882e-09,3.019568868304086e-07
-6.366608869188104e-07,3.0966160726208e-07,-1.0198998900966301e-06,3.0118315897687436e-06,-7.445872039578525e-07,-6.836171436697868e-07,-1.129987298211778e-06,3.6554014286750305e-07,-5.067042610478234e-08,-6.510137834780734e-07,1.5261623219030323e-06,-1.8634309219791976e-07,1.0428020948369426e-06,2.392306874615957e-07,3.215584919500133e-07,6.779222069195351e-07,2.518772226804573e-08,3.148529189462444e-07
-6.491957042076861e-07,2.927322551224872e-07,-1.0511621101798897e-06,2.8174786169783807e-06,-7.249367365137936e-07,-6.281309579001111e-07,-1.0993510657426438e-06,3.813960403561435e-07,-7.159414369907446e-08,-6.418404668105531e-07,1.4127780091052595e-06,-1.419837096040499e-07,9.674374323890264e-07,2.2458825238728113e-07,3.479704153761514e-07,6.851017242627903e-07,7.407183249754193e-08,3.459610004157912e-07
-6.587047942610388e-07,2.7239994678947583e-07,-1.0930023365028987e-06,2.5658477888008296e-06,-6.722697609711825e-07,-5.310556673077186e-07,-1.033497942858592e-06,3.8452947169288794e-07,-7.386579844545999e-08,-6.403893177535504e-07,1.282182787104632e-06,-1.0349060052151909e-07,9.229474894298761e-07,2.0359007819222285e-07,3.6932091418559874e-07,7.510386788107217e-07,1.2992410737431557e-07,3.7877411617781964e-07
-7.193302655765721e-07,2.507891481563712e-07,-1.1593506437586057e-06,2.2894687802185062e-06,-5.976730710371122e-07,-4.423071904124233e-07,-9.410912638440656e-07,3.7081888390679843e-07,-5.640576247976946e-08,-6.447228496908251e-07,1.174556635641536e-06,-7.702508656555408e-08,8.871734849602769e-07,1.773419083333421e-07,3.823314936204132e-07,8.461682786041473e-07,1.7696727944069658e-07,4.132297806249227e-07
-8.162312122607272e-07,2.2811787315772878e-07,-1.1996632301306916e-06,2.0291349268900525e-06,-5.192032061520491e-07,-3.743445806593899e-07,-8.366610473621229e-07,3.4338487222535125e-07,-2.261409991154378e-08,-6.65044183000636e-07,1.0972646568524656e-06,-6.673545077809619e-08,8.403245675385413e-07,1.484201364019972e-07,3.8718404786929977e-07,9.479569506054121e-07,2.1887232833814633e-07,4.421788421877332e-07
-8.890397944443629e-07,2.0363056246403348e-07,-1.2184071843926873e-06,1.8174208205923482e-06,-4.5524647253423524e-07,-2.948127494235078e-07,-7.370255904525449e-07,3.108374956116307e-07,1.9903002487083593e-08,-6.729103010712788e-07,1.0247109917420513e-06,-7.276327975258715e-08,8.255847598211528e-07,1.2076762645315215e-07,3.873305309772565e-07,1.0418622847872338e-06,2.6239842108556034e-07,4.795193242046951e-07
-9.715381503213097e-07,1.7654102249911924e-07,-1.2408313043225066e-06,1.6657913698433252e-06,-4.1794603141950605e-07,-2.545157352107768e-07,-6.573647644881678e-07,2.8315378689957796e-07,6.175595007870283e-08,-6.605736074226289e-07,9.730769614164569e-07,-9.057831008856062e-08,8.202257875501424e-07,9.917906390405887e-08,3.881519579450886e-07,1.1348101485363337e-06,3.1451203826570075e-07,5.313640875142074e-07
-1.042871147285176e-06,1.469996425744522e-07,-1.2443395268892259e-06,1.5625322466931639e-06,-4.091380594342624e-07,-2.3501753210791921e-07,-6.082672116351028e-07,2.682111484797869e-07,9.544491382369062e-08,-6.722181104490274e-07,8.842647042030949e-07,-1.0991519619694696e-07,7.561082928769218e-07,8.88657897623287e-08,3.9526791548938835e-07,1.229938335351221e-06,4.068110732239328e-07,6.31574530241557e-07
-1.0763413698903165e-06,1.1700001134310912e-07,-1.2259713739091984e-06,1.4809212058993383e-06,-4.2050242358460376e-07,-2.2527058906463653e-07,-5.950550479171674e-07,2.696640066940203e-07,1.1774359864349535e-07,-6.875882687598591e-07,7.250403687618258e-07,-1.1801171791343921e-07,6.62823628022325e-07,9.453491807159661e-08,4.1277429939193817e-07,1.3231735038674913e-06,4.800502036482575e-07,7.581366926037488e-07
-1.0867937560607438e-06,9.144318476845631e-08,-1.211012217191175e-06,1.3920688072006318e-06,-4.3796801418394484e-07,-2.3189957123632916e-07,-6.192452623426706e-07,2.862383492063747e-07,1.290303451496765e-07,-7.009401036119478e-07,6.236814247180741e-07,-1.037718324334942e-07,5.821920719913118e-07,1.2051317878514406e-07,4.4301169431371e-07,1.4182407721811303e-06,5.310310036389752e-07,8.365507172228312e-07
-1.1185613623791082e-06,7.776708061905028e-08,-1.1622025267782108e-06,1.276951371623096e-06,-4.4798478856434033e-07,-2.4761450596505917e-07,-6.804166585600363e-07,3.1244705969693267e-07,1.3098720661512598e-07,-7.313332253327931e-07,5.584802211689119e-07,-6.20403374987088e-08,5.068098257889606e-07,1.6389428218433638e-07,4.806592848240823e-07,1.4771153663541087e-06,5.835519272534838e-07,9.298844520001382e-07
-1.1779913392387367e-06,8.26987485807293e-08,-1.116086925167407e-06,1.1340687197933184e-06,-4.424956333819072e-07,-2.6506906890589325e-07,-7.766430551347222e-07,3.403709673889543e-07,1.249978778349009e-07,-7.647137510401075e-07,4.5605816371085083e-07,3.5601906449855605e-09,4.4401396839463176e-07,2.17613079509772e-07,5.183805415771379e-07,1.5241882363564703e-06,6.247507572676208e-07,1.0021553668177353e-06
-1.2519412539659952e-06,1.0804639302256918e-07,-1.0788046494624897e-06,9.801179566833215e-07,-4.2090556425686245e-07,-2.8502440750129786e-07,-9.030754198687507e-07,3.620642596284713e-07,1.1235394803915065e-07,-8.044159336707558e-07,2.454244179223029e-07,8.155124606730493e-08,3.434752198451581e-07,2.71524686385718e-07,5.48671134840125e-07,1.5745478397197005e-06,6.577436881569596e-07,1.1039531602296046e-06
-1.312497220234069e-06,1.4852913851761693e-07,-1.0402385513862241e-06,8.428040109982684e-07,-3.890880035519969e-07,-3.0788470807116274e-07,-1.0502703316023806e-06,3.709026176122907e-07,9.460564862042788e-08,-8.601115812084868e-07,1.002997024220204e-07,1.5692187554304672e-07,2.640816548362466e-07,2.9614235116426405e-07,5.482237671199273e-07,1.6275934780807584e-06,7.012610441052924e-07,1.1964543396687244e-06
-1.3602504761908597e-06,1.9326537626426368e-07,-1.0035673555199616e-06,7.489529086905203e-07,-3.564064659472229e-07,-3.304316715133864e-07,-1.2045343818713497e-06,3.62019621804675e-07,7.348867052477423e-08,-9.120798548826667e-07,3.2180216749989445e-08,2.1213660390815083e-07,2.108207423745745e-07,2.801349204651183e-07,5.183924806864531e-07,1.6872596029226195e-06,7.113153558409252e-07,1.2424083340416176e-06
-1.3890805416260776e-06,2.3027690533506185e-07,-9.616268814832181e-07,7.139397933845469e-07,-3.3227335455966843e-07,-3.5470964598584477e-07,-1.350676511799984e-06,3.327660930786043e-07,5.055692355623368e-08,-9.307018658923591e-07,2.7756052134416403e-08,2.2517700753536585e-07,1.6315938692813236e-07,2.738724881662607e-07,5.186113841739767e-07,1.7440945436250059e-06,7.232451208797122e-07,1.253435216569974e-06
-1.3929704533998206e-06,2.5195836444617903e-07,-9.208199774504083e-07,7.369472310248816e-07,-3.2337680657130613e-07,-3.803591750091795e-07,-1.4753962322799543e-06,2.838826235625133e-07,2.7143129160051572e-08,-9.053626908481309e-07,-6.600567919313033e-09,2.2877609353083537e-07,1.349303923934391e-07,2.6333313370062616e-07,4.790264401785255e-07,1.780012562900472e-06,7.300766350278213e-07,1.2615777793323184e-06
-1.382193284435445e-06,2.5824796061193867e-07,-8.817982218751835e-07,8.028246359293024e-07,-3.320068367893284e-07,-4.063246530273364e-07,-1.5698705282828919e-06,2.204622624873143e-07,4.696600663570148e-09,-8.771176588640845e-07,-7.422435438358989e-08,1.862820196971508e-07,1.1409831532811261e-07,2.1003670319680307e-07,4.1711418834199993e-07,1.802790283665844e-06,7.191966990200929e-07,1.2747803482094267e-06
-1.3602895489167193e-06,2.55622117491499e-07,-8.65379837995432e-07,8.884455370034383e-07,-3.557322803363021e-07,-4.3016858514408236e-07,-1.6314649024269032e-06,1.5143914946258467e-07,-1.5562416535177218e-08,-8.514572166387982e-07,-1.4713315014106456e-07,1.3172065154507904e-07,1.0142424531560922e-07,1.35185046438026e-07,3.6206190461504457e-07,1.81503966300181e-06,7.307491230979011e-07,1.2971444813162035e-06
-1.333247648274649e-06,2.529391723309628e-07,-8.578413226806645e-07,9.704268539506888e-07,-3.885491966857852e-07,-4.540880007458788e-07,-1.6642635181249593e-06,8.741613064650834e-08,-3.3069058961878374e-08,-8.390968509774477e-07,-1.706185131674196e-07,7.244598334144648e-08,1.0954157438681346e-07,5.851166036768096e-08,3.1835859390606546e-07,1.8053735758558561e-06,7.25832344918245e-07,1.3102121136005285e-06
-1.3077728670660007e-06,2.569981769007297e-07,-8.514349741460733e-07,1.0316382561333063e-06,-4.227940145666412e-07,-4.776188963327601e-07,-1.6775494557142889e-06,3.780613446162554e-08,-4.767348791259303e-08,-8.438292836598363e-07,-1.22558721655647e-07,1.8353547628618677e-08,1.4789370869238198e-07,-1.2598295247307312e-09,2.7999145100360823e-07,1.7734811649134131e-06,6.909927251259859e-07,1.3021862094052475e-06
-1.2912043354974766e-06,2.706715225865013e-07,-8.484179056925748e-07,1.0649633088620524e-06,-4.507991289692218e-07,-4.996260576221427e-07,-1.6824526060808847e-06,8.879543838536936e-09,-5.8521854544759154e-08,-8.595930264721156e-07,-7.776280858712067e-08,-2.4799856638985103e-08,1.7752142918289386e-07,-4.688497783917209e-08,2.472163283741503e-07,1.7168781828499021e-06,6.667669977614104e-07,1.2514513909801838e-06
-1.281890573712864e-06,2.930798934154478e-07,-8.385123008467172e-07,1.0734259922271834e-06,-4.660704965301147e-07,-5.206717246817602e-07,-1.688435767702898e-06,2.53687538381616e-09,-6.363637742783978e-08,-8.837350059083713e-07,-2.1941184036504424e-08,-5.555216418139828e-08,1.9657677403523813e-07,-8.477357638261901e-08,2.1788772082173095e-07,1.6361724763162366e-06,6.393239231673423e-07,1.2097936728854823e-06
-1.2773085392640437e-06,3.196559299185275e-07,-8.286596003177801e-07,1.0667824811479652e-06,-4.646977498367851e-07,-5.403661194415837e-07,-1.7012103331764018e-06,1.540261835824397e-08,-6.085388638398596e-08,-9.087410797925061e-07,4.6914101723501915e-08,-7.615559166380491e-08,2.143223581975542e-07,-1.1771559252067689e-07,1.8973893206635888e-07,1.5315644765436568e-06,6.372709147158485e-07,1.1859298662722208e-06
-1.275187624385267e-06,3.412890441507786e-07,-8.234815091005171e-07,1.0563449335778747e-06,-4.47045981393624e-07,-5.594221304143667e-07,-1.7223040226028113e-06,3.9041637608780916e-08,-4.8934732899176416e-08,-9.222414715674751e-07,6.209751155208705e-08,-8.893944226372333e-08,2.1147002115009148e-07,-1.49853028950387e-07,1.6091968965905582e-07,1.437108921891394e-06,6.143326416584888e-07,1.1456900569931735e-06
-1.2718468575564188e-06,3.463771712160844e-07,-8.205451722510123e-07,1.0506044253990457e-06,-4.1843753045665766e-07,-5.78586321103531e-07,-1.7494803452863896e-06,6.28497002641029e-08,-2.7961970053174816e-08,-9.414183419721072e-07,8.255969550509747e-08,-9.776780939731835e-08,1.9961560199790435e-07,-1.84203690187415e-07,1.3049192774504425e-07,1.3698460410735623e-06,5.689483306483387e-07,1.1000637888391435e-06
-1.266315446824114e-06,3.27233596810118e-07,-8.148243435861575e-07,1.0531206091866749e-06,-3.8764132629470975e-07,-5.9755865449754e-07,-1.7776464714079449e-06,7.8100911467844e-08,7.820411488920105e-10,-9.595142147913676e-07,1.1768256235835455e-07,-1.0434134150775035e-07,1.8954769814317714e-07,-2.2206029886922758e-07,9.868860347314676e-08,1.3194881773435435e-06,5.38045263120873e-07,1.0434653932656003e-06
-1.2578225345542554e-06,2.860469443208647e-07,-8.030640253648144e-07,1.0625034510091396e-06,-3.6336955741868943e-07,-6.150998899409447e-07,-1.800688817435754e-06,8.049372293278604e-08,3.4632051632981384e-08,-9.749393845006637e-07,1.5963984520634473e-07,-1.0748642602953496e-07,1.814726770616341e-07,-2.62952947946488e-07,6.633315341016286e-08,1.284723892608248e-06,5.113815957034896e-07,9.851069281673824e-07
-1.246122810738312e-06,2.3510377666168225e-07,-7.866085254726039e-07,1.0737985094570765e-06,-3.5070243130777065e-07,-6.296930668539366e-07,-1.8140880463901508e-06,6.99064146176788e-08,6.923662786803592e-08,-9.863713559457057e-07,2.2174268974310157e-07,-1.0671584598943665e-07,1.8127491561670436e-07,-3.0507701810585224e-07,3.387109036690056e-08,1.25516116946027e-06,4.79456375586193e-07,9.150053077635617e-07
-1.2325472645024519e-06,1.9106139199912066e-07,-7.681844815951457e-07,1.0808964337254524e-06,-3.494102584359845e-07,-6.405653682889646e-07,-1.8168142927559857e-06,4.862907980218867e-08,9.903309835556915e-08,-9.911603031798887e-07,2.856067753139562e-07,-1.0139901916633007e-07,1.856747121378834e-07,-3.4587889449787457e-07,1.1164964805790128e-09,1.223973780132037e-06,4.375627828650185e-07,8.282864087832426e-07
-1.2193594750050693e-06,1.6781286154966013e-07,-7.52322202969375e-07,1.0794106453296019e-06,-3.5465338414885943e-07,-6.479830984321527e-07,-1.810990682051979e-06,2.004865961516512e-08,1.1891534266900541e-07,-9.944730358782572e-07,3.199805026223098e-07,-9.223764040040176e-08,1.9042397197647503e-07,-3.825373940291344e-07,-3.208502674377828e-08,1.1926497091589475e-06,3.784662839149361e-07,7.307544968660075e-07
-1.2081854718494513e-06,1.7153693785147454e-07,-7.405217340109638e-07,1.0686804823010442e-06,-3.5933617038742616e-07,-6.527676693942102e-07,-1.799678382688128e-06,-1.1865213031456645e-08,1.25931284221127e-07,-9.980302415213606e-07,3.380763965470029e-07,-8.067983395049103e-08,1.9394190458846984e-07,-4.1253392879505303e-07,-6.516884559935394e-08,1.1687220009213644e-06,3.108040036255974e-07,6.203026695992831e-07
-1.1991144252101563e-06,1.9896257867824401e-07,-7.312230199313998e-07,1.0515499389994655e-06,-3.572012562716921e-07,-6.559888223720037e-07,-1.784947581915077e-06,-4.3296622129864444e-08,1.200474189212429e-07,-1.0057431042713013e-06,3.5056836164863007e-07,-6.81359276965259e-08,1.953159177042493e-07,-4.345711053378071e-07,-9.693725655271591e-08,1.1008944851429378e-06,2.3839686692178512e-07,5.17794091241444e-07
-1.1913112918504062e-06,2.3838639352546274e-07,-7.227396262160286e-07,1.0321665358021898e-06,-3.454109048705355e-07,-6.591425258339237e-07,-1.7678848543347037e-06,-7.172326756654085e-08,1.0340552078877169e-07,-1.0109570247519333e-06,3.521474000964799e-07,-5.568813549387397e-08,1.9455449924449436e-07,-4.494308492251493e-07,-1.2632591451713783e-07,9.757211637955173e-07,1.7758128671671157e-07,4.272965700038831e-07
-1.184295483450578e-06,2.7328978595384666e-07,-7.134147693590444e-07,1.0137237824989225e-06,-3.2506465236045547e-07,-6.640122090598158e-07,-1.749860981161238e-06,-9.629186045716459e-08,7.873577606625037e-08,-1.0152807853968423e-06,3.576644222201286e-07,-4.449399332176466e-08,1.922955367234265e-07,-4.5988086523504733e-07,-1.5281297557546023e-07,8.267974117650053e-07,1.3250132888234914e-07,3.4929772425179816e-07
-1.1783448476674674e-06,2.885903682898054e-07,-7.041211537032814e-07,9.977677691288793e-07,-2.9960943061323424e-07,-6.716732998752708e-07,-1.7330788259515252e-06,-1.1711919481417693e-07,4.8249159717385335e-08,-1.0195258908411362e-06,3.698440103811178e-07,-3.517921370771512e-08,1.8834957755237662e-07,-4.6936472896020816e-07,-1.7611374885555836e-07,6.633861131102365e-07,8.867388672353273e-08,2.833104437620357e-07
-1.1733292262121781e-06,2.7747976929993095e-07,-6.940051406211439e-07,9.847945179611988e-07,-2.728927026941675e-07,-6.813572736516202e-07,-1.7195317402816187e-06,-1.3453608379326697e-07,1.3510521310381516e-08,-1.0227750606401728e-06,3.8564820715478397e-07,-2.696931592457123e-08,1.855329577770199e-07,-4.804172566631366e-07,-1.958822735355542e-07,5.272942121783699e-07,5.1609926846532145e-08,2.328328607325532e-07
-1.1674350899088195e-06,2.4441515831423723e-07,-6.82583595148832e-07,9.747404158661908e-07,-2.484121116240077e-07,-6.904936171845023e-07,-1.7094975555361748e-06,-1.4918591253481017e-07,-2.379089662101078e-08,-1.0255484502065436e-06,4.0738740339833874e-07,-1.8784785591360956e-08,1.848564074952942e-07,-4.940038577578092e-07,-2.119558358369808e-07,4.299811876486877e-07,2.5271759088092117e-08,2.0005741704586208e-07
-1.1583566298477041e-06,2.0146933284855176e-07,-6.713747680409623e-07,9.667679075452209e-07,-2.2951410052223837e-07,-6.962696844046593e-07,-1.7012458389526778e-06,-1.6260629639248363e-07,-6.142236132480973e-08,-1.02651089608059e-06,4.376027238851659e-07,-1.1541992494736628e-08,1.8663697161879347e-07,-5.098197728411472e-07,-2.2478216203557704e-07,3.4544170742022596e-07,6.001535417359944e-09,1.8438383954131146e-07
-1.1447998540879442e-06,1.6061292578000382e-07,-6.611386927402624e-07,9.591340266757388e-07,-2.1947429499542677e-07,-6.973292290658058e-07,-1.692202139501531e-06,-1.7708012492745467e-07,-9.668664702648589e-08,-1.0260939486527501e-06,4.695355308860003e-07,-5.085375277572438e-09,1.9165312561066444e-07,-5.265940011601934e-07,-2.3522098263570934e-07,2.7364516877464547e-07,-6.320681633661154e-09,1.855296357861497e-07
-1.1277417189159193e-06,1.2839553346058717e-07,-6.543073110952664e-07,9.500038847584795e-07,-2.2068014883768032e-07,-6.938768434528156e-07,-1.6802819325444655e-06,-1.9438092761181502e-07,-1.2663886966885957e-07,-1.0269834224748582e-06,4.986523037157506e-07,-3.682993886152418e-10,1.9956653885816812e-07,-5.421030847256305e-07,-2.4371482943246675e-07,2.1556003195061508e-07,-1.6772622536560544e-08,1.959449412012549e-07
-1.1093689091592874e-06,1.0615341615748946e-07,-6.516919099458417e-07,9.387710077410965e-07,-2.3315559087007976e-07,-6.862714545809585e-07,-1.6644056196983487e-06,-2.1446554542251917e-07,-1.4827265444469164e-07,-1.027533487443629e-06,5.208848574850881e-07,1.984909777896042e-09,2.1064831117950456e-07,-5.537218568564081e-07,-2.4964838884703664e-07,1.5397925234776766e-07,-3.308888014646097e-08,2.136280568023782e-07
-1.0920981176665323e-06,9.277580925807975e-08,-6.521395822555832e-07,9.265613344526408e-07,-2.5399344624647745e-07,-6.740078355704031e-07,-1.6445284669406718e-06,-2.3539681712063242e-07,-1.5879379677613996e-07,-1.029510681639836e-06,5.36274843767924e-07,2.3608614939226487e-09,2.2497574180911266e-07,-5.598781493215419e-07,-2.5171392084107614e-07,1.2613474442839574e-07,-5.6006957830161754e-08,2.4117107485141493e-07
-1.0784977113444563e-06,8.587169194423636e-08,-6.527436813750714e-07,9.15313909738055e-07,-2.7886495579761495e-07,-6.564364811352674e-07,-1.6218438635416745e-06,-2.5492740506034843e-07,-1.5643744481754798e-07,-1.0340399684396733e-06,5.460403293054399e-07,4.1801244843468874e-10,2.4073820807694895e-07,-5.612992323023261e-07,-2.4900889900206184e-07,1.1848461080336594e-07,-8.007210835047621e-08,2.603719630490841e-07
-1.0708793990740185e-06,8.1422870107999e-08,-6.515026873942444e-07,9.062588124608839e-07,-3.0435346577833695e-07,-6.34423012554794e-07,-1.5989219058290496e-06,-2.717740922874573e-07,-1.4134933881137054e-07,-1.040015325504667e-06,5.48765585577663e-07,-4.1072751494042405e-09,2.565492955631257e-07,-5.606582640023573e-07,-2.419175152414737e-07,1.3205175824403678e-07,-1.04333259134114e-07,2.79438280849988e-07
-1.07204880466693e-06,7.467213612605519e-08,-6.488174199587035e-07,8.992170893787573e-07,-3.286118860789761e-07,-6.110276909121903e-07,-1.5789391545419105e-06,-2.8518136491790164e-07,-1.1591657866979233e-07,-1.0484425910076165e-06,5.432517449030269e-07,-1.127372942469861e-08,2.6944278540843743e-07,-5.607510275874023e-07,-2.320832930629281e-07,1.6192850696225325e-07,-1.2035189234694414e-07,2.9640551980894896e-07
-1.0837363583375166e-06,6.233875021410263e-08,-6.532379015376699e-07,8.933861899233186e-07,-3.4990467208063307e-07,-5.904544609886305e-07,-1.564111074901134e-06,-2.930492687434933e-07,-8.408667384885381e-08,-1.0578266987625991e-06,5.276677194848386e-07,-1.9484351153408937e-08,2.7667851703618253e-07,-5.628501305857539e-07,-2.2161668194556236e-07,1.6756923603268511e-07,-1.3006927406477178e-07,3.04692406334252e-07
-1.1052935979828947e-06,4.365729471124802e-08,-6.653379254064437e-07,8.888611109846051e-07,-3.652436488353165e-07,-5.763991526202513e-07,-1.5548442339501192e-06,-2.908398596250217e-07,-5.037900664418105e-08,-1.0678682617789325e-06,5.049687235266031e-07,-2.6047694019541657e-08,2.770478261131749e-07,-5.665347124068629e-07,-2.12366170845748e-07,1.6027624197786595e-07,-1.3796683178520328e-07,3.086651553947696e-07
-1.1333944723758093e-06,1.920745990846742e-08,-6.819773530208725e-07,8.874504227893704e-07,-3.7103579821357774e-07,-5.710995041046315e-07,-1.5505994877175068e-06,-2.736562679968842e-07,-1.9638396053388262e-08,-1.0779863659482276e-06,4.776612356398385e-07,-2.942068262492653e-08,2.699193730285796e-07,-5.707103531556125e-07,-2.0578310113210573e-07,1.3267158256583882e-07,-1.4554535850741286e-07,3.0658904240966035e-07
-1.164629366741938e-06,-1.0326159473544705e-08,-7.008596314336348e-07,8.920902118111827e-07,-3.6518690292284297e-07,-5.751079220754331e-07,-1.5513483514653824e-06,-2.3955552722097727e-07,3.415866146047908e-09,-1.0885847023360843e-06,4.5055541118579785e-07,-2.9992684739617167e-08,2.5599665429316753e-07,-5.745964220471633e-07,-2.0297792185389406e-07,1.0588758551168782e-07,-1.5683927237825082e-07,2.9991643169892614e-07
-1.1961920418007078e-06,-4.3439292241010066e-08,-7.196705888355135e-07,9.054385959781775e-07,-3.487751050359324e-07,-5.871808770222694e-07,-1.5575682394401135e-06,-1.912830444227915e-07,1.5792991044330166e-08,-1.1002696937816288e-06,4.2881016958089564e-07,-2.9912892124325686e-08,2.3772680758823887e-07,-5.778280299507138e-07,-2.0435960272603553e-07,8.200302817744365e-08,-1.7338882905461206e-07,2.9044331077719375e-07
-1.2265020118457681e-06,-7.633642467384952e-08,-7.436748793154297e-07,9.285402758687417e-07,-3.261243001093266e-07,-6.042544229143962e-07,-1.5683119725740847e-06,-1.354588440214598e-07,1.8074847851035346e-08,-1.0981117031208349e-06,4.190254764257988e-07,-3.14978767111896e-08,2.2058503513915185e-07,-5.799559994064298e-07,-2.0896717613172167e-07,5.427143651871116e-08,-1.8968497928349557e-07,2.8419999003201285e-07
-1.2575375579464412e-06,-1.034880586060309e-07,-7.796670342681198e-07,9.59715088226325e-07,-3.033961970022587e-07,-6.220208426460174e-07,-1.579379537113609e-06,-8.028822748654363e-08,1.50456668890692e-08,-1.0802169411012645e-06,4.2768742683610434e-07,-3.577658512637977e-08,2.108853592753992e-07,-5.802961969853049e-07,-2.1433507967955321e-07,2.9328815976557733e-08,-2.0147912604447024e-07,2.8079865679804344e-07
-1.2857289845646994e-06,-1.1898644544727181e-07,-8.523901939882785e-07,9.842959223233392e-07,-2.864653326121537e-07,-6.361672082334051e-07,-1.5838424631857666e-06,-3.273480854000582e-08,1.4367512064846159e-08,-1.047619908858128e-06,4.581774229411341e-07,-4.265117570567334e-08,2.156569872482214e-07,-5.784564146401883e-07,-2.1742258718223272e-07,6.699319994902975e-09,-2.0866093982236098e-07,2.821808168029625e-07
-1.315600118130571e-06,-1.260179024054768e-07,-9.295690240146341e-07,9.933748084996463e-07,-2.788653425803616e-07,-6.433851313857102e-07,-1.5744459562610369e-06,4.165122042765321e-09,2.362008186494862e-08,-9.883927370613361e-07,5.093670457024684e-07,-5.141672939818827e-08,2.395947558487894e-07,-5.748236579291139e-07,-2.15999700423659e-07,-7.024158529678304e-09,-2.1009886724400497e-07,2.912926135549129e-07
-1.3338718388839904e-06,-1.3073128097935116e-07,-9.88579828319318e-07,9.826994794619885e-07,-2.80297745395236e-07,-6.41158684107203e-07,-1.5454274640361956e-06,3.2155552303507366e-08,4.762432339635166e-08,-9.381821821973078e-07,5.736198241084394e-07,-6.186240506981395e-08,2.845198989222618e-07,-5.701721242891661e-07,-2.0935470583066737e-07,-7.797192543399623e-09,-2.0500464777043151e-07,3.0793068746104023e-07
-1.3226905830998829e-06,-1.4111713274020058e-07,-1.0364842364958363e-06,9.282408892829713e-07,-2.861535634532084e-07,-6.266469156557834e-07,-1.492797437266047e-06,5.603635780430854e-08,8.760182906716138e-08,-9.172112380591322e-07,6.401720167892066e-07,-7.28137185202567e-08,3.431814256856438e-07,-5.645495904914508e-07,-1.9789785588778192e-07,3.5313152344359407e-09,-1.9345946711449001e-07,3.331238480645887e-07
-1.2815603553277168e-06,-1.6518071177745926e-07,-1.084567281105478e-06,8.078866280856987e-07,-2.8882050512851665e-07,-5.963733938578975e-07,-1.4144159472232623e-06,8.070535198142061e-08,1.4141601669771587e-07,-9.026747514934088e-07,6.974072783402778e-07,-8.063820193074217e-08,4.0727945183627933e-07,-5.566748412175753e-07,-1.823136621812999e-07,2.8182067980886823e-08,-1.7493293594322344e-07,3.6621504550465485e-07
-1.2386889402201453e-06,-2.060113285613228e-07,-1.1079114096587869e-06,5.955065016292911e-07,-2.810700411255772e-07,-5.465601702144127e-07,-1.3108858965253498e-06,1.085586148957688e-07,2.0367925487343523e-07,-8.470386320872368e-07,7.307060811461433e-07,-8.133657351157563e-08,4.638194517713509e-07,-5.448686720868153e-07,-1.6327801088163247e-07,6.5227337066805e-08,-1.479446923947126e-07,4.0320589343257713e-07
-1.2049104497707273e-06,-2.6265756029920786e-07,-1.194843424489029e-06,2.851117191368586e-07,-2.5993266300970864e-07,-4.785946978206497e-07,-1.186617777709268e-06,1.388215407458257e-07,2.662368571233974e-07,-7.695298294377102e-07,7.286732147179519e-07,-7.29846855143875e-08,4.673419417735732e-07,-5.289928321184418e-07,-1.4200122203216082e-07,1.0795614392640568e-07,-1.1737787573577216e-07,4.4295864519593905e-07
-1.1810253679550593e-06,-3.2949022562436555e-07,-1.272193850742633e-06,-9.983042562961983e-08,-2.2832675265111817e-07,-4.0091420304425907e-07,-1.049917788053947e-06,1.689543930618795e-07,3.2010797391641906e-07,-7.235073590296695e-07,6.875016392276649e-07,-5.799425731982862e-08,4.567179678439136e-07,-5.117056035560985e-07,-1.209765141943164e-07,1.4841895772415123e-07,-1.052425517045774e-07,4.7542997383636316e-07
-1.1573426711368987e-06,-3.972976327330493e-07,-1.3092313516470002e-06,-4.316108822213492e-07,-1.9342258592969497e-07,-3.232527627124968e-07,-9.116250707465905e-07,1.9668000380933145e-07,3.586972581057427e-07,-6.74608171021014e-07,6.241358220835065e-07,-4.4402657683829025e-08,4.59525741329394e-07,-4.980125104694713e-07,-1.040300303707836e-07,1.7910915259631076e-07,-1.1660157378450262e-07,4.925524144080522e-07
-1.1526207040824662e-06,-4.541371351070543e-07,-1.3317902732987581e-06,-5.75079920949819e-07,-1.6343640879350566e-07,-2.704654129257451e-07,-7.828194067695298e-07,2.2138754219425433e-07,3.8045876847470255e-07,-6.562810281870636e-07,5.636064181663502e-07,-4.4605237357195787e-08,4.188284316284946e-07,-4.936517955609313e-07,-9.534299638958533e-08,1.9518702090583258e-07,-1.6717600837668984e-07,4.894228184894736e-07
-1.1594553980621786e-06,-4.900100498867875e-07,-1.3341829494201662e-06,-5.003363214431024e-07,-1.4523342255870765e-07,-2.6389463620419195e-07,-6.726542447733229e-07,2.440543932032239e-07,3.8931994796807196e-07,-6.184611774423036e-07,5.375725401394681e-07,-6.890437648073207e-08,3.5959879568000365e-07,-5.0334677996929e-07,-9.79520346828572e-08,1.961608087783184e-07,-2.3528662378895096e-07,4.620601623547348e-07
-1.1743956958281349e-06,-4.991281083235277e-07,-1.3410877887720611e-06,-5.019719373853264e-07,-1.4356510329567988e-07,-2.496026514944753e-07,-5.867972458070812e-07,2.6641280977098536e-07,3.928032214344046e-07,-5.841197105536946e-07,6.307283523170924e-07,-1.182705181754126e-07,3.6100707145305383e-07,-5.292822578199062e-07,-1.124022224327232e-07,1.8525158011472437e-07,-2.74573516890951e-07,4.1295040730724055e-07
-1.195340279076759e-06,-4.806903401612927e-07,-1.3288054648830986e-06,-6.144238885175114e-07,-1.608027855885513e-07,-2.38942979155905e-07,-5.262224031988975e-07,2.9022848332103404e-07,3.9946451527559834e-07,-5.850298958575757e-07,7.214685508114148e-07,-2.1203615023595365e-07,3.812330897056094e-07,-5.697742829787836e-07,-1.3582585305425128e-07,1.6269222548099857e-07,-2.7256168105308113e-07,3.489645664203066e-07
-1.2116391321028646e-06,-4.388203989091334e-07,-1.3221242233802652e-06,-8.321241003523286e-07,-1.9561567326634827e-07,-2.868614304538069e-07,-4.865791500735993e-07,3.1729813106876405e-07,4.168516229981283e-07,-6.035297731098167e-07,8.397590393657565e-07,-3.1102940209147284e-07,3.8659946360224063e-07,-6.186687435748804e-07,-1.6190158305762141e-07,1.3900021462106163e-07,-3.484921913917547e-07,2.812853490541608e-07
-1.218786759000401e-06,-3.8061980143144126e-07,-1.306879822340143e-06,-6.279552544996348e-07,-2.411453799986511e-07,-3.532170536585935e-07,-4.593338511549365e-07,3.494258029298989e-07,4.4952341618780004e-07,-6.322977269393912e-07,9.793783598809169e-07,-4.0882867997862117e-07,4.365118812394546e-07,-6.665093923007408e-07,-1.82404310546259e-07,1.2304127431229656e-07,-4.39711147685939e-07,2.216452757386886e-07
-1.2127502743424405e-06,-3.156000275522538e-07,-1.3135190275941863e-06,-3.5558468234331013e-07,-2.856502556595933e-07,-4.0208649141808704e-07,-4.3540417647483947e-07,3.8708126178656095e-07,4.96732286540363e-07,-6.718280785878051e-07,1.1486487415871713e-06,-4.514726997004962e-07,5.09127850983203e-07,-7.036347475474811e-07,-1.9018896081921035e-07,1.1852933008097113e-07,-4.909110212615199e-07,1.8110657297163667e-07
-1.2038831643214434e-06,-2.5539402741030314e-07,-1.3475825449491438e-06,-1.0594658941032683e-07,-3.1724350150425327e-07,-4.299145150116416e-07,-4.097321191951819e-07,4.276102772823622e-07,5.509597512923168e-07,-6.985277521694183e-07,1.258415808664783e-06,-4.675010457352168e-07,5.630678469150973e-07,-7.235410356192419e-07,-1.8200010130441796e-07,1.259436919403494e-07,-5.300279060877324e-07,1.642300821518619e-07
-1.1972127283933333e-06,-2.0937157857869075e-07,-1.3722401929714086e-06,1.3552187055279005e-07,-3.298414492868152e-07,-4.39925199187529e-07,-3.8343462859695753e-07,4.657004154407503e-07,5.995820658242694e-07,-7.159878393041887e-07,1.301023248948984e-06,-4.804276107526246e-07,5.901333845638644e-07,-7.243162084627573e-07,-1.5934212735898882e-07,1.3838621716495024e-07,-5.780265455078131e-07,1.683729984387432e-07
-1.1945290811020218e-06,-1.8275685966307205e-07,-1.3720742993310493e-06,2.486886459084326e-07,-3.255827364120883e-07,-4.3430528337763505e-07,-3.616744931385492e-07,4.968362138497155e-07,6.29677534542674e-07,-7.222601136689286e-07,1.3023071381683758e-06,-4.927773261236445e-07,5.976310918425297e-07,-7.07798672496997e-07,-1.272314409028597e-07,1.4758145089504113e-07,-6.094696716707458e-07,1.8640775738283e-07
-1.1969632203861108e-06,-1.7427325088946792e-07,-1.3415163648150365e-06,2.873116722651915e-07,-3.1225635472025035e-07,-4.191712665762512e-07,-3.4937971919389596e-07,5.210456724046044e-07,6.334983177584246e-07,-7.160922320782332e-07,1.2735208822954835e-06,-4.624073873133726e-07,5.874216251119571e-07,-6.781361618614207e-07,-9.212900677834656e-08,1.4727953295128886e-07,-5.988624321936444e-07,2.0847823126799785e-07
-1.2006991231047044e-06,-1.7738253960398446e-07,-1.3133736749832295e-06,2.7483192143208745e-07,-2.985352535932842e-07,-4.000114857723733e-07,-3.486639695339208e-07,5.431786813090211e-07,6.117711392025948e-07,-7.048440807188698e-07,1.2294612307484299e-06,-4.00912921313163e-07,5.654958637928983e-07,-6.410168156706025e-07,-6.029645444962166e-08,1.350880693196961e-07,-5.655868140884969e-07,2.254669576370349e-07
-1.2019841729907705e-06,-1.8540043939784395e-07,-1.281053731527105e-06,2.2233044393234078e-07,-2.9048535528332197e-07,-3.806810789020638e-07,-3.5909087321959246e-07,5.698604386076866e-07,5.734032047879767e-07,-6.890086456606787e-07,1.1829154069903093e-06,-3.5881951693207286e-07,5.375562003938638e-07,-6.030245444186038e-07,-3.664628316553442e-08,1.0992083354902436e-07,-5.545338891731852e-07,2.3099529116283113e-07
-1.1997262424002716e-06,-1.94555190591689e-07,-1.221529412524169e-06,1.8209456159940677e-07,-2.90323859988839e-07,-3.63673923336614e-07,-3.786638900386054e-07,6.063677584546689e-07,5.321833346349462e-07,-6.716167890092313e-07,1.140741043061394e-06,-3.3345337375461616e-07,5.079716260796328e-07,-5.701838489378998e-07,-2.3607103237137234e-08,7.41893484856525e-08,-5.571379675598436e-07,2.2284566871723375e-07
-1.1932761055814086e-06,-2.0363834250481584e-07,-1.1689589861120445e-06,1.457707840200977e-07,-2.964877198931222e-07,-3.503425295076104e-07,-4.038957530060288e-07,6.553596672321229e-07,5.020623562931085e-07,-6.582433716085283e-07,1.1053322670706655e-06,-3.156779119166933e-07,4.79106074975409e-07,-5.461484443796152e-07,-2.0181039471070567e-08,3.3889579327181884e-08,-5.637478368573789e-07,2.0389646813433844e-07
-1.18649838296287e-06,-2.1035644536600133e-07,-1.1132496020616292e-06,1.0748019327953365e-07,-3.0442433068788695e-07,-3.4100290633261163e-07,-4.3008427292306764e-07,7.162698330595212e-07,4.926666488574493e-07,-6.525000464963857e-07,1.0792042984182724e-06,-3.0510167335135973e-07,4.5273065682568057e-07,-5.314836791024827e-07,-2.2176259983419002e-08,-3.037891495725323e-09,-5.72143763175143e-07,1.8132165062926246e-07
-1.1758311919118922e-06,-2.0950134163364908e-07,-1.0534127321837144e-06,7.824585967024422e-08,-3.084025284622776e-07,-3.35709434845138e-07,-4.532866000108676e-07,7.840789869658144e-07,5.061228469262071e-07,-6.550520339669596e-07,1.0583161226386734e-06,-2.984080271057315e-07,4.305051079253546e-07,-5.247496249329022e-07,-2.415137872151456e-08,-2.840838989651572e-08,-5.770903008595987e-07,1.6379475217621588e-07
-1.157087760032377e-06,-1.9455353590862658e-07,-9.961259100636675e-07,7.198946316539304e-08,-3.0426574664750516e-07,-3.355269700183947e-07,-4.727952405292511e-07,8.495846074424257e-07,5.365194567236156e-07,-6.637123392933785e-07,1.040612826222044e-06,-2.947550339806934e-07,4.1426408901221354e-07,-5.244668725527699e-07,-2.206692116033022e-08,-3.773946240890518e-08,-5.753835929764871e-07,1.5786898488204653e-07
-1.1304499071102677e-06,-1.618159498158077e-07,-9.337769878332752e-07,1.0472484484617781e-07,-2.917121876567009e-07,-3.428768377388594e-07,-4.914847591958015e-07,9.030829332238169e-07,5.729744538978974e-07,-6.744811670522059e-07,1.0297934700526517e-06,-2.9683329249578445e-07,4.065158259926008e-07,-5.302335026600826e-07,-1.480737643016941e-08,-3.1688992920470635e-08,-5.674776162014946e-07,1.655933558852385e-07
-1.095469539140062e-06,-1.1237958469772158e-07,-8.722614520621814e-07,1.885186170797427e-07,-2.7440064225137484e-07,-3.6022497663185273e-07,-5.135098417081499e-07,9.390513608462634e-07,6.047543978992229e-07,-6.827890227240408e-07,1.0320039807090795e-06,-3.0965191787905555e-07,4.0982646347811854e-07,-5.422027110459154e-07,-3.742139325010733e-09,-1.474856859746442e-08,-5.565680981344415e-07,1.8455564855958053e-07
-1.0543511147341988e-06,-5.075740575447191e-08,-8.182003884743596e-07,3.2644348447050313e-07,-2.579495796977098e-07,-3.8827149152383935e-07,-5.416099714791961e-07,9.579626579333062e-07,6.250986600660802e-07,-6.847536703569464e-07,1.0554138708431728e-06,-3.3785656829677904e-07,4.259417536796449e-07,-5.599170365788893e-07,8.835522314918274e-09,7.04768747621942e-09,-5.46075457047205e-07,2.09781950123344e-07
-1.0096094446695514e-06,1.6833966483686928e-08,-7.834370742918299e-07,5.108346319978991e-07,-2.476449799098151e-07,-4.252870999570582e-07,-5.763871661072722e-07,9.643990579723545e-07,6.318418186500259e-07,-6.784652329093993e-07,1.1068484027255462e-06,-3.835388531063234e-07,4.545024187953168e-07,-5.820266195356541e-07,2.0950553658746993e-08,2.8044745014868167e-08,-5.377586837902122e-07,2.3597697505919353e-07
-9.624769816614126e-07,8.319691098910578e-08,-7.620611990376028e-07,7.248177382244809e-07,-2.4712327961325587e-07,-4.6782950229682493e-07,-6.175742126397676e-07,9.636894311083305e-07,6.259418374070769e-07,-6.646416963511313e-07,1.1848421700065649e-06,-4.45282229949117e-07,4.930851498265556e-07,-6.070872928407615e-07,3.125018240049116e-08,4.4042758496940745e-08,-5.316284182393637e-07,2.5903712610565145e-07
-9.136188795311894e-07,1.3653838002421808e-07,-7.421798959374235e-07,9.460771874980116e-07,-2.574240340697197e-07,-5.117034022033082e-07,-6.652296602786799e-07,9.596889457142787e-07,6.101655900387413e-07,-6.459326595498802e-07,1.2812140909890111e-06,-5.181056734544001e-07,5.371818079545577e-07,-6.341464837466828e-07,3.897148249701179e-08,5.308028440311417e-08,-5.268486143821403e-07,2.7668343818137754e-07
-8.65355701418314e-07,1.7452553100585398e-07,-7.229200590359404e-07,1.151598570481438e-06,-2.7563875212651657e-07,-5.52309193100935e-07,-7.192715112308441e-07,9.547569287071552e-07,5.888409735045885e-07,-6.253895597424567e-07,1.3842793262816505e-06,-5.941010930018112e-07,5.815776684255442e-07,-6.620532565140478e-07,4.4375696761478076e-08,5.6063239482232093e-08,-5.221913164457692e-07,2.8850106729633953e-07
-8.193965757038489e-07,1.9359103706953537e-07,-6.995117551107987e-07,1.3220424771429491e-06,-2.945068421836368e-07,-5.848438262034743e-07,-7.781913648658976e-07,9.50948589393919e-07,5.676355098633665e-07,-6.054154035735504e-07,1.4825416705542606e-06,-6.633933973444675e-07,6.210910627641665e-07,-6.882594631942168e-07,4.930736527109825e-08,5.639056566273089e-08,-5.158922343260811e-07,2.955930116385453e-07
-7.759008466270121e-07,1.9457415500421453e-07,-6.693471543062905e-07,1.444896777549643e-06,-3.0499917455157654e-07,-6.052127239770108e-07,-8.389648485775557e-07,9.50613924504532e-07,5.522960733516204e-07,-5.877645565014103e-07,1.5656572864469555e-06,-7.170597624678966e-07,6.504112377283166e-07,-7.089544561636835e-07,5.6698449901059074e-08,5.799181256164877e-08,-5.059634042290076e-07,2.998622452225633e-07
-7.350043145430162e-07,1.8577937371468518e-07,-6.321925928497217e-07,1.5166599570213278e-06,-3.0094157195739057e-07,-6.114479455112495e-07,-8.98366303188396e-07,9.560735592076569e-07,5.467977937401806e-07,-5.739317131590068e-07,1.6247505570946557e-06,-7.489048822109466e-07,6.653670453484912e-07,-7.208245450469719e-07,6.894681488912755e-08,6.287617899285316e-08,-4.913180707364739e-07,3.030659633058353e-07
-6.969394579570285e-07,1.745420254175536e-07,-5.861306965543743e-07,1.542184722744208e-06,-2.8200742891302265e-07,-6.044848489673096e-07,-9.538156421221382e-07,9.69517961572276e-07,5.521332391851957e-07,-5.650991132821238e-07,1.6479063485785731e-06,-7.576840098404118e-07,6.64374613650929e-07,-7.225534246906007e-07,8.661046476869608e-08,7.030996521280298e-08,-4.725348641748713e-07,3.062000527345051e-07
-6.622406185024974e-07,1.6864450981176512e-07,-5.358509830780384e-07,1.533537144559579e-06,-2.5292241606381344e-07,-5.876302530843842e-07,-1.0027339346549826e-06,9.935110573161712e-07,5.664674458212945e-07,-5.616154632083525e-07,1.6385059933957127e-06,-7.468753022926924e-07,6.493903825110827e-07,-7.147156721841036e-07,1.0860438549721861e-07,7.829818522574295e-08,-4.5121672353674716e-07,3.096272450966888e-07
-6.309968581201928e-07,1.751778642308604e-07,-4.817122885373501e-07,1.5067448385966798e-06,-2.2020708379891088e-07,-5.652725947289628e-07,-1.0417345862696686e-06,1.0309182806295496e-06,5.863196873409656e-07,-5.626801462575896e-07,1.6067091527456981e-06,-7.222111421109563e-07,6.256639755935078e-07,-6.989380636021469e-07,1.3321102674138896e-07,8.55836674582792e-08,-4.287104573680409e-07,3.13484899164241e-07
-6.020695364790391e-07,2.0045640417643902e-07,-4.260051890247054e-07,1.4775601252237075e-06,-1.8916203833037653e-07,-5.417548293353087e-07,-1.0673749070663084e-06,1.083243315065513e-06,6.077378795206114e-07,-5.667261407256824e-07,1.5616562884391392e-06,-6.905774514251047e-07,5.996848780612665e-07,-6.776096146470824e-07,1.5857387188788665e-07,9.218616014398218e-08,-4.0569051164094425e-07,3.1763677407992426e-07
-5.740174500506561e-07,2.4413130469254713e-07,-3.710191256081733e-07,1.458088454353956e-06,-1.6275773617960656e-07,-5.206352879150272e-07,-1.0782464566117518e-06,1.1482151618230406e-06,6.268626966222589e-07,-5.72169035686228e-07,1.5146641575375982e-06,-6.584765032093477e-07,5.762993691695466e-07,-6.538539685336836e-07,1.8267117410517685e-07,9.864389676169206e-08,-3.825769128293263e-07,3.213730480574674e-07
-5.458885597813073e-07,2.995052850997374e-07,-3.1809953319956586e-07,1.4562869338808739e-06,-1.4222686862765246e-07,-5.040372615270903e-07,-1.0763539164708524e-06,1.2189602321372332e-06,6.402574869782614e-07,-5.77737150395432e-07,1.475755091224826e-06,-6.307420400401515e-07,5.575643576218364e-07,-6.30663406474514e-07,2.0365872172770827e-07,1.0541131752864128e-07,-3.595030745525881e-07,3.237125604148258e-07
-5.172429198355313e-07,3.538762379461948e-07,-2.7052957365032105e-07,1.474408400420552e-06,-1.2789895752734527e-07,-4.92110271915315e-07,-1.066287799048341e-06,1.2859848198375336e-06,6.455440716566734e-07,-5.821241984771584e-07,1.4514935027591799e-06,-6.09504012233477e-07,5.430347351170872e-07,-6.093869260364617e-07,2.205752206981574e-07,1.1295625933314447e-07,-3.3570008355470806e-07,3.2429686677799317e-07
-4.873532139182754e-07,3.9381319041287534e-07,-2.2956253005911458e-07,1.509820871694234e-06,-1.193720743540209e-07,-4.831349845700794e-07,-1.053137865006806e-06,1.3407931711367736e-06,6.420444386813194e-07,-5.836933069526173e-07,1.4347856259845774e-06,-5.943889775628857e-07,5.308533639756805e-07,-5.892921944029757e-07,2.3351548403145083e-07,1.2181380943379993e-07,-3.0961479738741827e-07,3.237671243117984e-07
-4.5495260524852974e-07,4.12963480081057e-07,-1.9484126556969165e-07,1.5575107486360488e-06,-1.1541723915374482e-07,-4.745581025578157e-07,-1.0412901969216014e-06,1.37857319926596e-06,6.306807381021362e-07,-5.808461853702693e-07,1.425810861605517e-06,-5.839715447270215e-07,5.192693504715237e-07,-5.69115141418986e-07,2.4293298864293915e-07,1.320214330132415e-07,-2.7895144527047434e-07,3.230460919173811e-07
-4.194108662353744e-07,4.129821104595623e-07,-1.6340073345178358e-07,1.609839912843365e-06,-1.1402056397460155e-07,-4.6437625087992343e-07,-1.034551883114481e-06,1.3984623739134569e-06,6.131619687135999e-07,-5.72779925933368e-07,1.425145413788323e-06,-5.771781153458199e-07,5.075206394683684e-07,-5.491074549616945e-07,2.4891320217270016e-07,1.42522614146773e-07,-2.451989327694558e-07,3.224015442471583e-07
-3.8162720179122694e-07,4.015952771200551e-07,-1.3501907685389977e-07,1.6588328525185924e-06,-1.1246272948545133e-07,-4.519379954017426e-07,-1.0360087688607718e-06,1.4032240398588711e-06,5.912769955327323e-07,-5.598859724413614e-07,1.4283119388032734e-06,-5.733489269397893e-07,4.952011582175125e-07,-5.313695472458226e-07,2.5128517556988773e-07,1.514839368421131e-07,-2.1100181425260909e-07,3.21333038021572e-07
-3.4361080560781533e-07,3.9002719658147006e-07,-1.1140485302323354e-07,1.699486419957282e-06,-1.0764868088572453e-07,-4.378909059773639e-07,-1.0467314253864868e-06,1.3983500674035132e-06,5.668331213091331e-07,-5.433524820753986e-07,1.437916268892465e-06,-5.712262307624948e-07,4.814763884960281e-07,-5.183097501361333e-07,2.5029471064793567e-07,1.573449273260315e-07,-1.8186982815783277e-07,3.190935793381392e-07
-3.068253804302607e-07,3.8598780588543023e-07,-9.057572767120274e-08,1.7316459257598691e-06,-9.709919217798949e-08,-4.238284766517367e-07,-1.0646446759017507e-06,1.3907075595500993e-06,5.418845937071198e-07,-5.246878008435729e-07,1.4593937511093139e-06,-5.684960611936751e-07,4.6808233626866027e-07,-5.111156148937607e-07,2.468896090296487e-07,1.593187353358188e-07,-1.588368964643852e-07,3.150068603945155e-07
-2.713326434546246e-07,3.952486947311676e-07,-7.008848191945639e-08,1.7594686310409118e-06,-8.028398100288591e-08,-4.1215044765218824e-07,-1.0851692577504318e-06,1.385850202416205e-06,5.185781972237809e-07,-5.056555399869973e-07,1.4739040519432364e-06,-5.637475149504277e-07,4.578110233697865e-07,-5.095412088141359e-07,2.4227266454354447e-07,1.56752970441707e-07,-1.430071542245115e-07,3.08383267045434e-07
-2.3630790530762908e-07,4.201358771214729e-07,-4.763787485730538e-08,1.789106686088367e-06,-5.924404858630108e-08,-4.0581915151678513e-07,-1.1034251894998455e-06,1.3851307043103021e-06,4.985605420396121e-07,-4.884866840370173e-07,1.4741261173429765e-06,-5.567327211225378e-07,4.5186259833043817e-07,-5.124194591921552e-07,2.3732558090091126e-07,1.4849210153621407e-07,-1.34407420872609e-07,2.9846735961076587e-07
-2.010635612325938e-07,4.587022394186308e-07,-2.203895507567003e-08,1.8251585030565249e-06,-3.772132073641486e-08,-4.0732393858395533e-07,-1.1162883221247353e-06,1.3857731923162458e-06,4.826767881915981e-07,-4.756673374051293e-07,1.4631034772183435e-06,-5.484121025059538e-07,4.5055200440867485e-07,-5.17866143281036e-07,2.3255796589335352e-07,1.3362227798725655e-07,-1.3435373372107208e-07,2.8467367896792617e-07
-1.6572744837771237e-07,5.069558050786397e-07,5.55644158439033e-09,1.8681044913612865e-06,-1.9100092883636015e-08,-4.1708499683010075e-07,-1.123003660654669e-06,1.3837730442882538e-06,4.712244014226304e-07,-4.6900297133155824e-07,1.4541276770396715e-06,-5.399218316552003e-07,4.52422429916084e-07,-5.232776100569409e-07,2.2865638110981884e-07,1.1321763354142173e-07,-1.462879877753468e-07,2.670240935384578e-07
-1.3094587200758513e-07,5.59891342350179e-07,3.5591686792235624e-08,1.9136778661050596e-06,-4.613750049703189e-09,-4.3263179857447986e-07,-1.1247679395588504e-06,1.3761827229388046e-06,4.638833018305941e-07,-4.68896028705352e-07,1.463283655338607e-06,-5.311519607899085e-07,4.5466955311503295e-07,-5.258494420685639e-07,2.27122568148399e-07,9.127574611744962e-08,-1.6557190721575126e-07,2.466365800274875e-07
-9.795709633039776e-08,6.141365713330096e-07,6.605278391397621e-08,1.9534971790618457e-06,6.56992368848275e-09,-4.4938541712308937e-07,-1.1243745336905523e-06,1.3619311840960862e-06,4.5882724432797015e-07,-4.7480269142055817e-07,1.4872363244248084e-06,-5.208530888091856e-07,4.531736674487208e-07,-5.234737420082686e-07,2.303475042347744e-07,7.357462183955081e-08,-1.87151817824078e-07,2.2598788902746125e-07
-6.91936392285808e-08,6.681718906195403e-07,9.430026523873354e-08,1.9765251957646332e-06,1.5365213608236318e-08,-4.6227743976854233e-07,-1.1257444721444647e-06,1.3415882550057588e-06,4.520684328782582e-07,-4.864679516854675e-07,1.5026517773483858e-06,-5.068913431463883e-07,4.438830112626542e-07,-5.150183979150909e-07,2.408300868704506e-07,6.491367835081772e-08,-1.8526927248303295e-07,2.0859388686664134e-07
-4.8889384338873e-08,7.209001867453342e-07,1.1580550228167484e-07,1.970801223591286e-06,2.0844265046626205e-08,-4.670013680037473e-07,-1.132325444438839e-06,1.3175439905633498e-06,4.385241461965991e-07,-5.044117934183215e-07,1.4986942861523935e-06,-4.866158413486406e-07,4.2209014881400004e-07,-4.996574666246206e-07,2.599729530064354e-07,6.655001993277215e-08,-1.4282738035365954e-07,1.9827503205193151e-07
-4.242916030489185e-08,7.685490930339257e-07,1.2430317859810527e-07,1.9255823680993072e-06,2.0309171777036882e-08,-4.607284541560965e-07,-1.1449317159822946e-06,1.2944243952151965e-06,4.147962530290743e-07,-5.291077257818024e-07,1.4977023922482328e-06,-4.5679252676956417e-07,3.857071682253622e-07,-4.7618444725865565e-07,2.8728202845859863e-07,7.549832325750989e-08,-3.973771701140788e-08,1.9866545310567857e-07
-5.3736678717756314e-08,8.050171015613347e-07,1.1604487408733182e-07,1.8358604671170222e-06,1.1185013383776439e-08,-4.4286192984205323e-07,-1.1614627862533127e-06,1.2777917121345942e-06,3.816194768436039e-07,-5.598709890706353e-07,1.4091321393440635e-06,-4.139044618711983e-07,3.365100110151467e-07,-4.4330108165937e-07,3.2031110806071763e-07,8.585171727651798e-08,5.53950424029488e-08,2.13064324026975e-07
-8.312995690921758e-08,8.239717837620275e-07,9.123913587235653e-08,1.7063676823904542e-06,-7.229649519834592e-09,-4.1592713034194096e-07,-1.179501929037793e-06,1.2714805909430714e-06,3.437320377666536e-07,-5.94560799776101e-07,1.2746162598690785e-06,-3.555937602312136e-07,2.7413274537029394e-07,-4.008062544206734e-07,3.5501774945773353e-07,9.103962072949857e-08,1.2485892277558373e-07,2.438817563381453e-07
-1.272169215173315e-07,8.204092829444583e-07,5.444120303399765e-08,1.5518667855757698e-06,-3.352447563100645e-08,-3.8582089784665313e-07,-1.19927796692771e-06,1.2757976543141093e-06,3.072479508191713e-07,-6.300681951135442e-07,1.1199372207060697e-06,-2.821458898518634e-07,2.0037802487385303e-07,-3.5073011042004035e-07,3.8629242376500305e-07,8.60959377133191e-08,1.7606138963327308e-07,2.912336633990376e-07
-1.802640093652679e-07,7.924716319139589e-07,1.232548302576905e-08,1.3940970944985197e-06,-6.490119121318328e-08,-3.6058116932940616e-07,-1.2239051471074406e-06,1.28778325444345e-06,2.7689661946168046e-07,-6.62881553745643e-07,9.111297094732134e-07,-1.971001656720138e-07,1.196809030245948e-07,-2.973286255297572e-07,4.0889991216887287e-07,6.959393220064892e-08,2.276480930633988e-07,3.5142332937684756e-07
-2.3528238075803967e-07,7.428235878894687e-07,-2.7355330993896498e-08,1.2560396225252679e-06,-9.784016339391388e-08,-3.4790706135614223e-07,-1.2570091311095952e-06,1.302327296122042e-06,2.550693380437943e-07,-6.895676779090867e-07,7.000986176736586e-07,-1.0646341352787854e-07,3.3819543513226214e-08,-2.45616034122613e-07,4.188983459157079e-07,4.464816807458897e-08,2.8366181505033997e-07,4.1657982514707905e-07
-2.8495638602225965e-07,6.826439998353904e-07,-5.7989838318141604e-08,1.1560544388406441e-06,-1.287438222827715e-07,-3.528371455142737e-07,-1.3003637508689066e-06,1.31373996546813e-06,2.4235794110961247e-07,-7.075980167703756e-07,5.413529948314048e-07,-1.7131260166463534e-08,-3.8772205182576655e-08,-1.994784743788259e-07,4.14884526692049e-07,1.7992137475787235e-08,3.367762935652088e-07,4.7604789340109854e-07
-3.2312560112347066e-07,6.220466818127374e-07,-7.55284462641555e-08,1.1036497526277344e-06,-1.5480407620747267e-07,-3.767354653649128e-07,-1.353272937309468e-06,1.316949419518676e-06,2.3807786090757184e-07,-7.163469942937729e-07,4.667280771240121e-07,6.427108409436725e-08,-8.371492807394336e-08,-1.6089667165601043e-07,3.9834433284299667e-07,-2.9506143653160594e-09,3.753013852297052e-07,5.191566767479263e-07
-3.466140978906905e-07,5.778487105142487e-07,-7.912143563701743e-08,1.0978501714584855e-06,-1.744526723596408e-07,-4.1731296439964314e-07,-1.4130883830455161e-06,1.3083396869763363e-06,2.401569977523242e-07,-7.173745859888119e-07,4.7292394623811695e-07,1.3251621651242254e-07,-1.1444659661919036e-07,-1.3052271158603824e-07,3.731172961394639e-07,-1.3323459855765344e-08,4.1910075125044145e-07,5.384203442187884e-07
