0,1,2,3,4,5,6,7,8,9,10,11,12,13,14,15,16,17
1.8430396708167898e-07,5.3841729793894954e-08,-1.5558721131645037e-07,-1.735469288760406e-08,8.994568165580974e-08,1.6476271818048844e-07,7.39673856940465e-07,-4.842244100953221e-08,3.888193259399042e-07,2.2865946381243805e-07,-2.705121209881066e-07,-5.998329099903789e-08,-7.622083996711234e-08,3.122128524861088e-08,5.313790455244021e-07,-8.61909645204386e-08,1.7755335517462007e-07,1.3959699883853358e-07
2.0267965950340618e-07,4.559806455237708e-08,-1.2087627256934483e-07,-4.679578486347158e-09,5.0266195776990364e-08,1.4034714537845763e-07,6.276463202107956e-07,-4.2784899869699866e-08,3.4436016979548715e-07,1.5874109938669814e-07,-2.3435672317458777e-07,-2.7847785013081352e-08,-9.020119824786056e-08,1.903500690642836e-08,4.885983298322866e-07,-8.331630659127577e-08,1.5482833931317675e-07,1.1548383319570385e-07
2.0924787421281273e-07,3.337463934886691e-08,-8.57964783105979e-08,2.623340107186936e-09,1.9810725454244446e-08,1.1758593625411597e-07,5.278814923003946e-07,-3.020757075067149e-08,2.925674923727924e-07,1.1523924506762683e-07,-1.932682407815995e-07,-4.24511819453189e-09,-1.0160521580773548e-07,1.7968011056116865e-08,4.4284264799637887e-07,-7.224061968021954e-08,1.479699658804963e-07,9.761447943961389e-08
2.0037103262172226e-07,1.773206718450275e-08,-7.004321787232036e-08,4.1230316437843706e-09,8.673727436817754e-09,9.625105343935591e-08,4.338428945900473e-07,-1.743752415657827e-08,2.3802075506018203e-07,8.29238993463728e-08,-1.4965282601888836e-07,4.036758403708946e-09,-1.0717469329688599e-07,2.4753725307705172e-08,3.85408977571082e-07,-5.547084237881012e-08,1.209289181613378e-07,8.190387510748566e-08
1.7609488250858946e-07,-1.011837218774767e-09,-4.8608356302817086e-08,6.117329581170034e-10,2.5258410308768714e-08,7.442306497188781e-08,3.411211855304174e-07,-3.6613465572336805e-09,1.752796535967747e-07,5.794861952546735e-08,-1.0517163226563874e-07,1.114126425815972e-08,-1.0428662405303772e-07,3.476040179551259e-08,3.073334294206834e-07,-3.566128822220819e-08,8.686845472714257e-08,6.518252631389274e-08
1.3798437486637109e-07,-2.2289484406776354e-08,-2.4974248192490562e-08,-6.2073752872437825e-09,3.088171773946268e-08,5.125187540086665e-08,2.5120666109649097e-07,1.429035532382257e-08,1.1102592500391845e-07,4.2267401351070185e-08,-6.15840711033028e-08,1.666143198989262e-08,-9.249942037885612e-08,4.222601401404171e-08,2.052323645071824e-07,-1.548808159343675e-08,5.378350392615101e-08,4.5723738458958366e-08
8.502457823616644e-08,-4.481027748959816e-08,-8.031787168597696e-09,-1.4674805661751e-08,2.5425923967055945e-08,2.634413841141833e-08,1.4164269509665284e-07,2.9127077004070028e-08,4.908990260864787e-08,2.4557438975397005e-08,-2.1209410972233013e-08,2.0016754455640642e-08,-7.415079545523482e-08,4.130418550524866e-08,8.759721127926842e-08,2.6351247670051916e-09,1.8755156414014982e-08,2.324921991642964e-08
2.0957386969008025e-08,-6.535262529448946e-08,7.010284650827803e-09,-2.3474718403599235e-08,1.8600470644776864e-08,-4.948345376015369e-10,1.9806061458934596e-08,3.7420380121302505e-08,-1.2150074501721004e-08,6.621497297164271e-09,1.3996311675848467e-08,1.4802074424225393e-08,-5.1879475867861e-08,2.8899446995867915e-08,-2.096181787033437e-08,1.690819088671862e-08,-1.5119441701689905e-08,-1.2098461679834346e-09
-4.76998887097621e-08,-7.898390603353003e-08,1.4928481827346165e-08,-3.100699616476381e-08,5.0146952726408484e-09,-2.819842608944556e-08,-1.0490792450252812e-07,3.8426231812689355e-08,-7.061833414649173e-08,-1.2287609781584215e-08,4.3672303954610085e-08,3.871926118496832e-09,-2.8500561277822612e-08,6.547630038935929e-09,-1.2615647811147827e-07,2.6563224243560396e-08,-4.73845131013638e-08,-2.5711773399275988e-08
-1.1414466179245296e-07,-8.082442247361112e-08,2.0368871732239413e-08,-3.51050266298274e-08,-1.5361029445216055e-08,-5.480830013481719e-08,-2.1420021917762074e-07,3.1831142229953406e-08,-1.304927988588496e-07,-3.2778015676200383e-08,6.888937538327077e-08,-7.903381075680958e-09,-5.2992020067518765e-09,-2.066448457340773e-08,-2.2006196396785097e-07,3.199271151558959e-08,-7.578645704677049e-08,-4.830573922369594e-08
-1.6899199453680571e-07,-6.854729851161437e-08,2.7699393070736236e-08,-3.3542276623540835e-08,-3.554336073553554e-08,-7.820290759337064e-08,-3.0879034007849244e-07,1.7853282477387887e-08,-1.8553294608895197e-07,-6.000368889983041e-08,9.119907199948153e-08,-1.728317356853876e-08,1.8667578705739365e-08,-4.610715324274247e-08,-2.935681245274201e-07,3.456082452012824e-08,-9.807440692715504e-08,-6.759883986324841e-08
-2.0304386431596667e-07,-4.30507058328431e-08,4.143702085005248e-08,-2.4404170337634287e-08,-5.551755223689211e-08,-9.658614338544072e-08,-3.90601399475699e-07,3.679373074561444e-09,-2.2872958993070437e-07,-8.770465354201232e-08,1.1239049383559835e-07,-1.9407409543086144e-08,4.6700701016161153e-08,-6.267246380629882e-08,-3.481675722666324e-07,3.624868247251559e-08,-1.120270197467936e-07,-8.235789836432534e-08
-2.1124858158052343e-07,-6.927247478561058e-09,6.059118335075994e-08,-6.0488284041162575e-09,-6.105621847921899e-08,-1.081336172252086e-07,-4.5673580838623314e-07,-7.890311067806327e-09,-2.547742389865773e-07,-1.1200646257848749e-07,1.345704707356891e-07,-1.2710220523490942e-08,8.339651855415583e-08,-6.437985029844659e-08,-3.7802874277862285e-07,3.9021949738070064e-08,-1.1712780270562848e-07,-9.112170718313793e-08
-1.9410002432373912e-07,3.6985174525423146e-08,8.428734992404549e-08,2.247886217053333e-08,-5.700055334709593e-08,-1.1117651998453382e-07,-5.082025570615928e-07,-1.4362606740158361e-08,-2.5991989961453036e-07,-1.3117125250357603e-07,1.5961291689035593e-07,2.8365155225727434e-09,1.317922553186093e-07,-4.9206028212780863e-08,-3.788265264168956e-07,4.4241189857316936e-08,-1.1337515870179648e-07,-9.263602912051263e-08
-1.5898935982061444e-07,8.609119158691048e-08,1.1277187932570752e-07,6.059224934473106e-08,-3.8805391366561685e-08,-1.0474442267496091e-07,-5.4211713073948e-07,-1.1250217244189796e-08,-2.447314487827384e-07,-1.407647282621309e-07,1.8869300178752098e-07,2.5154423244072055e-08,1.916216234299219e-07,-2.0235631211954757e-08,-3.5711560263367953e-07,5.2429318242870566e-08,-1.0104587004051022e-07,-8.651343228721279e-08
-1.1844538091989091e-07,1.3817493774782272e-07,1.4482310700090377e-07,1.0606925266207511e-07,-1.0593442646044823e-08,-8.862076041121189e-08,-5.57265787802553e-07,3.3890753520845032e-09,-2.1221389346714183e-07,-1.4024225351841223e-07,2.2273107904198134e-07,5.085923050067877e-08,2.5963934933457085e-07,1.654990447716547e-08,-3.2550517755837167e-07,6.376688674260784e-08,-8.074702362523168e-08,-7.329940566122464e-08
-8.6127271713541e-08,1.9165099618444768e-07,1.812779637477697e-07,1.5587383151510443e-07,1.7610603325856937e-08,-6.332599715840871e-08,-5.56008069024324e-07,3.17033638161033e-08,-1.7445484048261194e-07,-1.297624260258404e-07,2.6271317714597764e-07,7.69593293804472e-08,3.318949373317866e-07,5.522779780386259e-08,-2.899529403425049e-07,7.885608198241129e-08,-5.322936186692802e-08,-5.431510128041824e-08
-7.307293067820916e-08,2.4540501085972285e-07,2.2358919503373255e-07,2.0689152081962776e-07,4.8439219730130226e-08,-3.035242954211878e-08,-5.422121751859884e-07,7.415747183253064e-08,-1.423054693404875e-07,-1.1175736192014232e-07,3.0885822459745235e-07,1.0099974372906665e-07,4.044830090826435e-07,9.131862153861075e-08,-2.5662920864888153e-07,9.892642351760642e-08,-1.995131990801639e-08,-3.1607360287727466e-08
-8.536494554165572e-08,2.988268779408135e-07,2.7289623619797587e-07,2.5639334974760897e-07,8.166454589587385e-08,7.675046468945278e-09,-5.197116870993769e-07,1.295141772179931e-07,-1.19889315265486e-07,-9.15206318584757e-08,3.5972239755128394e-07,1.214055741724104e-07,4.726430490742808e-07,1.2248426459904148e-07,-2.28773879365355e-07,1.2533775032630782e-07,1.6672879830972955e-08,-7.472276214181807e-09
-1.2325334955850438e-07,3.52361600618631e-07,3.297003404716219e-07,3.026833920777327e-07,1.1777232890443505e-07,4.757682144445423e-08,-4.899011952268197e-07,1.9289892704125994e-07,-1.1226476631629285e-07,-7.41690096825458e-08,4.1256186734990627e-07,1.382094490857251e-07,5.303053072192096e-07,1.4910966030919855e-07,-2.044207022680743e-07,1.5866178550374832e-07,5.374211474172981e-08,1.6397458387053298e-08
-1.817808255817029e-07,4.0754979564495446e-07,3.9306527591043916e-07,3.456099538638366e-07,1.560495211547879e-07,8.628879545102945e-08,-4.511793540762426e-07,2.6006770622419174e-07,-1.166333347629077e-07,-6.244441768102053e-08,4.6429650216530564e-07,1.529017960072072e-07,5.707949850840984e-07,1.7381574284880977e-07,-1.807414611609915e-07,1.9804496077234506e-07,8.840466794107569e-08,3.9312927601502265e-08
-2.523922171806242e-07,4.660774836432581e-07,4.6015178590545516e-07,3.8623695181683405e-07,2.0207275238505926e-07,1.2102394641567562e-07,-3.999104256356489e-07,3.2680877498362437e-07,-1.2842877837603158e-07,-5.624534937958718e-08,5.121032136907065e-07,1.6771074836530786e-07,5.886586445725322e-07,2.0041163167927105e-07,-1.4887266251374253e-07,2.413733473909454e-07,1.183257664979106e-07,6.13651754093311e-08
-3.251828293380139e-07,5.290507395772433e-07,5.267107570462257e-07,4.262049855520916e-07,2.5580826578835576e-07,1.4978652471633297e-07,-3.3238793357782146e-07,3.887395361357432e-07,-1.4420712362213994e-07,-5.286264846879164e-08,5.539412020986961e-07,1.854931368376611e-07,5.815492789778127e-07,2.3350852169627163e-07,-1.050824608312709e-07,2.862781778446397e-07,1.42353873602093e-07,8.31273102872669e-08
-3.8997023485773345e-07,5.97228864725391e-07,5.887187602413462e-07,4.6741807518078356e-07,3.1868913472154373e-07,1.7216406440006414e-07,-2.463071359003916e-07,4.437756913892143e-07,-1.601148589912449e-07,-4.7678251665768395e-08,5.89055275784204e-07,2.095547920255196e-07,5.516322430123415e-07,2.7776372088468156e-07,-5.108493977840859e-08,3.3163927467292605e-07,1.6088305550830046e-07,1.0526821720457776e-07
-4.3782580533111505e-07,6.711512645069436e-07,6.43925737490463e-07,5.116919408792025e-07,3.9319532147055377e-07,1.8954929710358556e-07,-1.4180856066149566e-07,4.913425636472852e-07,-1.7183923383298298e-07,-3.601382820826521e-08,6.177778412819794e-07,2.4248456190031133e-07,5.063833820949e-07,3.357025395839944e-07,1.679556458945001e-08,3.7848203262889644e-07,1.7551781586765914e-07,1.2804866818019977e-07
-4.6281369400145087e-07,7.499293728737582e-07,6.922582528413634e-07,5.601616446157236e-07,4.776022250162443e-07,2.04587677901196e-07,-2.2919243033584277e-08,5.31824884935737e-07,-1.7379036331930674e-07,-1.5137402084968854e-08,6.408359206002935e-07,2.851883519590376e-07,4.588346348302491e-07,4.060730108041655e-07,9.79568048266588e-08,4.298727838013487e-07,1.887292504138007e-07,1.5100452420378074e-07
-4.6272215219902953e-07,8.306293603603752e-07,7.353624328335171e-07,6.130719734839647e-07,5.6966309937779e-07,2.2071482491038746e-07,1.0213716615552984e-07,5.661476080212981e-07,-1.622723573341502e-07,1.5112705468335104e-08,6.58921474350988e-07,3.370657186505502e-07,4.266452781863701e-07,4.846179271921946e-07,1.8943139471590833e-07,4.897334117348918e-07,2.0391491395487095e-07,1.7310316486149786e-07
-4.391287841689182e-07,9.093467342753662e-07,7.758638887435121e-07,6.700668177555639e-07,6.670841955291911e-07,2.4189635975319196e-07,2.2252733739364855e-07,5.955650117367408e-07,-1.3224909308083791e-07,5.2671056837514494e-08,6.72335734963465e-07,3.9625038002335537e-07,4.28867998627298e-07,5.660329971693425e-07,2.880314163216083e-07,5.609195601624545e-07,2.252319034115169e-07,1.9293081141630764e-07
-3.9745354531383545e-07,9.826184546002373e-07,8.165348476665828e-07,7.302615230119534e-07,7.623222633940324e-07,2.7166735289419106e-07,3.282222721881963e-07,6.215709029796173e-07,-8.128989118305013e-08,9.372103646618154e-08,6.804111151817925e-07,4.594886537820444e-07,4.804910981533527e-07,6.454719558901147e-07,3.869141472859629e-07,6.432828276132371e-07,2.569276002944495e-07,2.0857016664083086e-07
-3.466975030222832e-07,1.0483240813153876e-06,8.596365618816458e-07,7.921788650458409e-07,8.541231452955533e-07,3.1166873282263135e-07,4.135593705362959e-07,6.460356168787627e-07,-1.1566666710494114e-08,1.3381069751259633e-07,6.814396118506533e-07,5.227348500113367e-07,5.867141109631901e-07,7.195783372162693e-07,4.76641892708095e-07,7.32273968226725e-07,3.0258611145043633e-07,2.1766857654663953e-07
-2.9805590456267597e-07,1.106241783895882e-06,9.066342657654789e-07,8.540481056524482e-07,9.391164322608315e-07,3.606701697400422e-07,4.7613089292470843e-07,6.713960482721856e-07,7.080313644459385e-08,1.6949543075639626e-07,6.735745337432707e-07,5.822799286197221e-07,7.394541333114848e-07,7.866825698260627e-07,5.491119314411448e-07,8.187046289036289e-07,3.642482069040763e-07,2.1803010435685054e-07
-2.622380783853363e-07,1.1582169975915158e-06,9.57991768418845e-07,9.140814917709026e-07,1.012610815043237e-06,4.1455424870878803e-07,5.178913119008738e-07,7.000866335969322e-07,1.556234925131064e-07,1.9915707980629266e-07,6.561176608598437e-07,6.352221668651453e-07,9.185367432412412e-07,8.456846685443885e-07,5.98100126023378e-07,8.900563517528772e-07,4.4123007522849767e-07,2.0843633389902332e-07
-2.4622901853633865e-07,1.207449944205535e-06,1.0128174934954057e-06,9.705458982607929e-07,1.073169841300165e-06,4.6728787130027133e-07,5.42880654905643e-07,7.332928085031826e-07,2.3472269511212425e-07,2.229380310060275e-07,6.306904694592915e-07,6.796819768162279e-07,1.0979315968073132e-06,8.951397640223516e-07,6.182103901364254e-07,9.334519271067978e-07,5.292629921863601e-07,1.8929132125746874e-07
-2.512067879035709e-07,1.2545216445863697e-06,1.0689446917300169e-06,1.022024517082513e-06,1.119074373104078e-06,5.128338978728546e-07,5.547440535113546e-07,7.701764795862577e-07,3.029569825253976e-07,2.427004207274035e-07,6.018547609463012e-07,7.155127416011573e-07,1.2538757099669517e-06,9.338369267666691e-07,6.09606994906782e-07,9.393619264760933e-07,6.205695484487628e-07,1.6309843953528859e-07
-2.724305779536044e-07,1.3021402950275842e-06,1.1234201313449836e-06,1.067829324047984e-06,1.151543556479713e-06,5.471069508178157e-07,5.574492137086825e-07,8.080032088723574e-07,3.579531825289815e-07,2.615164339310469e-07,5.762302891902668e-07,7.44569907002016e-07,1.370277635155069e-06,9.614826366117993e-07,5.785908276990607e-07,9.044536086953344e-07,7.048597335876949e-07,1.3408321545191279e-07
-3.0107617587724946e-07,1.3508483222522068e-06,1.172784327083629e-06,1.1078736529095388e-06,1.1746707626832593e-06,5.687664778647238e-07,5.554141102356043e-07,8.426428084646023e-07,4.013997471208321e-07,2.8216093909383907e-07,5.601109891448514e-07,7.698650173231088e-07,1.4397227336052943e-06,9.78172714419517e-07,5.360214466466129e-07,8.327394280627284e-07,7.713173906428257e-07,1.0724803558249998e-07
-3.271288679137192e-07,1.400783049741775e-06,1.2133164361479155e-06,1.1420819654476228e-06,1.193869103217861e-06,5.788755164050127e-07,5.534767198410311e-07,8.696085894178715e-07,4.3508471481625357e-07,3.059263523103028e-07,5.572609381181229e-07,7.944799452186052e-07,1.4619555152579383e-06,9.839706947804155e-07,4.957747359181358e-07,7.349551915794708e-07,8.114587838759453e-07,8.746513052890769e-08
-3.422210277889096e-07,1.448595519433128e-06,1.2417229073840787e-06,1.1700769774127154e-06,1.2118879060204331e-06,5.801237560041094e-07,5.565711208083224e-07,8.856648949073579e-07,4.6041666666024065e-07,3.3265527697855184e-07,5.681659594571874e-07,8.20604028139087e-07,1.4418926141364596e-06,9.794873667567865e-07,4.7112683542584366e-07,6.26211978766563e-07,8.216671157046638e-07,7.865059288588096e-08
-3.4162658510603346e-07,1.4878334044684368e-06,1.2558498494769155e-06,1.1912459061228522e-06,1.2302531569654564e-06,5.756885230518031e-07,5.697069020844736e-07,8.897104706089383e-07,4.789344971790379e-07,3.61038599548438e-07,5.904537158114074e-07,8.484024121856007e-07,1.3879579469951036e-06,9.664141091131033e-07,4.715317719606677e-07,5.222406672493018e-07,8.041089322837721e-07,8.297115099723333e-08
-3.2505290707586596e-07,1.519870046520863e-06,1.254837473202215e-06,1.2048597319393661e-06,1.247869670326374e-06,5.677791844232905e-07,5.961312282416177e-07,8.826887758484251e-07,4.91749382009457e-07,3.88784445494571e-07,6.198608193541397e-07,8.756481215492652e-07,1.310718605972659e-06,9.476645352633033e-07,5.007349253609617e-07,4.3538984980352205e-07,7.659950522348409e-07,1.0020425739717745e-07
-2.9756889431091366e-07,1.5431669525577567e-06,1.2391594547406084e-06,1.2105447044569574e-06,1.2604388267415459e-06,5.570410989130059e-07,6.360673050402375e-07,8.670542714597633e-07,4.995915881892484e-07,4.1328613791899865e-07,6.514299265278803e-07,8.989086618846797e-07,1.2214440338355305e-06,9.272980436350513e-07,5.565781628438399e-07,3.7193780522576246e-07,7.176626405979495e-07,1.2780415637464723e-07
-2.658934487137006e-07,1.5578428179678786e-06,1.2107973320066862e-06,1.2088924721812295e-06,1.2634237706020821e-06,5.43030119849676e-07,6.864839618186839e-07,8.460101630461881e-07,5.034268659671873e-07,4.3228940144226757e-07,6.805754994399203e-07,9.149453352813395e-07,1.130345423394878e-06,9.092912454929093e-07,6.319497572532408e-07,3.317194756505488e-07,6.696267806523415e-07,1.6150545828869298e-07
-2.3643147051359646e-07,1.5654292922241622e-06,1.1729059524709959e-06,1.2014077005100102e-06,1.2532086993516585e-06,5.249603788842676e-07,7.41448324999472e-07,8.225337473139679e-07,5.044690198041413e-07,4.438476464054614e-07,7.040041261804499e-07,9.21230543181391e-07,1.0452445065510558e-06,8.953778134368306e-07,7.164074690645433e-07,3.0996789420020915e-07,6.29474339258789e-07,1.9617517903509123e-07
-2.1402365646437912e-07,1.565786189258204e-06,1.1289217198266942e-06,1.1896985287739372e-06,1.227807706788775e-06,5.022430020987318e-07,7.938037799872118e-07,7.986467631937276e-07,5.027361794347753e-07,4.4659818180444086e-07,7.208262890187081e-07,9.165941299483399e-07,9.716383320213603e-07,8.84562623222343e-07,7.990370350625039e-07,3.003132443213161e-07,6.003541512042313e-07,2.2709304660206333e-07
-2.0047632044909904e-07,1.559828255785994e-06,1.082043538878176e-06,1.174942073533235e-06,1.1886366295062247e-06,4.7505279643860524e-07,8.374797574237492e-07,7.755413963634466e-07,4.971011946575608e-07,4.4094229018080736e-07,7.331952409856874e-07,9.022075614786917e-07,9.136758064938823e-07,8.750153791146053e-07,8.718189899926528e-07,2.975900234774596e-07,5.816021349409045e-07,2.5148879903252026e-07
-1.9519520215300879e-07,1.550628162041574e-06,1.0351933488369855e-06,1.1580394788938546e-06,1.1403372872182175e-06,4.4474689315800655e-07,8.690845817817373e-07,7.539523329104556e-07,4.853323819903823e-07,4.2943572800478433e-07,7.450298551332234e-07,8.811778476498711e-07,8.747264964960917e-07,8.65523520403145e-07,9.31253525667939e-07,2.9946932571722076e-07,5.702953278990945e-07,2.6936676182823314e-07
-1.964450414082233e-07,1.542189818869882e-06,9.907353999453566e-07,1.1397787097193597e-06,1.0893107902402887e-06,4.135841138113589e-07,8.888312488644258e-07,7.341163751716544e-07,4.650208525774534e-07,4.1552762995048457e-07,7.592027950230577e-07,8.566724158773188e-07,8.568675585109654e-07,8.550337172692124e-07,9.775962404813789e-07,3.064480211997572e-07,5.627894014486649e-07,2.828815292674291e-07
-2.0335567265449888e-07,1.534995660683029e-06,9.500192713191825e-07,1.120897627137629e-06,1.0424204079078696e-06,3.840622965282618e-07,8.99254113042979e-07,7.157222323765648e-07,4.3599217379038097e-07,4.0238365211537536e-07,7.75691504299692e-07,8.307239514240769e-07,8.601215895412182e-07,8.421668780138802e-07,1.01324584976931e-06,3.206376281755201e-07,5.561056733585791e-07,2.948727367395433e-07
-2.1537289504119976e-07,1.5286368404219608e-06,9.134133152275926e-07,1.1022144610008454e-06,1.0051458049214944e-06,3.5837238323821654e-07,9.040459176975557e-07,6.983447811380247e-07,4.016957521553674e-07,3.927198385677927e-07,7.919748823738981e-07,8.042168243440711e-07,8.819780587055614e-07,8.257219357373688e-07,1.0412624647856467e-06,3.4409644217764507e-07,5.486347392465173e-07,3.07425381601222e-07
-2.3250914249095493e-07,1.5221249018862184e-06,8.805701993934361e-07,1.0844994788472671e-06,9.806998280531534e-07,3.3786415817888926e-07,9.067349210864722e-07,6.816107884611727e-07,3.6804170108454043e-07,3.883514569586697e-07,8.044138740116391e-07,7.767432186861513e-07,9.172308364045298e-07,8.049740945874349e-07,1.0639024606760552e-06,3.772537993008464e-07,5.396794941672445e-07,3.2084275652103156e-07
-2.559376919296647e-07,1.5126267281048899e-06,8.504436674076268e-07,1.067915178323838e-06,9.68637768071681e-07,3.2248807079608573e-07,9.088023116128667e-07,6.647067861927066e-07,3.39874194214639e-07,3.892109949702419e-07,8.093853895666234e-07,7.465655190983896e-07,9.586536318888754e-07,7.797720385792267e-07,1.081722087111685e-06,4.181523415024859e-07,5.286868829994734e-07,3.3358861729286463e-07
-2.8537176774129843e-07,1.498288593997111e-06,8.204020667158238e-07,1.051774986023504e-06,9.64736843007481e-07,3.108842541034364e-07,9.090816200242292e-07,6.461945582007799e-07,3.1778918505706207e-07,3.932620346674803e-07,8.042211525315821e-07,7.116990373963154e-07,9.990028212767024e-07,7.513474131074139e-07,1.094001925387965e-06,4.6279287873246225e-07,5.152349164088084e-07,3.4323713681012553e-07
-3.1975886048390637e-07,1.478018170396331e-06,7.893457432002541e-07,1.0348600767047221e-06,9.629269200184373e-07,3.011554232639646e-07,9.047801334317437e-07,6.24545537891538e-07,2.9771732086932925e-07,3.9731688840415717e-07,7.877746857321675e-07,6.710764453553947e-07,1.0333983416996352e-06,7.223976249827494e-07,1.0997902139114068e-06,5.062887829987426e-07,4.994263643018488e-07,3.476379960812671e-07
-3.5674447901904723e-07,1.4530823899153066e-06,7.579710639626535e-07,1.0161318291663501e-06,9.57515313910599e-07,2.9134209277665216e-07,8.925265179835e-07,5.988382601525079e-07,2.733109588646282e-07,3.9756607460311274e-07,7.60107080496359e-07,6.245533047814442e-07,1.060465350218925e-06,6.950183828698928e-07,1.0984468577293055e-06,5.441049767072037e-07,4.820486060194499e-07,3.455392376417368e-07
-3.935360144546231e-07,1.4263552778905246e-06,7.250059818825127e-07,9.947028106425575e-07,9.441326163907287e-07,2.793469374573995e-07,8.689953819221098e-07,5.687408490125513e-07,2.3944642057932117e-07,3.901887913208187e-07,7.21818645727319e-07,5.728782782899202e-07,1.082124974234436e-06,6.688033564210987e-07,1.0898501147714973e-06,5.729482669803853e-07,4.649279440997664e-07,3.367931719211091e-07
-4.33156851449741e-07,1.398279199964238e-06,6.894118008031746e-07,9.702286606416468e-07,9.205183178082141e-07,2.633622476484843e-07,8.320450325937859e-07,5.349881305769888e-07,1.9496446678809448e-07,3.7285726718645784e-07,6.739504803147782e-07,5.185206183864028e-07,1.1026144370227562e-06,6.416338337326951e-07,1.0745130674124522e-06,5.912448997007247e-07,4.515876129021146e-07,3.224087330905967e-07
-4.6964527403549437e-07,1.3691602795567221e-06,6.509441058093349e-07,9.435646163832133e-07,8.87738311567978e-07,2.42720289200179e-07,7.816108572684618e-07,4.997403974680204e-07,1.4340992129091414e-07,3.4588757206173437e-07,6.181962710776643e-07,4.6577167042045857e-07,1.1266939504802556e-06,6.117121251716177e-07,1.0528074581369786e-06,5.992618441666068e-07,4.4706162978857e-07,3.0388567525118866e-07
-5.023611060476892e-07,1.3378338957510266e-06,6.092553827362372e-07,9.165389137961663e-07,8.496784484493644e-07,2.1805122018537875e-07,7.197360558284881e-07,4.6615871865995486e-07,9.144493248196473e-08,3.1174089752478586e-07,5.568589015567788e-07,4.1927536466865135e-07,1.1573060239371861e-06,5.787260166360197e-07,1.0234090488577621e-06,5.989759936225674e-07,4.563574557288271e-07,2.819633400981104e-07
-5.338754119775861e-07,1.3025726490876686e-06,5.686460529072364e-07,8.9072321458416e-07,8.11305208329296e-07,1.905497930381637e-07,6.50149361775735e-07,4.3777684502960913e-07,4.5858849198900696e-08,2.740448406932543e-07,4.930855241954185e-07,3.8286016213311343e-07,1.1940094678292692e-06,5.44856031047894e-07,9.82952468516826e-07,5.94011330884923e-07,4.826573189399254e-07,2.559703178944702e-07
-5.697760679438559e-07,1.263045545702162e-06,5.448909505578102e-07,8.671787031913281e-07,7.7750881782535e-07,1.6134717181906782e-07,5.781012556430748e-07,4.181276038338087e-07,1.0816543780968977e-08,2.3723469080692475e-07,4.3150015785825566e-07,3.596006066532494e-07,1.2329214868378732e-06,5.159447834903739e-07,9.278959741931473e-07,5.897125492811694e-07,5.261139340483542e-07,2.2445532295573974e-07
-6.088649350130517e-07,1.2214192373539317e-06,5.401240751729585e-07,8.467636029248407e-07,7.523533428340273e-07,1.3137199598026035e-07,5.106036371501169e-07,4.102083200217765e-07,-1.3657714977608076e-08,2.05568321329772e-07,3.7778886827814367e-07,3.513645594337171e-07,1.2675230408166222e-06,5.005621906387033e-07,8.569214604104373e-07,5.927174769212183e-07,5.831287373257253e-07,1.8642627075146125e-07
-6.533031904548625e-07,1.1821359922860337e-06,5.564437661784345e-07,8.299105361297301e-07,7.376293679938019e-07,1.011601882578717e-07,4.5455516019597296e-07,4.1552136788605564e-07,-3.1731950077511654e-08,1.811007113215607e-07,3.36776786850094e-07,3.5739016194813803e-07,1.2898071535756924e-06,5.063465605687989e-07,7.720884462004541e-07,6.094949657975151e-07,6.465475305739107e-07,1.4227970227822195e-07
-7.014565367603081e-07,1.1501524823069525e-06,6.082831867238633e-07,8.162407526790936e-07,7.316709871567159e-07,7.083883500901995e-08,4.163725144989354e-07,4.3371984671268046e-07,-5.0325271384935446e-08,1.6303606029762007e-07,3.108675578439401e-07,3.741412025785842e-07,1.2921063780786785e-06,5.367552345929558e-07,6.788161961953853e-07,6.442964469171425e-07,7.07601420683488e-07,9.421112964438793e-08
-6.935485452382071e-07,1.1298929161963866e-06,6.332231476919155e-07,8.04482806297954e-07,7.30196665473197e-07,4.071072654808548e-08,4.002890816131469e-07,4.6311859009465186e-07,-7.653292926165342e-08,1.4966397066350556e-07,3.000340466181757e-07,3.971502858372896e-07,1.2695829574318625e-06,5.903371309193704e-07,5.851139899119832e-07,6.974629259765492e-07,7.587644350264918e-07,4.587331386202493e-08
-6.459335646533074e-07,1.1232732031256463e-06,6.441086825853373e-07,7.928800894741072e-07,7.284835067198717e-07,1.1755681193938993e-08,4.0689414368757085e-07,5.011547772190929e-07,-1.1492098167718411e-07,1.4057731242372119e-07,3.021706431899815e-07,4.227141246341747e-07,1.219492935657811e-06,6.611860174348457e-07,4.999356360947322e-07,7.645303063987407e-07,7.955275759528038e-07,1.079785032604781e-09
-5.697715194481916e-07,1.1341519010362937e-06,7.151962490338091e-07,7.795042430695909e-07,7.230393413338342e-07,-1.4864129522533118e-08,4.3243012894810166e-07,5.440475583879842e-07,-1.6571268357748206e-07,1.3721119524882047e-07,3.128733264823135e-07,4.4837039740319456e-07,1.149491160956807e-06,7.397854458567044e-07,4.3122671302052077e-07,8.362581665572634e-07,8.1662041501342e-07,-3.7793814973269193e-08
-4.74555847005681e-07,1.1550065171075086e-06,7.957148387229772e-07,7.626772626978491e-07,7.124304214736349e-07,-3.861024966031413e-08,4.683763116515034e-07,5.866730571805426e-07,-2.2432592369020591e-07,1.4221846522336487e-07,3.2568350894409033e-07,4.729665994859339e-07,1.0741256769052158e-06,8.152964547003444e-07,3.84632125379182e-07,9.000307888795342e-07,8.237094704903702e-07,-7.04489594409208e-08
-3.739646355205348e-07,1.1753784579787147e-06,8.503652036850017e-07,7.414573744799769e-07,6.971179853846355e-07,-5.955383174040348e-08,5.042266429569817e-07,6.235427557070663e-07,-2.8256357385555256e-07,1.579927055449014e-07,3.336930597941353e-07,4.961250228908682e-07,1.0102932912833855e-06,8.786356619162633e-07,3.626120822726413e-07,9.429511061699814e-07,8.207499789929116e-07,-9.835518161052777e-08
-2.705034216174676e-07,1.1817414643810203e-06,8.620696240656917e-07,7.156657325821697e-07,6.788126394152674e-07,-7.737605032412317e-08,5.328181171580142e-07,6.49971020189234e-07,-3.314403285900463e-07,1.8419955994728963e-07,3.3162127930055686e-07,5.167198804744691e-07,9.73300043266619e-07,9.240611039628895e-07,3.633757079082792e-07,9.555480130667007e-07,8.125177957337505e-07,-1.242962426417918e-07
-1.6953719731181868e-07,1.1687954639343126e-06,8.531951666827714e-07,6.85036221868583e-07,6.583891676690014e-07,-9.306086061345972e-08,5.491781235630915e-07,6.627341689793137e-07,-3.643707954465963e-07,2.1630404964425476e-07,3.171179152679095e-07,5.322222156867436e-07,9.72997845142356e-07,9.492760564306297e-07,3.806335672955871e-07,9.342993611982529e-07,8.031069409650587e-07,-1.5167880890550642e-07
-1.0414842554050164e-07,1.1428905611180023e-06,8.479714645180288e-07,6.488994055611266e-07,6.352664826260905e-07,-1.0682435288948875e-07,5.503575476636608e-07,6.611420065618979e-07,-3.7892662633573994e-07,2.473229575076296e-07,2.9091624720897436e-07,5.40358515403654e-07,1.0046531044043623e-06,9.556190628307084e-07,4.0688918484900454e-07,8.843835540984638e-07,7.955263655107976e-07,-1.8400238983389276e-07
-6.454257897838658e-08,1.1008795465124071e-06,8.416035398125224e-07,6.068587456750495e-07,6.089476447433961e-07,-1.1838770891474736e-07,5.379707610879289e-07,6.479448087294852e-07,-3.7670928199025873e-07,2.712967726885928e-07,2.557213826005833e-07,5.410933268978246e-07,1.0554712019954066e-06,9.477298852993005e-07,4.3317496064455666e-07,8.081959313028344e-07,7.918802837012325e-07,-2.1939312900225525e-07
-4.599453514017513e-08,1.050246284264815e-06,8.280359117908739e-07,5.591802256972526e-07,5.804753371078409e-07,-1.2785094535628044e-07,5.133384810843894e-07,6.286402782250065e-07,-3.622835302396472e-07,2.8526854287094465e-07,2.1417108955392034e-07,5.366569771284905e-07,1.110169855625377e-06,9.315716052471644e-07,4.5273775422043807e-07,7.176260906699405e-07,7.93142598963335e-07,-2.5501654276181563e-07
-2.9566433359394568e-08,9.957561694870446e-07,7.921734354545997e-07,5.06323775622751e-07,5.520330428218954e-07,-1.3557499477024258e-07,4.775857885959036e-07,6.09239710897307e-07,-3.41702398932114e-07,2.8941917604239223e-07,1.6751038906192526e-07,5.305004134082488e-07,1.1522098207137595e-06,9.125454158942501e-07,4.6293312050297274e-07,6.287549705334727e-07,7.989166206485914e-07,-2.8637744458378844e-07
-3.870187125796024e-09,9.365648422081855e-07,7.243000910790875e-07,4.4871357678733724e-07,5.258247126331953e-07,-1.426466710289813e-07,4.3546499480032964e-07,5.942678665335065e-07,-3.2070776946715124e-07,2.8675142915208195e-07,1.1633793316332006e-07,5.265980374957715e-07,1.1717025355436886e-06,8.953557533903505e-07,4.649807724143917e-07,5.483911562819237e-07,8.076723067831504e-07,-3.0760889151566565e-07
4.945794232366963e-09,8.730388374664648e-07,6.521863537295355e-07,3.871116418949189e-07,5.038905066190232e-07,-1.4993116614466922e-07,3.9117379429007043e-07,5.861282148507587e-07,-3.0328666127219904e-07,2.822580631472147e-07,6.221493264017553e-08,5.282663411202471e-07,1.159881493954501e-06,8.837956254269884e-07,4.6384690016510005e-07,4.821124388012144e-07,8.166728406227089e-07,-3.1499337121162064e-07
-1.116621251482211e-08,8.040103557907102e-07,5.832125371990981e-07,3.227032677957227e-07,4.872951983907612e-07,-1.578612009896232e-07,3.389230624016487e-07,5.853868961721625e-07,-2.9133842178584244e-07,2.8044229682480607e-07,7.909635633815268e-09,5.36110575561219e-07,1.1140085831519835e-06,8.789549308803736e-07,4.6526074410420985e-07,4.3040594796577385e-07,8.227833086516837e-07,-3.0722626087188666e-07
-4.47428120898289e-08,7.272662213886541e-07,5.111525912500218e-07,2.5615709223362325e-07,4.7532700186043124e-07,-1.666905774721523e-07,2.9867805626584533e-07,5.915743399490718e-07,-2.8496197914934584e-07,2.8395585565080327e-07,-4.3855115117204304e-08,5.471777375103486e-07,1.027787530618778e-06,8.781094443696635e-07,4.7264206080714705e-07,3.887024643233878e-07,8.17379517080643e-07,-2.8754433544841865e-07
-8.985289700985732e-08,6.409887715723219e-07,4.535252615310783e-07,1.8749375012365198e-07,4.6505185712183527e-07,-1.78848214311144e-07,2.899907239758869e-07,6.043606058054524e-07,-2.8252218583040236e-07,2.938822856602276e-07,-9.176210639366618e-08,5.564011276107182e-07,8.887494876654007e-07,8.761581075031949e-07,4.901481073106545e-07,3.50197111142597e-07,7.933564896949369e-07,-2.610603514693676e-07
-1.302658476608825e-07,5.494869192736603e-07,3.979151433494617e-07,1.1596990543462978e-07,4.5190712811434403e-07,-1.9625864676041064e-07,3.5262056781486304e-07,6.24118748694086e-07,-2.808855954237314e-07,3.103228682956436e-07,-1.3657544237304973e-07,5.584932800519446e-07,6.860128845868646e-07,8.678356668806504e-07,5.224739392176228e-07,3.1163185495578334e-07,7.449354126506927e-07,-2.3587647093034385e-07
-1.4173757423751168e-07,4.5640771933479145e-07,3.3225248174721057e-07,4.039153305080401e-08,4.3088935452049095e-07,-2.2028052116483308e-07,4.864065978877145e-07,6.513051651456502e-07,-2.7644292584442385e-07,3.3260928612168445e-07,-1.8059847925638912e-07,5.491977551677658e-07,4.352632007778759e-07,8.492395323207092e-07,5.741388573596281e-07,2.65721185635411e-07,6.712295161379023e-07,-2.1999878061839446e-07
-1.1405684385372574e-07,3.6341938672855533e-07,2.5320476060117705e-07,-4.0241721352619966e-08,3.9794936900978077e-07,-2.5544736658926044e-07,7.074703937170143e-07,6.858239538398287e-07,-2.6626566015593384e-07,3.5986938755067884e-07,-2.2539999721682403e-07,5.270436314622409e-07,1.318780447963482e-07,8.198973705537354e-07,6.497422215723648e-07,2.0717612983118202e-07,5.836192769810311e-07,-2.17974761589222e-07
-6.189259881162687e-08,2.746050681935371e-07,1.5602961395462368e-07,-1.2606274002636993e-07,3.5247656356371135e-07,-3.027338741601213e-07,9.20418178915685e-07,7.274661896026796e-07,-2.486112207423768e-07,3.9228095174574535e-07,-2.6904076937040684e-07,4.95199518852155e-07,-2.0882262034354514e-07,7.851654174682951e-07,7.523094975893816e-07,1.3878216788454428e-07,4.920976027931239e-07,-2.2816123353860048e-07
9.582364372730002e-09,1.900690289178338e-07,4.618965043869641e-08,-2.1569862202504286e-07,2.983191265594557e-07,-3.604405868065633e-07,1.148623176956539e-06,7.762849008750032e-07,-2.2331539763105894e-07,4.308247275860294e-07,-3.055706378342563e-07,4.60960744254506e-07,-5.052471800105976e-07,7.558787460088297e-07,8.841032402699356e-07,6.681959803729791e-08,4.111125263882226e-07,-2.4430783884805737e-07
9.434879454823433e-08,1.1020047587096401e-07,-6.790316553566128e-08,-3.0530029250064466e-07,2.4192018362668666e-07,-4.279432133459478e-07,1.3672383971090168e-06,8.315979990163639e-07,-1.922381277749256e-07,4.753639316027011e-07,-3.2774425189619083e-07,4.3276912746778754e-07,-6.769536221387462e-07,7.443302801990158e-07,1.040905723035643e-06,6.851437058768638e-10,3.4383692570809546e-07,-2.524017567267762e-07
1.9985504521451047e-07,3.346799065208176e-08,-1.7836798319468818e-07,-3.921581246821027e-07,1.8942411040347646e-07,-4.889126470421364e-07,1.5254236127808076e-06,8.90554549363832e-07,-1.5857134439777255e-07,5.23303972915803e-07,-3.306541836646337e-07,4.1738655235462e-07,-6.765563321132143e-07,7.596679033595907e-07,1.215358471408351e-06,-5.399105293040002e-08,3.039423998883775e-07,-2.40065806812348e-07
3.2732371366809127e-07,-4.308611580708707e-08,-2.779617567371485e-07,-4.7332758355952533e-07,1.448910425401977e-07,-5.270243677359026e-07,1.6146372906023846e-06,9.478399816944863e-07,-1.2475044425461884e-07,5.709099704482568e-07,-3.13733904948464e-07,4.183268283652351e-07,-6.184833774825065e-07,8.052861119985522e-07,1.3856335507832432e-06,-1.166214454180502e-07,3.1263138450450183e-07,-1.9151050782063107e-07
4.576859630068709e-07,-1.208583382313526e-07,-3.617421707566819e-07,-5.454229021840168e-07,1.0994358396291385e-07,-5.307198466606859e-07,1.5637164487091732e-06,9.963743627606503e-07,-9.087748498970517e-08,6.142753226003094e-07,-2.8084420074337735e-07,4.3486033697115596e-07,-5.401122032736661e-07,8.782292938334032e-07,1.5441480532547438e-06,-1.2795365644242702e-07,3.8811282110190845e-07,-1.213009607708283e-07
5.756803353998353e-07,-1.9877037461642913e-07,-4.277726193109112e-07,-6.064263960365222e-07,8.328653816374099e-08,-5.076718299327012e-07,1.5215957105100736e-06,1.0286824828262599e-06,-5.506952184881829e-08,6.497684518823524e-07,-2.390751376535797e-07,4.621208563401449e-07,-5.055400211266693e-07,9.70561970489032e-07,1.6865309960491197e-06,-9.772704298110109e-08,5.162122721490197e-07,-3.2863194176434405e-08
6.575554276466502e-07,-2.7276623110035235e-07,-4.768444038540075e-07,-6.566367971487739e-07,6.159114323258257e-08,-5.013125139287006e-07,1.5766703628338859e-06,1.0390794802329832e-06,-1.4924779537860127e-08,6.749092751632755e-07,-1.9657965569440687e-07,4.931000248427981e-07,-5.207555843543348e-07,1.0723994619260367e-06,1.8075373903506718e-06,-7.549605832285153e-08,6.366144717228601e-07,6.894969082794435e-08
7.212577640297502e-07,-3.4233754053933325e-07,-5.11226588749514e-07,-6.964498222844308e-07,4.172506618007734e-08,-5.101963106761976e-07,1.5863334370908132e-06,1.0270284884420225e-06,3.098429725461739e-08,6.888898321769184e-07,-1.60335951390491e-07,5.211235148536168e-07,-5.893189354329498e-07,1.1742972559450751e-06,1.907568475516924e-06,-5.106281585879244e-08,7.678301373109054e-07,1.7475024732175282e-07
7.753004179377577e-07,-4.0525223474706184e-07,-5.333999560016487e-07,-7.274021687500549e-07,2.212706714666037e-08,-4.7163960363390887e-07,1.5654148733409493e-06,9.95944411332107e-07,8.174619088895291e-08,6.923285079541854e-07,-1.348901922197156e-07,5.413436208718896e-07,-5.200679085459339e-07,1.2677226342145423e-06,1.9638157898561315e-06,-2.821133007110547e-08,9.064143412354425e-07,2.9111621363416224e-07
8.195619228161085e-07,-4.600476567087007e-07,-5.45391305226587e-07,-7.527874691535052e-07,3.79780704926826e-09,-3.797364923592753e-07,1.5028466406581832e-06,9.53349428937868e-07,1.3348679032800609e-07,6.871050017554696e-07,-1.218513290838462e-07,5.519953258498651e-07,-3.241485798732297e-07,1.3457822183566623e-06,1.9770773107522256e-06,-9.00613075471381e-09,1.011910275330127e-06,3.7649800341798823e-07
8.360942352934199e-07,-5.062123889841322e-07,-5.484411867692383e-07,-7.728242520449312e-07,-1.138111017244944e-08,-3.068511385491202e-07,1.394801307826532e-06,9.094214440839397e-07,1.8046396308349743e-07,6.765653592906503e-07,-1.1956548368480883e-07,5.556345702779873e-07,-7.315232419842054e-08,1.4054633244569381e-06,1.941640420730317e-06,2.7863540535714103e-08,1.1067549232614594e-06,4.332491321582247e-07
8.269947562755952e-07,-5.420411892446317e-07,-5.430158985216259e-07,-7.892644387528871e-07,-2.0505249899770635e-08,-2.327259361274994e-07,1.2926665482984187e-06,8.740686326549197e-07,2.1722891986227847e-07,6.647300762741032e-07,-1.234047662272226e-07,5.585085773717596e-07,1.762346700692026e-07,1.4488564221494392e-06,1.8666420949925846e-06,1.8469965181589857e-07,1.1896973485389674e-06,4.3117786387630535e-07
7.974407662975979e-07,-5.668571954978494e-07,-5.294436845884599e-07,-8.02934218650163e-07,-2.114879716553245e-08,-1.5078636810492737e-07,1.2094524486334954e-06,8.550458924066943e-07,2.401697995295519e-07,6.545414380861321e-07,-1.2696636015753956e-07,5.67878453189494e-07,3.6083127016531366e-07,1.481711555470799e-06,1.8494733156475413e-06,2.8129995378725137e-07,1.2632001411799191e-06,3.3606891355090323e-07
7.466008888417115e-07,-5.819135417410755e-07,-5.084699024889673e-07,-8.133744090774215e-07,-1.3898687046859544e-08,-9.888976435158809e-08,1.2453902062916809e-06,8.551883337713086e-07,2.480488443924672e-07,6.471106120032235e-07,-1.234916526793881e-07,5.899638237813464e-07,4.6850277505109467e-07,1.511357057718328e-06,1.8529672354367316e-06,4.5625996455906516e-07,1.3354790733827536e-06,3.0008607019374843e-07
6.830936238962768e-07,-5.946103871166918e-07,-4.808505220692322e-07,-8.200547312177296e-07,3.897593830532248e-10,-5.262903331140894e-08,1.3760689345481286e-06,8.747566379704774e-07,2.42067223247494e-07,6.428648346321612e-07,-1.0725212251959459e-07,6.295293855353254e-07,5.270212592937613e-07,1.545378373665451e-06,1.8854816253686573e-06,7.354060090970913e-07,1.3749063055854197e-06,2.893446727244302e-07
6.253053117392972e-07,-6.068788240649665e-07,-4.4662196374114407e-07,-8.216116280608743e-07,2.117458904444556e-08,-7.088839565641098e-09,1.502173699685396e-06,9.113756765274976e-07,2.2533638367067279e-07,6.424330390701048e-07,-7.544579303119687e-08,6.891997880720435e-07,5.75298923741956e-07,1.5897361708583295e-06,1.9385685659931433e-06,9.008692115539123e-07,1.3931037292211168e-06,2.668740544096116e-07
5.738139505129892e-07,-6.193941876480949e-07,-4.0543300537376906e-07,-8.162202492040953e-07,4.857655379581881e-08,3.875358559118045e-08,1.5332091555923012e-06,9.61479298842177e-07,2.0173319649512617e-07,6.461924414491886e-07,-3.010353986058075e-08,7.673221408754489e-07,6.462048487492214e-07,1.6463108985195276e-06,1.878262162093996e-06,1.0699431412691636e-06,1.4154554204367009e-06,2.560678692197976e-07
5.27923674916094e-07,-6.277455314825198e-07,-3.5790223308698647e-07,-8.058414700017771e-07,8.31206628980403e-08,8.844291628671449e-08,1.6095260598738015e-06,1.021375542335463e-06,1.7507912929638114e-07,6.543588335128223e-07,2.1869994165671652e-08,8.59787022190673e-07,7.393256116898382e-07,1.7121039410732136e-06,1.8088947321596832e-06,1.3895306026251089e-06,1.4351153190416092e-06,2.34766058237153e-07
4.904486644413126e-07,-6.286104375661516e-07,-3.0678120752276013e-07,-7.917113680570285e-07,1.2524634744986287e-07,1.4695737659813298e-07,1.783851776495327e-06,1.0867948290402287e-06,1.4921348786681603e-07,6.683658415869795e-07,7.137938165791257e-08,9.587402452386609e-07,7.547008791315596e-07,1.780522087593166e-06,1.7141567808362468e-06,1.589891869832311e-06,1.449710473088872e-06,1.336564017354109e-07
4.465160219962549e-07,-6.252756127468929e-07,-2.572688619583208e-07,-7.705673900186417e-07,1.7507918182795173e-07,2.1710429928446274e-07,2.0477706021261406e-06,1.155220360001764e-06,1.281925707212058e-07,6.939280948855565e-07,1.1099293476256083e-07,1.053971952870033e-06,6.710305738164122e-07,1.8430068538031886e-06,1.642464462693081e-06,1.4762930538258201e-06,1.4519867733522255e-06,7.606346268149456e-08
3.840504814381934e-07,-6.054415030508875e-07,-2.1643105093688354e-07,-7.427820678606428e-07,2.3156506706915796e-07,2.9316246695191046e-07,2.286024642527054e-06,1.223128697069922e-06,1.1566262366021589e-07,7.346587652971334e-07,1.376562295783177e-07,1.1428579891225172e-06,5.070959518273207e-07,1.8907035494153752e-06,1.5668562150661747e-06,1.3707350294229362e-06,1.4079329793448548e-06,3.6944850184455324e-08
2.9890939985564707e-07,-5.685878440425843e-07,-1.9283841460455586e-07,-7.126269606146024e-07,2.9347101957219726e-07,3.626742811462728e-07,2.4124748902486808e-06,1.2878791411942797e-06,1.1285748420051487e-07,7.937118772121552e-07,1.5304834229514016e-07,1.215637089878881e-06,1.9827971977436897e-07,1.916803437459531e-06,1.4814704422754922e-06,1.3699223403363843e-06,1.317357220211287e-06,-3.867937379841074e-09
2.2764021300420848e-07,-5.249910406605821e-07,-1.918704609791518e-07,-6.82854657326401e-07,3.5379884737122665e-07,4.324622139039271e-07,2.50527269206635e-06,1.3490512818264692e-06,1.1906583949745403e-07,8.71600799199986e-07,1.6158671918134032e-07,1.2443508107854602e-06,6.454800938266136e-08,1.918263200484511e-06,1.4192669358411026e-06,1.3180769369987727e-06,1.238589616004711e-06,-1.909862010803871e-08
1.8409504279050642e-07,-4.757969018281623e-07,-2.145194285180448e-07,-6.609607122559379e-07,4.0985296855518886e-07,4.7293756772599216e-07,2.524266241193547e-06,1.3995917705855553e-06,1.304989192425937e-07,9.688766066890012e-07,1.6729279961007498e-07,1.2635432159922025e-06,9.346440336494603e-08,1.8956782990205842e-06,1.3858734017157745e-06,1.311967010919195e-06,1.1440707217330771e-06,-1.5150781325368517e-08
1.7424528599961533e-07,-4.3234906893139715e-07,-2.6016854019937443e-07,-6.54593704943782e-07,4.584078615124799e-07,4.603468508783425e-07,2.4811647742408356e-06,1.4442249380458625e-06,1.399799503578667e-07,1.085577172887635e-06,1.717367834296551e-07,1.2741666631546164e-06,8.864949298954378e-08,1.8526736306168783e-06,1.3963951203295316e-06,1.2151918142425754e-06,1.014738238837269e-06,5.9808992087374625e-09
2.0532328146979947e-07,-4.285862305809479e-07,-3.246160257764749e-07,-6.614644175614705e-07,4.896072000374033e-07,3.915396942751245e-07,2.361000554386904e-06,1.4937015324600075e-06,1.3942356446515322e-07,1.2149589266963844e-06,1.7435641504961758e-07,1.272829871482358e-06,3.2128502363719934e-08,1.7957687859433376e-06,1.448027035781136e-06,1.1432628899129421e-06,8.635378084903553e-07,8.194150778231896e-08
2.522548072820854e-07,-4.3366057035296894e-07,-4.010736152614971e-07,-6.803135969429921e-07,5.020868595624048e-07,2.9532565631975256e-07,2.2764121716400902e-06,1.5523971677012293e-06,1.2071710615024106e-07,1.3474448407184527e-06,1.741045376699315e-07,1.2661103658970154e-06,-1.8766755323563965e-07,1.7332705670845145e-06,1.4685122735155531e-06,1.025187723876477e-06,7.054248531060257e-07,1.4593815459182676e-07
2.8973057131377043e-07,-4.32644857292192e-07,-4.827434223096303e-07,-7.110653361650491e-07,4.919506665165177e-07,2.0584455530639474e-07,2.217575504504637e-06,1.608474925015712e-06,7.93489215411585e-08,1.446745178372501e-06,1.7081024823115074e-07,1.2609357472706135e-06,-3.484227761120964e-07,1.6730446222001325e-06,1.5275238405774622e-06,9.829708524924039e-07,5.429093256411304e-07,2.1550202858331442e-07
3.145627441193053e-07,-4.6822633597725515e-07,-5.594048493105592e-07,-7.470681409155626e-07,4.5911873200675313e-07,1.2595796907951063e-07,2.145510560948464e-06,1.6518068000617804e-06,1.8312848466263015e-08,1.4809640343476027e-06,1.65935105823343e-07,1.2569371976441685e-06,-3.4489277704151894e-07,1.6216327483171536e-06,1.5836631146000644e-06,9.167125621550127e-07,4.793297050827899e-07,2.9021544899593765e-07
3.4257418950708875e-07,-5.290791814317635e-07,-6.122684161109476e-07,-7.725756613687835e-07,4.054518273449487e-07,6.085948885359651e-08,1.9902285339332974e-06,1.6505764530980677e-06,-4.7954688611867525e-08,1.429894362014518e-06,1.626939852986569e-07,1.25329725044494e-06,-3.035090606414526e-07,1.5851271604465218e-06,1.6369947140322754e-06,8.664009590626354e-07,5.091443407023805e-07,3.329056931493729e-07
3.350656345810635e-07,-5.736977520211119e-07,-6.372990907662018e-07,-7.709432651739891e-07,3.578689664185035e-07,7.602496685060636e-08,1.7925493325202383e-06,1.5991352494771154e-06,-1.0708164733318514e-07,1.3913868597134112e-06,1.651090190458905e-07,1.250063444975686e-06,-2.372482891952574e-07,1.5688588349373498e-06,1.7184002919464755e-06,8.973499481509381e-07,5.150969007022379e-07,2.7310964217155616e-07
2.828829597768246e-07,-5.848024030529798e-07,-6.328634127648908e-07,-7.388460161101679e-07,3.462446926376164e-07,1.202904669716168e-07,1.647059296305955e-06,1.5572866213083966e-06,-1.318773181697666e-07,1.3993263908568773e-06,1.7645524394914357e-07,1.2482418986262285e-06,-1.6439791037496084e-07,1.5750657819443111e-06,1.8003689615938316e-06,8.228092491489213e-07,4.997790658637591e-07,2.1097161400920759e-07
1.9848064648603722e-07,-5.645747348880121e-07,-6.061167988900349e-07,-6.919140864367166e-07,4.235615057244794e-07,1.7378898834863276e-07,1.5323953709851695e-06,1.5417060326251864e-06,-1.2414556264724628e-07,1.4220695362398136e-06,1.983241577730826e-07,1.2497159044508347e-06,-1.1380431092914526e-07,1.6016733306364346e-06,1.8829718106092137e-06,8.038463845424193e-07,4.880834938145825e-07,1.8414220491349275e-07
8.71453074523373e-08,-5.478030173110766e-07,-5.948085246990684e-07,-6.674056881223269e-07,5.215808621536192e-07,2.436712065706295e-07,1.44374098490977e-06,1.5200994066407919e-06,-1.1027617353389352e-07,1.3774153655605557e-06,2.3053283293890332e-07,1.2575275253966448e-06,-1.1723269630619326e-07,1.6437168847402355e-06,1.9549189626782007e-06,8.776386324583877e-07,4.541077640133381e-07,1.921757553259618e-07
-2.323457686771395e-08,-5.552317937082303e-07,-5.720072383438536e-07,-6.279107240397535e-07,5.943398783206236e-07,3.266009378481921e-07,1.2805163799221843e-06,1.5109189910427923e-06,-8.857242567305014e-08,1.287040513740557e-06,2.710642005765773e-07,1.2748286008667293e-06,-1.0010451754489902e-08,1.6949523831299406e-06,1.9943906445384032e-06,1.1429587866036748e-06,4.6345244834040435e-07,2.2082003012650383e-07
-1.0981124932329049e-07,-5.46199772816923e-07,-5.065442017304514e-07,-5.809772570663625e-07,6.690002272080681e-07,3.667152205258374e-07,1.0449115366753062e-06,1.473977247761838e-06,-5.3001363047405316e-08,1.174274706316824e-06,3.1588807080181763e-07,1.302703534164663e-06,2.8331216721578184e-07,1.7482098063391285e-06,2.002909157062284e-06,1.46661458571384e-06,6.088468729603062e-07,2.4972495164298345e-07
-1.8434872831367252e-07,-4.988038288355494e-07,-4.3413518527218975e-07,-5.23447504156867e-07,8.114024231320267e-07,4.5751001065999834e-07,8.581316728062735e-07,1.3929707437539808e-06,7.966501986420951e-10,1.0600463161853112e-06,3.5955901536379006e-07,1.3394689161289895e-06,5.359417803164941e-07,1.7962083194015492e-06,1.986824117506212e-06,1.7316840835318018e-06,7.822527872717824e-07,2.780071872840626e-07
-2.446634112510301e-07,-4.3823455843439464e-07,-3.533374638562577e-07,-4.608484275990622e-07,9.670149049728812e-07,5.935884600251071e-07,7.589995389795124e-07,1.3112706333400483e-06,8.362378544792912e-08,9.509645167324541e-07,3.968322738270105e-07,1.3819416563095331e-06,6.990135736066678e-07,1.8333185403899572e-06,1.9539873205524247e-06,1.9472864396458974e-06,9.08336088874353e-07,2.9823214067147046e-07
-2.819928028645897e-07,-3.7478627773337947e-07,-2.6898396933765175e-07,-4.006301930526663e-07,1.1484977193846484e-06,7.292469379204208e-07,6.745534306751576e-07,1.2519079568522542e-06,1.733502312040767e-07,8.87517545106511e-07,4.2418201903523477e-07,1.4263085317717232e-06,8.627563432942726e-07,1.8562328816119443e-06,1.9156001864601896e-06,2.0475755805457027e-06,9.959947562666975e-07,3.110628377095511e-07
-3.107975937636345e-07,-3.1067956389256476e-07,-2.0832318883286756e-07,-3.4389699132583107e-07,1.276903737956082e-06,8.477012604570298e-07,5.43504026172397e-07,1.1820550987633283e-06,2.3350731963159387e-07,8.658250623718982e-07,4.403947562246832e-07,1.4679001468346153e-06,1.184761196169607e-06,1.863275172364307e-06,1.878810165020652e-06,2.102873643713255e-06,9.413224701934041e-07,3.256570817429665e-07
-3.273734850355612e-07,-2.6391846474347654e-07,-1.684865462812649e-07,-3.03748083296931e-07,1.3770559144341684e-06,9.352785562019944e-07,4.0675888651132606e-07,1.1168413612312828e-06,2.8589438094032794e-07,8.668367847154614e-07,4.4646259548265836e-07,1.5017374174163434e-06,1.501578224501481e-06,1.854417476014437e-06,1.847124630290042e-06,2.1595586104606737e-06,8.992711408151249e-07,3.394075366743268e-07
-3.2795893383267804e-07,-2.3027456670028814e-07,-1.4943066351962015e-07,-2.7970145467922484e-07,1.4653072625609423e-06,9.738675195636629e-07,2.765448507201064e-07,1.109028158359113e-06,3.1255526821794944e-07,8.808171208390709e-07,4.4486294880750534e-07,1.524101235341533e-06,1.7406307904886887e-06,1.8319880009951736e-06,1.821589651856714e-06,2.2138060235259823e-06,8.950499417780094e-07,3.475755812522287e-07
-3.1351556267744394e-07,-2.1077614160459313e-07,-1.4890544706343427e-07,-2.657817090942275e-07,1.524432368130335e-06,9.704521983720324e-07,1.4205648158897704e-07,1.113882625807198e-06,3.1613522768410375e-07,8.904585946586399e-07,4.3811224420819195e-07,1.5332419057278375e-06,1.950907855677386e-06,1.7998848570573345e-06,1.8014118291082917e-06,2.2407418769216013e-06,8.982542354629019e-07,3.521758773159473e-07
-2.8337176893438453e-07,-2.064074722101404e-07,-1.5777454384243086e-07,-2.595459286639316e-07,1.5258041379274642e-06,9.471753283810537e-07,1.5428434867412591e-07,1.1055045991717062e-06,3.009272817435704e-07,8.925914197296262e-07,4.2750577256858263e-07,1.5290990837928165e-06,2.015466997354822e-06,1.7616252128467337e-06,1.784955682835696e-06,2.2446223354969914e-06,8.804396416401443e-07,3.532573700203097e-07
-2.383552591276054e-07,-2.1019442912028617e-07,-1.739750274567409e-07,-2.5595645593572855e-07,1.4698679118844856e-06,9.081594370425238e-07,1.9187695230552272e-07,1.0786985134208487e-06,2.8750617934371387e-07,8.863994941519146e-07,4.1330170023469997e-07,1.5135360239767473e-06,2.0597942931248744e-06,1.7198914104832204e-06,1.7707481586734139e-06,2.240840677559151e-06,8.583048113574403e-07,3.5008582353012205e-07
-1.8276859439205425e-07,-2.2259411876571333e-07,-1.9560822953809202e-07,-2.5261518047977273e-07,1.427235587651891e-06,8.74135053618283e-07,2.2244300620674965e-07,1.0515968228441555e-06,2.8568199018252826e-07,8.711908897550781e-07,3.9581569411996216e-07,1.4905154573095067e-06,2.055446778377253e-06,1.6775050846437114e-06,1.758129287990753e-06,2.231714251678506e-06,8.40257002798871e-07,3.4270366841487254e-07
-1.2174981078664976e-07,-2.4182971158658016e-07,-2.2000203618472832e-07,-2.5140642918871986e-07,1.3910273206322753e-06,8.505285224292452e-07,3.0176433272917553e-07,1.0217993635691301e-06,2.933082839416398e-07,8.495287230338458e-07,3.756261782690486e-07,1.4645000562054333e-06,1.9912440702697055e-06,1.6372740021746306e-06,1.746657907314065e-06,2.232284182821336e-06,8.212552310795666e-07,3.296547409018042e-07
-5.967278615620844e-08,-2.6403254515753583e-07,-2.4614916748479837e-07,-2.547714301181793e-07,1.3184239024234185e-06,8.243677611874466e-07,3.3979336147038753e-07,9.920768526369502e-07,3.065711178086856e-07,8.240351304057868e-07,3.5282914644107323e-07,1.4383263938311957e-06,1.9729501310213563e-06,1.6009586356536354e-06,1.7352406943526022e-06,2.2250559968337842e-06,8.150731944059978e-07,3.0974359338695983e-07
-6.400114584932413e-10,-2.881494020323857e-07,-2.7465293488482914e-07,-2.642076528586583e-07,1.256117104072499e-06,8.038645238378693e-07,3.6278053261620445e-07,9.662368549802374e-07,3.17643367108112e-07,7.964667190265236e-07,3.2707739386683886e-07,1.4134488612740082e-06,1.970156927283128e-06,1.569924545164567e-06,1.7227911669614277e-06,2.20691671755997e-06,8.011197953748912e-07,2.8316453241856115e-07
5.345385856376979e-08,-3.145576534337409e-07,-3.0681710324139784e-07,-2.824184836094971e-07,1.1942903600095561e-06,7.771664606913911e-07,3.985642666342484e-07,9.428607088543742e-07,3.1849818260369136e-07,7.689705617585064e-07,2.985938671260407e-07,1.3919872909834229e-06,1.9647437892292198e-06,1.5467339730625443e-06,1.709862025816034e-06,2.181337921017774e-06,7.79840948577141e-07,2.521777556392518e-07
1.0634742654196337e-07,-3.4158154538467034e-07,-3.4318025089090215e-07,-3.083941588403947e-07,1.1149191902951478e-06,7.44371191497778e-07,4.3621829005119003e-07,9.259923142911027e-07,3.0605314597374706e-07,7.445006812168373e-07,2.6842588123382854e-07,1.3771541678757935e-06,1.9551125123937613e-06,1.5343066046174236e-06,1.6989124217129483e-06,2.15806231343642e-06,7.587824439306846e-07,2.210453314829509e-07
1.6425536236367272e-07,-3.6627480005019285e-07,-3.8277004575756047e-07,-3.385403399299129e-07,1.0352456932360229e-06,7.066134948729872e-07,4.873304111924379e-07,9.171667649950464e-07,2.839276549188653e-07,7.253246156862979e-07,2.3771223469375504e-07,1.3714789255470298e-06,1.9192503089762857e-06,1.533156900664078e-06,1.6928610603788856e-06,2.133581354723943e-06,7.476813415301611e-07,1.9443839223940786e-07
2.3296695859698965e-07,-3.875388539018514e-07,-4.2327876241276e-07,-3.689770416524079e-07,9.516893449718774e-07,6.723639496067254e-07,5.496242956289397e-07,9.161797495331259e-07,2.6016565057901725e-07,7.120672750204797e-07,2.0774597576487348e-07,1.3757256868113343e-06,1.8674662899403232e-06,1.5409225167037318e-06,1.6939296073621251e-06,2.100492608947968e-06,7.42333815877945e-07,1.7568029991339938e-07
3.2161303427706763e-07,-4.040691649950439e-07,-4.6157202707938633e-07,-3.961006767860365e-07,8.676531061137802e-07,6.454707842815483e-07,6.156961493848229e-07,9.187960532958642e-07,2.429097523214972e-07,7.045805536555165e-07,1.8108330090674428e-07,1.3895381422471395e-06,1.8222523596879991e-06,1.5548823975771866e-06,1.7035929610330507e-06,2.0567707664830108e-06,7.407246097670717e-07,1.6595585582501256e-07
4.331396231126048e-07,-4.1629084557437624e-07,-4.944781990105918e-07,-4.159771593695401e-07,8.038523757855905e-07,6.224272950309088e-07,6.803961840121052e-07,9.245952119876439e-07,2.3646568924413695e-07,7.025398760571136e-07,1.6149353759688563e-07,1.4116915409233665e-06,1.7824781510061642e-06,1.5735584437636368e-06,1.7223546012132094e-06,2.0000097088047706e-06,7.432592584107868e-07,1.6441711138720813e-07
5.685867040633508e-07,-4.2384665253739217e-07,-5.19931691689089e-07,-4.274588715057223e-07,7.511810877095769e-07,6.064607814332805e-07,7.403281748085229e-07,9.322517742050133e-07,2.394774488897303e-07,7.047430209501132e-07,1.5176159962367855e-07,1.4393677914313497e-06,1.7489583666947382e-06,1.5958003250539279e-06,1.7489953914054525e-06,1.9346315545966127e-06,7.456561515938899e-07,1.687028587758202e-07
7.256546510662352e-07,-4.2686607226052087e-07,-5.37633979905319e-07,-4.320132714402125e-07,7.085017213990355e-07,5.963540858081757e-07,7.912448466113526e-07,9.387065129458385e-07,2.4614769689345223e-07,7.090841167249773e-07,1.5158624018742292e-07,1.468517051558973e-06,1.725590939970078e-06,1.6200615790787648e-06,1.7807079521646363e-06,1.8670489824775026e-06,7.484787198470847e-07,1.757502852771497e-07
9.027169627490085e-07,-4.2615253814885565e-07,-5.487217721882316e-07,-4.318922329085625e-07,6.774353185014645e-07,5.907321636497338e-07,8.313457486156258e-07,9.426916297256577e-07,2.497868164800331e-07,7.139893159152301e-07,1.577688450866649e-07,1.495522565330468e-06,1.710394813159166e-06,1.6449905809969057e-06,1.8144312553628921e-06,1.803884115541539e-06,7.510600174675964e-07,1.8275443361624173e-07
1.0985584072921228e-06,-4.230570358517494e-07,-5.548122315293941e-07,-4.2979877310157793e-07,6.520238226259627e-07,5.891749989279168e-07,8.617570480790924e-07,9.430665230246431e-07,2.460614390942093e-07,7.186701280560618e-07,1.6578830925096536e-07,1.5178060867091336e-06,1.7044430955793257e-06,1.6691641128501004e-06,1.8478367901025615e-06,1.7520148939571325e-06,7.524921326392979e-07,1.8772517456387377e-07
1.3027420735280927e-06,-4.2058080348992293e-07,-5.576182136571223e-07,-4.2780423187389443e-07,6.318919957475366e-07,5.896692608577309e-07,8.843400093289818e-07,9.399784888733752e-07,2.3387513205149658e-07,7.217362975991344e-07,1.7099637076448453e-07,1.5330579050276716e-06,1.7069330811884614e-06,1.6899160114907322e-06,1.8793084736711856e-06,1.716967197263111e-06,7.529677287501951e-07,1.8954133689444188e-07
1.5000325375597605e-06,-4.221456579303713e-07,-5.589288735050378e-07,-4.2764955636936124e-07,6.134445859070286e-07,5.90422454525045e-07,9.006671406574578e-07,9.347194068831454e-07,2.1458171105628022e-07,7.208520232766725e-07,1.6955500853885252e-07,1.5393695978065306e-06,1.7151758979807115e-06,1.7042134997957435e-06,1.9079622657708245e-06,1.7017845327849716e-06,7.532136908698727e-07,1.8804877739800236e-07
1.6397432969097827e-06,-4.3068756390851473e-07,-5.602319652528831e-07,-4.3054646823524355e-07,5.925177791484826e-07,5.905849161548795e-07,9.122554692461789e-07,9.291992950968329e-07,1.9122615276186245e-07,7.142940396752196e-07,1.5947257724879485e-07,1.5364578785457437e-06,1.7274121426631482e-06,1.7114316540685543e-06,1.9328446131223923e-06,1.7062505997140675e-06,7.550080497594741e-07,1.8313324347492072e-07
1.682979024706797e-06,-4.466096977168651e-07,-5.624884651520436e-07,-4.365515458142187e-07,5.646279946680747e-07,5.903193044090248e-07,9.213294740490668e-07,9.256135593544726e-07,1.6785758702231202e-07,7.020021220334019e-07,1.4074532428890387e-07,1.5256897004046905e-06,1.7425224250289126e-06,1.7139480021637015e-06,1.956408034610841e-06,1.7260201218792673e-06,7.607381772384988e-07,1.7718819713101385e-07
1.605706304959488e-06,-4.6954869229448835e-07,-5.665555528774418e-07,-4.446776560989814e-07,5.311201269290455e-07,5.900067060328254e-07,9.308273248668665e-07,9.253214339257104e-07,1.4821735470929175e-07,6.850246594756345e-07,1.1432623072297481e-07,1.5089396897957908e-06,1.758876292421495e-06,1.714677023998891e-06,1.9795882243886303e-06,1.7515010130285993e-06,7.723153600336804e-07,1.743874129336338e-07
1.5361107235504664e-06,-4.942211540110783e-07,-5.734950057326038e-07,-4.5381691369028637e-07,4.905448175754224e-07,5.892207967673204e-07,9.435673828071413e-07,9.283049742998501e-07,1.3449092266703418e-07,6.656086931033411e-07,8.143848552700416e-08,1.4889054432929008e-06,1.7736806345644745e-06,1.7156799379187012e-06,2.0029449444857775e-06,1.7678124483717993e-06,7.908986662230402e-07,1.7692381723467752e-07
1.5392615463520357e-06,-5.138219728527283e-07,-5.837508731040754e-07,-4.6271645605293947e-07,4.419871636079184e-07,5.870488448244984e-07,9.615857955719531e-07,9.342748985268199e-07,1.274862481381768e-07,6.485146734417838e-07,4.4068883311420525e-08,1.470912386657507e-06,1.7834177213130093e-06,1.7195978825654664e-06,2.028474002220734e-06,1.7568396196420214e-06,8.176410625421425e-07,1.8722748818373061e-07
1.5000528340953914e-06,-5.221249252909598e-07,-5.959970701316682e-07,-4.6940498093726e-07,3.891925056890569e-07,5.833451089786366e-07,9.852946701293945e-07,9.433087216229697e-07,1.279532503773488e-07,6.408729230763602e-07,5.462944252805489e-09,1.4630211482305948e-06,1.7846381614258516e-06,1.730418690393577e-06,2.055828855035035e-06,1.7011966238924717e-06,8.540511475625442e-07,2.0577518288273287e-07
1.4029941922156604e-06,-5.13462557547642e-07,-6.070297547147243e-07,-4.7155035908509133e-07,3.375114259259436e-07,5.793389833596927e-07,1.0119751858242707e-06,9.555679671726257e-07,1.3715165127585464e-07,6.492073153777025e-07,-3.033313387768939e-08,1.4734308211273493e-06,1.7752122908197291e-06,1.7516322424287547e-06,2.0845435411353376e-06,1.5893268838610102e-06,9.013664380736942e-07,2.3181403910063323e-07
1.2379011388362773e-06,-4.829969333085151e-07,-6.1261956119458e-07,-4.6727288696059843e-07,2.9492717264217254e-07,5.774211438346494e-07,1.0344038830226323e-06,9.70628328888087e-07,1.5600919259734644e-07,6.766840006486557e-07,-5.9121392672858366e-08,1.5077660449481622e-06,1.7565728319077528e-06,1.7845957115775901e-06,2.1078390152693795e-06,1.4218501354902757e-06,9.597782373102068e-07,2.622636035173142e-07
1.0410197333345977e-06,-4.3336095069526403e-07,-6.084149781893473e-07,-4.555661121830434e-07,2.7050577184591313e-07,5.807280101435519e-07,1.0418846301271046e-06,9.87175399243652e-07,1.8355823992118923e-07,7.222867961339145e-07,-7.67633735683223e-08,1.5677217605201553e-06,1.735283853749818e-06,1.8289261864843604e-06,2.124438081900152e-06,1.2162588755273635e-06,1.0277903760284692e-06,3.0094504344536905e-07
8.4760976172964e-07,-3.7035279642836204e-07,-5.910058194359454e-07,-4.3632035898342765e-07,2.7259574250021526e-07,5.923479534357777e-07,1.0247841470049364e-06,1.0033118068039576e-06,2.1611657303806957e-07,7.806504852463786e-07,-7.974761790352022e-08,1.6499834900300946e-06,1.7210438556059245e-06,1.8828087377468787e-06,2.1232820396648237e-06,1.0054483077567436e-06,1.1012968668952476e-06,3.491362870375074e-07
6.716806833086154e-07,-3.005523211183313e-07,-5.595165913492264e-07,-4.104242340512531e-07,3.0611643947333254e-07,6.137777924405639e-07,9.799138899121387e-07,1.0169309331129064e-06,2.4798994100916917e-07,8.422886599873197e-07,-6.645628021644232e-08,1.745663484444695e-06,1.7214750348027494e-06,1.9420807921765435e-06,2.0933820934747835e-06,8.276137904313025e-07,1.1732363541006449e-06,3.891586384137364e-07
5.640068925649208e-07,-2.329504501929122e-07,-5.165134035138708e-07,-3.796115860577055e-07,3.6942359623904165e-07,6.435409801460105e-07,9.130735287919715e-07,1.0264264245483752e-06,2.7322062566521304e-07,8.959411734696619e-07,-3.7941426944772574e-08,1.8422143080078648e-06,1.7379347118322085e-06,2.000181317470247e-06,1.9935490768291565e-06,7.115757767460405e-07,1.2352911636538214e-06,3.5667466603410204e-07
5.217936282488301e-07,-1.7411707027471225e-07,-4.6678529910193894e-07,-3.456325678988885e-07,4.538338907117694e-07,6.772118039157927e-07,8.371019896197121e-07,1.0316258529720285e-06,2.8730434137563525e-07,9.328232186208647e-07,2.415983576485758e-09,1.927394335687439e-06,1.7654615007291617e-06,2.0499396003265466e-06,1.8676041613297176e-06,6.667436115940424e-07,1.2809969225125927e-06,2.9660515214008696e-07
5.21724980071159e-07,-1.2701486166982548e-07,-4.150115537864761e-07,-3.095057694188708e-07,5.455413116846566e-07,7.086280944001707e-07,7.667368004821397e-07,1.0340236916222192e-06,2.878636331613587e-07,9.496449356524982e-07,4.938125511066174e-08,1.9925395595380523e-06,1.795722512920397e-06,2.085582472950746e-06,1.7474856470646482e-06,6.82317982577956e-07,1.3080663185393696e-06,1.6196235804427794e-07
5.492247084300573e-07,-9.129084860114391e-08,-3.6436012004964876e-07,-2.715446798765082e-07,6.288164555488163e-07,7.316535298035174e-07,7.137958217446438e-07,1.0358166641862985e-06,2.7453678836827957e-07,9.488578041846606e-07,9.604585758002772e-08,2.034177592528971e-06,1.8203567193006145e-06,2.1043336972201325e-06,1.6276629589146154e-06,7.330620476941216e-07,1.3190205752264888e-06,6.722679380082999e-08
5.728265645174116e-07,-6.383469282192629e-08,-3.1614126358370094e-07,-2.315259024975079e-07,6.901654051096744e-07,7.423335573662777e-07,6.834462433593093e-07,1.0389416146778088e-06,2.4909971593134015e-07,9.373422722253629e-07,1.3483640517423025e-07,2.0547147731973478e-06,1.8336397741382707e-06,2.108020401993953e-06,1.5110365629753016e-06,7.877166303165685e-07,1.320470427494576e-06,-1.7389283624964776e-08
5.929203990358192e-07,-3.768504517671393e-08,-2.699539195649496e-07,-1.8853765173317798e-07,7.227521929007683e-07,7.407571035136234e-07,6.740736107396421e-07,1.0447659001427768e-06,2.1580420649560194e-07,9.241864803488029e-07,1.597679689883216e-07,2.061666418800037e-06,1.8341291838573795e-06,2.1031839575964816e-06,1.4279650832614215e-06,8.174255283782853e-07,1.320983332412909e-06,-8.513658972943491e-08
6.126704524769906e-07,-4.4371336625536e-09,-2.2406141980026764e-07,-1.412346997977816e-07,7.287859710559558e-07,7.311495615227448e-07,6.795345284845735e-07,1.0536766022422241e-06,1.8064702263520988e-07,9.173084674184401e-07,1.685139295976981e-07,2.064821343630057e-06,1.8246996738383075e-06,2.098319381511936e-06,1.3601339509563123e-06,8.025325238769968e-07,1.3279216003602436e-06,-1.2444127600564697e-07
6.362809734169525e-07,4.321965699287027e-08,-1.7631229782379432e-07,-8.884473274017563e-08,7.182224470396218e-07,7.200350271193456e-07,6.916382372618484e-07,1.0645887137047462e-06,1.494481745917611e-07,9.206291265457768e-07,1.6308468997436947e-07,2.073069964494311e-06,1.8110224018802933e-06,2.1004000992469794e-06,1.3075985034652989e-06,7.365236388014082e-07,1.3450431941892511e-06,-1.482105481646401e-07
6.708907932342149e-07,1.0796391396551817e-07,-1.2512687482997346e-07,-3.188385455542124e-08,7.052548063258142e-07,7.140455108041277e-07,7.028133064956344e-07,1.0751398531800685e-06,1.263733552346362e-07,9.338392586105864e-07,1.4926357039320403e-07,2.0926750795356435e-06,1.799288163538895e-06,2.1133309589683573e-06,1.2743169465626561e-06,6.264455564330823e-07,1.3720538616279938e-06,-1.5144902254087963e-07
7.344575417629933e-07,1.8762841930947855e-07,-7.002717599178531e-08,2.8088633630115777e-08,7.048268042676094e-07,7.182853436573797e-07,7.08132653848803e-07,1.0823718446123076e-06,1.1390107337422705e-07,9.539167966042018e-07,1.3502573379280078e-07,2.1262791929212697e-06,1.7938667023318343e-06,2.1376447200409253e-06,1.2527957102018047e-06,4.894784933217206e-07,1.4053751317762286e-06,-1.36536436155696e-07
8.348331884408414e-07,2.7688117948882887e-07,-1.2068743322287217e-08,8.897483311247988e-08,7.287033961218005e-07,7.349402380599079e-07,7.060948607773017e-07,1.0837812342640934e-06,1.1344271848116341e-07,9.76614999388664e-07,1.2807125009759902e-07,2.1720439250386727e-06,1.7957781201742682e-06,2.170303140020882e-06,1.2455505826413141e-06,3.469213701699968e-07,1.4393602753361248e-06,-1.0922254554196147e-07
9.509373310881339e-07,3.6872856129413236e-07,4.6122998589097665e-08,1.4844908705458355e-07,7.818836879261709e-07,7.624520787636573e-07,6.981636292694046e-07,1.0782262333901998e-06,1.2545670159204915e-07,9.981497546959526e-07,1.335370086381769e-07,2.224464664753088e-06,1.8030672647004698e-06,2.205839490430476e-06,1.248188787957357e-06,2.1843467460364702e-07,1.468138187454363e-06,-7.068642774229633e-08
1.099326412031715e-06,4.564856806582972e-07,1.01403549247299e-07,2.045242748975685e-07,8.615565559625555e-07,7.962521533125386e-07,6.881006901908746e-07,1.066926453629886e-06,1.4876131279474037e-07,1.0170450299108164e-06,1.5309779642547427e-07,2.277261671268068e-06,1.8127482328555014e-06,2.2390476043618114e-06,1.254072665686887e-06,1.1825974494949077e-07,1.487560608440922e-06,-2.976849967564433e-08
1.2737980104825085e-06,5.369973951038311e-07,1.51713275465568e-07,2.561798245877992e-07,9.58898669261928e-07,8.306660417796973e-07,6.805333521630373e-07,1.0536487325963537e-06,1.7974169178263643e-07,1.034490226234405e-06,1.8537936320402972e-07,2.3258640388602782e-06,1.822557904901277e-06,2.2667206960406143e-06,1.2585074033266237e-06,5.404061855316375e-08,1.4959619544073149e-06,5.907358720050879e-09
1.4588783243081163e-06,6.100853525947746e-07,1.9674735659315923e-07,3.0335780033144113e-07,1.062411095239593e-06,8.607491332960617e-07,6.786709491902204e-07,1.0431269248689119e-06,2.1244301661861352e-07,1.0528197817922938e-06,2.2694179016872123e-07,2.3680260082662804e-06,1.83184343189806e-06,2.287587458630833e-06,1.2572540280638975e-06,2.7476636497279813e-08,1.4937567935156218e-06,3.192992603142282e-08
1.604487527237833e-06,6.768355637260979e-07,2.3757278330714776e-07,3.4665348917409513e-07,1.1617330122855222e-06,8.836160291327135e-07,6.824710659379319e-07,1.0389446342535068e-06,2.4018197179074483e-07,1.0747290424228642e-06,2.7361325383251154e-07,2.4038531347652e-06,1.8422618684964457e-06,2.3023139651004705e-06,1.2476321884783684e-06,3.592134597666983e-08,1.482982114957515e-06,4.555877783159816e-08
1.6470153106169247e-06,7.380012240365958e-07,2.760717144635656e-07,3.8746877157277316e-07,1.2511855325408054e-06,8.99246973660772e-07,6.885927769509911e-07,1.0424104783673816e-06,2.58079424557539e-07,1.1018662564092344e-06,3.2197909320329894e-07,2.4356813660169913e-06,1.8579419581786246e-06,2.3137160965039646e-06,1.2291109076127467e-06,7.418029409937385e-08,1.4668300361950499e-06,4.6341898785278666e-08
1.5299504747725977e-06,7.953842428997254e-07,3.1438767758710404e-07,4.280937689121724e-07,1.3308063284155026e-06,9.100690763604484e-07,6.920494775443598e-07,1.0525688086037342e-06,2.64546347057424e-07,1.1351356296055264e-06,3.701273680911686e-07,2.4666198144189047e-06,1.8838339981380644e-06,2.3253876610035184e-06,1.20255199296681e-06,1.3553452462747787e-07,1.448516265311137e-06,3.577044897490416e-08
1.3400044427169396e-06,8.504796777965572e-07,3.541182601147222e-07,4.7081846745653607e-07,1.40421922410525e-06,9.19151657250528e-07,6.883326041236081e-07,1.0666499451359402e-06,2.607525063956797e-07,1.173396229263613e-06,4.1710863124987267e-07,2.4983815432527887e-06,1.922634491761046e-06,2.3393418010156855e-06,1.168804850563014e-06,2.1199679385578762e-07,1.4299812570655084e-06,1.6279643510397212e-08
1.19045335108782e-06,9.038880843563479e-07,3.9584922497508906e-07,5.167540620159679e-07,1.4752339059209653e-06,9.284858178264859e-07,6.751099941075111e-07,1.0811111803289107e-06,2.492159181366256e-07,1.2129682578337161e-06,4.619942475255206e-07,2.530586184592984e-06,1.9724769884692958e-06,2.3550642931537857e-06,1.1284522859653013e-06,2.944176106173801e-07,1.411466492837237e-06,-9.62190480053833e-09
1.0659691573454464e-06,9.569738081609741e-07,4.3938420350823396e-07,5.655481547679761e-07,1.5457179129813563e-06,9.38522763251453e-07,6.53630878804658e-07,1.0929583529561042e-06,2.3287212098103343e-07,1.2496256976765945e-06,5.035314769546119e-07,2.5615638889221424e-06,2.026831948722223e-06,2.369955721252148e-06,1.0825439076582187e-06,3.733236108816065e-07,1.3918643395834516e-06,-3.970230328519653e-08
9.779653745419418e-07,1.008625885533905e-06,4.840678189801411e-07,6.15733218575191e-07,1.6153515338865801e-06,9.482663760140084e-07,6.285659984982988e-07,1.100388395826719e-06,2.146100339151069e-07,1.279765399253627e-06,5.401315767107467e-07,2.5890615516290773e-06,2.076265498292439e-06,2.3797277848390863e-06,1.0328250676375923e-06,4.404713620972785e-07,1.3692049565949374e-06,-7.208640154768972e-08
9.591092031875573e-07,1.0574675165018346e-06,5.285827468830744e-07,6.648822999189344e-07,1.6817639519506995e-06,9.5520222418873e-07,6.060323694266937e-07,1.1025828844864563e-06,1.967518837147676e-07,1.3009953169729114e-06,5.698137298386803e-07,2.6108328884803256e-06,2.111096869004423e-06,2.3793974133085155e-06,9.814643419886992e-07,4.902750122247837e-07,1.3413697614474433e-06,-1.0514955405279348e-07
9.158524516350159e-07,1.1035688251713626e-06,5.70692313731578e-07,7.099258209490274e-07,1.741235864966579e-06,9.557955214028251e-07,5.911945434823181e-07,1.0993350010349124e-06,1.8046512006754466e-07,1.3126023804783844e-06,5.904737625092853e-07,2.625634148783411e-06,2.1239870251861352e-06,2.3655734289246292e-06,9.311039205592546e-07,5.202839566929482e-07,1.3070136943693236e-06,-1.3719353235901468e-07
7.450947339750418e-07,1.1470341499038435e-06,6.074276854443046e-07,7.480517890634019e-07,1.7897800825752097e-06,9.468145679196514e-07,5.863196927613556e-07,1.0906727641962316e-06,1.6528896504318828e-07,1.3159066445365953e-06,6.004039064175932e-07,2.6334009992158727e-06,2.1113963282394118e-06,2.337893025653401e-06,8.846832902854417e-07,5.303113114399087e-07,1.265869341865345e-06,-1.6614470363494814e-07
4.7479382714358944e-07,1.1887776210142505e-06,6.354024879833418e-07,7.773952016255362e-07,1.8234339439503148e-06,9.263864748985299e-07,5.894457798423331e-07,1.0762360611408978e-06,1.491106551089546e-07,1.3128716989401094e-06,5.985612240072307e-07,2.6339583221955315e-06,2.0735657654992172e-06,2.2980801065639517e-06,8.443961966288322e-07,5.208932209054579e-07,1.2183275382710446e-06,-1.895208272154849e-07
3.005217011646143e-07,1.2294801988355093e-06,6.513174832495992e-07,7.96997864103607e-07,1.8380044417578797e-06,8.942353135381098e-07,5.945252375751328e-07,1.0551975254982103e-06,1.2908057586617516e-07,1.3051486738463573e-06,5.849470195518095e-07,2.626224087270247e-06,2.0137644984600984e-06,2.248720999968232e-06,8.108757203807405e-07,4.923221457789469e-07,1.1654348300981637e-06,-2.0456425387899435e-07
1.60781029353077e-07,1.2673116073449821e-06,6.530517928977092e-07,8.067597648298361e-07,1.8299934169549366e-06,8.51673339294373e-07,5.938809446593794e-07,1.0273976532757564e-06,1.0365009093280571e-07,1.29477766090641e-06,5.614778568495321e-07,2.609129761630528e-06,1.937366262583037e-06,2.193371857364484e-06,7.834700791416651e-07,4.451841231471098e-07,1.1095069766069864e-06,-2.0858212191598047e-07
-9.23812252388719e-09,1.3010730185480052e-06,6.408108104398815e-07,8.076688569714536e-07,1.7985636044033682e-06,8.014361964994724e-07,5.819111302683511e-07,9.945284792977618e-07,7.362567817493409e-08,1.2847887285771394e-06,5.324420569827356e-07,2.5825398866837126e-06,1.850527214623952e-06,2.1362094318054415e-06,7.60557858426154e-07,3.819506135815277e-07,1.0539878130023384e-06,-1.9981424073553346e-07
-1.9576512829729932e-07,1.3289957284638254e-06,6.171609204918527e-07,8.015772852414319e-07,1.7463159121108654e-06,7.470093972182171e-07,5.575812060814297e-07,9.602086517189394e-07,4.217128371617707e-08,1.2777319311471798e-06,5.037344834656425e-07,2.5470613535903706e-06,1.7585697722853466e-06,2.080333011552547e-06,7.392650752175019e-07,3.081526783232311e-07,1.002132557391109e-06,-1.7851495613979202e-07
-3.7529383712000823e-07,1.3487005481492787e-06,5.860270268796035e-07,7.905229402050403e-07,1.6787151755703172e-06,6.918761008840447e-07,5.245990154275479e-07,9.29098929099155e-07,1.3312200834425528e-08,1.2761541372629247e-06,4.815363190376254e-07,2.5041921738545444e-06,1.6648259438455093e-06,2.0270828837192134e-06,7.157594906763697e-07,2.317068550182195e-07,9.558697620327e-07,-1.4733899648058464e-07
-5.332723995037137e-07,1.3587990610471525e-06,5.517710258887495e-07,7.765308804495874e-07,1.6035422497090744e-06,6.39419353376218e-07,4.889167606968755e-07,9.059802244529417e-07,-9.664473194105218e-09,1.2824369454150308e-06,4.711894621910051e-07,2.457165080904873e-06,1.570130648383993e-06,1.9772231897440948e-06,6.865403893514404e-07,1.6058497852775884e-07,9.155379889944328e-07,-1.1066816929986414e-07
-6.772848197736313e-07,1.3591719004711123e-06,5.185601734802402e-07,7.617821398458998e-07,1.5301324522034715e-06,5.928435066997213e-07,4.556008525486415e-07,8.949050412460712e-07,-2.4926139664591072e-08,1.2990373804777853e-06,4.7580735280930933e-07,2.4103428270734836e-06,1.4725544236112912e-06,1.93134153176571e-06,6.49273508954513e-07,1.0045453078752586e-07,8.797223982875027e-07,-7.348255633648036e-08
-8.076998381502079e-07,1.3529545291142003e-06,4.893706478963617e-07,7.481017649206242e-07,1.4669339917858003e-06,5.540480747198969e-07,4.269892787309553e-07,8.981440847739926e-07,-3.272867235459759e-08,1.3273759992990736e-06,4.944685191228383e-07,2.3667877817579534e-06,1.3677542416666535e-06,1.8885743297077328e-06,6.025762584589922e-07,5.3451588267480864e-08,8.451254490955386e-07,-4.033489673200814e-08
-8.724882249349155e-07,1.3450012832289002e-06,4.649233742196817e-07,7.359880787344339e-07,1.4181855514105897e-06,5.222813591942896e-07,4.027947401685301e-07,9.153941087481407e-07,-3.559368408611965e-08,1.3666337963081226e-06,5.215069043831548e-07,2.3267495099423818e-06,1.2508366579022659e-06,1.8463386454266928e-06,5.459992074470212e-07,1.8322985658904967e-08,8.075741134592036e-07,-1.436022704772367e-08
-8.828888859200718e-07,1.3380423265899745e-06,4.436300727306618e-07,7.245485446012667e-07,1.3823251355062016e-06,4.943211167561726e-07,3.810109171745277e-07,9.439774958665558e-07,-3.7654546165682976e-08,1.414486642312923e-06,5.481363854449493e-07,2.2883455466236907e-06,1.1193491067786239e-06,1.8020261944266668e-06,4.807074143422751e-07,-8.390294583396e-09,7.64200598734707e-07,3.615813619071401e-09
-8.346638746361771e-07,1.3326719748547252e-06,4.2265993272784627e-07,7.124336087178432e-07,1.3531371573391088e-06,4.660088918591476e-07,3.590711059675147e-07,9.79639571837336e-07,-4.330668729475927e-08,1.4671916703313025e-06,5.653837405236178e-07,2.248709486600761e-06,9.757940625101232e-07,1.7543481836698445e-06,4.0983466247739437e-07,-3.07954718897022e-08,7.153443928291261e-07,1.5309877029910136e-08
-7.854561215828032e-07,1.3282576316934955e-06,3.994392840801291e-07,6.98707449942116e-07,1.322469118611851e-06,4.3377812162280477e-07,3.3427278622347406e-07,1.017325804388988e-06,-5.641878673804362e-08,1.5192124086773658e-06,5.666069061337712e-07,2.2047685519249367e-06,8.283999453343518e-07,1.7034782940911576e-06,3.38133451142791e-07,-5.217456895930904e-08,6.651966906502785e-07,2.41991650525503e-08
-7.530491471978516e-07,1.3225010708282569e-06,3.7299809959239685e-07,6.833948748974307e-07,1.2834616093382165e-06,3.9583542741618827e-07,3.0434781384213403e-07,1.0521354777628613e-06,-7.95652360211953e-08,1.5634467428021094e-06,5.490660991409564e-07,2.15446536089626e-06,6.894986648162692e-07,1.6513141431367568e-06,2.714517601394375e-07,-7.403476949655133e-08,6.211281504894494e-07,3.408036348108898e-08
-7.324383258818724e-07,1.313329268336139e-06,3.4479465921228236e-07,6.678898717335326e-07,1.2333118943616986e-06,3.529777672819213e-07,2.693876047046241e-07,1.0804371452179084e-06,-1.128546848665442e-07,1.5933017278580843e-06,5.144091102612897e-07,2.0977958972085466e-06,5.713723101762389e-07,1.6014252125219184e-06,2.1576006857349298e-07,-9.612843662301522e-08,5.915737142577871e-07,4.7575944145331224e-08
-7.368299727064612e-07,1.3015155691501813e-06,3.1837741663149035e-07,6.546423567326877e-07,1.1739255464700478e-06,3.0830794457876845e-07,2.3314894170929387e-07,1.1005421878273891e-06,-1.533298905803135e-07,1.6038568365391997e-06,4.677696530599868e-07,2.0363326924718116e-06,4.811129559852082e-07,1.5573421720070456e-06,1.7537033419597559e-07,-1.174221673564289e-07,5.829088504093204e-07,6.517513239342677e-08
-7.371526745776474e-07,1.2901719045005307e-06,2.979561462405635e-07,6.459154375303339e-07,1.10987186541221e-06,2.658485043516257e-07,2.0267020852322338e-07,1.1127566757672668e-06,-1.9570119943151333e-07,1.5917836773053136e-06,4.1610927267803303e-07,1.972256692149806e-06,4.177948368410949e-07,1.5207913163516743e-06,1.5163416963139966e-07,-1.3711124715798367e-07,5.971475132011285e-07,8.521804798745669e-08
-7.341711355459291e-07,1.2838607966897186e-06,2.872732939330449e-07,6.428850170146907e-07,1.0463666528072512e-06,2.2947067099821374e-07,1.8690380295660882e-07,1.1192000640357184e-06,-2.3402827166926496e-07,1.5556770597721786e-06,3.670229125636866e-07,1.908467724664658e-06,3.740731563085365e-07,1.4921982990565496e-06,1.4348278565368974e-07,-1.546891796057357e-07,6.318737989153681e-07,1.0471766195488474e-07
-7.00694981264376e-07,1.2880157858661155e-06,2.8950965953782604e-07,6.458484647665407e-07,9.885517599414335e-07,2.026864738413144e-07,1.9512487531115942e-07,1.123440679213086e-06,-2.632851683051185e-07,1.4965241786352904e-06,3.279739937203994e-07,1.8486736889371497e-06,3.406558832914355e-07,1.4719989805127994e-06,1.489249612902805e-07,-1.6802014740959723e-07,6.816184049262081e-07,1.2040731184192877e-07
-6.523386171297723e-07,1.305657365463607e-06,3.071271987388189e-07,6.545347220849451e-07,9.410590916828781e-07,1.8817018715914e-07,2.3427861654024859e-07,1.1293360740076721e-06,-2.8015875172439026e-07,1.4174715143967356e-06,3.049684917916125e-07,1.7960729037174413e-06,3.1040026165672224e-07,1.460240486797112e-06,1.6581456664025947e-07,-1.748689856025054e-07,7.392964492854234e-07,1.294839032570097e-07
-5.845825110458413e-07,1.336154673489628e-06,3.407168612236346e-07,6.678245466448107e-07,9.062962154276469e-07,1.866301114647453e-07,3.055905816405747e-07,1.1393036150956498e-06,-2.835713130533969e-07,1.3237320460918723e-06,3.0073278823158354e-07,1.7521650219689042e-06,2.8073146447782295e-07,1.4556635320532103e-06,1.9188959720664647e-07,-1.7171052698760171e-07,7.976737679750855e-07,1.3004519328221895e-07
-4.884524519120059e-07,1.3753166975127843e-06,3.878288066486296e-07,6.838219711136073e-07,8.83864729264733e-07,1.9626478378483757e-07,4.023656212922874e-07,1.1532493246076005e-06,-2.741940077487297e-07,1.2228446978766954e-06,3.134524813449057e-07,1.717278081000007e-06,2.546668691917533e-07,1.456244823136915e-06,2.2478672987956916e-07,-1.5477306857464252e-07,8.509976838517675e-07,1.2134330729660635e-07
-3.8062544524574875e-07,1.417082850168048e-06,4.430026534094378e-07,7.007832335386395e-07,8.718660328404017e-07,2.1345965687175506e-07,5.109362697698935e-07,1.1687301027251467e-06,-2.543290068508657e-07,1.1245031978006965e-06,3.367186914765464e-07,1.6912345086857357e-06,2.395605028651443e-07,1.4597577058408206e-06,2.615786894389067e-07,-1.2279700444082056e-07,8.958510159238676e-07,1.0378095117956395e-07
-2.686561026658236e-07,1.4566404181120966e-06,4.989002136970527e-07,7.17749654217429e-07,8.680174353495861e-07,2.3387955079249147e-07,6.148637778806424e-07,1.1820590278064914e-06,-2.27829068541347e-07,1.0369438460660982e-06,3.6103293108902363e-07,1.672630295981105e-06,2.426237421242291e-07,1.462979036288197e-06,2.977401023581263e-07,-7.791575735781087e-08,9.307858263352498e-07,7.869830910336999e-08
-1.7402115677209274e-07,1.4902064046094854e-06,5.481113600075058e-07,7.342387348012682e-07,8.697186560588978e-07,2.533451412854421e-07,6.995238254939313e-07,1.1899314893169737e-06,-1.9963710056238916e-07,9.669264794659673e-07,3.769272975116425e-07,1.658394263070522e-06,2.656354880686101e-07,1.4616323993575851e-06,3.2725323131333166e-07,-2.703650771272157e-08,9.557452597275242e-07,4.822306031218138e-08
-1.1025043519999664e-07,1.5158808827124041e-06,5.851798564536854e-07,7.498614276742041e-07,8.740984135167408e-07,2.686467970009448e-07,7.564505246432101e-07,1.1910259098647423e-06,-1.749963818445615e-07,9.170234636510047e-07,3.7822876508169346e-07,1.6450339950794965e-06,3.0297160818323687e-07,1.4522434332664428e-06,3.4461551695873945e-07,2.2063329125919315e-08,9.718545876094005e-07,1.5161808252814432e-08
-8.878766098776556e-08,1.5345473002212416e-06,6.078896629053202e-07,7.642879352899184e-07,8.78793826732799e-07,2.7794901271172133e-07,7.852527202166648e-07,1.1864644580955856e-06,-1.5824939855126952e-07,8.856061231864379e-07,3.632936612407267e-07,1.6298629306156446e-06,3.438336923380083e-07,1.4332736364004263e-06,3.4671459322888217e-07,6.18410039530683e-08,9.809061325288764e-07,-1.7440640071598313e-08
-9.111081663063463e-08,1.5481200349583393e-06,6.168432824344117e-07,7.769960646618741e-07,8.819148374262816e-07,2.8035284348298595e-07,7.916418954581176e-07,1.1787717785088436e-06,-1.5199983804974646e-07,8.683085087128937e-07,3.3418186083913295e-07,1.6109843415778753e-06,3.763001006019099e-07,1.4042045373363414e-06,3.330952759127257e-07,8.71731225972064e-08,9.84439886775205e-07,-4.70206114927805e-08
-1.0715632692014619e-07,1.5586968776919412e-06,6.139600135041066e-07,7.869568023306739e-07,8.817765622782012e-07,2.754497142841498e-07,7.843413485227141e-07,1.1704159272466493e-06,-1.56397139988423e-07,8.588789406056131e-07,2.957874714458655e-07,1.587542121013917e-06,3.9127063424622947e-07,1.3652377194699256e-06,3.0586230543134026e-07,9.642617081629232e-08,9.833774891202225e-07,-7.186304679977557e-08
-1.2887579562333993e-07,1.5677021657482432e-06,6.015318847869753e-07,7.931211397610758e-07,8.767994852447951e-07,2.638086824731536e-07,7.727080695940672e-07,1.1631054529754379e-06,-1.6871124310401391e-07,8.529049674514106e-07,2.5561255939391814e-07,1.5606752395988275e-06,3.8543072879316136e-07,1.3187490909425263e-06,2.7003380522123143e-07,9.066036863323469e-08,9.783313812746234e-07,-9.089429771883307e-08
-1.425337430312656e-07,1.5777693036583558e-06,5.820414954806164e-07,7.953739895997663e-07,8.675002945519971e-07,2.474929538937002e-07,7.649985372211806e-07,1.1576365966332532e-06,-1.8405277405232513e-07,8.495317430062533e-07,2.2259107665149046e-07,1.5330297402297027e-06,3.6225325706656087e-07,1.2696122173412186e-06,2.3302508223135441e-07,7.367441394084615e-08,9.696336132338576e-07,-1.0351589908845995e-07
-1.4612546956078767e-07,1.5884118225267668e-06,5.577923307092549e-07,7.946551830604025e-07,8.558906381058777e-07,2.2931341756178297e-07,7.666936496863444e-07,1.1535553913464023e-06,-1.9627903991791758e-07,8.501930845713022e-07,2.0421717582867526e-07,1.5065049102873607e-06,3.3090585960756197e-07,1.2231899864126692e-06,2.0280927789688451e-07,5.1187854082489383e-08,9.570784053150505e-07,-1.0988681742274801e-07
-1.4441249005548207e-07,1.5975573079059227e-06,5.303639911761026e-07,7.921879777393767e-07,8.450888187265586e-07,2.1159812978695582e-07,7.79339765801718e-07,1.1489802732711554e-06,-2.0028157516982393e-07,8.558223243127739e-07,2.037560861644536e-07,1.4810712687793256e-06,3.043213481068847e-07,1.1838080960972514e-06,1.862669324098457e-07,3.038824132902314e-08,9.404651790450375e-07,-1.1109682614401967e-07
-1.400592507014595e-07,1.6025101450189847e-06,5.007805455086058e-07,7.889675959395371e-07,8.378445750978154e-07,1.959848672884384e-07,8.005435937849673e-07,1.1420253817796234e-06,-1.9279282181448863e-07,8.681255892829723e-07,2.1901250667377412e-07,1.455793487611157e-06,2.971147627705e-07,1.1549331910777815e-06,1.882877825372549e-07,1.8647594240172995e-08,9.208632192620278e-07,-1.087209424859084e-07
-1.3919430669112814e-07,1.6005208826319009e-06,4.702357385572908e-07,7.857793282235669e-07,8.359003398443458e-07,1.8385780045724823e-07,8.2495976869977e-07,1.1305148039135446e-06,-1.7223246514986916e-07,8.853846013491406e-07,2.436383363974657e-07,1.429774313626239e-06,3.226123697099759e-07,1.1386942246576766e-06,2.1057354307391654e-07,2.2214434517985663e-08,9.011239961517251e-07,-1.0422760774293731e-07
-1.4977290787466195e-07,1.5886449954156712e-06,4.40414203409285e-07,7.830297450536678e-07,8.398773310725016e-07,1.7617140137236873e-07,8.456504594634263e-07,1.1124807185812322e-06,-1.3932355643515636e-07,9.030511366736329e-07,2.6812304668379877e-07,1.4019051806498714e-06,3.888069262560004e-07,1.1341939834612128e-06,2.501246677733876e-07,4.516293433306121e-08,8.851257236123072e-07,-9.896518885989201e-08
-1.749163648897526e-07,1.5679938708103946e-06,4.1333977266510355e-07,7.804440472723838e-07,8.489647041351109e-07,1.7304416716608468e-07,8.558386474393845e-07,1.0882204126198578e-06,-9.755356062529856e-08,9.153616583572833e-07,2.8177265814494716e-07,1.371141325863547e-06,4.946767316348594e-07,1.1372584877070478e-06,2.9880703233996355e-07,8.674805527839802e-08,8.766076746590999e-07,-9.468065069725432e-08
-2.171768030384689e-07,1.5412286053651558e-06,3.9118899643212615e-07,7.772588383500903e-07,8.613417303644396e-07,1.7410657756857048e-07,8.514466204718212e-07,1.0605830411369375e-06,-5.2803766996263555e-08,9.166666563520757e-07,2.757205655833443e-07,1.3377150616145934e-06,6.285399867647306e-07,1.1422213046134975e-06,3.4462357153836864e-07,1.4065276527339582e-07,8.779306003237624e-07,-9.392118709668409e-08
-2.763655580884923e-07,1.5115379362539911e-06,3.757231201771453e-07,7.725941209866641e-07,8.749995040528992e-07,1.7894746391132953e-07,8.333862495273874e-07,1.033209866602789e-06,-1.1840392218887261e-08,9.049866888733851e-07,2.4523161791108475e-07,1.3033744290854465e-06,7.69475034284247e-07,1.1434834871632407e-06,3.7431550548111755e-07,1.964201847734748e-07,8.886245555493691e-07,-9.971519533609302e-08
-3.4808319093185113e-07,1.4842323506875476e-06,3.6714435925370053e-07,7.654060735972737e-07,8.876696443175788e-07,1.8666996845259875e-07,8.073321065309216e-07,1.0114963754056083e-06,1.9073794273335146e-08,8.824057050440082e-07,1.9140619002281527e-07,1.2704424797157968e-06,8.92484902776651e-07,1.136493730819136e-06,3.771379269363116e-07,2.4199588434594633e-07,9.04734956677693e-07,-1.143654608865793e-07
-4.2414246052971843e-07,1.4623508975674787e-06,3.6359441937410473e-07,7.545667601424248e-07,8.974333553318489e-07,1.9541533822952212e-07,7.81321829136765e-07,9.999531407463034e-07,3.6119408924146805e-08,8.540234968035942e-07,1.207444093783616e-07,1.241532742383645e-06,9.764986213605036e-07,1.1195233395674224e-06,3.490272537317251e-07,2.6767271429023575e-07,9.201905883951011e-07,-1.3786851995689897e-07
-4.958998794717369e-07,1.446108595142067e-06,3.622558340297057e-07,7.396572202140894e-07,9.042692950311235e-07,2.0303147351585276e-07,7.630668604319762e-07,1.0003450344710887e-06,4.017635072368223e-08,8.277532018550089e-07,4.4581593164218355e-08,1.2197961356341098e-06,1.0112321028281826e-06,1.0949152544246417e-06,2.946564517134714e-07,2.6842459739719473e-07,9.293532271424428e-07,-1.670925396820606e-07
-5.546101672767183e-07,1.434029385675432e-06,3.608552422845778e-07,7.215569810419103e-07,9.108669636698968e-07,2.0811123204083628e-07,7.58243898191343e-07,1.0125815158523775e-06,3.614233038492958e-08,8.125592185253183e-07,-2.4144717186274497e-08,1.2079188207965045e-06,9.986120786962863e-07,1.067299514081706e-06,2.2547947790944624e-07,2.451894826890799e-07,9.287590988209476e-07,-1.9655560584614414e-07
-5.946822667410171e-07,1.423250326370178e-06,3.5801839547344756e-07,7.018781748009472e-07,9.205682626806505e-07,2.1018660710073803e-07,7.706246104027474e-07,1.034414361170427e-06,3.1133974763423084e-08,8.138711151958476e-07,-7.548369660675834e-08,1.2064416792493346e-06,9.489072481629531e-07,1.0402639667978554e-06,1.5524346220623083e-07,2.038112370904869e-07,9.175838081695879e-07,-2.203516165066227e-07
-6.17007311411083e-07,1.409684019233966e-06,3.5305533115032057e-07,6.820384593057569e-07,9.35811042630514e-07,2.09418419972345e-07,8.024178672848646e-07,1.0622347700337688e-06,3.1235307702172754e-08,8.332973820308158e-07,-1.0511435270038005e-07,1.2136104141252328e-06,8.757175004301437e-07,1.0152450381609423e-06,9.605136997065159e-08,1.5311185348890654e-07,8.976017252999305e-07,-2.3399948235826405e-07
-6.274955061672567e-07,1.3912365877109602e-06,3.461918998149902e-07,6.630875926449039e-07,9.582753800542449e-07,2.065203086898509e-07,8.543811788017686e-07,1.092161780767695e-06,3.919983370987568e-08,8.675690013774912e-07,-1.1433607753879357e-07,1.2265684855555759e-06,7.930017062354287e-07,9.928711331693427e-07,5.609844205670255e-08,1.0340892145518153e-07,8.726482603387485e-07,-2.3556745815324488e-07
-6.345914753392948e-07,1.3687568109114997e-06,3.3884520699431733e-07,6.458987493200375e-07,9.892412097085368e-07,2.0258518211956075e-07,9.251282969824625e-07,1.1214387035575017e-06,5.492276649270617e-08,9.119722629115008e-07,-1.0834274455134068e-07,1.2420579784454794e-06,7.141430357674986e-07,9.741983232993286e-07,3.85777580872367e-08,6.499049103619386e-08,8.47291895430656e-07,-2.2616402345662624e-07
-6.445151391053335e-07,1.3459498981813763e-06,3.330005951176407e-07,6.310408676516742e-07,1.0275371405523607e-06,1.9850181001709118e-07,1.0097310004324413e-06,1.1471923965391184e-06,7.53184904313967e-08,9.61610454381097e-07,-9.467429483252109e-08,1.2567719157587283e-06,6.517202350480805e-07,9.61173318310917e-07,4.184853211366572e-08,4.67796719601565e-08,8.255640256625805e-07,-2.0972210149488233e-07
-6.579866068851897e-07,1.3272923328406918e-06,3.3014905410860427e-07,6.188294991057646e-07,1.0710174137896566e-06,1.946821743877984e-07,1.0994373292791492e-06,1.1668737882443938e-06,9.62805985954641e-08,1.0118270904111312e-06,-8.135405037020312e-08,1.268403367323977e-06,6.16779759843567e-07,9.56909104918992e-07,6.083693280095631e-08,5.438939030265812e-08,8.105839764153111e-07,-1.9200493228821765e-07
-6.697283512730359e-07,1.3157778618969615e-06,3.319685209624552e-07,6.098186212121529e-07,1.1172351893527555e-06,1.9148114780449185e-07,1.1834561921436217e-06,1.1791734162240144e-06,1.1481704966407327e-07,1.0587984769126104e-06,-7.466906641492056e-08,1.276373389613504e-06,6.167328148224696e-07,9.647678037431035e-07,8.838101199801902e-08,8.826059018606312e-08,8.044200783525305e-07,-1.7923012820792492e-07
-6.706362725538808e-07,1.3117981157084826e-06,3.390919913981496e-07,6.047001780142335e-07,1.1638599669151543e-06,1.8951690367106938e-07,1.2519460889126902e-06,1.184390694363434e-06,1.2964932467539388e-07,1.0993068155651667e-06,-7.854633121250982e-08,1.2811174879539943e-06,6.523635435878783e-07,9.859075545469913e-07,1.1600294758560833e-07,1.4238974645286614e-07,8.075199931438445e-07,-1.7662870203256092e-07
-6.526075876897792e-07,1.3133944843997662e-06,3.503342587871822e-07,6.031991943614974e-07,1.2090862563853052e-06,1.8939256681357e-07,1.298666923952186e-06,1.184623237457263e-06,1.419500870026037e-07,1.1304824865593062e-06,-9.345724197862083e-08,1.2832671381820037e-06,7.162695899613982e-07,1.0178511514793814e-06,1.3537239950720983e-07,2.057220479543241e-07,8.184204763633382e-07,-1.8694231816412978e-07
-6.125629935023384e-07,1.3159432952615526e-06,3.628712354062736e-07,6.032491505661013e-07,1.250896247349996e-06,1.912977424190555e-07,1.3227260854276326e-06,1.1828211052309824e-06,1.5497240160850523e-07,1.1511514249751177e-06,-1.1679333375461445e-07,1.2838175145308373e-06,7.94481926665969e-07,1.0556471795722589e-06,1.4070003956524755e-07,2.6457572483324707e-07,8.342153584841433e-07,-2.0937203146662138e-07
-5.54013776735929e-07,1.3146875985297526e-06,3.726257846281294e-07,6.01345141315937e-07,1.287706260289589e-06,1.9463392402113054e-07,1.3290410429150922e-06,1.1820585793683628e-06,1.7249997185015825e-07,1.1639280976603005e-06,-1.446051342043999e-07,1.284032418573328e-06,8.701558527232929e-07,1.0934913690674974e-06,1.3015044026331887e-07,3.0612461843544e-07,8.511259767987909e-07,-2.3985652134212366e-07
-4.856110514891082e-07,1.306837439136987e-06,3.754971078339345e-07,5.935014955457926e-07,1.3181313276714633e-06,1.9755080466117634e-07,1.3266229278256223e-06,1.1848478796366226e-06,1.9682265017931438e-07,1.1677222039171197e-06,-1.7296400270808042e-07,1.284591577829122e-06,9.270595272000128e-07,1.1251756933676462e-06,1.0517625831060923e-07,3.2165550030017087e-07,8.650491693239982e-07,-2.725198569818509e-07
-4.175384635103174e-07,1.2937243485556564e-06,3.6854926253040914e-07,5.762900806144844e-07,1.3407473685337485e-06,1.971391322506458e-07,1.3253868090746077e-06,1.1923496084847548e-06,2.2741480661033704e-07,1.171048605869212e-06,-1.9844332685112832e-07,1.2856153961738969e-06,9.521178501853099e-07,1.1448428629639943e-06,6.889617571610927e-08,3.080082277504794e-07,8.7265168053995e-07,-3.012086542145722e-07
-3.574180503056342e-07,1.276493952604097e-06,3.511721469870077e-07,5.479913445279671e-07,1.3541951625091635e-06,1.908306834720148e-07,1.3334492846756183e-06,1.2052902354388566e-06,2.612819630768709e-07,1.1819261897198671e-06,-2.1708435894276457e-07,1.287900979128251e-06,9.372062095771932e-07,1.1487049601388614e-06,2.4677087342841828e-08,2.678536203704743e-07,8.724559944688344e-07,-3.2058982332953307e-07
-3.085207629353174e-07,1.257863050916418e-06,3.2525995866656606e-07,5.093285795563502e-07,1.358708576863356e-06,1.7781471603763556e-07,1.3551932536354544e-06,1.2246202337344471e-06,2.9412915472475384e-07,1.206131405987668e-06,-2.2454289769977426e-07,1.2935160119972476e-06,8.798592315217059e-07,1.1359293317524856e-06,-2.4870132343820877e-08,2.077108100245561e-07,8.646830299858518e-07,-3.2697590950571463e-07
-2.7148282288185205e-07,1.2411209864956254e-06,2.9461380608031165e-07,4.63090695352216e-07,1.3570989895607762e-06,1.5901173391705328e-07,1.3904128312803227e-06,1.2508712956522473e-06,3.217219267473941e-07,1.2501560911677368e-06,-2.179731670495086e-07,1.3051351020065165e-06,7.827265928982749e-07,1.1081613800634435e-06,-7.797209464944592e-08,1.3625776452984787e-07,8.500892881084346e-07,-3.188014768035008e-07
-2.471694976768151e-07,1.2253753180585916e-06,2.637222543361981e-07,4.130050709763455e-07,1.3526811520343093e-06,1.3600249458085834e-07,1.434961744363091e-06,1.2837847345989215e-06,3.4019426141801693e-07,1.3153758822301047e-06,-1.9790422008631594e-07,1.3255352359513284e-06,6.52137671174539e-07,1.0689744984822399e-06,-1.3245153211278873e-07,6.223143256441225e-08,8.291353380422478e-07,-2.964623727627351e-07
-2.3777900252427738e-07,1.2119583009186692e-06,2.360826481969834e-07,3.6256869498067857e-07,1.351267583883355e-06,1.1012498091458373e-07,1.4828330596704621e-06,1.3224172782319304e-06,3.4614065694021986e-07,1.4003424345015281e-06,-1.6966056155164153e-07,1.355356722859532e-06,4.958783996211164e-07,1.023140740572352e-06,-1.8438454526795658e-07,-7.160553268167733e-09,8.019050751426254e-07,-2.6171494603750077e-07
-2.458390557234475e-07,1.2004785449570234e-06,2.138443543343441e-07,3.1394408689151315e-07,1.3566807137110427e-06,8.196102209814834e-08,1.5282652816043542e-06,1.3662789445547615e-06,3.393512520936908e-07,1.5015450448348542e-06,-1.4196289509653468e-07,1.3936542489676125e-06,3.2089288148195527e-07,9.749821957944706e-07,-2.2830285195907727e-07,-6.673491358010708e-08,7.684046636901226e-07,-2.171896340327248e-07
-2.7194090150858947e-07,1.1867857961379412e-06,1.9716159158674586e-07,2.6726048315974303e-07,1.3693122985764005e-06,5.110165657407371e-08,1.5708568385749634e-06,1.4129211126968576e-06,3.252407167524819e-07,1.6136240939951703e-06,-1.2385687337080557e-07,1.4362147558993639e-06,1.329700603019154e-07,9.272349039789415e-07,-2.587965726304168e-07,-1.1323043401786869e-07,7.292706058675743e-07,-1.6620220710228786e-07
-3.1264426782326276e-07,1.1655330986009613e-06,1.833002040140173e-07,2.211566117881371e-07,1.3863703231910174e-06,1.729583722538515e-08,1.6079532472679445e-06,1.4595404377945226e-06,3.079486503672515e-07,1.7276286125052173e-06,-1.194773430686952e-07,1.476374994008948e-06,-6.084244446125206e-08,8.817714051976065e-07,-2.723529082457613e-07,-1.4455661958027806e-07,6.866858305251282e-07,-1.1266761306773897e-07
-3.5883845116901007e-07,1.1314176931646787e-06,1.6967213144080713e-07,1.7356151919020657e-07,1.4018628702312742e-06,-2.1544502335653854e-08,1.640101216558525e-06,1.5033706674824074e-06,2.9215977836887706e-07,1.83410440072112e-06,-1.2428436852220787e-07,1.5078986836383492e-06,-2.49794955316023e-07,8.405556547706069e-07,-2.689976644114495e-07,-1.5945464721999228e-07,6.444724365085109e-07,-6.098864982169438e-08
-3.965263592284221e-07,1.082150387826768e-06,1.5474848785682544e-07,1.2444872832811187e-07,1.4067161607426446e-06,-6.461140279900577e-08,1.6721381303495644e-06,1.5370520322022212e-06,2.8129007869232404e-07,1.924354427027727e-06,-1.276966604980919e-07,1.5258129553192022e-06,-4.2025503035418445e-07,8.053904777540127e-07,-2.5325477192265956e-07,-1.577230936400594e-07,6.070037473264675e-07,-1.577447172937227e-08
-4.064760160779004e-07,1.022979552822952e-06,1.3822145580840513e-07,7.494336597327708e-08,1.3975903397664972e-06,-1.0988163242947554e-07,1.7095777524011994e-06,1.561219493063286e-06,2.7229042992854624e-07,1.9908457822227357e-06,-1.1964961517649106e-07,1.5278190938438235e-06,-5.599205154183928e-07,7.77847555435547e-07,-2.3310523154033392e-07,-1.4093246024321726e-07,5.779705180241343e-07,1.8950880716689066e-08
-3.7358172993623045e-07,9.60535872910852e-07,1.2117706435994037e-07,2.7207083329069187e-08,1.3750486008093604e-06,-1.5562642245625902e-07,1.7576756790194717e-06,1.5834693080452657e-06,2.633302801942084e-07,2.030047905726647e-06,-9.111590511357302e-08,1.5161153298668495e-06,-6.627819308686785e-07,7.600463854858939e-07,-2.167110091617257e-07,-1.1278656496981458e-07,5.597706289176485e-07,4.105518411982014e-08
-2.887533488776828e-07,9.056803694769612e-07,1.0618524934700843e-07,-1.72985069114872e-08,1.3421536806186294e-06,-1.9809542047535226e-07,1.8260459556210138e-06,1.6033749242769796e-06,2.537231293752471e-07,2.0502613865331746e-06,-3.763509430431763e-08,1.4949064529199942e-06,-7.319110681469656e-07,7.544078029828316e-07,-2.0889586184580744e-07,-7.805306404900566e-08,5.532867662458017e-07,5.138018505262466e-08
-1.5077596968415388e-07,8.689317282846812e-07,9.53849691055109e-08,-5.792983896015823e-08,1.3066412929806877e-06,-2.3740621547418565e-07,1.920679756579507e-06,1.6172941289525424e-06,2.454812707706928e-07,2.053369522497606e-06,3.7105951508108856e-08,1.468896096951311e-06,-7.783644093003319e-07,7.618349564226496e-07,-2.0951824681514594e-07,-4.120189969021192e-08,5.579391327568992e-07,5.377615670382207e-08
3.1138913490123704e-08,8.546821581227113e-07,9.091652762040147e-08,-9.497812793177568e-08,1.273275740273348e-06,-2.738649824399618e-07,2.0391222486193517e-06,1.6328773218984397e-06,2.411660714762219e-07,2.043265995786355e-06,1.2498414753708113e-07,1.4414318338426875e-06,-8.166485622670886e-07,7.803088827515622e-07,-2.1422689551317792e-07,-5.672855927694734e-09,5.721005400725392e-07,5.393601025034847e-08
2.40566281904291e-07,8.631245903195871e-07,9.29873117428737e-08,-1.293553410964483e-07,1.2497884819326222e-06,-3.079901252247519e-07,2.1707176140176348e-06,1.6466210367814697e-06,2.453435847403104e-07,2.023419194784932e-06,2.1152287817017513e-07,1.4132429034876233e-06,-8.59314787882795e-07,8.049133164413216e-07,-2.169862981603527e-07,2.597544453418526e-08,5.933667379115001e-07,5.749142259039559e-08
4.58038210515427e-07,8.86831102869303e-07,9.805771699802493e-08,-1.6182919404340017e-07,1.2376006600018185e-06,-3.4094811659624924e-07,2.300338528233502e-06,1.653996498589599e-06,2.609417183867623e-07,1.9927475681117937e-06,2.8589510621874956e-07,1.384381549274928e-06,-9.13290149583328e-07,8.286876080495639e-07,-2.1307436061648464e-07,5.1410808200936836e-08,6.183659049926511e-07,6.813849859413843e-08
6.64686848495144e-07,9.13369296337081e-07,1.01296433707834e-07,-1.9376844749788792e-07,1.2349340214383445e-06,-3.74314431872442e-07,2.4114301379315887e-06,1.656474711780498e-06,2.8435487451698177e-07,1.9535362936605475e-06,3.412077117857818e-07,1.3560822274037681e-06,-9.787916711864557e-07,8.443722706679828e-07,-2.0071017963139108e-07,6.887548041173285e-08,6.428789408230107e-07,8.663387164336987e-08
8.449364866434356e-07,9.320592200209565e-07,9.657893380120119e-08,-2.2595973134061712e-07,1.2380058565023264e-06,-4.101996813669698e-07,2.490649653018778e-06,1.650579805040256e-06,3.15647069445415e-07,1.9102700481219972e-06,3.7615297945082407e-07,1.328751642926092e-06,-1.050459570324661e-06,8.470310845230349e-07,-1.8060909581828536e-07,7.810268437146644e-08,6.628169462689013e-07,1.1102356299161433e-07
9.895221431758061e-07,9.369799336468452e-07,7.868614438028832e-08,-2.6019686699629627e-07,1.2396890659986241e-06,-4.503622028389657e-07,2.538174815970501e-06,1.6364055575252518e-06,3.4990371927545127e-07,1.8687965349153175e-06,3.947399102128665e-07,1.3039464365497335e-06,-1.1201491576122513e-06,8.338192759646169e-07,-1.5579968382699074e-07,8.102111408575095e-08,6.753159226416114e-07,1.376983099380256e-07
1.092693194081048e-06,9.243458147889881e-07,4.7327429268318497e-08,-2.9800838212964836e-07,1.2355214558815426e-06,-4.937918261151427e-07,2.554656979721087e-06,1.6177961081709497e-06,3.865789337014132e-07,1.8253036860543593e-06,4.0048716591933753e-07,1.284295128014697e-06,-1.1852544322673143e-06,8.088313970786157e-07,-1.2771414731276335e-07,8.125708370114066e-08,6.792602136409725e-07,1.6269231725043966e-07
1.1491385569270266e-06,8.938953332235298e-07,3.5789122129353548e-09,-3.395772054058232e-07,1.2342550445953894e-06,-5.407084121631842e-07,2.551196273716206e-06,1.5896709234070348e-06,4.2550512042300194e-07,1.7868518123240137e-06,4.002261277853085e-07,1.2706289470832797e-06,-1.2411462090977208e-06,7.777123011011052e-07,-1.0319342667870421e-07,8.259588805774623e-08,6.754354834063849e-07,1.8287393657610684e-07
1.159407034292744e-06,8.483165094903413e-07,-5.923862509330259e-08,-3.853313619868728e-07,1.2296216805564857e-06,-5.886324533390608e-07,2.504445371266361e-06,1.5532418074295727e-06,4.56133362874511e-07,1.7567820984915696e-06,4.0148256898796014e-07,1.2622076205944044e-06,-1.2863886219516635e-06,7.472449718965858e-07,-8.609808121537659e-08,8.751330458392968e-08,6.663083583194419e-07,1.9666436879153924e-07
1.1262302154860783e-06,7.911819253092512e-07,-1.3387678094713932e-07,-4.3541481964492714e-07,1.2274425419781206e-06,-6.406344178509368e-07,2.432074048293862e-06,1.5106525542159068e-06,4.817040798010237e-07,1.729141403190785e-06,4.05126996330835e-07,1.258437306278782e-06,-1.3212474730356996e-06,7.210741165768003e-07,-7.753522725806838e-08,9.642056038542951e-08,6.550968058895093e-07,2.040348215680363e-07
1.055656800273549e-06,7.279847762781621e-07,-2.072222528581334e-07,-4.830013479354522e-07,1.2299569936329566e-06,-6.808975783336742e-07,2.350051062064819e-06,1.4656834565573364e-06,5.038185627471144e-07,1.6976401073411e-06,3.9367123281315097e-07,1.2564784990036238e-06,-1.3536237618139444e-06,6.984483585924346e-07,-8.171176315787593e-08,1.0805339253023012e-07,6.445906934784119e-07,2.0608968021385736e-07
9.623837800456937e-07,6.650228283088138e-07,-2.747194385893734e-07,-5.293842084381622e-07,1.2327401957549049e-06,-7.095486449325627e-07,2.275078397780716e-06,1.434526366966852e-06,5.163607469903284e-07,1.6549913339258735e-06,3.620469144223026e-07,1.2520010205662169e-06,-1.39302854902576e-06,6.767336615484779e-07,-1.0043524401992039e-07,1.2060274097418143e-07,6.365261170937901e-07,2.0463545431408615e-07
8.582431646658685e-07,6.048631187821294e-07,-3.265699759185846e-07,-5.795361949903328e-07,1.2249315364695425e-06,-7.325745460778373e-07,2.2222157201196734e-06,1.4190200190561381e-06,5.209723118855308e-07,1.5991664955567573e-06,3.151547309453183e-07,1.2425765052435008e-06,-1.4525124778071603e-06,6.525404981155698e-07,-1.31766583144245e-07,1.3258498290643977e-07,6.313128172648267e-07,2.016375211884824e-07
7.577353627006649e-07,5.495229758102453e-07,-3.552856016804869e-07,-6.389102077137286e-07,1.2107970538711523e-06,-7.546888173446901e-07,2.171327382301824e-06,1.3914908068143517e-06,5.217303960958249e-07,1.5243884645423658e-06,2.601249722835863e-07,1.2232334358581353e-06,-1.5293623740965334e-06,6.241912062900795e-07,-1.7658916692556012e-07,1.439986482709294e-07,6.275973858933046e-07,1.9763825713191537e-07
6.761367360904659e-07,4.986923884855673e-07,-3.8193798874892694e-07,-6.958579581999927e-07,1.197135674476373e-06,-8.038895274630388e-07,2.1066486157623167e-06,1.352101711138147e-06,5.075662809986423e-07,1.4211158652206132e-06,2.1674413111727965e-07,1.1952929650130632e-06,-1.5670563396196098e-06,5.900194732376885e-07,-2.3783569068563267e-07,1.5561175444649384e-07,6.222298466424802e-07,1.9533980030797892e-07
6.223721857765356e-07,4.491338381516188e-07,-4.109777633854063e-07,-7.44598226413891e-07,1.180520873757064e-06,-8.486423926673232e-07,1.9467227829737455e-06,1.3012187800511272e-06,4.844892718917125e-07,1.3190452513787185e-06,1.6803604511405128e-07,1.160936069797234e-06,-1.5500683853072552e-06,5.492985598178515e-07,-2.7346685812462783e-07,1.680017380318519e-07,6.112735078449153e-07,1.9319953424271238e-07
6.085578157728015e-07,3.981467428654624e-07,-4.5730421773685714e-07,-7.68272223187872e-07,1.229140511740233e-06,-8.892096660665174e-07,1.6845002052101043e-06,1.1790877039422107e-06,5.036236570117171e-07,1.2492079101779827e-06,1.0841342713160236e-07,1.1239528864321576e-06,-1.430953936860166e-06,5.005731120252786e-07,-2.9202710340741e-07,1.8066063308203477e-07,5.912813736331939e-07,1.923198301107967e-07
6.543007707522593e-07,3.4092232888190327e-07,-5.639517741710418e-07,-7.467736269263883e-07,1.2899254806570844e-06,-8.815020036754623e-07,1.5360329624824851e-06,1.059882013395139e-06,5.276648876295146e-07,1.2238369815679903e-06,2.2488782889695337e-08,1.0970744695273797e-06,-1.1287984961498668e-06,4.4218270499908084e-07,-2.595377752619127e-07,1.908817395451001e-07,5.599693198455048e-07,1.9596668380904628e-07
7.558143828727513e-07,2.746795439650782e-07,-6.442999213969619e-07,-7.41047615818439e-07,1.3454240967955816e-06,-8.170605426965988e-07,1.438421671040337e-06,9.629067450474266e-07,5.65725469073532e-07,1.2337717669435208e-06,-1.4443530959903278e-07,1.0885295726111378e-06,-9.214481871549373e-07,3.710020475469347e-07,-1.4040718429718826e-07,1.9401307141998884e-07,5.168527299378507e-07,2.0428419606851104e-07
9.00155647946835e-07,1.9713076274765518e-07,-7.028444280291287e-07,-7.459894206327009e-07,1.405529320320136e-06,-7.834701770775532e-07,1.3393535649307325e-06,8.683553741526232e-07,6.421071801236443e-07,1.2520633304872038e-06,-2.6476962254616e-07,1.0898595817090737e-06,-7.406240635741009e-07,2.83888127228487e-07,-7.109859869036662e-08,1.8406335123217703e-07,4.6438244105191094e-07,2.1676110463498891e-07
1.046914827001911e-06,1.1645026451034449e-07,-7.56148213664756e-07,-7.46210016098146e-07,1.4385858079804508e-06,-7.770578801437408e-07,1.2927649731905007e-06,7.767351705433875e-07,6.813645826067552e-07,1.2379037372054332e-06,-3.4364170949843514e-07,1.103184690735305e-06,-5.302190378056366e-07,1.8116338496528627e-07,-4.7597166443279307e-08,1.5650135735944738e-07,4.087006440404645e-07,2.2934651856468684e-07
1.0910464865736561e-06,3.6275898666848394e-08,-7.85482703622101e-07,-7.392141897781088e-07,1.4505752356527047e-06,-7.640792262817988e-07,1.2483954442385988e-06,6.901998612675345e-07,6.920154030296725e-07,1.2698543446743554e-06,-4.109959633851167e-07,1.1291298144635907e-06,-1.2544298899431112e-07,8.625233385125013e-08,1.2256541783354428e-07,1.1101769130952404e-07,3.591209613222414e-07,2.3410437500572102e-07
9.798191312053004e-07,-3.942169391793222e-08,-8.067216130019916e-07,-6.972538507033505e-07,1.4423400097591358e-06,-7.327372762588605e-07,1.1398561222928622e-06,5.870296311814597e-07,6.961575668999811e-07,1.264053758177638e-06,-4.602891271922122e-07,1.1370840033501858e-06,2.2280938028839394e-07,2.5905842556931207e-10,2.683923357408113e-07,5.28702493870205e-08,3.2637613675052773e-07,2.210775464767148e-07
8.583342004836093e-07,-1.0044449170106382e-07,-8.289106237089413e-07,-6.632273595906849e-07,1.4272338729991473e-06,-6.398592168712573e-07,1.075716270645579e-06,5.071585458849023e-07,7.231965949453018e-07,1.1855232463194032e-06,-5.801786128095937e-07,1.0877619289259188e-06,4.1112417627815874e-07,-6.608777110870121e-08,3.279876475930673e-07,-8.768496037010988e-09,3.195967113129617e-07,1.8387833318835563e-07
7.419145944924769e-07,-1.349458454016862e-07,-8.32754913414022e-07,-6.451594112538308e-07,1.4065276639435728e-06,-5.813590618079846e-07,1.0217343538157362e-06,4.6695292768660487e-07,7.570028141214561e-07,1.10972220595271e-06,-6.688440661811221e-07,1.0531657999408845e-06,5.039696916065792e-07,-1.144697627573919e-07,4.1340077765318765e-07,-6.555360261628983e-08,3.423559050778979e-07,1.2198236732432573e-07
6.351168476330636e-07,-1.4504864866055167e-07,-8.068032904468812e-07,-6.500361107212808e-07,1.37079190259628e-06,-5.437066811129162e-07,9.458251837684442e-07,4.248274067660165e-07,7.60904084399288e-07,1.0349506946402984e-06,-6.92480039217666e-07,9.904794603817877e-07,6.005022056202915e-07,-1.1665228536470338e-07,4.523363456597794e-07,-1.1379447065618703e-07,3.901069894631299e-07,4.188073465506989e-08
4.773839928615888e-07,-1.41128721473337e-07,-7.872936381509949e-07,-6.507914874134845e-07,1.3294769786300725e-06,-5.020837650198056e-07,8.909468166346548e-07,3.774894958139756e-07,7.407028668973043e-07,1.007048853209558e-06,-6.871886682007194e-07,9.279655184594763e-07,6.875700760774379e-07,-9.15973822251687e-08,4.967770971793047e-07,-1.5452244314384563e-07,4.516438612761639e-07,-4.251520566402654e-08
2.6282950463493757e-07,-1.1199517448870991e-07,-7.652050192127421e-07,-6.487305548556376e-07,1.2812943827151267e-06,-4.678898892890013e-07,7.781100946369431e-07,3.1279262609803774e-07,7.043198520915164e-07,9.758078257652248e-07,-7.203351660783006e-07,8.644296404508278e-07,6.753501072448798e-07,-3.6561533333548664e-08,5.068799313268811e-07,-1.8976298555024822e-07,5.14018653644346e-07,-1.1842872439583828e-07
6.581359202366937e-08,-6.931420688966982e-08,-7.452063378331923e-07,-6.490697491837974e-07,1.2315052499604764e-06,-4.3745051990910095e-07,7.224951498464954e-07,2.340468470838929e-07,6.808380188072556e-07,8.86562059515816e-07,-7.37848819327874e-07,7.911633261395731e-07,6.154205972453078e-07,3.9182966366319856e-08,4.3508829978873727e-07,-2.1829647341526945e-07,5.683106963116863e-07,-1.7857984189808554e-07
-4.368400761497118e-08,-1.623348487789546e-08,-7.297565822224214e-07,-6.767801993500392e-07,1.1839873507598365e-06,-4.2825315864153366e-07,7.001695956612901e-07,2.1103000927985205e-07,6.519595146253255e-07,8.345274907306207e-07,-7.368410816585224e-07,7.495176498751777e-07,4.4512786925935055e-07,8.71383225464619e-08,3.498069459217992e-07,-2.3382835493792544e-07,6.108210200877715e-07,-2.071332431552498e-07
-1.023586360377441e-07,5.3578615498525886e-08,-6.988469634398233e-07,-7.345291317826127e-07,1.0742214574419037e-06,-4.705369234513823e-07,7.633944689550822e-07,2.2249553369680793e-07,6.117693342510265e-07,7.775283941317028e-07,-7.508825567026024e-07,7.104541808854958e-07,2.8088793992598395e-07,1.2232390587098193e-07,2.7139317100566216e-07,-2.2569668968164042e-07,6.4384807634103e-07,-2.219139581255917e-07
-1.7086836123939478e-07,1.1708925044166585e-07,-6.507730872064129e-07,-7.849245508852818e-07,9.633307489188725e-07,-5.428679107023203e-07,8.674908608520971e-07,2.328695286552645e-07,5.723881223030874e-07,7.202565101031828e-07,-7.774072120356597e-07,6.51669236526013e-07,1.3606231454790593e-07,1.534179366227032e-07,1.89244435363685e-07,-1.8207547207416376e-07,6.732610489487647e-07,-2.0931823889319615e-07
-2.3392466464413017e-07,1.4285835070276168e-07,-5.990782357155265e-07,-8.315227197908805e-07,8.76465895960411e-07,-6.135394828841614e-07,9.65391353481495e-07,2.482546854781507e-07,5.491001612143343e-07,6.514454692574506e-07,-7.82961825590152e-07,5.767880010223298e-07,-2.089537530935434e-08,2.1886098980698224e-07,1.4986879609300774e-07,-9.462573434248155e-08,7.034238828249332e-07,-1.7475147532506176e-07
-2.4426223784629106e-07,1.361258867527581e-07,-5.480116036448104e-07,-8.69915743666336e-07,7.557708334016147e-07,-6.83889209954668e-07,1.1301298351644708e-06,2.670719453180136e-07,5.026708120699728e-07,5.474606845992711e-07,-7.458987734840496e-07,4.993150659083553e-07,-1.2601298145643494e-07,3.2568108634947924e-07,1.2336479478697465e-07,3.672112745115144e-08,7.359391205246283e-07,-1.4673185838891095e-07
-2.142050652722043e-07,1.3384054079921162e-07,-4.93287673222911e-07,-8.907435322163707e-07,6.053528221480988e-07,-7.579541352058764e-07,1.3160401119607705e-06,3.09632630700107e-07,4.45879768667824e-07,4.3253914286741705e-07,-6.727648433996408e-07,4.380010006812507e-07,-2.3707823921268957e-07,4.6240823864968675e-07,1.1528411095662328e-07,2.0044770292791025e-07,7.679737054581583e-07,-1.4351470060691983e-07
-8.666819085419844e-08,1.7478839221916748e-07,-4.1701734349601154e-07,-9.032305227941631e-07,4.6376533325875865e-07,-8.313709315796819e-07,1.5441966095614438e-06,3.5823491970581673e-07,4.0831230764537953e-07,3.2859701252584417e-07,-5.99630103798932e-07,4.1189098028577867e-07,-3.8531248999075446e-07,6.332501007403978e-07,1.1944941175818666e-07,3.7460252009776985e-07,7.931828496835541e-07,-1.738828720402364e-07
6.765570576713455e-08,2.221169810226235e-07,-3.397195213636752e-07,-9.220574744022114e-07,3.539476463360861e-07,-9.055511112227361e-07,1.8015602069394213e-06,4.10936857509117e-07,3.336727591736596e-07,2.396590280841377e-07,-5.129160373423398e-07,4.488798325861354e-07,-5.43511069536955e-07,7.911924562747716e-07,9.740537953537103e-08,5.329954964421575e-07,8.025482415792459e-07,-2.3516842894348056e-07
2.249794900215184e-07,2.1904190214830663e-07,-2.6120856133552803e-07,-9.347251790389414e-07,2.4579705229513353e-07,-9.771097459010125e-07,2.0469680358089586e-06,4.5488843229744996e-07,2.5484355424667643e-07,2.1493946505127075e-07,-4.4869568884518977e-07,4.905164215025555e-07,-7.001016021808802e-07,9.647172349818602e-07,5.3635614868557134e-08,6.543079021815781e-07,7.925029876701909e-07,-3.403682165353382e-07
4.11949286275813e-07,2.1527215054924794e-07,-2.0576260622822984e-07,-9.421404828533873e-07,1.6965919653415702e-07,-1.0386309782429803e-06,2.2548146113630105e-06,4.768221302978392e-07,1.9136684851284192e-07,2.0965644682998298e-07,-4.487521067882416e-07,5.013327035857137e-07,-7.434468649447072e-07,1.0655741458516289e-06,1.6777655300266548e-08,7.294499156254164e-07,7.555126510060346e-07,-3.991662030939746e-07
5.304972984933151e-07,2.1272343730196252e-07,-1.4121551328069557e-07,-9.438464586755227e-07,9.592475325064712e-08,-1.0928174414891564e-06,2.3804454325752283e-06,4.930945266789672e-07,1.6162818494243641e-07,1.9937273324286037e-07,-4.6277694300345393e-07,5.104805940655914e-07,-6.047821072374661e-07,1.1151194937049436e-06,1.8386436319316423e-08,7.639238742211921e-07,6.933645234980709e-07,-4.872180266349298e-07
5.885495435766209e-07,2.1373411563093313e-07,-8.179485131340029e-08,-9.352792262058881e-07,-1.3994072158890976e-08,-1.1338974521360976e-06,2.5201207721909045e-06,5.086751327269598e-07,1.2704132325555237e-07,1.4034796481840322e-07,-4.412861299953196e-07,5.149984561640263e-07,-5.31271395810617e-07,1.1578116484957966e-06,9.639598802778702e-08,7.749013416099968e-07,6.133400424521912e-07,-6.680149448937741e-07
6.180510233608629e-07,2.2643314944542303e-07,-3.651921028184749e-08,-9.197827089023457e-07,-1.4062969652151662e-07,-1.15850538039017e-06,2.6971452453601704e-06,5.197323208637655e-07,8.346103605122407e-08,8.315131592351357e-08,-4.250340146064161e-07,5.278399735904672e-07,-5.060050585457569e-07,1.239957883332654e-06,2.093747322308008e-07,7.84065775446831e-07,5.248355256586557e-07,-8.309516498564668e-07
6.040701484792317e-07,2.520915801333589e-07,3.538814685457583e-08,-8.984575887699545e-07,-2.801093070258606e-07,-1.1654301282149087e-06,2.877812197753762e-06,5.155661661501501e-07,3.890978652508413e-08,2.3747128283746768e-08,-3.8101903320757865e-07,5.548588848441716e-07,-2.158708728493356e-07,1.2580622508227243e-06,2.970492016643749e-07,8.086580062021228e-07,4.419340471990916e-07,-9.95786335506245e-07
5.494207836297829e-07,2.555760731331054e-07,1.1452885430371799e-07,-8.727391539454141e-07,-4.038139871279188e-07,-1.153665854107658e-06,3.017220661884774e-06,4.953000929298121e-07,-2.803244794375477e-08,-5.1534295251061785e-08,-3.3286589793119995e-07,5.988775754511984e-07,1.3382930607658827e-07,1.2053216530837125e-06,3.625109041972606e-07,8.54000523768299e-07,3.757368430363164e-07,-1.1729686319017278e-06
