0,1,2,3,4,5,6,7,8,9,10,11,12,13,14,15,16,17
7.299006886538895e-08,-1.1720501530926295e-07,-8.665636646670087e-08,-1.2081467864548629e-07,-2.8650637401978644e-07,-2.7367647137294766e-07,1.27577087783316e-08,-4.879109424571002e-08,-1.6009352831949933e-07,-2.262588431329424e-07,1.243876040025781e-07,-4.673067015060769e-08,5.059150517724654e-07,2.848391278547194e-07,9.070670693978338e-09,7.165136682629108e-07,1.4341216954289027e-07,6.148474268735486e-08
8.952601176939334e-08,-7.75437070543137e-08,-9.882481426498724e-08,-9.366324923328678e-08,-2.5171462353398064e-07,-2.2584352473511992e-07,-2.7208775946146383e-08,-4.204894233350748e-08,-1.226368476353925e-07,-1.9634738256246287e-07,9.791397895749963e-08,-1.7326876858383222e-08,4.3061387335788665e-07,2.259941945039011e-07,2.515890136273697e-09,5.018706410762096e-07,1.0970580986206226e-07,4.523922095366934e-08
1.0726572524018518e-07,-5.230531603581491e-08,-1.064069653291072e-07,-7.278481742623042e-08,-2.1539375823167632e-07,-1.785413439596352e-07,-4.455214784879352e-08,-3.2713063989129686e-08,-8.162436026958248e-08,-1.566764347234289e-07,7.34153805170251e-08,2.916190659074482e-09,3.304248172425597e-07,1.7227422106942854e-07,-1.709510054615999e-09,3.428570313408361e-07,7.868715363559115e-08,3.248231345417521e-08
1.2691358501420035e-07,-4.029346041883625e-08,-9.847545910970174e-08,-5.6615306465257046e-08,-1.703231090692828e-07,-1.2357498022054096e-07,-4.387285402406729e-08,-2.334369563781539e-08,-4.433243558472608e-08,-1.1474652836197863e-07,5.29738611471453e-08,1.3944452063864571e-08,2.849333220026834e-07,1.2203748598585443e-07,-1.2819309561785245e-09,2.244139212781308e-07,5.4035958558371135e-08,2.470558049306555e-08
1.659497870563665e-07,-3.847463315809724e-08,-7.482878669243861e-08,-4.26940751050642e-08,-1.1541817198584676e-07,-8.214981936530817e-08,-3.028737265416565e-08,-1.3410683140629388e-08,-2.281130386585597e-08,-7.68829833431186e-08,3.662667635049841e-08,1.7146818872722784e-08,1.8222969215779658e-07,7.72092425715134e-08,4.1554753373879424e-09,1.3885880593957555e-07,3.686006571254709e-08,2.1777585715899067e-08
2.1206150025192152e-07,-4.197604220204827e-08,-5.022495975996942e-08,-2.9321679469486066e-08,-5.921827896062856e-08,-3.7612111551745045e-08,-2.1577428019779913e-08,-3.4219915426378764e-09,-1.1736985854547023e-08,-4.5858597525107284e-08,2.3752617045649624e-08,1.4902194926590728e-08,1.5330019143651444e-07,4.209613344684105e-08,1.3257933026532533e-08,8.629632203378383e-08,2.603031621259162e-08,2.211453749401452e-08
2.2621439813120708e-07,-4.4465138814819244e-08,-2.1910944657988427e-08,-1.6603321897361587e-08,2.538394066740392e-10,9.671231502460605e-09,-1.4895492252985567e-08,4.84747915462926e-09,-9.962279031694676e-10,-1.4392003744234513e-08,1.3703823866759466e-08,1.0211176835833624e-08,1.5145766633948372e-07,1.218897747383129e-08,2.3295870762987113e-08,4.704665035830612e-08,1.8642544723902392e-08,2.3035404341270187e-08
2.1368770155991644e-07,-4.030224214860075e-08,1.4328747175123484e-08,-2.040756128677301e-09,4.4011858573477885e-08,5.436622399910187e-08,-6.471234799066167e-09,1.652371686899643e-08,1.1585618084476448e-08,1.3485293405804772e-08,5.263254008160296e-09,4.879529677607551e-09,6.627222981868917e-08,-1.4679045769698362e-08,3.034564305469432e-08,1.3159307540215612e-08,1.0743633617048201e-08,2.132364717931108e-08
1.7386653675018245e-07,-2.696048854289311e-08,4.6518790205412716e-08,1.2619663809634495e-08,7.753198263903032e-08,7.801094599472387e-08,2.0951037972626905e-09,2.5507972323145475e-08,2.029124069997768e-08,3.489464943296623e-08,-3.5720549669475186e-09,-8.010911182745399e-10,-3.0110335532548084e-08,-4.2126450786131074e-08,3.062040827438382e-08,-2.564881549512375e-08,-1.0507095238899876e-09,1.443165980693098e-08
1.0490084747830304e-07,-5.3724538408415654e-09,6.829265373593529e-08,2.594578421633867e-08,1.0449574312455506e-07,9.617270890134313e-08,1.2107164276645993e-08,2.9254790795288167e-08,2.6836350561300612e-08,5.1790761177344794e-08,-1.472598338401357e-08,-6.217523297807652e-09,-1.405343037908122e-07,-7.308391103062084e-08,2.2631182348816305e-08,-7.423498114239027e-08,-1.7798217685482222e-08,1.7992140713088026e-09
1.2049272096847376e-08,2.137585608557881e-08,8.025271969517673e-08,3.7527579750511265e-08,1.2303682166532826e-07,1.0728677342951728e-07,2.0988219019778672e-08,2.522412993034648e-08,3.071897821876489e-08,6.560454516870834e-08,-2.8945200661828356e-08,-9.763565929712062e-09,-2.242205155094271e-07,-1.0085605919370978e-07,7.973628171681471e-09,-1.4461337091490026e-07,-3.798379428016967e-08,-1.4904788721314503e-08
-9.597181981539263e-08,4.922770056060208e-08,8.17487130149056e-08,4.9095847050827224e-08,1.3526052987345029e-07,1.1201752530121115e-07,2.6784674331881743e-08,1.8420244391146647e-08,3.702013100719755e-08,8.123565028171067e-08,-4.5485040474858184e-08,-1.0142390872210443e-08,-2.721809107523348e-07,-1.2151848599334969e-07,-9.83514133081109e-09,-2.3495845356334725e-07,-5.8808606274849546e-08,-3.2695047968635036e-08
-2.1330212228464924e-07,7.432968489896218e-08,7.643608440467168e-08,6.127851072436915e-08,1.4216763112666413e-07,1.193151317463112e-07,2.92715564669595e-08,1.3579676866348881e-08,5.010178544426282e-08,1.0163543370728755e-07,-6.264558676097538e-08,-7.108344140823506e-09,-3.2170965864811395e-07,-1.36708930641596e-07,-2.65474387669561e-08,-3.2748655522936707e-07,-7.739520486758923e-08,-4.8233583416402485e-08
-3.2720750909962277e-07,9.499761660143677e-08,6.747770846269446e-08,7.223477774177785e-08,1.471668410811042e-07,1.1978264735521803e-07,2.9066951468749078e-08,1.0026168095066068e-08,6.805668671345504e-08,1.2787356834368914e-07,-7.861916138104055e-08,-5.407439423504371e-10,-3.6038394030943527e-07,-1.453836001213825e-07,-3.7543830889763404e-08,-3.9789765589270316e-07,-9.111121104827789e-08,-5.8326263860240855e-08
-4.0909447505472913e-07,1.1299330779116243e-07,5.674719887679544e-08,8.280840695394542e-08,1.5404037697032437e-07,1.152974089919623e-07,2.7930618822539062e-08,1.0142585170355495e-08,8.88048481212893e-08,1.5938915895200877e-07,-9.205522380953536e-08,1.005845602865111e-08,-3.8520387001106817e-07,-1.509842126847694e-07,-3.871822505566397e-08,-4.330190774300384e-07,-9.77724308758114e-08,-6.048908406309225e-08
-4.59849507959518e-07,1.3197433158778594e-07,4.5525680710177156e-08,9.302731412344667e-08,1.7060869134058854e-07,1.0947765398344899e-07,2.7863308582856627e-08,1.0202707294106196e-08,1.1081605058205071e-07,1.9525371292375388e-07,-1.0198894445611767e-07,2.4572387245825416e-08,-3.7080330957434334e-07,-1.5129868668483295e-07,-2.8230624752746926e-08,-4.331574381621e-07,-9.619747730893439e-08,-5.374513816731432e-08
-4.795103523032068e-07,1.5427898411509764e-07,3.6829965213405635e-08,1.0660569079953871e-07,1.9253423155014222e-07,1.0965445420060042e-07,2.996134739434339e-08,8.592191673368965e-09,1.334035866555863e-07,2.325513406969657e-07,-1.0737245754284156e-07,4.180963349626543e-08,-3.2891064714575374e-07,-1.4409206832838139e-07,-7.3512094187828445e-09,-4.0250389870081824e-07,-8.641995955390726e-08,-3.896344502043282e-08
-4.683888934599883e-07,1.7947083887958583e-07,3.2232386624346177e-08,1.2334246732338907e-07,2.1704986353927023e-07,1.1367826946322338e-07,3.4243473431477385e-08,4.736583662111276e-09,1.5613099651882957e-07,2.6758287579911684e-07,-1.0705660888477878e-07,6.04870966638164e-08,-2.6441736279303507e-07,-1.29868057463336e-07,2.042151781933848e-08,-3.498422932267232e-07,-6.938826101089243e-08,-1.8487076361923927e-08
-4.335572697146782e-07,2.0540068569257477e-07,3.0226452453443386e-08,1.4209311951413948e-07,2.4432423481186833e-07,1.1771967273258519e-07,4.022254201113608e-08,8.563517021029887e-09,1.7826667538464187e-07,2.983312532271995e-07,-1.0071688124618026e-07,7.957179873395523e-08,-1.9432305183968733e-07,-1.0959115032525478e-07,5.043675370535207e-08,-2.866056120020392e-07,-4.718761905822931e-08,4.34055060154764e-09
-3.821039839275278e-07,2.2949362020604905e-07,2.8932630891065154e-08,1.6139230172408567e-07,2.6711797125708977e-07,1.2573703518449786e-07,4.723895530191421e-08,1.8871504573732697e-08,1.9887464865037334e-07,3.2340842690063967e-07,-8.993584249892716e-08,9.712823165658734e-08,-1.3677289449031968e-07,-8.675273621312241e-08,7.715509463885777e-08,-2.1874200524767892e-07,-2.377313921802158e-08,2.5508642674809886e-08
-3.290620344733418e-07,2.4921373640163385e-07,2.5677990139717413e-08,1.7808492465455253e-07,2.842795626146191e-07,1.348599541997062e-07,5.468536495683535e-08,2.9788973773990634e-08,2.1733178688212036e-07,3.417491041211221e-07,-7.817561728954203e-08,1.0996452053239864e-07,-1.2013194845703884e-07,-6.798195884826688e-08,9.48872396024586e-08,-1.6183479899068772e-07,-4.770539859960899e-09,4.106521063693403e-08
-2.8520530239965577e-07,2.627683910257993e-07,2.627531001221885e-08,1.8986205300378832e-07,2.933288342164455e-07,1.4391825869559316e-07,6.278334567890564e-08,4.009216867757994e-08,2.3213251737448616e-07,3.535472772597156e-07,-6.959909971021717e-08,1.1531313476941908e-07,-1.253572812089004e-07,-6.148219543909284e-08,9.975708319850277e-08,-1.2876610705516166e-07,4.084672863887395e-09,4.8274610089829474e-08
-2.612505822625034e-07,2.6989517477886476e-07,2.677296794725731e-08,1.9505837730865e-07,2.912809376285163e-07,1.5089923961879441e-07,7.32088434586687e-08,4.8125195422253e-08,2.383534364781127e-07,3.6048780668046254e-07,-6.78728239651481e-08,1.1213417142482646e-07,-1.4662313142146385e-07,-7.194915776092233e-08,9.102640161637315e-08,-1.2438980227824703e-07,-1.5239446915773507e-09,4.622134686190404e-08
-2.613356807330454e-07,2.7117186464669684e-07,2.5562736591837588e-08,1.9374733952041782e-07,2.7921145482458007e-07,1.4827774120351805e-07,8.698661574762486e-08,5.154323898177793e-08,2.3578409185754307e-07,3.6487949211043185e-07,-7.573528030329311e-08,1.0027402702516381e-07,-1.674283313961834e-07,-1.029887692482727e-07,7.033281064270972e-08,-1.4857089176702107e-07,-2.4008688779495695e-08,3.53255716531063e-08
-2.826076712484424e-07,2.6645981269949656e-07,2.4052786530685678e-08,1.8640314123359982e-07,2.5740702610579816e-07,1.3475935913350894e-07,1.052682046266879e-07,5.2992398448833246e-08,2.250650111972852e-07,3.672989386680347e-07,-9.490666092953306e-08,7.968590438443338e-08,-1.9323513400729113e-07,-1.5552398857709797e-07,4.042002596614682e-08,-1.9516088627163716e-07,-6.306357590073566e-08,1.56747732058598e-08
-3.1931652340018174e-07,2.551999980889724e-07,1.957383859644641e-08,1.7374408788871228e-07,2.264005624621977e-07,1.0946158303989869e-07,1.270076424470245e-07,5.3314801897492914e-08,2.0690354883321873e-07,3.674585668351368e-07,-1.2557197541417094e-07,5.198621045212937e-08,-2.2548246371459958e-07,-2.2579992358474693e-07,5.2247669238319624e-09,-2.816594836961843e-07,-1.1450582879852643e-07,-1.0494764757401833e-08
-3.616728447972933e-07,2.387618583028954e-07,1.3223734379425233e-08,1.5757991508829924e-07,1.8919143286225844e-07,7.519774863991139e-08,1.5047187621110742e-07,4.483673812849595e-08,1.852575704229788e-07,3.669544481170033e-07,-1.6567628980160384e-07,2.2261814858743977e-08,-2.675992822778763e-07,-3.0651771231572563e-07,-2.9619247306582137e-08,-3.9175081511535105e-07,-1.6986276436802553e-07,-3.9017720296339164e-08
-4.001202866106484e-07,2.2145361598534808e-07,7.680288013779386e-09,1.4010542828856892e-07,1.5329387735563928e-07,3.7122235451698225e-08,1.7278262571989275e-07,3.220224042436002e-08,1.623268789413778e-07,3.6901326939489337e-07,-2.109714655024624e-07,-2.2104469325922163e-09,-3.097441541303216e-07,-3.849550754768299e-07,-5.7786700063272074e-08,-5.109574380714591e-07,-2.182685786948288e-07,-6.546708088765687e-08
-4.2521300593420156e-07,2.0818578211915987e-07,5.144705952128745e-09,1.2444610118936848e-07,1.2565503178972498e-07,5.737925049782284e-10,1.9106670741522312e-07,1.9734462622515024e-08,1.4090470857419763e-07,3.7588775830651987e-07,-2.5599512824062064e-07,-1.5454177614120705e-08,-3.256453413333667e-07,-4.486631480349585e-07,-7.4392378557481e-08,-6.283447273196623e-07,-2.5047560939216726e-07,-8.54685992572441e-08
-4.335666560095388e-07,2.0119598290870267e-07,5.866190998759347e-09,1.131236711735954e-07,1.1061366633160966e-07,-2.8152314833901846e-08,2.0358519502349828e-07,8.145796148248686e-09,1.2335781736646037e-07,3.874956329890277e-07,-2.9508005886314835e-07,-1.4550128206915586e-08,-3.334132245985327e-07,-4.886522719942594e-07,-7.713742231946867e-08,-7.295451518031263e-07,-2.610051814395118e-07,-9.625291667942389e-08
-4.288491600953385e-07,1.99259980614332e-07,1.0208222490793223e-08,1.0717772182003883e-07,1.0976262362133449e-07,-4.5975218631006256e-08,2.0999729416611405e-07,-2.349458511775729e-10,1.1245943801876052e-07,4.0287020469519616e-07,-3.229420295030638e-07,1.3560907410808364e-09,-3.199815745528819e-07,-4.977051300814652e-07,-6.586566443142727e-08,-8.104629957835949e-07,-2.4874628115256557e-07,-9.673599885516747e-08
-4.1362923032356605e-07,1.996431530584422e-07,1.75311766026127e-08,1.0751747118913969e-07,1.2204066612182513e-07,-4.6442029256292674e-08,2.127913709841451e-07,2.7527420370873264e-09,1.1117233915197902e-07,4.2424283662122176e-07,-3.3569483856114544e-07,3.1882312985072174e-08,-2.82720587620633e-07,-4.7500966406255996e-07,-4.200575843738776e-08,-8.768911610447458e-07,-2.1669001948587936e-07,-8.71715927973099e-08
-3.916818039534128e-07,2.0048807691268512e-07,2.6452970135032724e-08,1.1347002105766319e-07,1.4544487318799002e-07,-3.0102803679722594e-08,2.1545845811507098e-07,1.0663157628698646e-08,1.2235576642103418e-07,4.489536798500407e-07,-3.325246308428874e-07,7.466169205843355e-08,-2.3266996460735672e-07,-4.263825327607775e-07,-8.612279830524994e-09,-9.255766374848426e-07,-1.7128472505550027e-07,-6.92288438449885e-08
-3.6738240375077303e-07,2.01999062578822e-07,3.5838547727875905e-08,1.2407166633568036e-07,1.750234139273098e-07,7.636866088701973e-10,2.2099506378660333e-07,2.0360294639537258e-08,1.4769243251407483e-07,4.775029790379832e-07,-3.1690327932473207e-07,1.2521297262296327e-07,-1.7125181163913226e-07,-3.6352775014693784e-07,3.015081987131219e-08,-9.388355405123848e-07,-1.2090536040456024e-07,-4.617478147472369e-08
-3.438625545614377e-07,2.0633755785548852e-07,4.35895591059657e-08,1.3603824875182347e-07,2.0528671854082404e-07,4.110900581280251e-08,2.310626434514089e-07,2.3486777505146113e-08,1.8599470618788256e-07,5.119394702941327e-07,-2.957623211540068e-07,1.7858641075675582e-07,-1.0421317418221916e-07,-3.002956202771751e-07,7.052401146281824e-08,-9.34280081019832e-07,-7.310902611210429e-08,-2.1522173669051888e-08
-3.2382505125903485e-07,2.163475104193625e-07,4.972125970148178e-08,1.4777802944145717e-07,2.324634594698259e-07,7.809134490904411e-08,2.457523390356325e-07,2.1392121216455113e-08,2.338194203241698e-07,5.530862769933553e-07,-2.767084644143829e-07,2.3072944622406671e-07,-4.793113421727715e-08,-2.47532872959013e-07,1.1017781520460638e-07,-9.755823435334673e-07,-3.29081770383806e-08,1.7526901124902532e-09
-3.089062416978351e-07,2.3347169306243812e-07,5.519211545747334e-08,1.5909794976819616e-07,2.541770900725729e-07,1.0691326460518559e-07,2.638251286891832e-07,2.1194009675272272e-08,2.8500490832255686e-07,6.015069217175684e-07,-2.651530275533063e-07,2.783741017545878e-07,-3.965170420440848e-09,-2.104724628033813e-07,1.4797191137462215e-07,-1.0445560473940675e-06,-1.881485715930671e-09,2.275001168599171e-08
-2.980466412588311e-07,2.565183852332477e-07,5.802347094221465e-08,1.694868809341528e-07,2.6958925792400646e-07,1.2252556132914024e-07,2.8286701931017545e-07,1.8412108351396635e-08,3.320093337393859e-07,6.55787292717956e-07,-2.6276318718339595e-07,3.1920723639482095e-07,1.997653177179473e-08,-1.874351452426419e-07,1.836683988084621e-07,-1.1297916389108723e-06,2.17397490571811e-08,4.0670531996649274e-08
-2.933853254836694e-07,2.8279704264471535e-07,5.967470476238939e-08,1.8116531378202012e-07,2.7994659579918554e-07,1.2528473430891227e-07,3.019529655235688e-07,1.2274757472828761e-08,3.6888073912030757e-07,7.05962676049103e-07,-2.673049122738424e-07,3.529130362466676e-07,4.138120751753401e-08,-1.699006732608807e-07,2.1821171992107973e-07,-1.2202773956241932e-06,4.2911520921019065e-08,5.618791764124865e-08
-2.9739456134260955e-07,3.104211363243338e-07,6.2490763029387e-08,1.9219087246018365e-07,2.8899900473584706e-07,1.2552792685138054e-07,3.2963495605269085e-07,4.240222318316783e-10,3.910624798234252e-07,7.217874078176473e-07,-2.736317891351469e-07,3.80908778553611e-07,3.504688779106103e-08,-1.444785697774144e-07,2.5332475823152724e-07,-1.3000088654077637e-06,7.089284024096785e-08,7.125538094701927e-08
-3.040399742036311e-07,3.390972368311404e-07,6.701691146492489e-08,2.0293469885505782e-07,3.0042675078022276e-07,1.2759283233815937e-07,3.609933579027091e-07,-2.8459332120437805e-08,3.976374638913178e-07,7.203415491417523e-07,-2.75692804936184e-07,4.0431370028747316e-07,9.503242058995613e-08,-9.910897497287724e-08,2.899969465878953e-07,-1.458281488629842e-06,1.1292674034137781e-07,8.789945184836086e-08
-3.0525669385459885e-07,3.6907395843622077e-07,7.35320125698531e-08,2.1180773801294885e-07,3.1722795115516476e-07,1.3384854576122418e-07,3.8858587663752547e-07,-9.267428699394867e-08,3.911485386380816e-07,6.686380020818921e-07,-2.68699921420386e-07,4.2299437908936585e-07,2.920223519554771e-07,-2.7263205285054512e-08,3.2756242342538853e-07,-1.6338544950414478e-06,1.74675119136366e-07,1.0517697207755286e-07
-2.8961904660656644e-07,4.0035010237332533e-07,8.062821924455096e-08,2.2095803448973148e-07,3.4112422615058277e-07,1.5264585539799456e-07,3.9907599163062054e-07,-1.6758118444208992e-07,3.764211314930907e-07,5.79093646920475e-07,-2.5049272740542455e-07,4.369360984331386e-07,5.84152565256615e-07,7.198825498412784e-08,3.6417454384009334e-07,-1.9526738172673043e-06,2.6015734946982296e-07,1.200121304051471e-07
-2.42792680443031e-07,4.329343381256221e-07,8.659293329720267e-08,2.5041358605214463e-07,3.739647725101123e-07,1.9033543876906157e-07,4.0768836582383464e-07,-2.2331086686073608e-07,3.606685235761708e-07,5.366135208239228e-07,-2.2218387891577214e-07,4.4714424822903805e-07,7.71636475223813e-07,1.9405105416515478e-07,3.970077222939748e-07,-2.335613543260361e-06,3.697686839290114e-07,1.2863109343753757e-07
-1.645960273463005e-07,4.6676739338121995e-07,8.99268855414e-08,2.9629537294870355e-07,4.17599626530301e-07,2.4459340523291443e-07,4.1505067862048083e-07,-2.558794201443272e-07,3.5164450103440766e-07,4.3809475752465255e-07,-1.8845415606521827e-07,4.542497191814343e-07,8.653557523107186e-07,3.2807254310757415e-07,4.2144883424734814e-07,-2.4339202281563545e-06,5.005071014541015e-07,1.2408728924407345e-07
-5.655326380630548e-08,5.009222909357406e-07,8.972635310890017e-08,3.5877699719766716e-07,4.7101278132499247e-07,3.6306011887269373e-07,4.351040861127712e-07,-2.83662505362618e-07,3.549775606576257e-07,2.7540359929108337e-07,-1.5682614824454647e-07,4.573600405199846e-07,1.14167668131223e-06,4.580551844957817e-07,4.315423936797962e-07,-2.5820211271405216e-06,6.440324463303754e-07,1.0353674295337302e-07
7.757260216355797e-08,5.33757981921859e-07,8.257060186523779e-08,4.2277069534617326e-07,5.306226167829614e-07,5.283901872099838e-07,4.70011700456797e-07,-3.080920344400244e-07,3.7206728935158414e-07,1.216471464730127e-07,-1.350411592902495e-07,4.5574888346196204e-07,1.5398350056056064e-06,5.680564751664478e-07,4.231901101531885e-07,-2.721729910423683e-06,7.921555376482452e-07,6.481498227555204e-08
2.6874572584030615e-07,5.646696652419754e-07,6.644841815354626e-08,4.783150396127944e-07,5.93557177310372e-07,7.156742141921281e-07,4.0504224525395527e-07,-3.0720564947951314e-07,4.0104281354321285e-07,-4.2509566544781405e-08,-1.2759141990069265e-07,4.5134387056610825e-07,1.923117591345982e-06,6.481032701363183e-07,3.975746496982908e-07,-2.734116739111281e-06,9.365481502904041e-07,5.2754534314748525e-09
5.164745383278405e-07,5.952688643888971e-07,4.284091844452265e-08,5.315311194038806e-07,6.605152824042448e-07,8.959676942334423e-07,2.753957539312623e-07,-3.35268027686361e-07,4.3806114124032903e-07,-1.7007582731970608e-07,-1.3416063354298957e-07,4.4834744502802923e-07,2.333108471736726e-06,6.958750768293343e-07,3.612996499214952e-07,-2.8633067864934357e-06,1.070701226405961e-06,-6.793330535263281e-08
7.945081535808199e-07,6.280257250103263e-07,1.4354297817791983e-08,5.876518922490512e-07,7.325264476390946e-07,1.030506792114243e-06,1.7217595302957472e-07,-3.6346758404180646e-07,4.787646011587615e-07,-2.4883436042448963e-07,-1.5109685059600428e-07,4.504739672796082e-07,2.7369697276204044e-06,7.144683707347074e-07,3.2328837293504825e-07,-3.068295869603624e-06,1.1908523528665751e-06,-1.5186064110896526e-07
1.0612127826416868e-06,6.638585046998543e-07,-1.5287611330616854e-08,6.325713618897647e-07,8.092735670245908e-07,1.1427871762305983e-06,1.1336746819153463e-07,-4.3224701022841723e-07,5.194331049953701e-07,-2.8842274744864524e-07,-1.741541828206629e-07,4.59369009464623e-07,3.0231929477910026e-06,7.101810490903567e-07,2.9136353582502464e-07,-3.291437671328267e-06,1.294922903036463e-06,-2.427764398011584e-07
1.2919656463305643e-06,7.014520784972221e-07,-4.3665134638223865e-08,6.676238582853956e-07,8.889396992266729e-07,1.2571783301934542e-06,7.41331341160545e-08,-4.6726567253429017e-07,5.573708499372481e-07,-2.818822857792266e-07,-2.0030642116015975e-07,4.752049492298801e-07,3.209688223653962e-06,6.915279694337001e-07,2.704141486514795e-07,-3.4309862999748754e-06,1.3837508121746034e-06,-3.3572779680839395e-07
1.4839917971215066e-06,7.383024595634306e-07,-7.124472498261786e-08,6.941005924397031e-07,9.687853248038913e-07,1.361782287795602e-06,4.479526317195727e-08,-4.671838817237964e-07,5.911066674106818e-07,-2.4846311767588165e-07,-2.2806103108197339e-07,4.977817995487648e-07,3.3035266300029736e-06,6.677080013892361e-07,2.618389208302658e-07,-3.4665599605030474e-06,1.4613093104071156e-06,-4.2633953105912696e-07
1.6251628345723666e-06,7.716882269592064e-07,-9.623157989523883e-08,7.058588772767452e-07,1.046091005929417e-06,1.4625508887541358e-06,-1.3717499302149808e-09,-4.769833320833668e-07,6.200581474347438e-07,-1.980624922702364e-07,-2.5668846367709737e-07,5.245081141502882e-07,3.2634366041564218e-06,6.466038414008654e-07,2.638162762009311e-07,-3.5262977364121318e-06,1.532515323546941e-06,-5.104222648083376e-07
1.747362923745734e-06,7.993720723951163e-07,-1.169752446490942e-07,7.052650075265927e-07,1.1181028289663098e-06,1.5124457573034104e-06,-9.657071896327078e-08,-4.6186958447316956e-07,6.443725759484248e-07,-1.3793599745930374e-07,-2.848546763788372e-07,5.530783867161029e-07,3.153067864271865e-06,6.378786373128602e-07,2.7273643190629785e-07,-3.643264363418157e-06,1.6016195016048929e-06,-5.827196620761892e-07
1.845055393666479e-06,8.206216766673871e-07,-1.3255785830309097e-07,7.013133118906573e-07,1.1829894348674517e-06,1.5201161431804943e-06,-1.2316539957093017e-07,-4.3627896766283017e-07,6.651015687170996e-07,-7.70558565037931e-08,-3.0958766191990906e-07,5.825301707600009e-07,3.0324097250838935e-06,6.46650054575561e-07,2.8529648379509685e-07,-3.721523199113635e-06,1.657075179772328e-06,-6.125814542351642e-07
1.9118877401468898e-06,8.366040838920007e-07,-1.4090915736803393e-07,6.977069166264137e-07,1.2405035093933699e-06,1.515088331011511e-06,-1.3140443994979798e-07,-4.386200484495746e-07,6.841230948451376e-07,-2.104383990848803e-08,-3.2664551708977736e-07,6.115237068379224e-07,2.8916797900144685e-06,6.749173486423511e-07,2.997082032076175e-07,-3.825783686358151e-06,1.704472598503301e-06,-6.221373288050331e-07
1.9342697904729973e-06,8.493127065577996e-07,-1.411383209714733e-07,7.006537662475777e-07,1.291072138558046e-06,1.5053181577647462e-06,-1.2926441563620217e-07,-4.41038203855375e-07,7.034621924384302e-07,2.6177665248548623e-08,-3.319480270337679e-07,6.391246125155874e-07,2.807138138891127e-06,7.285240186590026e-07,3.1556333692044236e-07,-4.017435955482242e-06,1.7491432037771384e-06,-6.079433389299401e-07
1.935624784154299e-06,8.602561655702784e-07,-1.3493392132154772e-07,7.052322451228556e-07,1.335154631845136e-06,1.502520383149893e-06,-1.1607083713053712e-07,-4.1118476959828996e-07,7.246873015683801e-07,6.195891904927514e-08,-3.224864001895273e-07,6.647308027369021e-07,2.809199038944929e-06,8.097203718747925e-07,3.332428988435461e-07,-4.262293161624653e-06,1.7990302423134954e-06,-5.567625192941712e-07
1.92958879030835e-06,8.702312975597563e-07,-1.2448664836065862e-07,7.103597899665422e-07,1.3739224573882809e-06,1.499237799591545e-06,-8.217023119649845e-08,-3.9363978408585445e-07,7.488005895746088e-07,8.540609964593288e-08,-2.96198637281894e-07,6.885190220118853e-07,2.842754830125708e-06,9.203057506201382e-07,3.532279785445092e-07,-4.29927714837561e-06,1.861788706825744e-06,-5.19681463949934e-07
1.9023612935226605e-06,8.797532087724813e-07,-1.060634947021611e-07,7.158299574560885e-07,1.4092958548526314e-06,1.50050630778168e-06,-2.7559976542227224e-08,-3.6865099238849093e-07,7.759456607071235e-07,9.743367603659742e-08,-2.521530068772914e-07,7.096794450173461e-07,2.889191693462385e-06,1.0528079559788762e-06,3.7523260868437995e-07,-4.304922748621193e-06,1.9065294913625134e-06,-4.4575103956004616e-07
1.903501072982584e-06,8.893905182892323e-07,-8.349944880108097e-08,7.179345543842862e-07,1.4423856675262518e-06,1.493124459498751e-06,2.6822682851369557e-08,-3.486179530036792e-07,8.047538269626872e-07,1.0043090696960297e-07,-1.9180108424635352e-07,7.313404704845343e-07,2.9036432338964426e-06,1.1891038177246343e-06,3.978772243882646e-07,-4.1555395787437e-06,1.9327448609359894e-06,-3.6743172873225143e-07
1.8812850490670483e-06,8.999090703238653e-07,-5.281635657429372e-08,7.135149894402434e-07,1.4724751935628373e-06,1.4860796145121216e-06,9.679384622011833e-08,-3.3035474119910323e-07,8.323507037985056e-07,9.913584559828133e-08,-1.199406741687248e-07,7.522853173808742e-07,2.7810279475879183e-06,1.27610206300096e-06,4.1933102257175675e-07,-4.023568051041105e-06,1.8727968270081875e-06,-3.597947417511802e-07
1.8387421690262756e-06,9.117494735669737e-07,2.4592406943137335e-09,7.009215080339879e-07,1.4974601556124887e-06,1.4459420757499209e-06,2.0593324007662153e-07,-2.6625716473589856e-07,8.553767151102963e-07,1.0084854698765055e-07,-4.4074570563610645e-08,7.648610614617954e-07,2.69286212540237e-06,1.2687966734707228e-06,4.378821249365675e-07,-4.023739734723546e-06,1.7591659426917019e-06,-3.852049419004012e-07
1.7905382423221604e-06,9.234451598660828e-07,7.852243438241767e-08,6.789836426423438e-07,1.513949734826512e-06,1.3669853743582218e-06,3.538487797897363e-07,-2.1556022278621256e-07,8.70946927334811e-07,1.1359136248928177e-07,2.7222278482149954e-08,7.412220983880452e-07,2.621130993923506e-06,1.1584681196774566e-06,4.518866662684385e-07,-4.001597898137102e-06,1.6710545680721303e-06,-4.238681105519365e-07
1.7129792656323279e-06,9.305299409527277e-07,1.6805486145121226e-07,6.546820253518887e-07,1.5178910109421263e-06,1.3264320856533114e-06,5.406109657419675e-07,-1.8288568546181367e-07,8.766786415215986e-07,1.4486612585279364e-07,8.605302076393515e-08,6.697428309362069e-07,2.5519483623278796e-06,1.0388267770744726e-06,4.6046936270157437e-07,-3.976043990843314e-06,1.6191487968272228e-06,-4.3566047837964224e-07
1.6227508157695645e-06,9.271486013779703e-07,2.358493786258314e-07,6.2485769912224e-07,1.5061970242253735e-06,1.3308643526414887e-06,7.418860215631999e-07,-1.399831290606245e-07,8.708681809709115e-07,1.986128471449626e-07,1.2693656706380804e-07,5.845408499752238e-07,2.5043194101778792e-06,9.709352944149454e-07,4.656779399016429e-07,-3.7436034001740717e-06,1.558061894023919e-06,-4.417106893184932e-07
1.5269168531393297e-06,9.098295955106851e-07,2.706344041099049e-07,5.928283668369467e-07,1.4796352408715665e-06,1.3491960000856696e-06,9.209847406895254e-07,-1.1585458730573994e-07,8.534017549620438e-07,2.783784761984699e-07,1.4813845310580326e-07,5.162334159816633e-07,2.4538182945469095e-06,8.548818435971814e-07,4.7406687542993757e-07,-3.6763512384957057e-06,1.501055771293173e-06,-4.375832819991023e-07
1.4373809569735855e-06,8.802585674251956e-07,2.6901662868552643e-07,5.60357717638471e-07,1.4440983690303022e-06,1.350196882716502e-06,1.0661865211247537e-06,-9.004075164251904e-08,8.271271271873244e-07,3.8295886665488326e-07,1.518346836998757e-07,4.759536485335032e-07,2.367585483855854e-06,6.449302223915457e-07,4.952763879424156e-07,-3.7446764100551292e-06,1.4129039005489684e-06,-4.901848881921496e-07
1.3336235048100654e-06,8.450626014561216e-07,2.550408029881782e-07,5.254719033481098e-07,1.4088427285640275e-06,1.266462149954054e-06,1.1894831560788606e-06,-4.258934255522031e-08,7.98099925596755e-07,4.912495075848685e-07,1.4322309562732137e-07,4.6208098011440845e-07,2.2766272950088447e-06,4.285279449688074e-07,5.375365726290862e-07,-3.7735166595267367e-06,1.3097653365827684e-06,-5.326638079985257e-07
1.2564805975383241e-06,8.130343933450121e-07,2.438714364489304e-07,5.188043682500242e-07,1.383235071946786e-06,1.1811193074802995e-06,1.241568648123629e-06,1.600799369248683e-08,7.740141378053865e-07,6.134659729054315e-07,1.2907630448311432e-07,4.3345050670318763e-07,2.084787198858082e-06,3.082482630543594e-07,6.023586120292061e-07,-3.879243138388318e-06,1.2457220330474338e-06,-5.257835829452708e-07
1.2023567707622452e-06,7.910641478747151e-07,2.443160426311098e-07,5.238753731660179e-07,1.372769005442845e-06,1.137241878845812e-06,1.2092247569854396e-06,4.3253458884947165e-08,7.61329599006594e-07,7.452967145851252e-07,1.1588674454685697e-07,4.595597428526263e-07,1.9781879417290135e-06,2.3578639719774538e-07,6.818451945761981e-07,-3.946600740295994e-06,1.2038973180158686e-06,-4.648567977489403e-07
1.1597426290443193e-06,7.809258106228767e-07,2.249941259047829e-07,5.34623274383483e-07,1.3763700112238139e-06,1.0822866192938572e-06,1.1533266009055485e-06,9.477962315288216e-08,7.625201101085449e-07,8.45890660298531e-07,1.0802202071702282e-07,4.90155184166475e-07,1.8777687941948855e-06,1.7516693158549843e-07,7.613393877253836e-07,-3.869138948245495e-06,1.133002376175106e-06,-4.139040053509837e-07
1.1352979493004502e-06,7.795950240491143e-07,1.9737390454329768e-07,5.706725819287793e-07,1.387598509573771e-06,1.0333739563100262e-06,1.0863078857536e-06,1.34663014955652e-07,7.75453937102014e-07,9.095656174649135e-07,1.0669800647953133e-07,4.997979008244767e-07,1.7960003513791916e-06,1.6421787776459208e-07,8.265725017534948e-07,-3.6970520401253505e-06,1.071028338663249e-06,-3.520767472456122e-07
1.1119312974789048e-06,7.830235528569717e-07,1.574987492605549e-07,6.182040882881833e-07,1.3993990832121604e-06,1.0138558501176148e-06,1.0178684901774647e-06,1.9215670157109295e-07,7.949736849321806e-07,9.475352824325628e-07,1.1005839786522825e-07,4.908400755114885e-07,1.6032838805373792e-06,2.444344637862414e-07,8.706670199740022e-07,-3.4940257097619658e-06,1.009433717701596e-06,-2.967334130645185e-07
1.0863808979544591e-06,7.896363629116366e-07,1.508553297355073e-07,6.605585346317218e-07,1.4078724079271621e-06,9.94071321603348e-07,9.614991391248497e-07,2.739880599252362e-07,8.150494053434477e-07,9.65224957371849e-07,1.1374262237900976e-07,4.672064865932585e-07,1.3996319312295265e-06,3.7832392581139e-07,8.967303033381416e-07,-3.3074174301743713e-06,1.0016288886691285e-06,-2.6058302724377835e-07
1.0494920441527685e-06,8.007283796944333e-07,1.54765715054448e-07,6.965161128331704e-07,1.4128212870405793e-06,9.978483025759245e-07,9.260350421220616e-07,3.44712744281202e-07,8.304873791622287e-07,9.67479912582364e-07,1.1162507707221669e-07,4.5675099961526534e-07,1.1887213441737481e-06,4.902554861365871e-07,9.15644994035551e-07,-3.314868174149722e-06,9.952558419170619e-07,-1.741067781130343e-07
1.0010281503554248e-06,8.187825469932502e-07,1.642416239089336e-07,7.342599418802328e-07,1.4170179338348343e-06,9.984889695708256e-07,9.082523103628754e-07,3.979793291731278e-07,8.383262166593869e-07,9.64773967628702e-07,9.718122183428866e-08,4.855978610297756e-07,9.173469642986932e-07,6.043087864217355e-07,9.409976329065034e-07,-3.3463782456409384e-06,1.0171293223701634e-06,-7.717175321197894e-08
9.277826815749724e-07,8.456905571589778e-07,1.7946255570326128e-07,7.70292929161583e-07,1.4253418409822159e-06,1.0199657925730046e-06,8.968780631143843e-07,4.552853714857077e-07,8.389674861086307e-07,9.65302455658793e-07,6.561221332116673e-08,5.583820251126987e-07,7.751292438344108e-07,7.425232095878857e-07,9.828453678386552e-07,-3.3158206604947503e-06,1.0643372604472857e-06,-2.8927347100359104e-08
8.297346402612917e-07,8.813931338464487e-07,1.9211025733100303e-07,8.115083640286926e-07,1.4430782964755788e-06,1.0612469724786196e-06,8.826892151474911e-07,5.064059574742549e-07,8.36156059590243e-07,9.734240779684905e-07,1.6013493786908286e-08,6.52844975643656e-07,7.454782669716574e-07,9.039292234119115e-07,1.042512894243755e-06,-3.230148850445273e-06,1.166323943178919e-06,5.764054225708322e-08
7.134952738892811e-07,9.23434659648634e-07,2.3354400955255114e-07,8.603329278935503e-07,1.4738867354729585e-06,1.0876769415454222e-06,8.597168828245373e-07,5.510163752205914e-07,8.35787538980299e-07,9.890893237920956e-07,-4.726397344802487e-08,7.171142576096284e-07,7.547081605799814e-07,1.0821921131236563e-06,1.111504029498647e-06,-3.2067268038737493e-06,1.3046148680026266e-06,1.5981819621720898e-07
5.836509003092455e-07,9.681651383971448e-07,2.967206713687049e-07,9.136873153654152e-07,1.5188025959572158e-06,1.1116295290247352e-06,8.252562266100291e-07,6.13741452038695e-07,8.43959782205947e-07,1.009262298676754e-06,-1.1495156217496462e-07,8.314241138949029e-07,7.915367477171023e-07,1.2622448496475634e-06,1.1755587415943685e-06,-3.0845119891690255e-06,1.4185010571981868e-06,2.583801694723167e-07
4.565684306953058e-07,1.0125548493983455e-06,3.5013172523461265e-07,9.68328758743393e-07,1.575816470914364e-06,1.1345022251805127e-06,7.783422002655764e-07,6.700020685501032e-07,8.646666512410323e-07,1.0297933742930948e-06,-1.756123280759903e-07,9.646225089513291e-07,8.717016585006836e-07,1.4250104944347721e-06,1.2212163302085408e-06,-2.9877151428313813e-06,1.514308183001381e-06,3.544088005994237e-07
3.4032743195571006e-07,1.0546961404409925e-06,4.1076954110083794e-07,1.0211793847833998e-06,1.6395859408829693e-06,1.155292232039146e-06,7.276990997193349e-07,7.051640647449118e-07,8.982301219705507e-07,1.0465860430891618e-06,-2.198244783648845e-07,1.0792002836517682e-06,9.731427056133275e-07,1.5539166477306271e-06,1.2411744198186592e-06,-2.872369561337235e-06,1.584548589402373e-06,4.0619825060319453e-07
2.4165256294487703e-07,1.0931438301834929e-06,4.5914481233539334e-07,1.0692948281613246e-06,1.7027175345884398e-06,1.1927162907398956e-06,6.826988480460683e-07,7.299075426407157e-07,9.415204764325803e-07,1.0566148408311047e-06,-2.431943784162613e-07,1.1459150709669425e-06,1.0694702587105963e-06,1.6408751353749092e-06,1.23631061121433e-06,-2.7165242259372846e-06,1.650960840242156e-06,4.945824272166191e-07
1.6529971598852456e-07,1.1266502546481283e-06,4.916213879652691e-07,1.1099456258751057e-06,1.7586093990760785e-06,1.2302599215904316e-06,6.490062607050953e-07,7.377203034423674e-07,9.89793717911389e-07,1.0580933073930991e-06,-2.4682482439963106e-07,1.2017032666032785e-06,1.1560751852743746e-06,1.688769208891049e-06,1.2140497387343542e-06,-2.6432525782034225e-06,1.7149418013645397e-06,5.915034301373944e-07
1.1043528579175412e-07,1.154460982464245e-06,5.138727800642286e-07,1.1445288902536728e-06,1.8032199795680644e-06,1.26417746510102e-06,6.294893559604933e-07,7.354113145241471e-07,1.0381753390736845e-06,1.0495059108382885e-06,-2.360579406148493e-07,1.2264680889368615e-06,1.2453321865933142e-06,1.709204241514706e-06,1.1845235926444344e-06,-2.580325997761819e-06,1.7747020308588424e-06,6.995988194869246e-07
7.503764417571962e-08,1.1764470966047921e-06,5.213710392146865e-07,1.1714141507302493e-06,1.8349548941464485e-06,1.2972266348161077e-06,6.213033588717659e-07,7.246328339956997e-07,1.081997084999064e-06,1.0292076093323446e-06,-2.185242663445054e-07,1.2380939072476166e-06,1.3559627178956145e-06,1.717716390735964e-06,1.1570885676128375e-06,-2.317631584244112e-06,1.817463515552167e-06,7.725328421482987e-07
5.532349918749851e-08,1.1930956615045334e-06,5.213489057342215e-07,1.1911247418187143e-06,1.854531463700572e-06,1.326211304865338e-06,6.192416509714276e-07,6.907084130146021e-07,1.1172386261136987e-06,9.966949865821212e-07,-2.019277538262133e-07,1.2139251033522353e-06,1.5054213065154568e-06,1.729029234710527e-06,1.1384639874188397e-06,-2.2048988775876608e-06,1.85265778322041e-06,8.396913057802134e-07
4.72091386347873e-08,1.2052082110543521e-06,5.161425796229987e-07,1.206702191213203e-06,1.8649225689628133e-06,1.3570496737160575e-06,6.187782300784327e-07,6.402021292699026e-07,1.1417483365521e-06,9.537780621261384e-07,-1.9216405380746738e-07,1.1937444213603225e-06,1.7138236172326419e-06,1.7529890816686674e-06,1.1317468454869968e-06,-2.0106310483947777e-06,1.894528543932959e-06,8.93598005924923e-07
4.63682354604782e-08,1.2129052741762791e-06,5.065054637277808e-07,1.2198574725505236e-06,1.8698111797690319e-06,1.3898732454957905e-06,6.172107280131823e-07,5.901402175437246e-07,1.1562926610982035e-06,9.043130161609196e-07,-1.9226973189367677e-07,1.1798525688960476e-06,1.912400694077247e-06,1.792124520640784e-06,1.1359407868462737e-06,-1.8500570845804838e-06,1.941230749081085e-06,9.175939569801003e-07
4.6386591900193426e-08,1.2150172961615134e-06,4.943285825131525e-07,1.2311221559743053e-06,1.871299416867843e-06,1.4229596597170819e-06,6.13877137434815e-07,5.416186728997396e-07,1.1644310694681358e-06,8.535405028300944e-07,-2.0217609253924048e-07,1.1756574591664602e-06,2.0992720821467575e-06,1.8422506746959355e-06,1.146669392485588e-06,-1.8325298219429466e-06,1.9922946914841296e-06,9.125671072965352e-07
4.521518700784674e-08,1.2101473622442658e-06,4.805158516248065e-07,1.2395726634713524e-06,1.8689619133379456e-06,1.4504022509296242e-06,6.096220905780728e-07,4.972010291744741e-07,1.1711041070016154e-06,8.07836135746626e-07,-2.192920820862353e-07,1.1744618375834713e-06,2.2667427118047485e-06,1.8954547908219815e-06,1.1578005030681844e-06,-1.8333953888105221e-06,2.0315574380169645e-06,8.991013285166068e-07
4.0667891710183425e-08,1.198271018136932e-06,4.6561517368607665e-07,1.2433302727199942e-06,1.8603915132064287e-06,1.4696910527167337e-06,6.061403150630186e-07,4.610579221032838e-07,1.1804240239643027e-06,7.737517776937529e-07,-2.398085731487572e-07,1.1750219135468571e-06,2.3812642307736706e-06,1.94305368893363e-06,1.162961177352819e-06,-1.8504589594432593e-06,2.0525477819176304e-06,9.117458388424405e-07
3.037945426805201e-08,1.1810198627240586e-06,4.499457341670143e-07,1.2398652607666548e-06,1.8426035965667682e-06,1.4797567137986807e-06,6.056916721534889e-07,4.3415489082480427e-07,1.193745665229488e-06,7.564765062563504e-07,-2.5990917860941944e-07,1.18106400513558e-06,2.4329032218873413e-06,1.977597599242137e-06,1.1570179865554073e-06,-1.7734833238480284e-06,2.053395930609792e-06,9.403411707802374e-07
1.4320782183394825e-08,1.160860151576636e-06,4.3403514610056564e-07,1.2287713838752542e-06,1.8144209039422128e-06,1.4796253284035548e-06,6.114547662383843e-07,4.2563380845798053e-07,1.2093047808670314e-06,7.591967727708929e-07,-2.7631055276995476e-07,1.1903397926876597e-06,2.4116552244923653e-06,1.994292090008807e-06,1.1377834851362652e-06,-1.694699575096808e-06,2.0380383098306418e-06,9.717034539329097e-07
-6.449676103631249e-09,1.1402725256029855e-06,4.1904994137610326e-07,1.2110583329030102e-06,1.7786813812767294e-06,1.4764121500889124e-06,6.277247781256055e-07,4.3518903913573086e-07,1.2234377581737734e-06,7.826338115595118e-07,-2.865951149742095e-07,1.2055684542515392e-06,2.3167957947940953e-06,1.9913531594523322e-06,1.1069340572115733e-06,-1.6183832670905228e-06,2.006837937202499e-06,9.988265048710123e-07
-2.8546926445551394e-08,1.121273231764556e-06,4.066053280771315e-07,1.1896236965567264e-06,1.7420270803709953e-06,1.4706771435060524e-06,6.58786597083286e-07,4.5999770408359286e-07,1.2323608236545645e-06,8.240297578122555e-07,-2.895937583712908e-07,1.2242058716196185e-06,2.162847904506031e-06,1.9693030184480386e-06,1.069429166941268e-06,-1.5178423106890165e-06,1.9603355929845784e-06,1.009571890303302e-06
-4.8343379743138794e-08,1.1055140055695514e-06,3.9819535361526703e-07,1.1679263251405757e-06,1.712359705242444e-06,1.463897488574103e-06,7.065421715913681e-07,4.936204291808819e-07,1.2336809724654505e-06,8.771688413400495e-07,-2.8551526166450046e-07,1.2438918434307703e-06,1.984737011113303e-06,1.930571998382367e-06,1.0321021223396942e-06,-1.4882117290733915e-06,1.9035155869435344e-06,1.018414118431968e-06
-6.091530830653865e-08,1.094885671304791e-06,3.949876637653087e-07,1.149246987130755e-06,1.6959790809324205e-06,1.4593656551399366e-06,7.687227155596199e-07,5.307327772839693e-07,1.2273136587290642e-06,9.343919622728158e-07,-2.7569288596597113e-07,1.2626015263589974e-06,1.7981205259595875e-06,1.8796718759215e-06,1.001896161675019e-06,-1.4337646042276626e-06,1.8417795204039489e-06,1.0324889536412352e-06
-6.454163129762632e-08,1.0914328313936467e-06,3.9772907136059936e-07,1.1363194193197323e-06,1.6952782011640503e-06,1.4547419659293954e-06,8.388202589175044e-07,5.731495616297749e-07,1.2154129253696604e-06,9.887234410869693e-07,-2.6189877302609945e-07,1.277818996898132e-06,1.6171032461948856e-06,1.8226024338231822e-06,9.83783845132962e-07,-1.37877081354383e-06,1.782954864393296e-06,1.038642352979006e-06
-6.047149313205469e-08,1.0960020837051316e-06,4.060934328537644e-07,1.1300224142824573e-06,1.7074760352380628e-06,1.4529754142567084e-06,9.077339715757509e-07,6.11334490166306e-07,1.2015617782830243e-06,1.034986565947849e-06,-2.4530649415011293e-07,1.2882051277605707e-06,1.4548510641267117e-06,1.7654386512963935e-06,9.793329036672548e-07,-1.3572021041100464e-06,1.7331106428093407e-06,1.0423478772728633e-06
-5.130285078948977e-08,1.1072039927239991e-06,4.1809805524196105e-07,1.129205238446605e-06,1.7257673485976626e-06,1.4549131126962579e-06,9.665222531093466e-07,6.420169805612048e-07,1.189754712538938e-06,1.070496972317056e-06,-2.2591387376863376e-07,1.2929647318236025e-06,1.307509952689835e-06,1.7132926298709595e-06,9.869692899143112e-07,-1.3314727218590544e-06,1.6943359875359417e-06,1.045500812571209e-06
-4.079146836112113e-08,1.1219846558722876e-06,4.3045450998031797e-07,1.1311218364764694e-06,1.7425572685564831e-06,1.4583170254169449e-06,1.0088569111665913e-06,6.640712531851639e-07,1.183237413985416e-06,1.095180892981523e-06,-2.0344942694134792e-07,1.2923398485627564e-06,1.179284492971861e-06,1.669575876893634e-06,1.0033674108258632e-06,-1.3091366224141322e-06,1.6650789171119142e-06,1.0463875183482564e-06
-3.181354498279217e-08,1.1368055878214258e-06,4.393067103918279e-07,1.1325472798690582e-06,1.7521633162189225e-06,1.4612991703030498e-06,1.0320689836729114e-06,6.809437404207049e-07,1.1833059322162614e-06,1.1104247789228346e-06,-1.791212987226366e-07,1.2867024152308346e-06,1.070367670794496e-06,1.6351579905460498e-06,1.0247887071479088e-06,-1.301938931106745e-06,1.6409175770409506e-06,1.0444393746128821e-06
-2.6250400358429544e-08,1.148463773278425e-06,4.4123147619303383e-07,1.130832487133262e-06,1.7518187501673866e-06,1.460325841447885e-06,1.0368556549842525e-06,6.932625816753623e-07,1.1888202921895603e-06,1.1179982053181128e-06,-1.5616507944453437e-07,1.2758795630901878e-06,9.75396543272963e-07,1.608854861528469e-06,1.0481368330526612e-06,-1.300778318683859e-06,1.6166990556248191e-06,1.0382152925425018e-06
-2.486452768607904e-08,1.1549127312237885e-06,4.344571452395454e-07,1.1250928603778226e-06,1.741818567610023e-06,1.4533262262981573e-06,1.0265559013802175e-06,7.020879304864822e-07,1.197073253113821e-06,1.1199374135721476e-06,-1.3851007899620197e-07,1.2596077787410473e-06,8.931109099794285e-07,1.5885400706996818e-06,1.0715822273807759e-06,-1.2839643312685285e-06,1.5890321067400664e-06,1.0281075498961254e-06
-2.6788380670344935e-08,1.1556204295614224e-06,4.193946007848978e-07,1.1160755524175998e-06,1.7247205125131445e-06,1.4409765932742328e-06,1.0061116265501822e-06,7.097502402890761e-07,1.2052934014433112e-06,1.1178681879704137e-06,-1.291113383191058e-07,1.2379931508139565e-06,8.230302987655984e-07,1.5712889012737538e-06,1.094202029692109e-06,-1.2682766679914099e-06,1.5572985866110458e-06,1.012103027875856e-06
-3.237324312574895e-08,1.1504205908449166e-06,3.979004708894837e-07,1.1051275627632248e-06,1.7033579774894993e-06,1.4265719582308958e-06,9.807312128380814e-07,7.143917563915226e-07,1.2116076399669964e-06,1.1117629581027715e-06,-1.293268090163951e-07,1.2113141783818701e-06,7.654504121556849e-07,1.5533761868616092e-06,1.1151070390349578e-06,-1.2456059227362382e-06,1.5231103833305274e-06,9.942253975106786e-07
-4.1708493793088443e-08,1.1381097424022305e-06,3.7228815542123614e-07,1.0933795859246933e-06,1.6795476176032717e-06,1.4128161312319553e-06,9.55037860716107e-07,7.179997607824155e-07,1.2153742551701881e-06,1.1003476340644216e-06,-1.3887250068110156e-07,1.180459612587245e-06,7.215483776466544e-07,1.5311597409900933e-06,1.1333112149221057e-06,-1.2129472283570317e-06,1.4892889564962966e-06,9.74057787445081e-07
-5.391580616954961e-08,1.117169741854978e-06,3.4525001602484126e-07,1.0816505723634157e-06,1.654824978575222e-06,1.402443234401357e-06,9.330191845850439e-07,7.214652365820242e-07,1.2172698853525856e-06,1.0834089870018764e-06,-1.556187190200613e-07,1.1477575251603525e-06,6.926096905110511e-07,1.5028123030066419e-06,1.1483275051668206e-06,-1.1788028427281377e-06,1.4587049937841275e-06,9.513261594613886e-07
-6.747161021943407e-08,1.0880351696468238e-06,3.198930597681483e-07,1.0707990205905264e-06,1.6312242634192542e-06,1.3977967421768184e-06,9.179548049487093e-07,7.242046139802279e-07,1.2187913644203764e-06,1.0627650700801356e-06,-1.757903225008165e-07,1.1164208932473653e-06,6.752057968646264e-07,1.4690014809942169e-06,1.1604916044040203e-06,-1.131827606048991e-06,1.432821860364022e-06,9.289140186487836e-07
-8.002036081651301e-08,1.0540497202911438e-06,2.990741080491604e-07,1.0615086566362278e-06,1.6103902602461386e-06,1.3981944753607843e-06,9.118266356483522e-07,7.288538466996897e-07,1.2211621661330513e-06,1.0410287043000057e-06,-1.9521717325241337e-07,1.089004885250274e-06,6.611259557975465e-07,1.4322216560465138e-06,1.1710119658572882e-06,-1.068049195439444e-06,1.4109010366701696e-06,9.090581379054731e-07
-8.956210638665543e-08,1.0202934601191409e-06,2.8465762684294705e-07,1.054103569416454e-06,1.5928074784284765e-06,1.4009575792775377e-06,9.149993725165371e-07,7.360250121101983e-07,1.224295747060672e-06,1.0206019022389856e-06,-2.1101864669411158e-07,1.0667016844698613e-06,6.463059904066613e-07,1.3967094126724204e-06,1.182236823482733e-06,-9.912409639510121e-07,1.3908001695198893e-06,8.928894982671692e-07
-9.474009980139672e-08,9.917183246469184e-07,2.775626575413697e-07,1.0490555062531722e-06,1.578758588078476e-06,1.4021440177235186e-06,9.266831245894273e-07,7.468890895765608e-07,1.2267979078708875e-06,1.0035383240294398e-06,-2.2255843842095134e-07,1.0494353900011963e-06,6.266792072496709e-07,1.3677142273178818e-06,1.197382451318495e-06,-8.884846529852178e-07,1.3706464589783017e-06,8.801242316105267e-07
-9.527947885680406e-08,9.714324354757316e-07,2.776963207196759e-07,1.0472862427176707e-06,1.5692830214193335e-06,1.3985670826903169e-06,9.452529888605209e-07,7.612061413241618e-07,1.2267806098062931e-06,9.907082036604692e-07,-2.3110939530950815e-07,1.0355953938775882e-06,6.019154914494646e-07,1.3493994641359383e-06,1.2188891983700645e-06,-7.583467756673857e-07,1.3498774701433762e-06,8.687199212470183e-07
-9.182341351695207e-08,9.595357982967397e-07,2.8341228752652813e-07,1.049540376012833e-06,1.5655350443296522e-06,1.3890553370253153e-06,9.678850416939607e-07,7.755550590629906e-07,1.2228812297993625e-06,9.808016189857339e-07,-2.384929060329476e-07,1.0223320655258712e-06,5.775868936225438e-07,1.3427683243161747e-06,1.24660247926011e-06,-6.067852847896531e-07,1.3294060747552749e-06,8.606661344421508e-07
-8.63400009304394e-08,9.535739429163737e-07,2.917566107108381e-07,1.0556055435119084e-06,1.567863835765914e-06,1.3742327183351523e-06,9.902804099861743e-07,7.888131316571356e-07,1.2151558686706659e-06,9.71031626805039e-07,-2.456342133088023e-07,1.007201275874816e-06,5.60311018806687e-07,1.345635700774435e-06,1.2775463527748637e-06,-4.3436521477975e-07,1.3111534684699663e-06,8.5405804933818e-07
-8.138752326794281e-08,9.505890049716018e-07,2.9966113046046886e-07,1.0642275479441294e-06,1.575758096148439e-06,1.356373751441442e-06,1.0070926839955122e-06,7.987997877068067e-07,1.2053407877968248e-06,9.586455026964929e-07,-2.5212072747098865e-07,9.892896349319991e-07,5.571524908534413e-07,1.3537297548316421e-06,1.306992650456054e-06,-2.5506534323225947e-07,1.297401730276823e-06,8.472132669176304e-07
-7.913544480079559e-08,9.488223455284439e-07,3.0477916684008166e-07,1.0733142591011206e-06,1.5876815965343446e-06,1.3383605049029376e-06,1.012912997976142e-06,8.004561523784162e-07,1.1959326535016015e-06,9.414222972002604e-07,-2.568777265854113e-07,9.686310802422006e-07,5.716290580547712e-07,1.3611946764656243e-06,1.3295673844224221e-06,-9.39734766130763e-08,1.2891588137745941e-06,8.39955463758898e-07
-8.137560086261103e-08,9.478463706217196e-07,3.0533669662557103e-07,1.0802167744973345e-06,1.600692760591825e-06,1.3226463971306683e-06,1.003651139589967e-06,7.923246076686633e-07,1.1883734728315812e-06,9.180098167600076e-07,-2.5896925091697444e-07,9.456872386620891e-07,6.033722094750333e-07,1.3619523328228041e-06,1.3405486643493867e-06,4.5833382786127275e-08,1.2855144610058852e-06,8.304867639500015e-07
-8.898291717391353e-08,9.479462804322081e-07,3.0028384852402977e-07,1.08261600400213e-06,1.6113456241188021e-06,1.310973285627256e-06,9.785155121070793e-07,7.745150414852448e-07,1.1820079385973514e-06,8.890398733358614e-07,-2.5783408592776146e-07,9.213644881608837e-07,6.464749787815388e-07,1.3523864851090017e-06,1.3376943513075524e-06,1.5726080471590703e-07,1.284429302339501e-06,8.184048156580723e-07
-1.011413514331476e-07,9.493136059729544e-07,2.898634411926739e-07,1.0796815083995936e-06,1.6174735832267844e-06,1.3045921844844823e-06,9.41092104115084e-07,7.509245428807192e-07,1.174765998022619e-06,8.57199786482261e-07,-2.5329445154931385e-07,8.972292530703652e-07,6.941170365255283e-07,1.3328847210023907e-06,1.3222164119764748e-06,2.3062998855510887e-07,1.283757507332144e-06,8.040451968827615e-07
-1.1542865507018649e-07,9.505836016738289e-07,2.7543000026977234e-07,1.0722821389444198e-06,1.6185351552754282e-06,1.3036923647245521e-06,8.980712435853691e-07,7.21508614705802e-07,1.164733063324655e-06,8.2540640546692e-07,-2.457407199362123e-07,8.741296711528812e-07,7.401248906356493e-07,1.3064410834447344e-06,1.2978389526363957e-06,2.689225745197301e-07,1.2816130701979267e-06,7.883777068707979e-07
-1.2854886909019116e-07,9.477695620216194e-07,2.5856764161216843e-07,1.062131512777272e-06,1.6144740823416427e-06,1.3067580916477926e-06,8.565807215552294e-07,6.896133387427603e-07,1.151393113595323e-06,7.953766674703503e-07,-2.3623915940420309e-07,8.514933917320903e-07,7.795944744081752e-07,1.2767525546197603e-06,1.2692863614026837e-06,2.8008178116662573e-07,1.2771131492522326e-06,7.7164979972556e-07
-1.370732002710604e-07,9.358910969269352e-07,2.410451250015463e-07,1.0510329255594514e-06,1.6054376421711435e-06,1.3113268865886696e-06,8.223640687385874e-07,6.582031570031711e-07,1.1360724666706266e-06,7.684230081856047e-07,-2.2636610902571788e-07,8.288581008121274e-07,8.118568268127972e-07,1.2481694022278325e-06,1.24160078416603e-06,2.7839037521406394e-07,1.271227744188116e-06,7.558069837604929e-07
-1.375334864050182e-07,9.125524417114904e-07,2.250086743225649e-07,1.0406527990484258e-06,1.5926377802803796e-06,1.3155024241807287e-06,7.993688760327749e-07,6.295872647987705e-07,1.1214096584717502e-06,7.460974918106571e-07,-2.1812228713106684e-07,8.068665801739419e-07,8.38651366583721e-07,1.2254721654534143e-06,1.21955090220524e-06,2.816068236988626e-07,1.266325367450781e-06,7.431356479576874e-07
-1.2688998539781442e-07,8.796409811510818e-07,2.12496532296399e-07,1.032110497965865e-06,1.578208184864194e-06,1.3186384739677196e-06,7.894075430883783e-07,6.108454916390284e-07,1.109907063051757e-06,7.289651236543637e-07,-2.1404504872346558e-07,7.863747998933079e-07,8.612014701955993e-07,1.2120203593409541e-06,1.2064045655530498e-06,3.064435029235579e-07,1.2647549046427771e-06,7.347595261193028e-07
-1.0377763202571415e-07,8.4176910516318e-07,2.0440470676742824e-07,1.0254185782430606e-06,1.5638749494358925e-06,1.3211368528917995e-06,7.917735202320646e-07,5.988390577414736e-07,1.1025267001104572e-06,7.156337743331088e-07,-2.168783867735659e-07,7.674638440389344e-07,8.896675633325425e-07,1.2080776747513005e-06,1.2031145323316072e-06,3.559131439228324e-07,1.267534266935089e-06,7.307582566288919e-07
-6.945549599149024e-08,8.039295323806105e-07,2.000259154802892e-07,1.0196305840737678e-06,1.5505883147210406e-06,1.3241749993958187e-06,8.039089116524397e-07,5.955206359107506e-07,1.0985862447708288e-06,7.038328628285926e-07,-2.2835455086725003e-07,7.49771181281355e-07,9.246097799181325e-07,1.2118141639665355e-06,1.2086729881990276e-06,4.2554530509807404e-07,1.2742635077059896e-06,7.297795442488088e-07
-2.6864390628439585e-08,7.700697743871459e-07,1.975141356777769e-07,1.013701748913093e-06,1.5392927415035446e-06,1.3293160295915584e-06,8.2332073915181e-07,5.985042678878877e-07,1.0966945841569108e-06,6.917088169624507e-07,-2.477830883078674e-07,7.331147165934532e-07,9.662512214051726e-07,1.22090682770251e-06,1.220725337995201e-06,5.054985580803899e-07,1.2835130548775816e-06,7.301052120680024e-07
1.9816420964713205e-08,7.419842251122097e-07,1.9428495315994977e-07,1.0069149573731972e-06,1.5308271326827195e-06,1.33723245550943e-06,8.476949223249331e-07,6.024394877148214e-07,1.0956465989819744e-06,6.775575839393963e-07,-2.7178814560838366e-07,7.164256735893966e-07,1.0151208010916636e-06,1.232749143324242e-06,1.2358687266328092e-06,5.802243173027321e-07,1.2930205326978117e-06,7.302634994082479e-07
6.549641912217527e-08,7.186648863703336e-07,1.8738440014399835e-07,9.985743232859096e-07,1.5248963444500848e-06,1.3465956271783354e-06,8.749057363868313e-07,6.061689536067589e-07,1.0947316050086123e-06,6.596123406265138e-07,-2.956993473165468e-07,6.976545970720075e-07,1.0683998040054082e-06,1.2446700689677269e-06,1.2503475503055572e-06,6.38714944556573e-07,1.3001017103314333e-06,7.292043929979124e-07
1.0455002299767352e-07,6.972536429613236e-07,1.7442636953742818e-07,9.878411152421134e-07,1.5200432914754935e-06,1.3546751245293413e-06,9.025616964967269e-07,6.058914239247549e-07,1.0939606060570397e-06,6.369698714818942e-07,-3.157641199207336e-07,6.752996669235794e-07,1.123123397267678e-06,1.2545222589154748e-06,1.261096125745295e-06,6.744112624786281e-07,1.3024287022130516e-06,7.264709593367203e-07
1.3058074836340965e-07,6.748903356438495e-07,1.545128263635574e-07,9.739279172404105e-07,1.5146411332864675e-06,1.3589587653604077e-06,9.275469109089041e-07,5.98214204681411e-07,1.0943540234672365e-06,6.097494986058513e-07,-3.3090249584671e-07,6.490224401382927e-07,1.17566965736732e-06,1.2600567491841944e-06,1.2659276036590193e-06,6.811191394223656e-07,1.2983711892920207e-06,7.219056874097461e-07
1.3636843836668008e-07,6.493332713184221e-07,1.2789622279298524e-07,9.560757680601667e-07,1.5071900205954288e-06,1.35789360474793e-06,9.462774808113738e-07,5.801103461544973e-07,1.0977656325223527e-06,5.78012666442185e-07,-3.432258087946909e-07,6.190440998130302e-07,1.2225754030984021e-06,1.2573713516970223e-06,1.2630170453856214e-06,6.683921369253404e-07,1.2867734917960255e-06,7.150371844382982e-07
1.1496438649949379e-07,6.182853723896991e-07,9.490655846733778e-08,9.334346202831831e-07,1.496082832042855e-06,1.3506594600265724e-06,9.554078682940762e-07,5.505375025938234e-07,1.1060513284795237e-06,5.41895615751267e-07,-3.571333530422758e-07,5.860206804026974e-07,1.2569184624497686e-06,1.2416063005349306e-06,1.2513334801792634e-06,6.425022763167916e-07,1.2669587465815186e-06,7.048571745177342e-07
6.304532107083243e-08,5.794640042787548e-07,5.585199093357328e-08,9.055505751091512e-07,1.4802995988417122e-06,1.3372095171945203e-06,9.535798944003805e-07,5.105589052696654e-07,1.1200191017332102e-06,5.031883736109679e-07,-3.7740225107938747e-07,5.521771771087515e-07,1.2751923060100855e-06,1.2100383253082548e-06,1.2321245660136993e-06,6.039174723437108e-07,1.2392022798157322e-06,6.902618176871172e-07
-1.514086900558882e-08,5.319236475542923e-07,1.1547176779229701e-08,8.730959389204141e-07,1.4603618696789048e-06,1.3185966594178539e-06,9.429896112410556e-07,4.68449186123038e-07,1.1388477997241067e-06,4.6584576379881204e-07,-4.073779021530814e-07,5.21026737203427e-07,1.27443594576522e-06,1.164203789983375e-06,1.209443855136813e-06,5.52731517997879e-07,1.2048442534821083e-06,6.70660468065306e-07
-1.0647679557723819e-07,4.769556377975397e-07,-3.6665605056217804e-08,8.378584461863554e-07,1.437924747912255e-06,1.2967006914984019e-06,9.294992545871722e-07,4.3326524987771093e-07,1.160262554705294e-06,4.33858974881642e-07,-4.481078064652278e-07,4.956239203090972e-07,1.25437659133503e-06,1.1092743068158146e-06,1.1888339464972827e-06,4.838841852633123e-07,1.165973719203873e-06,6.463393417086171e-07
-1.923455420691241e-07,4.179399522868737e-07,-8.696736444414804e-08,8.020824100722205e-07,1.4149044452302404e-06,1.2740234960531641e-06,9.207752806135019e-07,4.11269309521283e-07,1.1815244867072494e-06,4.124344850644429e-07,-4.981630348109821e-07,4.778192051936279e-07,1.219758772364051e-06,1.0527013512252166e-06,1.1756692680069837e-06,3.932298238807518e-07,1.1252376166161747e-06,6.187478840706205e-07
-2.5551697958515916e-07,3.6012710941603604e-07,-1.3666919525523497e-07,7.680389469077976e-07,1.3938784921939754e-06,1.2541286937723452e-06,9.241305515432004e-07,4.076911578401039e-07,1.2008789769854055e-06,4.006212763859292e-07,-5.537858859397424e-07,4.691734331422888e-07,1.1774736471139555e-06,1.0036185828229133e-06,1.1742495676965417e-06,2.8278673565911225e-07,1.0859163116668555e-06,5.907526902177282e-07
-2.8650796479874594e-07,3.101078320352452e-07,-1.8206934238817523e-07,7.378717975047922e-07,1.3786925038302605e-06,1.2415366405452862e-06,9.44734808139878e-07,4.150048526652796e-07,1.2184033289464586e-06,4.012003477501945e-07,-6.098054270639182e-07,4.7134760639524764e-07,1.1352827645409768e-06,9.71199842695042e-07,1.1869332255356649e-06,1.630142162305436e-07,1.0517355519124213e-06,5.663619047738557e-07
-2.863436000034706e-07,2.738974721998772e-07,-2.1946908403708525e-07,7.132086642911281e-07,1.3734310582399406e-06,1.2403425946213058e-06,9.84027080821393e-07,4.350802941912542e-07,1.2357319943021283e-06,4.1693562025520544e-07,-6.612920218657281e-07,4.849193135104427e-07,1.1342165409299587e-06,9.618894915826138e-07,1.2131856078745845e-06,4.630265662034934e-08,1.0265431009723753e-06,5.49746671455027e-07
-2.6416896849033915e-07,2.5470538477265876e-07,-2.4633169744770183e-07,6.948774073262732e-07,1.3809100393598802e-06,1.2530810265908295e-06,1.0392343624469002e-06,4.6610230889578407e-07,1.25526067428768e-06,4.4622802625623634e-07,-7.046466434824164e-07,5.087756052579074e-07,1.1106238353731504e-06,9.782254523039762e-07,1.2498763021884514e-06,-5.403226376843344e-08,1.0142610552228735e-06,5.440984443647708e-07
-2.3087110597828143e-07,2.524685214962823e-07,-2.615277764380445e-07,6.833289570664611e-07,1.4026584501143147e-06,1.2808458362823162e-06,1.1045916106762354e-06,4.986108701025088e-07,1.279413857862436e-06,4.88724217386908e-07,-7.372859925455442e-07,5.408211697265912e-07,1.1076657950478715e-06,1.0193195048924739e-06,1.293039675543294e-06,-1.2913350245513107e-07,1.0182312015768011e-06,5.50687086397952e-07
-1.933177418222871e-07,2.6491749936707046e-07,-2.653802214209416e-07,6.79157316980918e-07,1.4394635334591563e-06,1.3235644759933968e-06,1.173463230131322e-06,5.1394415925048e-07,1.3096870210180532e-06,5.357319869168881e-07,-7.567429150406675e-07,5.78311519454844e-07,1.1501547182020613e-06,1.0814180819831806e-06,1.3395139453738909e-06,-1.8019101704550315e-07,1.0394644119822907e-06,5.681134598116404e-07
-1.520431577498062e-07,2.885172178247625e-07,-2.599893179858078e-07,6.828103837137477e-07,1.490845467769889e-06,1.379298703993743e-06,1.2407137636645504e-06,5.046070649167298e-07,1.3457352183390425e-06,5.714671619866939e-07,-7.603050525026158e-07,6.178558573030806e-07,1.2332588525969557e-06,1.1582211987152586e-06,1.3875562402693634e-06,-2.2015451342408492e-07,1.075858296615172e-06,5.921254345135209e-07
-1.0234829139321081e-07,3.19013750601145e-07,-2.490566153282677e-07,6.938909644220928e-07,1.5543549879331935e-06,1.44409009140384e-06,1.3043665970183033e-06,4.477905310623627e-07,1.3856246213748864e-06,5.601854011726191e-07,-7.455586604730844e-07,6.558585535161408e-07,1.3928929187504015e-06,1.2419548166540466e-06,1.4367762083304524e-06,-2.6977785155198846e-07,1.121895063724536e-06,6.165109865660873e-07
-3.6736156645835917e-08,3.5206478319277816e-07,-2.368756942427646e-07,7.108734833839491e-07,1.6259107238229745e-06,1.5130271310567627e-06,1.3659836448149517e-06,3.8557704994336556e-07,1.4270859651568968e-06,4.774852245923862e-07,-7.118350996844401e-07,6.890301700668694e-07,1.6309122445532386e-06,1.3246259429966311e-06,1.4873913706120262e-06,-3.5394973556217726e-07,1.170519590775275e-06,6.34846878527802e-07
5.211943687544803e-08,3.8343660832954497e-07,-2.275179932603571e-07,7.310992508252409e-07,1.7003705830142566e-06,1.5813582052346342e-06,1.4300735680700821e-06,3.55214919711689e-07,1.4683036719647966e-06,3.60683996245585e-07,-6.619332576055161e-07,7.142501727831692e-07,1.946561563789496e-06,1.398612519133748e-06,1.5388560887425116e-06,-4.903419067596005e-07,1.2152434457266429e-06,6.424289880997704e-07
1.6804056986007208e-07,4.084570916679671e-07,-2.2442581833213332e-07,7.508186138506352e-07,1.771745373326938e-06,1.6447315239729325e-06,1.5008304518343547e-06,3.2590737488197786e-07,1.5075778020342927e-06,2.622986230054266e-07,-6.026509931034371e-07,7.286001236392657e-07,2.2694706069903818e-06,1.4579138200538554e-06,1.5889225920702757e-06,-6.770422778593509e-07,1.253102786937451e-06,6.379246323740712e-07
3.089678679991785e-07,4.2177504525135336e-07,-2.2989559070524482e-07,7.656565948327842e-07,1.833783407756869e-06,1.699251036431062e-06,1.5793092732775485e-06,3.0728950085459185e-07,1.5427879931028339e-06,1.8418430638523673e-07,-5.434323604027833e-07,7.3031920700659e-07,2.7003564806695204e-06,1.5004898254131781e-06,1.63383219541328e-06,-8.975038195090167e-07,1.2845190500809213e-06,6.240902693861787e-07
4.6636860240646297e-07,4.1812942636769667e-07,-2.446437514693721e-07,7.714176527545617e-07,1.880904650460272e-06,1.7420298951483393e-06,1.6617949447441885e-06,2.932722265377681e-07,1.5715885201242968e-06,3.053379295532361e-08,-4.939375160211622e-07,7.196478365297478e-07,3.1681695403705922e-06,1.5294746041910575e-06,1.6691452511729145e-06,-1.118158357051296e-06,1.3136990762623145e-06,6.066988275198528e-07
6.265299373594572e-07,3.9361447225022175e-07,-2.681341732007176e-07,7.646323332776836e-07,1.909007454391193e-06,1.7715568652567205e-06,1.7394867924117363e-06,2.500332632788415e-07,1.592351076177008e-06,-1.6154243581536688e-07,-4.6131219175939955e-07,6.986944798599832e-07,3.626332628667375e-06,1.5516837128993359e-06,1.6908386101085283e-06,-1.3022488561076464e-06,1.3464688132752957e-06,5.918954363994338e-07
7.737110047907917e-07,3.470786167672733e-07,-2.992334899034317e-07,7.429018865834408e-07,1.9166262590754288e-06,1.7880279371215487e-06,1.801210737546098e-06,1.7068675575884187e-07,1.6053534976631911e-06,-2.6920134060451364e-07,-4.477973699309736e-07,6.71366878215426e-07,4.082392368266847e-06,1.5746156475844854e-06,1.6965428844012303e-06,-1.4273474391556248e-06,1.3859052280393015e-06,5.834917270658862e-07
8.946077618336381e-07,2.812484527098163e-07,-3.3644158247511156e-07,7.053902339313409e-07,1.9060001358604887e-06,1.7937178383028297e-06,1.8381146789574034e-06,9.89686429984136e-08,1.613299172346455e-06,-3.2092563955677997e-07,-4.5029736320072136e-07,6.429870878241734e-07,4.485728513123501e-06,1.603330701894182e-06,1.6860440035666552e-06,-1.4933602819044971e-06,1.4339914107161004e-06,5.81557689682758e-07
9.820428450811233e-07,2.0225871205975966e-07,-3.7827513131670296e-07,6.530684234958949e-07,1.8821485840282314e-06,1.7924413491318845e-06,1.8469184251100146e-06,4.008157241634778e-08,1.620319265411774e-06,-3.819719964930132e-07,-4.6293334117145924e-07,6.18432574813651e-07,4.8338384877012515e-06,1.6381032134803275e-06,1.6605349727620949e-06,-1.5232705736707766e-06,1.487589063401259e-06,5.827265008390711e-07
1.0357678114498805e-06,1.1737060316246729e-07,-4.2386125203997855e-07,5.8838455556217e-07,1.8502315922235088e-06,1.787874890793249e-06,1.829159913511987e-06,-1.2801866967124592e-08,1.6298285728241668e-06,-4.352710539192348e-07,-4.808035239536363e-07,6.00245319434841e-07,5.118098149018864e-06,1.673769449832966e-06,1.6218954797033549e-06,-1.5527034085652268e-06,1.5410927192900867e-06,5.820330423607567e-07
1.0608316545197753e-06,3.295308812639999e-08,-4.7283043001990173e-07,5.149402004058241e-07,1.8141057289367741e-06,1.7824356738849845e-06,1.7885760551477575e-06,-4.7863188906340054e-08,1.6427885970261217e-06,-5.171924524417295e-07,-5.021084014178457e-07,5.8863064216076e-07,5.3749089766178635e-06,1.7033819146238359e-06,1.5727226728110714e-06,-1.6150068274932903e-06,1.59054698057656e-06,5.754883217812764e-07
1.0650697167743306e-06,-4.6040457477572076e-08,-5.243698881235681e-07,4.3741488475048197e-07,1.7768640256652899e-06,1.7776247698903296e-06,1.727933399088169e-06,-6.696064467360948e-08,1.6573656934968782e-06,-5.317887479280437e-07,-5.278765943167543e-07,5.824685689508483e-07,5.5258416633490645e-06,1.722566097784815e-06,1.5169102943615506e-06,-1.7275158688172512e-06,1.6350928021551012e-06,5.619309911708661e-07
1.0566174766694172e-06,-1.1640400426189589e-07,-5.766383550260103e-07,3.608554481446582e-07,1.7410061975666319e-06,1.7745259094110617e-06,1.6511051029206747e-06,-8.631970573717011e-08,1.6695942583183014e-06,-4.989865426252114e-07,-5.600644848324602e-07,5.797750626448463e-07,5.615690576169962e-06,1.731166954435194e-06,1.4592829852574916e-06,-1.8896439481190575e-06,1.6774234443791893e-06,5.433223905075841e-07
1.0419573379799947e-06,-1.7748165034670342e-07,-6.276502647132015e-07,2.895870520817504e-07,1.7074689592781278e-06,1.773534402771502e-06,1.5618068601189187e-06,-1.0393111717499617e-07,1.6746320471234376e-06,-4.811414531581092e-07,-5.988682792307194e-07,5.781850189591501e-07,5.684371123392675e-06,1.7331212770164752e-06,1.4045512107205981e-06,-2.083986264603818e-06,1.7208953275807995e-06,5.241412072667549e-07
1.0256215738484498e-06,-2.3101473129002626e-07,-6.758264813504889e-07,2.2609985710106205e-07,1.6755212375187521e-06,1.7740451305946386e-06,1.4637873499717319e-06,-1.1219328918260105e-07,1.6686274764541468e-06,-4.5201642181382685e-07,-6.406356926874354e-07,5.762374657540641e-07,5.733619451267188e-06,1.7353348461550622e-06,1.3572372168173455e-06,-2.2793797056835705e-06,1.7691159844298414e-06,5.103829728661408e-07
1.0105804289992992e-06,-2.7953706406707454e-07,-7.201014822316462e-07,1.7108180574682064e-07,1.6440066644474912e-06,1.7743896687151572e-06,1.3618497905235483e-06,-1.27983145164212e-07,1.6505810632642374e-06,-4.1617597633590703e-07,-6.785140620268692e-07,5.735631197965651e-07,5.803134748538894e-06,1.7448673321260845e-06,1.3202859028400504e-06,-2.4423117992625243e-06,1.8242152384133047e-06,5.072799331243918e-07
9.980986369336911e-07,-3.2477311883229325e-07,-7.601868382793553e-07,1.240121911845063e-07,1.612018162721051e-06,1.771827217990063e-06,1.261106374020758e-06,-1.5062220689056564e-07,1.6228457183950053e-06,-4.215146570261542e-07,-7.064572756018314e-07,5.696591979296175e-07,5.890366704648776e-06,1.76464147975848e-06,1.2933271221445065e-06,-2.5522927378697033e-06,1.8841106155668594e-06,5.156287420107241e-07
9.877261309187512e-07,-3.669003741644057e-07,-7.967567632721201e-07,8.35948399457405e-08,1.5786556640460406e-06,1.7632243792826044e-06,1.166928933280685e-06,-1.7597342253876106e-07,1.5899595309144053e-06,-4.5070899586987996e-07,-7.237056285694127e-07,5.63634578333817e-07,5.984052168725523e-06,1.7914794221531775e-06,1.2722700894464898e-06,-2.616966795288395e-06,1.9424243542256448e-06,5.293852314856729e-07
9.783907168760146e-07,-4.042846635072183e-07,-8.311726729654981e-07,4.842670361354368e-08,1.5434138125749868e-06,1.7470270471462423e-06,1.0843845337197864e-06,-2.0853070984837055e-07,1.5569641624991517e-06,-4.952167414743884e-07,-7.356241061664036e-07,5.55572535020987e-07,6.058230703759087e-06,1.8182606612606167e-06,1.2509074990595794e-06,-2.674670169382277e-06,1.9910924750661793e-06,5.375566912049499e-07
9.699171824883112e-07,-4.338641280417549e-07,-8.647298429288237e-07,1.7591188127390958e-08,1.5070026578212714e-06,1.7250387585724039e-06,1.016816585667092e-06,-2.436770367102963e-07,1.5281088331689987e-06,-5.431746853171027e-07,-7.499031171910917e-07,5.470855673169657e-07,6.118147126641762e-06,1.8380509160281658e-06,1.2237417354410277e-06,-2.7731801526475685e-06,2.025606736816612e-06,5.299938052271553e-07
9.63284318275463e-07,-4.5290102662997753e-07,-8.98280304149094e-07,-9.265982807864462e-09,1.4711336991753423e-06,1.701791092634978e-06,9.630446484844873e-07,-2.726822009345862e-07,1.5062286404400592e-06,-5.72753778146723e-07,-7.711073605824181e-07,5.400913396168426e-07,6.149619953275944e-06,1.847305375896879e-06,1.1882975164857103e-06,-2.951736278807083e-06,2.0478621767452458e-06,5.034031671012197e-07
9.596747323901907e-07,-4.614010031643468e-07,-9.318646785861372e-07,-3.2224653283511084e-08,1.437815604832074e-06,1.682355911589316e-06,9.177458987398485e-07,-2.944432914777397e-07,1.4927005794580343e-06,-5.819774683595043e-07,-7.974576755541126e-07,5.36062312895665e-07,6.1558983792175654e-06,1.8477163514110367e-06,1.1463133105777162e-06,-3.201054044516575e-06,2.065494265627098e-06,4.6389240401361906e-07
9.593740833891333e-07,-4.631912644771644e-07,-9.642087700872574e-07,-5.1025670894751254e-08,1.4093178105247272e-06,1.6706272871336943e-06,8.747621821930413e-07,-3.1242979140258897e-07,1.4881742615239436e-06,-5.723151648606503e-07,-8.217803934433935e-07,5.361921682752039e-07,6.161491935804016e-06,1.8462723259960289e-06,1.1029900216563673e-06,-3.4728312496253002e-06,2.0878988379697382e-06,4.246137480175095e-07
9.613145999597552e-07,-4.647037880367922e-07,-9.929073218413807e-07,-6.501735674738172e-08,1.3878332893008441e-06,1.6684996172956907e-06,8.309139190221807e-07,-3.212940540579427e-07,1.493005913867458e-06,-5.45210699162629e-07,-8.357621048210426e-07,5.412143368984993e-07,6.1765324504317935e-06,1.8522739346459168e-06,1.0645189631471428e-06,-3.7047425726078996e-06,2.120679732447664e-06,3.9989355031942166e-07
9.626853320389534e-07,-4.721074949831783e-07,-1.0155902798471687e-06,-7.353627700727252e-08,1.3742210214553675e-06,1.675406789755168e-06,7.870920452070445e-07,-3.157029632661106e-07,1.5064265041868958e-06,-5.05675021502411e-07,-8.344422481704281e-07,5.509643739256365e-07,6.212747736915978e-06,1.87372863473294e-06,1.0352933042511937e-06,-3.6928829684859943e-06,2.165874645520854e-06,3.9954031175049126e-07
9.59402111989423e-07,-4.878027449675394e-07,-1.030733940238179e-06,-7.609061454748276e-08,1.3678139486068329e-06,1.68878218783298e-06,7.450112976797528e-07,-2.931993344119163e-07,1.5255766402892525e-06,-4.6076362103092635e-07,-8.178336998433357e-07,5.649499881911482e-07,6.275680350003462e-06,1.9162190746536417e-06,1.0167480590866844e-06,-3.5701821479886643e-06,2.224346937629573e-06,4.267328506761944e-07
9.476750709075099e-07,-5.080988807854362e-07,-1.0371656238083855e-06,-7.198703650523048e-08,1.3682465943755716e-06,1.7058712909450748e-06,7.039329715064557e-07,-2.5437561875871115e-07,1.5457142830704102e-06,-4.1776985161889797e-07,-7.893145995929251e-07,5.832159968005088e-07,6.36791190692689e-06,1.9832275610298162e-06,1.0076158530958004e-06,-3.5333139476586236e-06,2.2985513631269916e-06,4.79611013946981e-07
9.254029373229184e-07,-5.245054670187742e-07,-1.0336482238280997e-06,-6.007103216999646e-08,1.3768037481865911e-06,1.7254197427604864e-06,6.60103501450652e-07,-2.0493772945825197e-07,1.5616597757235382e-06,-3.8322755831342194e-07,-7.532895746111427e-07,6.058476541295146e-07,6.50197339146643e-06,2.0752573224403778e-06,1.003814198521943e-06,-3.431483638952082e-06,2.3921871196138313e-06,5.526787915882328e-07
8.926334232535558e-07,-5.283150548044009e-07,-1.0196659570509008e-06,-3.9349677960516395e-08,1.3954609525705015e-06,1.7476337605163636e-06,6.081216396762551e-07,-1.636552687561838e-07,1.5694715670696855e-06,-3.62506558276376e-07,-7.142445711624565e-07,6.321040273171945e-07,6.6816245299295975e-06,2.187879475571549e-06,9.987456351243058e-07,-3.1384076138364246e-06,2.5060692623698156e-06,6.375548818859268e-07
8.514268157012511e-07,-5.146935855561808e-07,-9.962065255771968e-07,-1.0016378559023769e-08,1.4253167307596097e-06,1.7731120303015834e-06,5.452301129022928e-07,-1.6083196756002402e-07,1.5677142507411797e-06,-3.5837175271621326e-07,-6.767647144822984e-07,6.607839512808652e-07,6.9042696293825395e-06,2.311329250112753e-06,9.85513864819961e-07,-2.74486200943056e-06,2.635134573995541e-06,7.232553065004453e-07
8.054086059630057e-07,-4.835540084834691e-07,-9.660429420981036e-07,2.6199710678970457e-08,1.4661325370951495e-06,1.8017036584240412e-06,4.7409287972631746e-07,-1.894606420674533e-07,1.5577298330863483e-06,-3.696948579743229e-07,-6.452531004263795e-07,6.907164577524798e-07,7.153903827681689e-06,2.431767545105285e-06,9.599158132399828e-07,-2.431293088140627e-06,2.76778543331436e-06,7.975742069843063e-07
7.588144803813263e-07,-4.380800344600623e-07,-9.334317957253815e-07,6.613729887740138e-08,1.5163701054385963e-06,1.8315812497049057e-06,4.0203939921512896e-07,-2.2630725890264122e-07,1.5425284055773991e-06,-3.9225993840771966e-07,-6.232823071877474e-07,7.202540432534391e-07,7.40060925182674e-06,2.5336527761955255e-06,9.224633951880557e-07,-2.1905202674276237e-06,2.8894468489519506e-06,8.500108848504077e-07
7.154820253278171e-07,-3.827612010703353e-07,-9.032158969178925e-07,1.0577121102914955e-07,1.5734433839705238e-06,1.859178976124238e-06,3.377649848611716e-07,-2.4185995096714947e-07,1.5251278070362835e-06,-4.2047016310607586e-07,-6.130150036415269e-07,7.471441795285836e-07,7.614697595130059e-06,2.6039432756365246e-06,8.782295076285274e-07,-2.0820078518738737e-06,2.9880631862170186e-06,8.745356018623337e-07
6.785730900940614e-07,-3.215988497850713e-07,-8.791625929057925e-07,1.415966386537262e-07,1.6348046921907043e-06,1.880453973908086e-06,2.871119116577886e-07,-2.6235534229094546e-07,1.5076281290051767e-06,-4.4835328264202097e-07,-6.148034999527937e-07,7.696467297025358e-07,7.774483987966014e-06,2.6369521316983884e-06,8.346733195766513e-07,-2.0395825722882557e-06,3.05825679342089e-06,8.709950511822787e-07
6.508549855987364e-07,-2.5693911334170996e-07,-8.625094209054694e-07,1.720298727856642e-07,1.6987605429736025e-06,1.8925076092207381e-06,2.519454639938834e-07,-3.236063381839572e-07,1.4912798721186052e-06,-4.7088388590788306e-07,-6.27319682225154e-07,7.871117121682517e-07,7.870992760148454e-06,2.635694508434323e-06,7.980913509313256e-07,-2.0687318141837598e-06,3.1017120951058573e-06,8.442721911234518e-07
6.343430855149178e-07,-1.8978356972793882e-07,-8.522532490969436e-07,1.9743305912442e-07,1.7634543417094727e-06,1.894207468255662e-06,2.2734953005816218e-07,-4.048288237584786e-07,1.4766315893247263e-06,-4.860538363362981e-07,-6.484205592776262e-07,7.991064384952001e-07,7.916043205734966e-06,2.6085558472756655e-06,7.703575054069698e-07,-2.19428113997321e-06,3.1248691741583898e-06,8.018550254353524e-07
6.292448190233652e-07,-1.2130001943216709e-07,-8.468589442379104e-07,2.1891770114165734e-07,1.825436084971984e-06,1.8861361737980756e-06,2.051595935989782e-07,-4.903045224934691e-07,1.463343601529084e-06,-4.956149272031758e-07,-6.757592736104931e-07,8.051581308042092e-07,7.92589721473631e-06,2.5650805599499903e-06,7.48328268978043e-07,-2.268458709500939e-06,3.1354309406949593e-06,7.518235525248159e-07
6.336304750501991e-07,-5.390655878455918e-08,-8.447564429193792e-07,2.3750754604100762e-07,1.8802572581902353e-06,1.8705559781577136e-06,1.7763602644428755e-07,-5.696272543379119e-07,1.4503649701219305e-06,-5.031407877759396e-07,-7.063890273070429e-07,8.055246336484426e-07,7.919076376467515e-06,2.5142962176055057e-06,7.261235435954285e-07,-2.4538903091186873e-06,3.140241270778486e-06,7.010861417151948e-07
6.444435940971849e-07,8.792801393391493e-09,-8.444416632040381e-07,2.540504616387215e-07,1.9243388991965922e-06,1.8509472838850135e-06,1.395102310330749e-07,-6.482046238657921e-07,1.436648807607619e-06,-5.120445971646828e-07,-7.363717632887491e-07,8.013698817202986e-07,7.916521258475016e-06,2.4640048860043586e-06,6.98122348457607e-07,-2.7266209730794373e-06,3.1444956004426017e-06,6.543473707788817e-07
6.587121266731185e-07,6.256280353227985e-08,-8.447984635365875e-07,2.690493175780396e-07,1.9556783370680937e-06,1.830501070097197e-06,9.00503109300272e-08,-7.155615331794614e-07,1.4219050009703908e-06,-5.250960661161522e-07,-7.616559262334187e-07,7.937129264402019e-07,7.929156279268323e-06,2.4194220763233105e-06,6.608662603386615e-07,-3.0097022289987283e-06,3.1498093881697844e-06,6.135314468072705e-07
6.742643907556346e-07,1.036559281642946e-07,-8.454873931297867e-07,2.8238395172736615e-07,1.973394379847306e-06,1.8107025756086677e-06,3.176571234731324e-08,-7.608770049282909e-07,1.4070605882849332e-06,-5.440697751382694e-07,-7.796385135938007e-07,7.831002367766139e-07,7.96089582903633e-06,2.382789819509437e-06,6.140594394903471e-07,-3.390073410625761e-06,3.155450982298181e-06,5.779184312875901e-07
6.900178509362732e-07,1.3092646617736326e-07,-8.46865448201235e-07,2.936677253088823e-07,1.9776287354232303e-06,1.7915646206721483e-06,-3.096872325228627e-08,-7.965812226138848e-07,1.394198679588659e-06,-5.687939226632335e-07,-7.898624746987942e-07,7.705840369870479e-07,8.008774088835697e-06,2.3547843039315908e-06,5.606342876523975e-07,-3.713419761553942e-06,3.159736506605918e-06,5.45415415452438e-07
7.057325597815474e-07,1.471601945873991e-07,-8.495734679104087e-07,3.028950249708865e-07,1.9695494993126513e-06,1.7727689657800068e-06,-9.307981934863438e-08,-8.201599428121273e-07,1.3856370319442642e-06,-5.973476224529947e-07,-7.93578982444502e-07,7.576108925417293e-07,8.063746071189717e-06,2.3347465300176415e-06,5.052674303555377e-07,-3.968931931242547e-06,3.1610410444041077e-06,5.138023047516591e-07
7.209869173267599e-07,1.57206703595046e-07,-8.550265846434593e-07,3.102415184250404e-07,1.9504809650001534e-06,1.7539349437543045e-06,-1.4968594541291593e-07,-8.456647399354745e-07,1.3824004261007179e-06,-6.281350116378775e-07,-7.929886672579753e-07,7.444052821179608e-07,8.112648296905728e-06,2.319696757461585e-06,4.519080781432878e-07,-4.189642466246407e-06,3.1594865578507576e-06,4.817861059864714e-07
7.342698731197029e-07,1.6421284855022638e-07,-8.655025654832525e-07,3.153519111617087e-07,1.921215695180252e-06,1.7342599847736998e-06,-1.9838263093673105e-07,-8.600603077680132e-07,1.3833756786374353e-06,-6.610272183427088e-07,-7.904391011360377e-07,7.295309142826417e-07,8.148422232336499e-06,2.305075746859338e-06,4.0251890414720366e-07,-4.340006827827023e-06,3.154934944290095e-06,4.496415602323162e-07
7.432146160086592e-07,1.6788897790690483e-07,-8.829278428768464e-07,3.171562349042015e-07,1.8829114566578971e-06,1.7128358766870153e-06,-2.418458023493729e-07,-8.680519590380281e-07,1.385817217449039e-06,-6.964354427242468e-07,-7.875263523841891e-07,7.112823536094554e-07,8.168209968270486e-06,2.287320737028651e-06,3.5768136643904814e-07,-4.454362918779166e-06,3.1485666198233244e-06,4.196681937657198e-07
7.459506537024177e-07,1.6575068216711134e-07,-9.072041007989645e-07,3.144985393692239e-07,1.838084594014599e-06,1.6892760152527978e-06,-2.800093692276356e-07,-8.743197308495521e-07,1.3865537036795547e-06,-7.348451752090846e-07,-7.848362600582257e-07,6.885078746469713e-07,8.17231319011908e-06,2.264764550166664e-06,3.1710763505775733e-07,-4.529348214198927e-06,3.1414263804165052e-06,3.9520059221399093e-07
7.416039051228497e-07,1.546865429974323e-07,-9.364788836965817e-07,3.063971610466256e-07,1.7893230406790762e-06,1.663326139399376e-06,-3.1353907420623687e-07,-8.75441977651376e-07,1.382880548638816e-06,-7.781378526040684e-07,-7.828487621276104e-07,6.595827128328909e-07,8.164129925939363e-06,2.2353296572373216e-06,2.796051300450878e-07,-4.554517889203925e-06,3.131739718433588e-06,3.7812836377466335e-07
7.297093964650707e-07,1.316880123962115e-07,-9.690417622373658e-07,2.918232274170041e-07,1.737046288416927e-06,1.633999580995114e-06,-3.4490328766932494e-07,-8.806515415183613e-07,1.3732201708385255e-06,-8.295934419391769e-07,-7.826728149405436e-07,6.223481861954432e-07,8.145549479255923e-06,2.195752852398778e-06,2.4349666827001363e-07,-4.538750656436942e-06,3.1158053198256795e-06,3.671115089804226e-07
7.10193683027374e-07,9.551536376697278e-08,-1.00404651412898e-06,2.7023862462143753e-07,1.6800205821233362e-06,1.6000420101392112e-06,-3.7597522098698744e-07,-8.900306320915798e-07,1.3575119651874056e-06,-8.907687665851656e-07,-7.854027070668727e-07,5.76708144658811e-07,8.116639594558253e-06,2.1446866154551394e-06,2.081086179233086e-07,-4.4978915950660345e-06,3.090453217910939e-06,3.5808690691146214e-07
6.842239957738801e-07,4.952619009989498e-08,-1.0404161873954587e-06,2.4295564305189974e-07,1.6186844370830067e-06,1.5616350980041048e-06,-4.0902079671000225e-07,-9.018332766003111e-07,1.3373021616511337e-06,-9.576834266289734e-07,-7.91085528448246e-07,5.267279141602089e-07,8.07870830930419e-06,2.0859365993698308e-06,1.746286579887037e-07,-4.452928974946996e-06,3.055814030556844e-06,3.4658618812055256e-07
6.546396043141095e-07,2.4069802047813157e-09,-1.0759756323493999e-06,2.1366805007062e-07,1.5570911793550018e-06,1.5211775063736557e-06,-4.4460601053865624e-07,-9.139169728759614e-07,1.3148764756791517e-06,-1.0225017984908443e-06,-7.989757490581756e-07,4.791487851877894e-07,8.032316085805733e-06,2.0270266280814476e-06,1.4470255470530448e-07,-4.423777654735945e-06,3.0160932759986663e-06,3.297460941777726e-07
6.252574549249841e-07,-3.5241388616698956e-08,-1.1082951293428608e-06,1.870459849715547e-07,1.5012845805843777e-06,1.482097159599184e-06,-4.82825747485426e-07,-9.238180827754596e-07,1.2918650975736755e-06,-1.0782844157018903e-06,-8.087838758162867e-07,4.398758323680587e-07,7.980624297726552e-06,1.9746953962990345e-06,1.1872375541368772e-07,-4.424040194909845e-06,2.9773310864627914e-06,3.0685936040505713e-07
6.002195043556423e-07,-5.5663673034016836e-08,-1.1360166594150453e-06,1.6683646259815938e-07,1.4567706428604199e-06,1.4473053157773632e-06,-5.240485679896428e-07,-9.288877500696928e-07,1.268931980815142e-06,-1.1213187571249242e-06,-8.209436734480394e-07,4.12350501843234e-07,7.928446478643383e-06,1.932612505844849e-06,9.557221551532284e-08,-4.458062749936786e-06,2.944837253649136e-06,2.79383976553816e-07
5.840164389776018e-07,-5.614724690885179e-08,-1.1586563027959053e-06,1.5501269879419853e-07,1.4277965890534634e-06,1.4190245733555556e-06,-5.694372430931783e-07,-9.261689900501053e-07,1.2468002084265323e-06,-1.1510133967199602e-06,-8.352925163214772e-07,3.9805106107395596e-07,7.879334674475867e-06,1.9023848207472836e-06,7.431214818643001e-08,-4.5202707743149665e-06,2.9221891154019554e-06,2.506776562769077e-07
5.81072148685899e-07,-3.86156272854631e-08,-1.1757756392923503e-06,1.5216574752922253e-07,1.4172606541232098e-06,1.3992222323085896e-06,-6.186473010672935e-07,-9.14800865351986e-07,1.2272299054065636e-06,-1.1682308623210048e-06,-8.498620348194064e-07,3.9663482392335633e-07,7.837307246344096e-06,1.884706595746349e-06,5.4773447003685404e-08,-4.59711900469208e-06,2.9108507485811514e-06,2.2506596554189088e-07
5.941506982500456e-07,-8.760160697365857e-09,-1.1869408524057315e-06,1.5768926334100012e-07,1.4253655237467336e-06,1.3890620968717954e-06,-6.694114474579263e-07,-8.926282745244722e-07,1.2125565315769347e-06,-1.1755935655383638e-06,-8.613074454954768e-07,4.0544378903116757e-07,7.804893448110061e-06,1.878734491231476e-06,3.7456513840696e-08,-4.6718889275960455e-06,2.9095396873855553e-06,2.062954840167169e-07
6.228411416934168e-07,2.5196101669433463e-08,-1.1920157589480374e-06,1.698033754692126e-07,1.4484681600339115e-06,1.3880274615430297e-06,-7.193331573989881e-07,-8.619955650622303e-07,1.2042360609553513e-06,-1.1770272591037063e-06,-8.664018912924935e-07,4.204243186596938e-07,7.781913347390502e-06,1.8826520348948722e-06,2.3081266652472238e-08,-4.730692581170713e-06,2.9151391544376266e-06,1.962979441978128e-07
6.638073172898761e-07,5.515397671558099e-08,-1.1910379595393856e-06,1.862986151210934e-07,1.480346764357589e-06,1.3941178358183856e-06,-7.668387061419988e-07,-8.270284371989695e-07,1.201850269653453e-06,-1.1760092014229905e-06,-8.633577188752563e-07,4.383169013000741e-07,7.76530087755987e-06,1.8945255201048869e-06,1.2148864424870583e-08,-4.766747331601091e-06,2.9243313556843963e-06,1.9498406131338136e-07
7.120610490956813e-07,7.611816802678016e-08,-1.184242539050054e-06,2.0528333290017978e-07,1.5145833671683524e-06,1.4045653077048463e-06,-8.121381841645361e-07,-7.897568985686494e-07,1.2032983651215872e-06,-1.1750579484562538e-06,-8.52675896615771e-07,4.572703347344079e-07,7.765122139481701e-06,1.9121659790985887e-06,4.46881736184547e-09,-4.781463033359721e-06,2.9339524886768926e-06,2.0071610111714244e-07
7.61607109724538e-07,8.707886175706064e-08,-1.173024781078592e-06,2.2500173781807635e-07,1.545523925424617e-06,1.4160412782630127e-06,-8.56752221063932e-07,-7.564288745507059e-07,1.2058281981567671e-06,-1.1768202725921664e-06,-8.372692517189382e-07,4.755035306247913e-07,7.768297159417072e-06,1.932027716907737e-06,-1.7250304460109425e-09,-4.782944893743945e-06,2.9419065129538638e-06,2.1053755852908265e-07
8.058968072025404e-07,8.986817900433465e-08,-1.160506332715351e-06,2.4335918892447394e-07,1.5684833119074603e-06,1.4249457347384202e-06,-9.016740111848026e-07,-7.310727491847542e-07,1.2072797753100747e-06,-1.1851407701226059e-06,-8.212813026989394e-07,4.909189477983291e-07,7.77040604196196e-06,1.9492591067454904e-06,-9.241044023373792e-09,-4.782738995976293e-06,2.946968379580483e-06,2.2073373956148578e-07
8.39798054370686e-07,8.79900042670769e-08,-1.1502704544772203e-06,2.5842561112885937e-07,1.5810704223731678e-06,1.4287104097888764e-06,-9.477627589501886e-07,-7.160921486490798e-07,1.207033287845246e-06,-1.202631924973156e-06,-8.081275018336337e-07,5.023497617129614e-07,7.771753707994334e-06,1.959835985506724e-06,-2.0217953003574894e-08,-4.791415885343922e-06,2.94934608541594e-06,2.2799856745176753e-07
8.609992678642735e-07,8.575843371295703e-08,-1.1444345878205795e-06,2.6943193609078407e-07,1.5843210480896586e-06,1.4271294249497114e-06,-9.93035502293551e-07,-7.134513404566745e-07,1.2060320534606357e-06,-1.2288604859945616e-06,-7.993285970499209e-07,5.097761091105079e-07,7.766259884033554e-06,1.9614477246718177e-06,-3.5424616847257885e-08,-4.814325338598396e-06,2.9497772788573084e-06,2.3022417952695418e-07
8.705321682710103e-07,8.642723576495761e-08,-1.1433351354055168e-06,2.7672089147016883e-07,1.5810884611912378e-06,1.421705136642758e-06,-1.031502986168603e-06,-7.253596369540674e-07,1.2054687501574129e-06,-1.263803322821838e-06,-7.947873574364846e-07,5.126099303835575e-07,7.755017781549856e-06,1.952179110827127e-06,-5.559235801584668e-08,-4.8492139398597214e-06,2.9479252176701154e-06,2.2648146098936958e-07
8.709567757472459e-07,9.004554292368627e-08,-1.146728278041666e-06,2.806941736048488e-07,1.5731075535849324e-06,1.4136769076090452e-06,-1.062221178157431e-06,-7.427751732888022e-07,1.2044414077037207e-06,-1.3078312261760295e-06,-7.935098476018826e-07,5.091617939447487e-07,7.738204033476512e-06,1.9305168779034323e-06,-8.221631751634174e-08,-4.886272005926628e-06,2.9421708542675437e-06,2.1698066327400944e-07
8.64737379196574e-07,9.368744386732598e-08,-1.1539657478908796e-06,2.815545046936791e-07,1.5609070371644542e-06,1.4031148273783248e-06,-1.0871024775005746e-06,-7.599467693068006e-07,1.2009428954221537e-06,-1.359917924575376e-06,-7.938513307806155e-07,4.992049889625105e-07,7.716082304237466e-06,1.898590650143235e-06,-1.1587208039296073e-07,-4.909948780134051e-06,2.929725522432113e-06,2.037577422672093e-07
8.547684928358498e-07,9.459790429127825e-08,-1.1630326529468232e-06,2.8044143546146996e-07,1.5468496236999991e-06,1.389637267874803e-06,-1.1092824810521823e-06,-7.790906520054304e-07,1.192106866891013e-06,-1.4158656556873659e-06,-7.938706373319511e-07,4.865140855220106e-07,7.680482274835543e-06,1.8649373953161076e-06,-1.539663994245443e-07,-4.902152051488319e-06,2.912764919301258e-06,1.912148267532294e-07
8.451384421506179e-07,9.312413764745981e-08,-1.16954761432633e-06,2.8023366532072667e-07,1.536723179818094e-06,1.373033223877342e-06,-1.13401143363646e-06,-7.643146456632275e-07,1.173451000680207e-06,-1.4701807061400493e-06,-7.92654918152126e-07,4.77630904939008e-07,7.637232353082202e-06,1.8420675555248625e-06,-1.9094495692096645e-07,-4.847287691864152e-06,2.896593475457267e-06,1.8499767840992572e-07
8.408149421974537e-07,9.265169939031955e-08,-1.1678557314681542e-06,2.8470213269941777e-07,1.5373926634263842e-06,1.3530692775637034e-06,-1.1665706900251634e-06,-7.364720794853377e-07,1.141239282118146e-06,-1.5184957412605868e-06,-7.914207194965547e-07,4.782406482141439e-07,7.590696942464365e-06,1.8403424251806637e-06,-2.2076461601253788e-07,-4.738843734166419e-06,2.8877691736651944e-06,1.8966093307000168e-07
8.464386302636179e-07,9.767300138973376e-08,-1.152948085267602e-06,2.9714476115102887e-07,1.5536558272347236e-06,1.3300156473370824e-06,-1.2115795139919676e-06,-7.1883610629407e-07,1.0932279403373259e-06,-1.5603256174093153e-06,-7.920337388273078e-07,4.912428224828534e-07,7.560853837867786e-06,1.863807231397004e-06,-2.3931899155716387e-07,-4.5849788489141074e-06,2.8955901943777395e-06,2.0662309206314326e-07
8.661394393563752e-07,1.1257149460409344e-07,-1.1214497885291838e-06,3.1994989959154045e-07,1.587822730488387e-06,1.306447718482368e-06,-1.2728470533203722e-06,-6.825126300360735e-07,1.0322544760607967e-06,-1.5977030287391111e-06,-7.919985528721794e-07,5.173650900151395e-07,7.55458941788813e-06,1.9102315547238386e-06,-2.45414394222981e-07,-4.409358222184823e-06,2.9248290781627304e-06,2.3362390481442781e-07
9.038125845508706e-07,1.4124326716449312e-07,-1.0722146557569607e-06,3.5445787094797864e-07,1.6408919527381215e-06,1.289662362333779e-06,-1.35037204126115e-06,-6.28263591539796e-07,9.67188550800882e-07,-1.631271848125319e-06,-7.86065280589794e-07,5.548974794332096e-07,7.576892890251453e-06,1.9727892846854268e-06,-2.413473237199219e-07,-4.245311882043912e-06,2.975233307439819e-06,2.6537174652049453e-07
9.620377600849953e-07,1.8590687112737028e-07,-1.0072244289554624e-06,4.005520663021702e-07,1.712328579241563e-06,1.2847012620827522e-06,-1.4372385877184922e-06,-5.737130354157626e-07,9.143670436362288e-07,-1.661722819360875e-06,-7.672690263235508e-07,5.994270622685022e-07,7.636882978100095e-06,2.041641974794533e-06,-2.327865672305205e-07,-4.125462936788579e-06,3.0410630107591984e-06,2.945596508418461e-07
1.0407562196913821e-06,2.454321224180609e-07,-9.32289213102141e-07,4.558858325097901e-07,1.7986806904064728e-06,1.2961666339180636e-06,-1.5228681650058169e-06,-5.483507937465656e-07,8.897003236826562e-07,-1.6901953211370514e-06,-7.306574063904211e-07,6.444339926518914e-07,7.731746738482599e-06,2.1053351508988644e-06,-2.2662640812551462e-07,-4.0697129241372296e-06,3.10927926463477e-06,3.1350409390594956e-07
1.13700810119055e-06,3.152331681317761e-07,-8.560209248148353e-07,5.163231889078296e-07,1.8935222252449014e-06,1.3248071737732361e-06,-1.5928768727304185e-06,-5.452802736537159e-07,8.986695605206202e-07,-1.7172435775297931e-06,-6.777753308529977e-07,6.836420197341489e-07,7.851372853477546e-06,2.1548707168893045e-06,-2.2774091740196424e-07,-4.0841216650823576e-06,3.163657061094322e-06,3.166080408702761e-07
1.2460508109133483e-06,3.889166656949689e-07,-7.877108785177542e-07,5.771333866239404e-07,1.9889930431428396e-06,1.3662692218603544e-06,-1.6393137402814424e-06,-5.66107648242824e-07,9.117291454812849e-07,-1.7429242529470855e-06,-6.120240095254037e-07,7.126753518702692e-07,7.983431608348604e-06,2.1861371161223993e-06,-2.3710895708158808e-07,-4.157684730701234e-06,3.195370418305618e-06,3.028983412751129e-07
1.3621584524146244e-06,4.5985558306295774e-07,-7.349333960865447e-07,6.339320276996864e-07,2.0772162789117587e-06,1.4146982962672172e-06,-1.6550214049730329e-06,-5.918049644993568e-07,9.24060228443461e-07,-1.7679382546282588e-06,-5.399024638558697e-07,7.285921339851404e-07,8.111658853282344e-06,2.1991725897634876e-06,-2.526603164962723e-07,-4.265655393739165e-06,3.203775724100172e-06,2.768546899966486e-07
1.4781298684719289e-06,5.221995761839467e-07,-7.015851443413593e-07,6.835891257933934e-07,2.1514896612133042e-06,1.4633270087039015e-06,-1.6459417080208483e-06,-6.184348007375032e-07,9.636364061511858e-07,-1.7934855077769163e-06,-4.696454269362436e-07,7.300454261095536e-07,8.226486762102693e-06,2.197179532314723e-06,-2.714111995832041e-07,-4.379451377295197e-06,3.1918290496611646e-06,2.467281942066728e-07
1.5858995551614488e-06,5.723006247394057e-07,-6.866033730551725e-07,7.248667118103023e-07,2.208238881120038e-06,1.507077052683567e-06,-1.6229990773267475e-06,-6.516147566360317e-07,1.0189054592537426e-06,-1.819796170794402e-06,-4.078636305132529e-07,7.185018066488569e-07,8.332806709099335e-06,2.185654737110857e-06,-2.9063251185699485e-07,-4.475382363390479e-06,3.166489336207001e-06,2.2118062508500925e-07
1.6782848307608204e-06,6.101123898571987e-07,-6.844438749980209e-07,7.577905932105775e-07,2.248564852196577e-06,1.5435579247593589e-06,-1.594747373605443e-06,-6.818258682156878e-07,1.0628570157802436e-06,-1.8453623051534202e-06,-3.579267692835891e-07,6.982781191165227e-07,8.424139909921453e-06,2.171300297346238e-06,-3.082827713545011e-07,-4.541367820108068e-06,3.136658689403497e-06,2.0606391572843446e-07
1.7507719954568728e-06,6.388856931601943e-07,-6.876922712320623e-07,7.848257133018672e-07,2.277309548107562e-06,1.5724272485661015e-06,-1.5677620957357424e-06,-7.077835090308725e-07,1.098501025686244e-06,-1.8684330062414373e-06,-3.1974444318575755e-07,6.743794366134341e-07,8.501482168218308e-06,2.156359375762349e-06,-3.232912589979141e-07,-4.577972441551834e-06,3.1076840258914546e-06,2.026799031517275e-07
1.8021887858145403e-06,6.633153716899375e-07,-6.897851679954467e-07,8.088662285369233e-07,2.300518421626862e-06,1.5944449277109897e-06,-1.5437474972991224e-06,-7.370447283698206e-07,1.1243802480084944e-06,-1.8882316391805435e-06,-2.908019768640118e-07,6.511919652931193e-07,8.565021336567223e-06,2.1439479461628967e-06,-3.3535641314482677e-07,-4.589892876854436e-06,3.082134883262218e-06,2.0939969160007057e-07
1.834765855809583e-06,6.880799811676521e-07,-6.859800981722716e-07,8.319731071221251e-07,2.3238686637859397e-06,1.6103861871251254e-06,-1.5196796402606912e-06,-7.679287211195748e-07,1.131478462412209e-06,-1.9020372472261547e-06,-2.685928435375261e-07,6.326941728813465e-07,8.613719545999783e-06,2.1360497015669913e-06,-3.4446659476916017e-07,-4.583287504063712e-06,3.059184575095192e-06,2.2013441948450368e-07
1.8537457187250163e-06,7.173406048293017e-07,-6.734672366459864e-07,8.566815754270579e-07,2.3519996038653695e-06,1.6229811000853593e-06,-1.4885230493218766e-06,-7.993822399847609e-07,1.1305107696777668e-06,-1.908615351439373e-06,-2.49187278424225e-07,6.219607009997981e-07,8.654710855444846e-06,2.1346312645283992e-06,-3.5117081830996746e-07,-4.565988605995169e-06,3.037033655633974e-06,2.287673863650936e-07
1.8655812084616605e-06,7.539547693218393e-07,-6.519621191400578e-07,8.831599398592219e-07,2.387137585596525e-06,1.632913804494346e-06,-1.4436864931292838e-06,-8.306756046097773e-07,1.129938579540575e-06,-1.909030827304251e-06,-2.2688653324588875e-07,6.195875021543544e-07,8.688664751636787e-06,2.1383354288657004e-06,-3.5726049413036806e-07,-4.546424444596319e-06,3.0106927665079284e-06,2.300493845084908e-07
1.8754973005140914e-06,7.983047324768487e-07,-6.242742741100736e-07,9.105755851963288e-07,2.4280110209519846e-06,1.642412104266431e-06,-1.380437524136289e-06,-8.607970558435644e-07,1.1367108824959807e-06,-1.9025127862406463e-06,-2.0073693426526338e-07,6.231782660205145e-07,8.671264662570626e-06,2.1438492725789815e-06,-3.655193421426461e-07,-4.532799931701753e-06,2.9774488993002157e-06,2.2037656735446236e-07
1.8859685285684472e-06,8.480612706160224e-07,-5.954329171412774e-07,9.374459681540696e-07,2.4710470715619673e-06,1.6500343177963746e-06,-1.297801163716186e-06,-8.918048623657369e-07,1.1570716961296089e-06,-1.889591984007524e-06,-1.8542741081060065e-07,6.28817974543548e-07,8.608655448055053e-06,2.1494543218607144e-06,-3.781931465468683e-07,-4.529371905216513e-06,2.9205892032352773e-06,2.0053891704288317e-07
1.896636250495145e-06,8.988240935377275e-07,-5.707008568141876e-07,9.62015230782217e-07,2.512564477209157e-06,1.644692087946379e-06,-1.1988866031871709e-06,-9.12153119108704e-07,1.189882732570894e-06,-1.8749370126344226e-06,-1.803588894559924e-07,6.325067997849076e-07,8.511782626455064e-06,2.1548018201206564e-06,-3.960067644257231e-07,-4.533468915488251e-06,2.846412903052229e-06,1.7509809946532053e-07
1.9053433142964876e-06,9.446916988670624e-07,-5.538359005395675e-07,9.827346484168446e-07,2.5493535471091743e-06,1.6474717885507637e-06,-1.089843317094482e-06,-9.208918548617227e-07,1.231641045292733e-06,-1.8611951263278733e-06,-1.851719794988546e-07,6.30204493826524e-07,8.3875850888891e-06,2.161496181028158e-06,-4.1827291119369655e-07,-4.5359653596706905e-06,2.76515619732273e-06,1.5102193197572476e-07
1.9080301555940937e-06,9.79492089936271e-07,-5.465729199333258e-07,9.980760394074892e-07,2.5782684888688504e-06,1.6571505967406875e-06,-9.783415247490963e-07,-9.210091404335124e-07,1.2778031218455846e-06,-1.851129708235879e-06,-1.985402298132266e-07,6.186426811878508e-07,8.271540537861366e-06,2.1705454284142083e-06,-4.430351202263381e-07,-4.526978063592129e-06,2.688137210021496e-06,1.3488034839936022e-07
1.9011248417764282e-06,9.994498303642278e-07,-5.483665105431457e-07,1.0061499770895675e-06,2.596934607380778e-06,1.6666957995425765e-06,-8.728819728104175e-07,-9.142583188182443e-07,1.3225570546447137e-06,-1.8530101410064825e-06,-1.9862876220335454e-07,5.969122340466256e-07,8.180095301612518e-06,2.179962565693239e-06,-4.668763004404421e-07,-4.498649416070237e-06,2.635099483524725e-06,1.310959939596612e-07
1.8832594250094706e-06,1.005093692102373e-06,-5.566445176799818e-07,1.0075730570673204e-06,2.604647054557332e-06,1.6754121391346414e-06,-7.778485132414927e-07,-9.14230447727004e-07,1.3598462718226442e-06,-1.871390484462215e-06,-1.9434096610787e-07,5.662724458979266e-07,8.062586168213658e-06,2.191899740737572e-06,-4.855220271606028e-07,-4.448312797998327e-06,2.571915220330871e-06,1.3627260204626283e-07
1.8561052823720548e-06,9.98301014839267e-07,-5.687312820316545e-07,1.0037959518453387e-06,2.6012748376690235e-06,1.6685090797195966e-06,-6.907816518617226e-07,-9.285797722223571e-07,1.383961358359448e-06,-1.907703672416236e-06,-2.170146355067769e-07,5.279318752128194e-07,7.911279110013594e-06,2.1969130931105205e-06,-4.954152376082629e-07,-4.3781758222406374e-06,2.4829332905474296e-06,1.458589485019458e-07
1.8224516950574673e-06,9.813445588245212e-07,-5.838850108066164e-07,9.94758170273095e-07,2.5855186736910386e-06,1.620677342214985e-06,-6.05640835550418e-07,-9.447020380780251e-07,1.3900210927625157e-06,-1.960737085692143e-06,-2.700458850505565e-07,4.806469837007531e-07,7.65990206769551e-06,2.1816497393173757e-06,-4.939576898391852e-07,-4.282087845177662e-06,2.3257461003565674e-06,1.501704782110809e-07
1.7844209072829922e-06,9.540868504352058e-07,-6.033898764330564e-07,9.76967417623052e-07,2.555700256615726e-06,1.5597982304757829e-06,-5.111162738319056e-07,-9.472753392488547e-07,1.3749372579424414e-06,-2.021151649657862e-06,-3.534777146934636e-07,4.251121888830068e-07,7.23864542830045e-06,2.1334045824049513e-06,-4.778996525663198e-07,-4.15659514106384e-06,2.1089765038938138e-06,1.3707134802459947e-07
1.7421534431133102e-06,9.165359295803463e-07,-6.287775872052615e-07,9.554604616496222e-07,2.512349498717913e-06,1.4927449430079428e-06,-3.972085722056024e-07,-9.236899151560441e-07,1.3388383840879073e-06,-2.0457828993396728e-06,-4.889705105087768e-07,3.6512403550117124e-07,6.886154132952984e-06,2.007033269414319e-06,-4.4242009432418003e-07,-3.98788892859028e-06,1.955183917299064e-06,1.1315720136930517e-07
1.6926282095686533e-06,8.69224974719552e-07,-6.604970729918592e-07,9.276062741067294e-07,2.4586622128549938e-06,1.4143563706898006e-06,-2.5000106312173174e-07,-8.764246385448349e-07,1.285716935490605e-06,-1.99684299729048e-06,-5.495749233094673e-07,3.020189225754178e-07,6.626802919826815e-06,1.8209454680682586e-06,-3.8317426500802603e-07,-3.757017409728979e-06,1.84065760613511e-06,6.767419714276112e-08
1.6288893122711217e-06,8.138854276140694e-07,-6.979297799019345e-07,8.917733517366587e-07,2.3981980417842345e-06,1.38841911378008e-06,-4.772644239437121e-08,-8.330001811639077e-07,1.2223085566725603e-06,-1.8686210652048675e-06,-5.567327026968319e-07,2.379061873135611e-07,6.381666744059188e-06,1.6893543970251712e-06,-2.998846762155279e-07,-3.438178200963196e-06,1.7464864103531053e-06,-4.5983629591955355e-08
1.5425262532385735e-06,7.520500108062077e-07,-7.391360987242576e-07,8.599416485444673e-07,2.333623868361781e-06,1.303550274987313e-06,2.0119671755092143e-07,-8.094110339512177e-07,1.156103229191639e-06,-1.755102588779626e-06,-5.672432134171847e-07,1.7385407555168317e-07,6.2319072940960256e-06,1.4900923374000244e-06,-1.9841446876646116e-07,-3.010800224476621e-06,1.6536033279935125e-06,-1.5160317682650033e-07
1.4275283352679977e-06,6.882336581725718e-07,-7.79776836705813e-07,8.272989346274022e-07,2.2684776547615157e-06,1.1471024290729012e-06,4.7655097974714507e-07,-7.75325051682639e-07,1.0941734551317725e-06,-1.6951201924022069e-06,-6.125187753066659e-07,1.1366892047228269e-07,6.060720923460123e-06,1.2621411089947786e-06,-8.999109074061597e-08,-2.490477451357923e-06,1.5036974917245463e-06,-2.2779326450804754e-07
1.283195814246933e-06,6.416344564925927e-07,-8.128959788046556e-07,8.166920857985682e-07,2.209083567999456e-06,1.0681298308013861e-06,7.022691564827103e-07,-7.42533150364815e-07,1.042949851174614e-06,-1.6629445748099807e-06,-6.64318807626838e-07,6.556560304683945e-08,5.822585261092759e-06,1.157443854981865e-06,1.1983589983124012e-08,-1.9195928712078812e-06,1.4215878737847276e-06,-2.6352051366848224e-07
1.1184796483200409e-06,6.181288295551997e-07,-8.304143010590893e-07,8.45754268786265e-07,2.1637942340048175e-06,1.041304529094497e-06,7.882039286385147e-07,-7.071614862154987e-07,1.0079697947203872e-06,-1.5508301481751975e-06,-6.460564603437134e-07,4.3858117780752165e-08,5.689550205209202e-06,1.1918263470452268e-06,9.633067922822222e-08,-1.442107404627645e-06,1.417627936850635e-06,-2.3799966289049006e-07
9.522388474750296e-07,6.430808110504028e-07,-8.26255994208141e-07,8.695974694407677e-07,2.1406120722818727e-06,1.0368357794245368e-06,8.019126742327099e-07,-6.939666999233799e-07,9.934279168118567e-07,-1.5383307205172383e-06,-6.445156371918966e-07,6.072477257026406e-08,5.676649157953799e-06,1.2444295722145143e-06,1.577169514752016e-07,-1.2345323702598213e-06,1.3919928818877154e-06,-2.0174604426416704e-07
8.0668092902606e-07,6.931272779273027e-07,-7.978419623951317e-07,8.911873988761941e-07,2.145033984473832e-06,1.033146388354385e-06,7.451544319777158e-07,-6.955157480801165e-07,1.0016687407228465e-06,-1.616813981876345e-06,-6.829665790306582e-07,1.0536976127983478e-07,5.595692711658264e-06,1.2776209614604534e-06,1.975368779433354e-07,-1.2006977062808667e-06,1.3581816994205165e-06,-1.880377881564428e-07
7.06783314412162e-07,7.225327553487335e-07,-7.47012477147709e-07,9.148226801728993e-07,2.1778835315488282e-06,1.017573472073939e-06,7.316815289767923e-07,-6.947229603686106e-07,1.032200535637926e-06,-1.674460193826313e-06,-7.054042235528688e-07,1.1808200349805074e-07,5.5340181398955355e-06,1.3061422905260307e-06,2.2146926725768042e-07,-1.1875588229003077e-06,1.3363777489005877e-06,-1.8289447647513593e-07
6.932393104382073e-07,7.366988417120139e-07,-6.804315078122616e-07,9.297793140975985e-07,2.2334989376127484e-06,1.010270663360624e-06,7.331148172817812e-07,-6.870681050918184e-07,1.0805615005830504e-06,-1.7311830589822353e-06,-7.104828161766082e-07,1.374472773071111e-07,5.5031986063611066e-06,1.3104648490359767e-06,2.3554011339201594e-07,-9.742982259934508e-07,1.2894732398308662e-06,-1.5087962286336146e-07
6.982259272638116e-07,7.961912594544669e-07,-6.079038323265988e-07,9.550832550407835e-07,2.3006486574737416e-06,9.827651919561748e-07,6.435655442733585e-07,-6.868576772791004e-07,1.1385484114762076e-06,-1.7775872975150317e-06,-7.051712425322968e-07,1.877143436863065e-07,5.4682445078721816e-06,1.3942805719482609e-06,2.434345925018969e-07,-8.434674870938343e-07,1.3207615292853163e-06,-7.609538330639287e-08
7.916112671444049e-07,8.812874425798863e-07,-5.393110041760404e-07,1.0220641506704883e-06,2.3664443781056984e-06,1.0244824120109172e-06,5.17891432344448e-07,-6.668216996055881e-07,1.1962043792253688e-06,-1.8084620823869137e-06,-6.686330651956549e-07,2.6312459156191464e-07,5.506668068287945e-06,1.5540469779907066e-06,2.4577595623891667e-07,-8.243453213131492e-07,1.4069821025770432e-06,4.128261958741807e-08
9.075221835632385e-07,9.715514316160867e-07,-4.819160713277857e-07,1.0848431727789862e-06,2.4199654445245143e-06,1.1332125485079193e-06,3.682565793541075e-07,-6.659927972656648e-07,1.2441739281972576e-06,-1.9299867496475205e-06,-5.972183099920705e-07,3.1149147795764307e-07,5.6143571100060415e-06,1.669404385531156e-06,2.4047619268257435e-07,-9.687066783247169e-07,1.4505173495408988e-06,1.4038828429180785e-07
1.0250144523709145e-06,1.0428933642054496e-06,-4.4015108537720383e-07,1.1205172362148918e-06,2.453659557744401e-06,1.1991374208888182e-06,3.192643331084196e-07,-6.854158304953283e-07,1.2753375241583495e-06,-2.035210115316109e-06,-5.399869819063495e-07,3.554974212653178e-07,5.727198071894658e-06,1.776049033377935e-06,2.2390715487072366e-07,-1.2119089980980822e-06,1.4965054364498446e-06,2.456577079348287e-07
1.1378142648987598e-06,1.0835331296615548e-06,-4.147775216037681e-07,1.1375539912326838e-06,2.4640340869145133e-06,1.2305718508091889e-06,3.655919812802327e-07,-7.165813103182254e-07,1.2859522430053665e-06,-2.0829962980576776e-06,-4.938889644487664e-07,3.953921004345741e-07,5.720591367023926e-06,1.8588952667431385e-06,1.927351244083617e-07,-1.4976202253512951e-06,1.5126545971094505e-06,3.475240520530812e-07
1.261402318454824e-06,1.132895695779829e-06,-4.037820944239373e-07,1.1630661071706571e-06,2.452418659930091e-06,1.2642014149575036e-06,3.9274592671806425e-07,-7.183996998610133e-07,1.276268503898296e-06,-2.1014423702810875e-06,-4.646940072461799e-07,4.0010793186483823e-07,5.797323616030639e-06,1.923663597954633e-06,1.4533758937663743e-07,-1.7980062060609665e-06,1.5353377860135451e-06,3.750341892016218e-07
1.4053136200158677e-06,1.1543409095866664e-06,-4.032071739234116e-07,1.1851346307396645e-06,2.4243257665737707e-06,1.2645341066670767e-06,4.299595657027173e-07,-7.234433225934162e-07,1.2496079908938873e-06,-2.133340333824399e-06,-4.6862042641820815e-07,3.9262868893187896e-07,5.8519961563336675e-06,1.9605656149844847e-06,8.23655531262676e-08,-1.953624394097771e-06,1.5416330855277897e-06,3.272851780577615e-07
1.5385662467546154e-06,1.1387457380870471e-06,-4.0638651329942395e-07,1.2073486089376036e-06,2.387383827605901e-06,1.2771757450623323e-06,5.33133211970659e-07,-7.217400297853703e-07,1.213934555754753e-06,-2.1243455655307595e-06,-4.853979136475743e-07,3.757300258198844e-07,5.808851767407423e-06,1.9764091912817615e-06,4.597240434794739e-09,-1.9564555604682783e-06,1.5669933160447666e-06,2.6015476599557445e-07
1.6539448300715484e-06,1.1013491395747877e-06,-4.0903919131665087e-07,1.2278327979795057e-06,2.349835922816182e-06,1.2663964607329424e-06,6.352840329550888e-07,-6.965794426918508e-07,1.1784869871222467e-06,-2.1401243426381454e-06,-4.842409380865045e-07,3.517025372034168e-07,5.8669874800396016e-06,1.9387824904202518e-06,-7.488811027903693e-08,-1.8535144551818543e-06,1.5640601302071618e-06,1.972127740243628e-07
1.7227611295688828e-06,1.0765993493022754e-06,-4.0502103877960025e-07,1.2007939621023139e-06,2.3199279131617582e-06,1.2040314751083414e-06,7.949416145282658e-07,-6.87068100657041e-07,1.1531138499493371e-06,-2.1443753405510844e-06,-4.663200680795998e-07,3.322267766485225e-07,5.916586622071803e-06,1.863155703680203e-06,-1.4420963390074964e-07,-1.702264865743437e-06,1.4877149082596872e-06,1.6718636768230744e-07
1.758878954379771e-06,1.0668242784549616e-06,-3.928556969645189e-07,1.158955986296154e-06,2.3048108462264967e-06,1.174860368193048e-06,1.0189734655756414e-06,-6.579496946745458e-07,1.1529842884801353e-06,-2.0655606569957645e-06,-4.4038092142260245e-07,3.164852238861932e-07,5.781850669685244e-06,1.7688743489839658e-06,-1.8399272965192494e-07,-1.5568817442500178e-06,1.3686751083954602e-06,1.6139621876909291e-07
1.7677827120391037e-06,1.073213559454877e-06,-3.709593803624398e-07,1.159626606533851e-06,2.309160084378967e-06,1.1488244999150922e-06,1.2490447367375958e-06,-6.094236387393728e-07,1.1751379958384653e-06,-1.9126952344877684e-06,-4.2069160052947984e-07,3.08348106128079e-07,5.688032983931408e-06,1.6767989711034002e-06,-1.2866884942592846e-07,-1.4208068180605584e-06,1.3125847616307946e-06,1.6752518450353802e-07
1.7466791372067493e-06,1.0996797851633608e-06,-3.347873279976093e-07,1.1745081095740258e-06,2.3346290541685233e-06,1.121512508239559e-06,1.367375093260724e-06,-5.565715645332588e-07,1.2085107474527703e-06,-1.7904187424138784e-06,-4.1034290812198976e-07,3.121980433174839e-07,5.597726145842366e-06,1.6452370492235307e-06,-7.932514327571729e-08,-1.2965810909026542e-06,1.2758492023368344e-06,2.222555666520667e-07
1.6861898626593204e-06,1.1437478348419527e-06,-2.8181204355482316e-07,1.1941205466188053e-06,2.379650467751773e-06,1.1432802891208524e-06,1.4404118329938745e-06,-5.167993551113787e-07,1.2654045739943321e-06,-1.705161727979068e-06,-4.05703109391024e-07,3.313332254695633e-07,5.495837543301666e-06,1.6894310415771512e-06,-4.38250575089145e-09,-1.2371209485832247e-06,1.2553014981489133e-06,3.209652338808075e-07
1.5838336683394892e-06,1.1988125225272096e-06,-2.2783019963507333e-07,1.2067294680557695e-06,2.439170474490828e-06,1.1814113953598723e-06,1.4650145277210061e-06,-4.792700787034332e-07,1.343985544288695e-06,-1.5820084654012013e-06,-4.0205302707753554e-07,3.674469522559322e-07,5.422010540318755e-06,1.777814078471601e-06,1.0592860186356693e-07,-1.261224598437009e-06,1.2061761315346344e-06,4.1645278383959265e-07
1.4570250940064126e-06,1.2562097324123196e-06,-1.9653338598317854e-07,1.2175186822739224e-06,2.5056047553629983e-06,1.2322364142162998e-06,1.5890963192951267e-06,-4.377985468693837e-07,1.4214279907631243e-06,-1.5725011043683392e-06,-3.927479336658433e-07,4.1681004849029274e-07,5.444119676066065e-06,1.8887374191608178e-06,2.651094678192665e-07,-1.4388078115471e-06,1.2054539761660725e-06,4.7632619057103316e-07
1.3414453878496623e-06,1.308120435627305e-06,-1.8740790848846552e-07,1.2703680619689824e-06,2.571065524071719e-06,1.2946199199106466e-06,1.5804466850601042e-06,-4.1192016184371395e-07,1.4884160002622082e-06,-1.620513952679663e-06,-3.8276683391456014e-07,4.5794853491321414e-07,5.433302690078914e-06,1.956161428226713e-06,3.938787725000096e-07,-1.8022250240122962e-06,1.2715890830842477e-06,4.806395416634541e-07
1.260532853555391e-06,1.3494344186561391e-06,-2.1439892313880334e-07,1.3306802040314762e-06,2.628725246606165e-06,1.356717149653678e-06,1.4757422625337895e-06,-4.0393864421081544e-07,1.5423815113158783e-06,-1.6625650870772444e-06,-3.7337439804045216e-07,4.792036773631283e-07,5.459372691943275e-06,1.938554097894149e-06,4.1504679133797235e-07,-1.959501412208725e-06,1.3095417003366577e-06,4.1067128910766697e-07
1.2192026665066013e-06,1.3777518928385967e-06,-2.679405680023283e-07,1.365390876620358e-06,2.672924135264837e-06,1.414196084108015e-06,1.3684708492925666e-06,-3.9989068418281195e-07,1.581389020649835e-06,-1.6907078232726653e-06,-3.683633814016763e-07,4.468821043214477e-07,5.421401172742874e-06,1.798982733640978e-06,3.9396249035385304e-07,-2.124616066699794e-06,1.2571223423564352e-06,3.5624906999993456e-07
1.1952386334285066e-06,1.3929461424409682e-06,-2.741037621810908e-07,1.3875139198460936e-06,2.6998204695255683e-06,1.4562714695815987e-06,1.273361442197678e-06,-3.9592954450680947e-07,1.608733768440043e-06,-1.6941726007870113e-06,-3.7594431924781877e-07,3.741794337222416e-07,5.323660919619934e-06,1.6567282346506317e-06,4.101488870388158e-07,-2.299152435276376e-06,1.2054266164226818e-06,3.1114584942751596e-07
1.1780605048069601e-06,1.3971516556594041e-06,-2.634078200038093e-07,1.4024677068977686e-06,2.7085786611319404e-06,1.478279239286559e-06,1.2519426428008122e-06,-3.9262185366652327e-07,1.6300527037720721e-06,-1.670859173367614e-06,-4.045222737671276e-07,3.1319877461246996e-07,5.264830247493087e-06,1.5662828662890814e-06,4.0165405545889195e-07,-2.4238332061342928e-06,1.114373241007106e-06,2.3930875844780523e-07
1.1480887057132137e-06,1.394320782751246e-06,-2.9392821538617484e-07,1.4165857273498137e-06,2.7015465373800544e-06,1.4793517073437918e-06,1.2926336482289958e-06,-3.93189285361477e-07,1.6500660388867424e-06,-1.6265726624690224e-06,-4.583719887059289e-07,2.7151839369012807e-07,5.226303586197887e-06,1.4752684044606413e-06,3.2102406482555894e-07,-2.4881503449769954e-06,9.686261475509191e-07,2.0944278353218427e-07
1.096167139181344e-06,1.3891530796739783e-06,-3.5565788902908194e-07,1.3896835213955274e-06,2.683572242313147e-06,1.463744956093155e-06,1.368250761832938e-06,-3.807680848425242e-07,1.670219144864318e-06,-1.5670187986483952e-06,-5.346745986773418e-07,2.2150227462423677e-07,5.079655475616431e-06,1.2552197277597464e-06,2.112072746139279e-07,-2.7436371473673832e-06,7.587275992074539e-07,8.779998459393024e-08
1.019963097993279e-06,1.3861648173039304e-06,-4.3013737145974593e-07,1.3474246006351156e-06,2.6611011202075253e-06,1.4391076904126097e-06,1.477137633521981e-06,-3.645967470826413e-07,1.6882331442653993e-06,-1.5048164451447937e-06,-6.250255908271959e-07,1.2261901898521976e-07,4.777211703546079e-06,1.0593076676935105e-06,1.4649983328996153e-07,-2.9601204432281513e-06,6.45838799411389e-07,-4.1353459263464685e-08
9.21362167317186e-07,1.3887247567241293e-06,-4.823067735854602e-07,1.3150987152920477e-06,2.6402422020560534e-06,1.4117829503932227e-06,1.5739309782284552e-06,-3.528448173640777e-07,1.6991005280208056e-06,-1.4519968608091967e-06,-7.179116430511662e-07,4.646365075819906e-09,4.508689861766614e-06,9.738061117072991e-07,1.1626322583151335e-07,-3.036584926603926e-06,6.503708133455717e-07,-1.065401840550829e-07
8.142467698483701e-07,1.397779938259336e-06,-4.98509061617276e-07,1.290662257694847e-06,2.6241254211500144e-06,1.3855631325794284e-06,1.6345321093537511e-06,-3.486989067043618e-07,1.6970758522863608e-06,-1.417472742615239e-06,-8.034882379957929e-07,-6.71503646729444e-08,4.339876915421574e-06,8.89872457552932e-07,1.0070713328687501e-07,-3.202309326012159e-06,6.958727251742993e-07,-1.6758728258360276e-07
6.963887020243059e-07,1.4113949536440036e-06,-4.895305122085307e-07,1.2710949067892917e-06,2.6121065094115375e-06,1.3608879003799878e-06,1.6518139757907743e-06,-3.540234031792356e-07,1.6780916744614652e-06,-1.4039460120146302e-06,-8.750972418594521e-07,-1.3677480473283627e-07,4.239461944513425e-06,8.202476056643919e-07,9.020199255191489e-08,-3.3244656891841827e-06,6.908316372135226e-07,-2.2473085838825795e-07
6.004558749039629e-07,1.4258394235694968e-06,-5.084258285793908e-07,1.2577760829199586e-06,2.601720546194289e-06,1.3360363423373697e-06,1.6218001474775899e-06,-3.570810717404088e-07,1.6413263224879859e-06,-1.4096504953365456e-06,-9.284604554046067e-07,-1.862671266964812e-07,4.087040834552623e-06,7.35019720801115e-07,7.348917006224545e-08,-3.3887856964660827e-06,6.926620280362065e-07,-2.812384658024901e-07
5.296766735616321e-07,1.4372529777275418e-06,-5.148500877101112e-07,1.2481885245468869e-06,2.591082935676115e-06,1.3090440863459047e-06,1.5548797742712642e-06,-3.530696103190544e-07,1.5890234578183645e-06,-1.4284686880373553e-06,-9.61280183904149e-07,-2.42725008284229e-07,4.05800762458535e-06,7.055065263243267e-07,4.626862944176522e-08,-3.4057315221420767e-06,7.661077501412493e-07,-3.2360811706657237e-07
4.902113790846116e-07,1.443068201014186e-06,-5.14537444971893e-07,1.2403060212920192e-06,2.5798327610128575e-06,1.2788358162551448e-06,1.4642048339147354e-06,-3.4311385594751563e-07,1.5251360749369876e-06,-1.4528137901934993e-06,-9.73623986992398e-07,-2.706581679313068e-07,4.156553493325445e-06,7.131016512005762e-07,1.2063414322877961e-08,-3.523479145681339e-06,8.718660444120368e-07,-2.9137102461977565e-07
4.791873392822787e-07,1.443066386390083e-06,-4.97928106780708e-07,1.2331729336420726e-06,2.568912927206052e-06,1.2458913250346995e-06,1.3631613650211515e-06,-3.299089375960685e-07,1.454287114936168e-06,-1.4765399177870243e-06,-9.681937120953392e-07,-2.880047766618038e-07,4.31410652922729e-06,7.718089539424107e-07,-2.2226427856418725e-08,-3.6464526600439974e-06,9.835167551810564e-07,-2.567264429882827e-07
4.890613138365674e-07,1.439442543338003e-06,-4.6856931226584607e-07,1.2271709167272585e-06,2.559703333168006e-06,1.212334449485377e-06,1.266875841456314e-06,-3.1731192886548115e-07,1.381746306410611e-06,-1.4953510330591274e-06,-9.496855761410913e-07,-2.8774327066695317e-07,4.421077472964194e-06,8.486632247783684e-07,-4.90037340338635e-08,-3.810719147144909e-06,1.083109035791028e-06,-1.9013425417170792e-07
5.10922567778507e-07,1.4353140601584278e-06,-4.340656319131768e-07,1.2228452188718496e-06,2.552786688830311e-06,1.1812418430830025e-06,1.1775424253589677e-06,-3.0755529100468123e-07,1.3135485449267994e-06,-1.5080517815414797e-06,-9.233525141320869e-07,-2.7699511364928433e-07,4.475383906021552e-06,9.289846016916647e-07,-6.406520632566627e-08,-3.979012544644218e-06,1.1647081613691358e-06,-9.02657162101296e-08
5.384813192954256e-07,1.4328287027892289e-06,-3.93375234066082e-07,1.2203857095544364e-06,2.5474088973281473e-06,1.1558207186127237e-06,1.1009907970014843e-06,-3.019191731908022e-07,1.2557477242660886e-06,-1.515227635314919e-06,-8.931730337242915e-07,-2.6071978815758507e-07,4.512918820609828e-06,1.0110051723479013e-06,-6.70337356039331e-08,-3.97611939364528e-06,1.1862154089500795e-06,-1.774866809170738e-08
5.683950950411317e-07,1.432478626390439e-06,-3.668146666319287e-07,1.2199597718592798e-06,2.5421761593117213e-06,1.138861284779935e-06,1.0419109672054762e-06,-2.99897379516937e-07,1.2129724235899016e-06,-1.518053033745775e-06,-8.610256894782606e-07,-2.409431040624011e-07,4.543389268128876e-06,1.0529121603934425e-06,-5.861268010883643e-08,-3.946623970435344e-06,1.1546466574729375e-06,3.468380071259962e-08
6.019930870756387e-07,1.4335178117249944e-06,-3.546572436682716e-07,1.220862570201787e-06,2.5360025758429114e-06,1.132065401997452e-06,9.98208976720382e-07,-3.0084956945760433e-07,1.187133851459353e-06,-1.5176165574199836e-06,-8.279900035208687e-07,-2.3073440623532581e-07,4.5785276855793305e-06,1.0606712047189556e-06,-4.3208837888475084e-08,-3.9518895727530945e-06,1.1021082239712557e-06,6.636244937739853e-08
6.398194851722727e-07,1.4347396407814542e-06,-3.50815058712896e-07,1.2237184581206955e-06,2.5286709350560005e-06,1.1354007474392787e-06,9.67803249287412e-07,-3.031389873554871e-07,1.1770270887354723e-06,-1.5158942450341644e-06,-7.966619159233195e-07,-2.3205493599629474e-07,4.62838291794757e-06,1.055516677633376e-06,-2.479244481446932e-08,-3.879567238621209e-06,1.0388158220401992e-06,7.981798482617393e-08
