0,1,2,3,4,5,6,7,8,9,10,11,12,13,14,15,16,17
-6.909725910258359e-08,-3.66166062337292e-08,2.8592972268374502e-08,-1.3768750042508046e-08,5.365185610314907e-06,-1.023980700742287e-05,4.523871866611905e-06,-4.535320005773801e-06,1.8032238699148697e-06,-1.6797345551106313e-07,-9.461000489232965e-07,1.066305635364394e-06,-6.0777052565614955e-06,-2.2520038494396453e-07,1.8191431421424875e-06,-1.4087677767129405e-05,-7.94345674561537e-06,4.452159171763733e-06
-8.440260365216551e-08,-7.526981567909726e-09,2.1055021886643486e-08,-2.779430259705685e-08,2.938459728888799e-06,-7.340560757208168e-06,1.0824159596119508e-07,2.660263954000395e-07,3.748705473680467e-06,-1.613035843474594e-07,-2.653821036155414e-06,-8.349497709165501e-07,-7.2778644699929445e-06,-1.9686006940900712e-06,-3.248801206208374e-07,-1.6267143759780083e-05,-1.0299924635739367e-05,4.538270241195742e-06
-1.0500174679094442e-07,-1.0351470590611585e-09,2.4444899521917624e-09,-4.420342060996542e-08,-9.082302133954503e-08,-4.413510996046828e-06,-3.5599579850749435e-06,5.842774612763905e-06,5.099031454004692e-06,-1.6158491485988136e-07,-3.5885768167692012e-06,-3.773792023091492e-06,-7.45864016024515e-06,-2.8689366724912484e-06,-7.498971598689535e-07,-1.665751146969057e-05,-1.0769597502815987e-05,5.284162536726476e-06
-1.2590916808324126e-07,-1.2642335864572815e-08,-1.8859551801705313e-08,-5.489656652017154e-08,-3.205746229649791e-06,-1.7781842302966377e-06,-6.7102141521133654e-06,1.0803846583450784e-05,5.453430491131622e-06,-1.5730588398822298e-07,-3.907491474149748e-06,-7.191051432701443e-06,-6.707703361669531e-06,-2.6245294977614705e-06,2.521950802196179e-07,-1.4940265118425571e-05,-9.423637095765356e-06,5.561352931647912e-06
-1.3566075530965822e-07,-3.2088656683308586e-08,-3.487307569759212e-08,-5.38629019855957e-08,-5.791078149050803e-06,4.502766577381033e-07,-9.013721633898869e-06,1.385691320220285e-05,4.737233711987523e-06,-1.3513591573372994e-07,-3.443744341264073e-06,-1.0072933817464821e-05,-5.2372221419931675e-06,-1.403892242418302e-06,1.6300548528376753e-06,-1.1373496736511088e-05,-8.519660190364671e-06,3.308317786086753e-06
-1.217881331861125e-07,-4.677793583837407e-08,-3.9982624325308305e-08,-3.816901805067667e-08,-7.300240223721472e-06,2.2460839960356054e-06,-9.895234871150827e-06,1.4138389352534967e-05,3.168099709705619e-06,-9.306631264301002e-08,-2.5299928729086613e-06,-1.1042871293490324e-05,-3.3501825339076582e-06,2.719822629848972e-07,2.864720711386232e-06,-7.24911472264767e-06,-5.703895820545878e-06,-2.0343371628305421e-07
-7.931962465194105e-08,-4.7619585606361217e-08,-3.316364789498402e-08,-9.09697905350389e-09,-7.376817904968017e-06,3.5349363670237615e-06,-1.0311550189615108e-05,1.1471738247257633e-05,1.1747208075115022e-06,-3.4899864059824466e-08,-1.3327420237535665e-06,-9.691934944002428e-06,-1.3303070014338495e-06,1.7983853030589825e-06,3.757166777238682e-06,-2.952062913791148e-06,-1.3970862948760017e-06,-3.2432297037511975e-06
-1.6741121782216682e-08,-3.283861772598001e-08,-1.8078842336677804e-08,2.565482817813787e-08,-5.976302179599638e-06,4.209443347237326e-06,-1.0275144449698302e-05,6.4859658462782345e-06,-7.504949185015628e-07,2.7263503228747596e-08,2.6953891603922043e-08,-6.1426040135979234e-06,6.74815694869472e-07,2.7055742496700328e-06,4.103678891074731e-06,1.4092356288844253e-06,2.992722390848635e-06,-5.134579974507644e-06
4.773554787983517e-08,-7.817037259109203e-09,-1.3776208636282538e-09,5.640326244942655e-08,-3.433043067028463e-06,4.179614816060158e-06,-9.470978618825591e-06,4.5515166496036966e-07,-2.243766981168325e-06,7.838161113580126e-08,1.2744594592248782e-06,-1.2601127796010837e-06,2.634250259809216e-06,2.896807407946479e-06,3.923813535346019e-06,4.7887011824238255e-06,6.735537662421075e-06,-7.091171220818188e-06
9.65220573110159e-08,1.9231668070180978e-08,1.0998953506341783e-08,7.508128921937828e-08,-3.5458903069165214e-07,3.461163937093848e-06,-7.4329631232653915e-06,-5.183367841116999e-06,-3.2062380426897335e-06,1.1119330893962293e-07,2.2643246420368645e-06,3.343236174253836e-06,4.46550539940574e-06,2.5524584500997893e-06,3.2438562766816622e-06,7.712205646005231e-06,9.347236890105443e-06,-6.85666866401233e-06
1.2097600423800146e-07,4.1421933067147565e-08,1.693263103617529e-08,7.742953445932445e-08,2.5713214667112104e-06,2.253776903599669e-06,-2.940842102725742e-06,-9.354160254447532e-06,-3.726120689877067e-06,1.24741401493489e-07,2.8549151875376572e-06,6.5862765420728895e-06,5.904496825866517e-06,1.9707963917810787e-06,1.9322128665984527e-06,9.843310550700189e-06,1.013975478359103e-05,-4.970046837596382e-06
1.242285789979573e-07,5.48493615858982e-08,1.801879760718919e-08,6.421137324847735e-08,4.724846106365126e-06,9.496331667196214e-07,3.3843381766175674e-06,-1.1560949632272826e-05,-3.9317592052010826e-06,1.255266086008378e-07,2.9895847987000374e-06,8.266078809161249e-06,6.5948787394859515e-06,1.3687080122253717e-06,-1.1207284832869466e-07,1.0991671973104083e-05,9.059826761700599e-06,-2.7259710911024674e-06
1.1494811295755072e-07,5.738043482413737e-08,1.7041714327640096e-08,3.913059900067965e-08,5.674512799448594e-06,4.6792555894233343e-08,1.0118710409055908e-05,-1.1766015867577982e-05,-3.861040859775856e-06,1.2060794225311014e-07,2.7767127710500375e-06,8.6442359777087e-06,6.330523210911093e-06,7.088410207178418e-07,-2.709104712134906e-06,1.160458366587447e-05,6.77229429470718e-06,-6.869236513208388e-07
9.948780500202359e-08,4.673898032211304e-08,1.5208664397719833e-08,6.117234898550209e-09,5.34114149050653e-06,-8.769464336061345e-08,1.576884803260835e-05,-1.018639668960217e-05,-3.4536048013594946e-06,1.1433454242621835e-07,2.4049894632647442e-06,8.201328726113228e-06,5.212973434301689e-06,-2.333837542154567e-07,-5.4193220402394395e-06,1.2298016461575697e-05,4.298688789067762e-06,5.567795307031712e-07
7.937974971346565e-08,2.1397636126473474e-08,1.1394320103825433e-08,-3.167327249108861e-08,4.120729507570972e-06,6.250525182314078e-07,1.843391735252466e-05,-7.22675019456996e-06,-2.6322587518632216e-06,1.0756832083068764e-07,2.037569390768255e-06,7.35492827956454e-06,3.611847499455387e-06,-1.625630046179771e-06,-7.162557287715424e-06,1.2812125927859512e-05,2.5738572135312334e-06,2.653017158598127e-06
5.4642556459013956e-08,-1.605711015754442e-08,4.647797833795074e-09,-7.056291010340042e-08,2.7924430962432338e-06,1.9029833687013738e-06,1.7272679692988555e-05,-3.5078454194875143e-06,-1.3791612674999583e-06,1.0165269223467761e-07,1.7729590097375623e-06,6.547859930627232e-06,2.010333861698732e-06,-3.323379806384199e-06,-7.049007964617301e-06,1.2067421451548126e-05,2.137339499749667e-06,4.557965502670191e-06
2.8611134518334692e-08,-5.689727445314452e-08,-3.592215001351106e-09,-1.0588243979345266e-07,2.188172655510652e-06,3.235877108531897e-06,1.2608410670776392e-05,1.7113954351407437e-07,2.8864316231521966e-07,1.003528892371017e-07,1.6621138237263322e-06,5.7904823488185995e-06,8.563053056661972e-07,-4.859854534482877e-06,-6.829771454170024e-06,1.1815683234347446e-05,2.8586714752944873e-06,4.715480611019917e-06
8.73519013689141e-09,-8.854405856406425e-08,-9.191038116413612e-09,-1.3195746112935075e-07,2.8050150825954507e-06,4.118657178397542e-06,6.144360721538242e-06,3.020019001493392e-06,2.2793582259382988e-06,1.0743467651997365e-07,1.7439787590559835e-06,5.188968974834484e-06,5.014096354988663e-07,-5.66506591843908e-06,-6.262530800793554e-06,1.0574504688878963e-05,4.169125758759799e-06,3.6091009585550117e-06
2.1640724107752603e-09,-9.917814847832329e-08,-6.985633493391794e-09,-1.4293460413492398e-07,4.570000388755609e-06,4.284789071448838e-06,-2.147164870774256e-07,4.5437253893719354e-06,4.292053243681703e-06,1.232344105260166e-07,2.042055438472969e-06,4.788305701688924e-06,1.2185871609283274e-06,-5.376316547097154e-06,-4.013112950686617e-06,7.781459688889305e-06,5.4774388219767725e-06,2.5250348069039313e-06
1.0518162530809205e-08,-8.415006306770958e-08,7.068543299322946e-09,-1.3399464166569997e-07,6.854508442844565e-06,3.7850650212056075e-06,-4.702965146627244e-06,4.7693338257203875e-06,5.7774824188036646e-06,1.4391898804220984e-07,2.5506926000858716e-06,3.819610539610936e-06,3.1675808761298294e-06,-3.981723414669324e-06,-1.3085953441675504e-06,5.969195007035183e-06,6.399348415486237e-06,8.869417533129987e-07
2.8401771200421106e-08,-4.700013574672635e-08,3.520353544920858e-08,-1.0151368535412689e-07,8.736801570745813e-06,2.8600862989399122e-06,-6.200969809456249e-06,4.255577271598427e-06,6.110484848134473e-06,1.64047601539135e-07,3.23812702017077e-06,2.1910578009739925e-06,6.243264054370745e-06,-1.9223447269212974e-06,1.0016246629822448e-06,2.8723139700445337e-06,6.890430279053835e-06,-8.31909624470549e-07
4.925747520522783e-08,4.431697074679092e-09,7.83687005286514e-08,-4.392296556453168e-08,9.426015084734262e-06,1.8333307816963429e-06,-4.737365049760786e-06,3.8224023801892625e-06,4.996315941558422e-06,1.8251018361663187e-07,4.040196845868066e-06,2.799087811696433e-07,9.952668792579804e-06,1.9450783681289545e-07,2.9959403961963803e-06,-4.965547307108215e-07,7.0943610708334125e-06,-2.6566096299670247e-06
6.693302289785512e-08,6.19416284368256e-08,1.3659526276447594e-07,3.635099898733432e-08,8.649383827282034e-06,1.072783777906908e-06,-9.70132138289184e-07,4.117194174797835e-06,2.8147248107785367e-06,2.0215449882390117e-07,4.829586691563556e-06,-1.2886493671128653e-06,1.3497018030481098e-05,1.8759888246142476e-06,4.593127809349619e-06,-2.554269636915466e-06,7.144836191394665e-06,-4.650719392113551e-06
8.25671217050883e-08,1.1904721535484657e-07,2.0787342613896535e-07,1.3121747797912253e-07,6.771144360136829e-06,9.247726010290745e-07,4.018168318339668e-06,5.28887702827169e-06,5.57417416320173e-07,2.2980042131172363e-07,5.433873594722785e-06,-1.7800256213505306e-06,1.6061532696916886e-05,2.890833983179741e-06,5.287861006076041e-06,-5.4770247032843335e-06,7.106868617869061e-06,-6.189195006343485e-06
9.79619843592009e-08,1.7023022206102896e-07,2.851113669762744e-07,2.2631593701755895e-07,4.566998640346449e-06,1.575569631586616e-06,9.028577703110727e-06,6.940722105684284e-06,-6.634907958170317e-07,2.71401456897031e-07,5.6817371931312485e-06,-1.0131435108407917e-06,1.716092850409994e-05,3.3879915729511603e-06,4.60032547105528e-06,-7.71114966257692e-06,6.979221738504545e-06,-6.7009439935160196e-06
1.0977618734376314e-07,2.0943158471835442e-07,3.551019288217979e-07,3.0397639988654324e-07,2.8159238816868024e-06,2.958269619939324e-06,1.2824567149984951e-05,8.34723720029443e-06,-1.8079089721266492e-07,3.2588259455459577e-07,5.485352913805764e-06,6.539981458540246e-07,1.6821856221052193e-05,3.688262169166133e-06,2.3831191658577327e-06,-8.791363304920904e-06,6.705736524595422e-06,-5.62954959602178e-06
1.1150625262434161e-07,2.298756325239023e-07,4.0429076119757455e-07,3.487867727815853e-07,1.9602323078265914e-06,4.800195138156471e-06,1.4554804763329403e-05,8.815264607251325e-06,1.9161467270106806e-06,3.8639475506685456e-07,4.898661992426212e-06,2.4917593436589925e-06,1.5456835272431132e-05,4.414601897280608e-06,-9.804251537231548e-07,-9.375139933306845e-06,6.188874266846229e-06,-2.930176116996629e-06
9.779059639207437e-08,2.2649050089840806e-07,4.235268314799035e-07,3.525150297898597e-07,1.975809174748303e-06,6.766581912517138e-06,1.3997434764320052e-05,8.025253519508658e-06,4.884787962626953e-06,4.415355740924848e-07,4.085958462788582e-06,3.8602929709155315e-06,1.3533555362726751e-05,5.926780567497328e-06,-4.703375012647252e-06,-8.93554215365297e-06,5.31933032123613e-06,7.555745547277862e-07
7.237051965594066e-08,1.9811963273635064e-07,4.1296262617355627e-07,3.1542550754879653e-07,2.454715207344035e-06,8.491912095796559e-06,1.1247340008606291e-05,6.14273470089757e-06,7.723883744824037e-06,4.775122719949251e-07,3.2475657339479376e-06,4.310071861307281e-06,1.134215617733989e-05,8.03820417345801e-06,-7.923921738620067e-06,-7.956857536248818e-06,4.000884409571447e-06,4.414022382349918e-06
5.0363658220753214e-08,1.47816935400562e-07,3.8227006636726594e-07,2.4859303838384715e-07,2.8446612152680123e-06,9.947070107109176e-06,6.804722801782588e-06,3.6912406048670473e-06,9.558685196555455e-06,4.810553281271325e-07,2.5493330509565743e-06,3.797711770516271e-06,9.044825251930533e-06,1.0123001098141612e-05,-9.995945166450092e-06,-6.510952253862088e-06,2.1760549772415427e-06,7.083650761981064e-06
5.380894146724333e-08,8.191120871405599e-08,3.440137822564127e-07,1.6746984643304663e-07,2.7463654637021025e-06,1.1206157376610554e-05,1.3916128511751366e-06,1.2937294394625733e-06,9.832699814289227e-06,4.387071554228953e-07,2.104866769116268e-06,2.6522618629742e-06,6.8736967576282925e-06,1.1268096109797022e-05,-1.0621279783874305e-05,-4.475381407123944e-06,-8.298340081676064e-08,8.171091415387055e-06
9.957329612788464e-08,8.885437924667263e-09,3.069271042008973e-07,8.783197437889687e-08,2.10579729612194e-06,1.2327493091905363e-05,-4.24307639651331e-06,-5.769759027514645e-07,8.398685111434794e-06,3.3561101934522e-07,1.940337867180507e-06,1.3004891819295218e-06,5.221529347679593e-06,1.0912278630976359e-05,-9.842170295412163e-06,-1.652643721747677e-06,-2.461892103769818e-06,7.578238317187849e-06
1.9135701907608984e-07,-6.131103247441134e-08,2.7135697181665976e-07,2.2894901832409617e-08,1.1898118355928348e-06,1.3007462621896628e-05,-9.347518965419477e-06,-1.7793921827048797e-06,5.593871926835423e-06,1.6035025864736374e-07,2.0400492359265362e-06,2.4840422224808874e-07,4.5362164714427196e-06,9.237221506146375e-06,-7.951697567393375e-06,1.2140832864746981e-06,-4.4305309373554625e-06,5.736721181053836e-06
3.175402582480899e-07,-1.1711554034092054e-07,2.3045184993547456e-07,-1.9911233421652998e-08,4.0136556896443946e-07,1.277341187294679e-05,-1.3175778334258188e-05,-2.538191065139419e-06,2.2017770007493627e-06,-8.978557311778908e-08,2.297092493156421e-06,3.083671093376897e-08,5.11388616589937e-06,7.089363613757037e-06,-5.374813693473877e-06,3.181567835031034e-06,-5.4730193577286065e-06,3.394232820477279e-06
4.5848283187501787e-07,-1.4771901391022512e-07,1.76214299149068e-07,-3.779907382261871e-08,7.085098232140442e-08,1.1347651476189928e-05,-1.5160049716399187e-05,-3.2389891173677055e-06,-8.409999099855335e-07,-3.9855819723234046e-07,2.53145377623221e-06,1.037695738279802e-06,6.948882134086966e-06,5.408344949492687e-06,-2.5613791176447e-06,3.636117618963637e-06,-5.359830682921376e-06,1.28306004161088e-06
5.953445765936784e-07,-1.459564901908921e-07,1.0690931629253098e-07,-3.1427189229511285e-08,3.1632364556224136e-07,8.798839209033255e-06,-1.5098612278018325e-05,-4.096126428204499e-06,-2.8735610164531524e-06,-7.311123580359176e-07,2.5843529941197456e-06,3.2932283150815913e-06,9.741559747846595e-06,4.839858970693296e-06,8.488092675659786e-08,2.2370075007794186e-06,-4.279606216363502e-06,-2.0502404398550062e-07
7.173112796498973e-07,-1.1066364022766984e-07,2.9712841238048235e-08,-3.837293943206273e-09,1.011973805639786e-06,5.863703788282415e-06,-1.3330528941477325e-05,-4.962284105054048e-06,-3.740347966135551e-06,-1.0450728521394103e-06,2.3869682108052597e-06,6.354287354538719e-06,1.3009742209100295e-05,5.7445458462645024e-06,2.226262333257321e-06,-1.4052051632477282e-07,-2.7464005984646445e-06,-1.1338091575138736e-06
8.152593794326806e-07,-4.686162489429458e-08,-4.2374091140744204e-08,3.913912284362238e-08,1.877687644441819e-06,3.104913749851935e-06,-1.0541020719699017e-05,-5.473158825449424e-06,-3.687266050446425e-06,-1.3020266094815256e-06,2.003677720932742e-06,9.416221279439444e-06,1.6185735498251118e-05,7.774275274446076e-06,3.5696777756287422e-06,-2.9206282819845124e-06,-1.3226826074565797e-06,-1.8214999364881957e-06
8.829844952264878e-07,3.690872656739234e-08,-9.558481414550073e-08,9.079013323191141e-08,2.6599474317081546e-06,9.925073779467713e-07,-7.584951065450282e-06,-5.410969665245076e-06,-3.085780911370805e-06,-1.4824819112564385e-06,1.5908757382458542e-06,1.1569095496643925e-05,1.870506998818525e-05,1.010035292202559e-05,3.885456088194741e-06,-4.88904098288374e-06,-3.5010308898120257e-07,-2.5516417751012796e-06
9.146759109891719e-07,1.3131314048119067e-07,-1.2573848067278573e-07,1.4534673037188601e-07,3.2788558859892693e-06,-4.075782318712844e-07,-5.206526092587314e-06,-4.951154635790355e-06,-2.2194463066745393e-06,-1.5870070531917717e-06,1.320616256605075e-06,1.209048760209723e-05,2.0161908523308857e-05,1.2131777331798172e-05,3.1364884497954155e-06,-5.0124414872684145e-06,1.723835735045291e-07,-3.4216951075376532e-06
9.143922531051916e-07,2.2796297574004022e-07,-1.2889577833711878e-07,2.0002884285197327e-07,3.7920854784404763e-06,-9.739997153817893e-07,-3.785173562977343e-06,-4.564160176890545e-06,-1.2050729353126292e-06,-1.6310056390418576e-06,1.3054753992142952e-06,1.0650223762519242e-05,2.047675652698482e-05,1.337783544831641e-05,1.6041904051321935e-06,-3.941161178665504e-06,5.520699600527088e-07,-4.414271928064835e-06
8.909294667491674e-07,3.1998456263299367e-07,-1.0833986041998059e-07,2.50253730045188e-07,4.209345071074182e-06,-7.145711412715691e-07,-3.4205483698980715e-06,-4.675400752276053e-06,5.989890598920044e-09,-1.6379182277131109e-06,1.5739487947194972e-06,7.365591963392338e-06,1.994457385650921e-05,1.3801350529578381e-05,-1.753920055310284e-07,-1.3397377362714043e-06,1.300489299297472e-06,-5.506355212590437e-06
8.555452314508644e-07,4.0216567137369783e-07,-7.332781566418341e-08,2.924147263235685e-07,4.372558074964336e-06,1.3819763960727542e-07,-4.0156906861521515e-06,-5.393276603413317e-06,1.5205989391998879e-06,-1.6307378375079109e-06,2.0753329541115747e-06,2.7381731804185266e-06,1.9114577745118524e-05,1.3196972906113725e-05,-1.6466945886337879e-06,1.6426014141630661e-06,2.956643115409114e-06,-6.676734339725975e-06
8.189771036712496e-07,4.7064476066873044e-07,-3.1358862933846187e-08,3.2495302690698607e-07,4.030119658066236e-06,1.4132477578753495e-06,-5.540353048439463e-06,-6.486312449709066e-06,3.379828497636523e-06,-1.6256862921117562e-06,2.7163680887768446e-06,-2.464822370634611e-06,1.8527601060613086e-05,1.1730025004334252e-05,-2.459379386282996e-06,3.6716673668917524e-06,5.804181387811479e-06,-7.796867117664958e-06
7.841518196870548e-07,5.234250338629513e-07,1.1884593298760018e-08,3.482409155293598e-07,3.018245278130683e-06,2.680799480801837e-06,-7.47095986013849e-06,-7.554246142086238e-06,5.454526717298168e-06,-1.6281114491122599e-06,3.3924776297423543e-06,-7.364597849364205e-06,1.843824499915647e-05,9.839627244545744e-06,-2.5603586706703223e-06,4.792611134760722e-06,9.608678118697986e-06,-8.551679973238543e-06
7.518066502999162e-07,5.62144347725765e-07,5.582876179952096e-08,3.667825186828857e-07,1.4001705547740296e-06,3.8071680041122832e-06,-9.238326209876211e-06,-8.229183220861123e-06,7.352041063815563e-06,-1.6328196754449728e-06,3.979869920998437e-06,-1.1161041945816173e-05,1.874138573410996e-05,6.602538272449435e-06,-2.1405571064381383e-06,4.093658180418239e-06,1.3609286158451543e-05,-8.503382814955467e-06
7.248237414055935e-07,5.932438645217366e-07,1.0737881916972608e-07,3.904120905506785e-07,-4.977136335145807e-07,4.78947035585422e-06,-1.025604665206167e-05,-8.438051400881049e-06,8.707894951032264e-06,-1.6263416458196795e-06,4.335535560999796e-06,-1.3314558529726522e-05,1.9130601569852453e-05,4.070172338761769e-06,-1.5006006223565573e-06,1.8151870801092682e-06,1.666164358932199e-05,-7.260995935269973e-06
7.117272539732884e-07,6.267083723124703e-07,1.7740963337822927e-07,4.3283226346958654e-07,-2.141209872482091e-06,5.894175512220989e-06,-9.915005148048097e-06,-8.372005363209504e-06,9.264632628671003e-06,-1.5941641433227307e-06,4.351231424189198e-06,-1.3659993976830928e-05,1.926650963413649e-05,1.6574102656245342e-06,-9.356874920634412e-07,-1.3672441183405932e-06,1.7740211648788603e-05,-4.6936287963558175e-06
7.225791498293487e-07,6.724214121418193e-07,2.759316906720281e-07,5.067748463163907e-07,-2.9170863584571207e-06,7.284225626698719e-06,-7.687948636720192e-06,-8.200953621337173e-06,8.68686336712645e-06,-1.5291540527485335e-06,4.004629869957493e-06,-1.2430436787040033e-05,1.883627815187568e-05,-3.543974983000618e-07,-6.743619051362826e-07,-4.912424272506865e-06,1.637577674396514e-05,-1.1097985701624711e-06
7.646281003893777e-07,7.362941614190955e-07,4.018227728490907e-07,6.193328629882127e-07,-2.326419035267988e-06,9.033909827363737e-06,-3.637706583896416e-06,-7.996871800845767e-06,6.807089740289859e-06,-1.4346041893771614e-06,3.4048836962492983e-06,-1.0162799812474626e-05,1.75670363635006e-05,-1.916504353200325e-06,-8.124988384522776e-07,-7.831606127208866e-06,1.2927913428311643e-05,2.7097671390445364e-06
8.370536914958959e-07,8.181925571402086e-07,5.445185240525087e-07,7.667724197734817e-07,-2.0676836261000357e-07,1.1125618115693852e-05,1.6663776363174409e-06,-7.63639800033837e-06,3.706540471738862e-06,-1.3229693444472525e-06,2.7811789517914906e-06,-7.456674175757015e-06,1.5238317705794172e-05,-2.9904415022364647e-06,-1.2254346916840387e-06,-9.525454592695418e-06,8.389951818671625e-06,5.724565913303274e-06
9.323110132013339e-07,9.134877971884675e-07,6.875143455226663e-07,9.358709198870797e-07,3.1340466604848576e-06,1.3305493159653507e-05,6.944911240600024e-06,-6.788677946669575e-06,-1.6075325656169006e-07,-1.204657407055965e-06,2.4114480658442717e-06,-4.697674197447544e-06,1.1737475110974756e-05,-3.4484268863924475e-06,-1.5542220309649056e-06,-9.77095514818068e-06,3.945148117713939e-06,7.061480564555764e-06
1.0426529593131872e-06,1.0161197726813199e-06,8.142980002481077e-07,1.1105794050150843e-06,7.008337089587834e-06,1.5317123196381833e-05,1.1344276524325673e-05,-5.1253398271106975e-06,-4.158035968438229e-06,-1.0867668250747108e-06,2.529002477553094e-06,-1.977166661124627e-06,7.204168574197415e-06,-2.984886183606947e-06,-1.3377515108369797e-06,-8.71167937327342e-06,5.529251023970001e-07,6.459772091437441e-06
1.164461827934023e-06,1.1202899365443934e-06,9.165654169139509e-07,1.2756161325369865e-06,1.0627977339407158e-05,1.6748544602915332e-05,1.3972777277005845e-05,-2.9652527468434844e-06,-6.709053672087447e-06,-9.698635301624294e-07,3.233306196376148e-06,6.975357862356676e-07,2.159975119209909e-06,-1.6344949368253087e-06,-2.2823247242206005e-07,-6.863996953317556e-06,-1.3460697426153172e-06,4.446092237279315e-06
1.2964610900478954e-06,1.2188964382877158e-06,9.93096671574831e-07,1.4195993811835035e-06,1.335939167565401e-05,1.7156162759077364e-05,1.4536208944569579e-05,-3.921326448569342e-07,-7.337088443669255e-06,-8.524715964825445e-07,4.467438201359999e-06,3.098916746590136e-06,-2.549644540704309e-06,1.4227790778017738e-07,1.8215534450758425e-06,-4.9618295533503e-06,-1.8473573424361067e-06,2.0636197848671405e-06
1.4332125190722162e-06,1.3019148829592555e-06,1.046221320543228e-06,1.541742287774726e-06,1.4816104392350641e-05,1.626170941694818e-05,1.3461703237383472e-05,1.8652095532185372e-06,-6.392964253543751e-06,-7.352473590238146e-07,5.965503213756482e-06,4.68030053482286e-06,-6.0099908627627855e-06,2.1291497378879937e-06,4.464262593109068e-06,-3.75121772497246e-06,-1.4611513767956378e-06,3.194641597356229e-07
1.5631462556289407e-06,1.3524139884788234e-06,1.077445700892371e-06,1.6262000532786174e-06,1.4849334356933692e-05,1.4165218670901198e-05,1.10738875343656e-05,2.4011565519496095e-06,-3.076285205974807e-06,-6.286571611669582e-07,7.348901792911014e-06,4.81049387777164e-06,-7.547618039904216e-06,3.820259650184734e-06,6.999573913081562e-06,-3.630106374331931e-06,-8.053582755171385e-07,-2.501035648660558e-07
1.671224674767763e-06,1.3541370096651563e-06,1.0852676332134432e-06,1.6545456203612918e-06,1.3539555482437419e-05,1.1293354881640765e-05,7.89004959690555e-06,3.831006298504792e-06,1.099695601093881e-06,-5.40724772394547e-07,8.248953118120401e-06,3.192581909414254e-06,-6.9634172247526336e-06,4.701741756269435e-06,8.586844146587606e-06,-4.537567896749302e-06,-2.5459024700689226e-07,3.3227392399180415e-07
1.7381743592372645e-06,1.3010185499876328e-06,1.0666312071417797e-06,1.6132324926661668e-06,1.1207499406441138e-05,8.257711057420202e-06,4.4366611690119816e-06,3.7792963458848976e-06,5.9173367217713656e-06,-4.990726694030987e-07,8.421695605853213e-06,1.4278145840396802e-07,-4.608653239109449e-06,4.9343278861477235e-06,8.582640434809587e-06,-6.044450657672908e-06,3.052768789968515e-07,1.6295980804732444e-06
1.7629067436899817e-06,1.2023406578116538e-06,1.0242123868930147e-06,1.4976414608550644e-06,8.413843616174637e-06,5.740836850175319e-06,2.224716500550868e-06,1.2198318002540094e-06,1.1287508038648103e-05,-5.092961400809225e-07,7.855264087208814e-06,-3.484776349818181e-06,-1.2673159788140214e-06,4.806179095587403e-06,6.8266435756874615e-06,-7.541025474073512e-06,1.4310721424363606e-06,3.0019349323207325e-06
1.7558505914027023e-06,1.0828910669947687e-06,9.697238581583216e-07,1.3263562262143363e-06,5.913981740189635e-06,4.280310568397101e-06,7.153320825358818e-07,-1.5998021912796517e-06,1.4188798178065153e-05,-5.623113052578698e-07,6.746593933766478e-06,-6.6474968691055774e-06,2.1298731037732023e-06,4.789411424516482e-06,3.689723936947572e-06,-8.490661032305704e-06,3.7891501404609567e-06,3.855026759470156e-06
1.7321195119380336e-06,9.740359122798967e-07,9.21773588354313e-07,1.135891573423786e-06,4.524911971265608e-06,4.069160577079596e-06,1.5033981373626853e-07,-2.3436130220710016e-06,1.3337147634048762e-05,-6.459928003345045e-07,5.388376113534782e-06,-8.508333300039068e-06,4.847998728519353e-06,5.879353072237934e-06,-1.1607353615127688e-07,-8.593188351776894e-06,7.369268297256847e-06,3.938547970355674e-06
1.7123813994324233e-06,9.025750382527002e-07,8.932177916648963e-07,9.695081976749722e-07,4.8749097581989246e-06,4.888294191461729e-06,6.759631091309448e-07,-2.296205756722074e-06,1.2728922330811346e-05,-7.3523449266763e-07,4.0179197452826024e-06,-8.728610943325356e-06,6.557399266044082e-06,8.641642145424297e-06,-3.7825537485833058e-06,-7.834876625816106e-06,1.2068925189712448e-05,3.5445284285082925e-06
1.7110602452798687e-06,8.826226847439339e-07,8.972066027604454e-07,8.603229573970435e-07,7.096725659455041e-06,6.16625627191841e-06,1.4497204635527378e-06,-1.2334705093155534e-06,1.254685848782054e-05,-8.090726042946525e-07,2.846614667461791e-06,-7.602176361996299e-06,7.2773801621513925e-06,1.285628101295675e-05,-6.558164375201688e-06,-6.394804766532518e-06,1.7248236162058725e-05,3.3486293278892446e-06
1.7350597362940045e-06,9.072229445936818e-07,9.337744451092575e-07,8.24986918360152e-07,1.0647192926376016e-05,7.295457008213338e-06,1.903523656926739e-06,9.459935548316238e-07,1.2066265627549415e-05,-8.52482566303455e-07,1.9865730313687853e-06,-5.962703498700815e-06,7.165557400808068e-06,1.775750502553183e-05,-7.838044271790495e-06,-4.5450410748024445e-06,2.2132780423564315e-05,3.951191309542387e-06
1.7855037210482702e-06,9.652058870385874e-07,9.897354388040423e-07,8.56918829289489e-07,1.4457204872588636e-05,7.828875109148697e-06,1.5017728664855064e-06,5.109810879000079e-06,8.193476803532892e-06,-8.621466674426217e-07,1.541284453774971e-06,-4.829263879731703e-06,6.405496683157491e-06,2.221235245152698e-05,-7.291718399084605e-06,-2.6293068937811896e-06,2.5616041709260886e-05,5.510089626403763e-06
1.8504064889645498e-06,1.0382248968615665e-06,1.0466690074781903e-06,9.303817484870337e-07,1.7402522668834506e-05,7.53242045334868e-06,1.0955057741406142e-08,8.93841030469459e-06,3.297148109838787e-06,-8.4534940843397e-07,1.5815390050593414e-06,-4.922366593899343e-06,5.24993835910081e-06,2.525464280498137e-05,-5.014077744770396e-06,-1.1034392962183796e-06,2.687822922961709e-05,7.729351741718141e-06
1.9097822135428864e-06,1.104465621255876e-06,1.084341193806696e-06,1.0128840011522558e-06,1.8759936300254987e-05,6.429327679410979e-06,-2.938009240713668e-06,9.865378244408387e-06,-6.631270531551199e-07,-8.18996655445871e-07,2.0473506044597407e-06,-6.307319215174839e-06,4.043776778656856e-06,2.6576630498448045e-05,-1.5652609584051368e-06,-4.1383833346165137e-07,2.5761825494047538e-05,1.008600848985451e-05
1.944823592636328e-06,1.1530095195885093e-06,1.0920182967795968e-06,1.0808813121474672e-06,1.831879700650561e-05,4.85443379294373e-06,-5.758758174940994e-06,7.82760079821861e-06,-3.234728338399407e-06,-7.99801622401428e-07,2.774310755236405e-06,-8.364924563237649e-06,3.119038250512458e-06,2.642024169598794e-05,2.1906444277786335e-06,-7.065011527145541e-07,2.246430818941498e-05,1.2043966811354982e-05
1.9476412752605568e-06,1.180873101051205e-06,1.0731779891200704e-06,1.1117624839961673e-06,1.6229824065321687e-05,3.238340195379561e-06,-7.527933311300807e-06,4.207005877549816e-06,-4.580960137447695e-06,-7.858416344938037e-07,3.532852311924409e-06,-1.0108287356412218e-05,2.6662178144230803e-06,2.5199974799593395e-05,5.395791962142376e-06,-1.6863471637737258e-06,1.838984695978871e-05,1.3162771490318189e-05
1.9190945829158718e-06,1.1944204714894055e-06,1.0454575566826719e-06,1.1157286988980147e-06,1.288700424354645e-05,1.8179908288086399e-06,-7.702529657648243e-06,-1.4276334340157409e-06,-3.738052684234288e-06,-7.809485505659011e-07,4.1085250298244025e-06,-1.0671879982741265e-05,2.734767738212858e-06,2.331194056409509e-05,7.494817036637061e-06,-2.7817172536324496e-06,1.4174479178035802e-05,1.316083809391446e-05
1.8705955042268656e-06,1.2075950521483298e-06,1.0323147404509383e-06,1.1112894837123987e-06,8.888139788325887e-06,6.209459633637272e-07,-5.7641576383376244e-06,-7.631793044933232e-06,-1.3797915941843776e-06,-7.828870996792429e-07,4.3351119965778155e-06,-9.690623417883228e-06,3.367859103766829e-06,2.096244791463614e-05,8.349962857621534e-06,-3.462198951480907e-06,1.0411078039263873e-05,1.196996119460272e-05
1.8158220368348932e-06,1.2392098813368645e-06,1.0532342119855303e-06,1.1232632048720382e-06,4.940815660652243e-06,-4.443378108019063e-07,-2.2898531244071934e-06,-1.1633437640398762e-05,1.442002034338515e-06,-7.797404997773295e-07,4.1480398790171374e-06,-7.3751631262108676e-06,4.701485215677751e-06,1.851788005092772e-05,8.161596961790027e-06,-3.4731662954318766e-06,7.147047887476902e-06,9.794888771022856e-06
1.7654355533969266e-06,1.3050965251446186e-06,1.1216498442416432e-06,1.2642880455525527e-06,1.7186982614449963e-06,-1.3783366333126104e-06,1.6931459650401863e-06,-1.251485953052678e-05,4.143749868975705e-06,-7.606642214679025e-07,3.6006906380869244e-06,-4.333782630367938e-06,6.854968254924449e-06,1.629753977109953e-05,7.335261480668965e-06,-2.9053377630350212e-06,4.941006298151021e-06,7.144652668152467e-06
1.7342910601291279e-06,1.4161228580938875e-06,1.239790172445962e-06,1.532835617335017e-06,-2.6611228717127904e-07,-2.0858277222680546e-06,4.945450227851568e-06,-1.0525131387782722e-05,6.051482839874081e-06,-7.023693213352147e-07,2.9658032378183747e-06,-1.2756712253177835e-06,9.667644563755232e-06,1.4597284069364553e-05,6.3684923511079704e-06,-2.1298042108530716e-06,4.2435509798305874e-06,4.77950600920618e-06
1.7300039827592183e-06,1.5746764495932705e-06,1.400088265411726e-06,1.6258052394347378e-06,-7.988823878570155e-07,-2.5659722675148003e-06,6.603490107392546e-06,-6.521142306953542e-06,7.155855252490251e-06,-5.960377070904808e-07,2.622032409892927e-06,1.1916339055814676e-06,1.2544218910455984e-05,1.3624423156348195e-05,5.699954102285175e-06,-1.6092077054998992e-06,4.823247919931283e-06,3.5107064599099513e-06
1.7509216042702252e-06,1.7682840739446507e-06,1.5822588220576037e-06,1.8943179732885146e-06,-8.264522032135878e-08,-3.0438208881295333e-06,6.273531287694388e-06,-1.812078656433312e-06,7.623024831470745e-06,-4.456413298732519e-07,2.741232684256417e-06,2.691293803093709e-06,1.4602272218953449e-05,1.3189794066874472e-05,5.525236486839284e-06,-1.6337410156940075e-06,6.305062945664447e-06,3.886918169200982e-06
1.7820316920428224e-06,1.9713821340888674e-06,1.7553139561177011e-06,2.2566776442447838e-06,1.3036227959218233e-06,-3.896720021248478e-06,4.640229583344639e-06,2.414079022937591e-06,7.5905573389536615e-06,-2.776139082139084e-07,3.2302440372648253e-06,3.157337860142271e-06,1.5077025186907478e-05,1.2581451920029946e-05,5.706381594754199e-06,-2.1374907842569524e-06,7.292598138889707e-06,5.927604679939762e-06
1.7979395508443452e-06,2.1506551822134826e-06,1.8889706853225852e-06,2.440350700172704e-06,2.6904654798084444e-06,-5.474579098333468e-06,2.7807010038689756e-06,5.2425582076408144e-06,7.216730225343738e-06,-1.2331914173412984e-07,3.6605042198929566e-06,2.807392790755631e-06,1.3748140524620048e-05,1.1284309280053342e-05,5.876812447045123e-06,-2.7363700218458134e-06,7.28787389770124e-06,9.064845765495975e-06
1.7738024878122822e-06,2.2728737257349944e-06,1.9552755705195732e-06,2.463337998958947e-06,3.6833965200999226e-06,-7.752622599348399e-06,1.5663480831215613e-06,6.3234843273308215e-06,6.646133300851273e-06,-1.1174779554368967e-08,3.527819071296979e-06,2.080594486893885e-06,1.1093881406019343e-05,8.933875837713953e-06,5.7007723411947575e-06,-2.9741817298471875e-06,6.2738640132878734e-06,1.2336061023114576e-05
1.696645613702107e-06,2.3204993086777234e-06,1.9448527398122474e-06,2.559583097981287e-06,4.3106560466292e-06,-1.0372106146953279e-05,1.5600232601435797e-06,5.907117114699511e-06,6.057207125152961e-06,3.7638288798014775e-08,2.669130002613642e-06,1.483337181848142e-06,8.028554778334046e-06,5.467321158265958e-06,5.111937292188071e-06,-2.598014176792095e-06,5.031943426893843e-06,1.4720848944287186e-05
1.5698956569142928e-06,2.296197630765674e-06,1.8679049179456408e-06,2.5668140356745295e-06,4.862701796807571e-06,-1.2810034416464312e-05,2.559876511264007e-06,4.519433983035535e-06,5.6633176974976765e-06,1.7838030981255648e-08,1.1727348796608195e-06,1.4239325430143594e-06,5.39911002617126e-06,1.4489121089690863e-06,4.354945769786232e-06,-1.6759814756769853e-06,4.043657509584573e-06,1.547039627798765e-05
1.4093292205501783e-06,2.2101770180329224e-06,1.7461077275409168e-06,2.5843654927202456e-06,5.640795815347166e-06,-1.4496082010868279e-05,3.8053864763812166e-06,2.7603521164976503e-06,5.6553926555048725e-06,-6.886477626354986e-08,-4.768751820694785e-07,2.1195391430823375e-06,3.6065804982035553e-06,-2.340102448074878e-06,3.8017797094703144e-06,-5.402080030716612e-07,3.5321583508531923e-06,1.4318824170909656e-05
1.23562546968048e-06,2.0859954739924406e-06,1.607341641816284e-06,2.4289406418653772e-06,6.8292621782639065e-06,-1.4895142376242248e-05,4.281201226524694e-06,1.1896768253316904e-06,6.110460287644417e-06,-2.0869335889454456e-07,-3.688317241079669e-07,3.517206500993596e-06,2.579488465310727e-06,-5.216405825879602e-06,3.6712395557088257e-06,3.5867193270623224e-07,3.611425271410107e-06,1.1524633156350097e-05
1.0741133944611973e-06,1.9543455165455557e-06,1.4787849638513769e-06,2.363784177511772e-06,8.490090006396479e-06,-1.3732681355325588e-05,3.2554607484983873e-06,4.0569432831899256e-07,6.876389654078782e-06,-3.875469054617057e-07,-6.029080917254145e-07,5.1951592179200154e-06,2.0226907025942305e-06,-6.795866002613597e-06,3.859610927247437e-06,6.34312594566913e-07,3.874718511758006e-06,7.753882306997559e-06
9.387242741044592e-07,1.848747094658409e-06,1.3847553330765003e-06,2.5516705387759026e-06,1.0585872846787746e-05,-1.0986873195191886e-05,6.181143153008288e-07,9.300893068854482e-07,7.546044998738014e-06,-5.80762676124358e-07,-1.9944295335290273e-06,6.408449080165372e-06,1.680320785749477e-06,-7.028417880336736e-06,4.042980856075951e-06,1.1142579581896988e-07,4.06985292169571e-06,3.837190616598929e-06
8.493227428349994e-07,1.79858037582107e-06,1.346049721582663e-06,2.745646489872507e-06,1.2983083783806269e-05,-6.885571162183174e-06,-3.0678829080208757e-06,2.9942783133707203e-06,7.615377320529552e-06,-7.617479161463971e-07,-2.882579533258343e-06,6.448466936939623e-06,1.4202073129796358e-06,-6.229977838735519e-06,3.978808702703507e-06,-1.1528121863965649e-06,3.823448270666377e-06,4.740444955217928e-07
8.097553930116404e-07,1.8059939124018675e-06,1.387191694105187e-06,2.9538970684943197e-06,1.5447455784452867e-05,-1.968202381448908e-06,-6.813035942241585e-06,6.355542996162548e-06,6.7428811983036825e-06,-9.22219720367531e-07,-2.1666157162072143e-06,5.1188530039424784e-06,1.17092444726085e-06,-4.821985722221519e-06,3.7249859578242254e-06,-2.9261449740563655e-06,3.0184036404561965e-06,-1.956062258361156e-06
7.976101453427097e-07,1.8734316029217067e-06,1.4916352546488959e-06,3.058023471982321e-06,1.7663958697615513e-05,3.0665981492603936e-06,-9.679650302900852e-06,1.0287508038197802e-05,4.934186026129576e-06,-1.041475622330721e-06,-8.554417330711315e-07,2.9402634730096947e-06,8.6850856566493e-07,-3.3197331397122825e-06,3.591060734373555e-06,-4.809200804821908e-06,1.818250983570454e-06,-3.409380447842379e-06
8.048915125120983e-07,1.987264066582017e-06,1.6624470463989349e-06,3.1663727475922855e-06,1.9297872890857487e-05,7.469308905533526e-06,-1.1053847714144814e-05,1.3789212822703884e-05,2.553896682188839e-06,-1.113209459164912e-06,4.1418356110707404e-07,8.898802752730582e-07,4.892810493607563e-07,-1.9435679640342665e-06,3.902351394334128e-06,-6.183355633582004e-06,8.102921921441482e-07,-4.097238526268627e-06
8.3380059296014e-07,2.122821333212341e-06,1.882545419856807e-06,3.4556704104871738e-06,2.0106470809751882e-05,1.0624208113211125e-05,-1.0804009409037013e-05,1.6023446807218047e-05,1.5954261125030375e-07,-1.1109265611828663e-06,1.707867569105422e-06,-1.1240919259442731e-07,1.6395079187330997e-07,-7.769570808866509e-07,4.763105536320006e-06,-6.248507283568107e-06,7.877563899083645e-07,-4.412803716230584e-06
8.740330285196238e-07,2.2574312708624556e-06,2.11561178897541e-06,3.7063534854330523e-06,2.0066908203293794e-05,1.226049291034823e-05,-9.286981115148822e-06,1.6584411339807636e-05,-1.7377864410452629e-06,-1.0478163938232364e-06,2.63170260190396e-06,4.217129796404865e-07,6.925441068681743e-08,1.8243169745803247e-07,5.939057795013045e-06,-4.309465240183029e-06,2.5013545502095157e-06,-4.8258988652584215e-06
9.170837958366519e-07,2.3632540860260263e-06,2.3326961138034555e-06,4.002125723050243e-06,1.9396166341623515e-05,1.2512042920340904e-05,-7.256321181637987e-06,1.567622795118205e-05,-2.846060063400625e-06,-9.611490960254347e-07,3.3990028833232832e-06,2.426150015501629e-06,3.665585979023921e-07,1.1952694026124997e-06,6.911263846162534e-06,-2.4286510069590985e-07,6.0906881151292e-06,-5.716820776039286e-06
9.545096309580658e-07,2.4176316227939817e-06,2.4948862151675547e-06,4.1235722896862165e-06,1.8389572925074644e-05,1.1710864440324292e-05,-5.594269630917087e-06,1.3786743713818279e-05,-3.135829097611289e-06,-8.852005633135023e-07,4.114142642876459e-06,5.358935837116193e-06,1.101487334733375e-06,2.8033256814607226e-06,7.092157456218876e-06,5.186813310937849e-06,1.1461535301867668e-05,-7.201169698933264e-06
9.635437675800243e-07,2.4024730373858826e-06,2.584392912818739e-06,4.191124258117566e-06,1.7198667655817792e-05,1.0236975269257922e-05,-4.927957902337815e-06,1.1448185050514757e-05,-2.7786946040834544e-06,-8.678251833617092e-07,4.797334344548329e-06,8.37626124768145e-06,2.13189483987853e-06,5.2908715392602846e-06,6.1107415256407164e-06,1.0480488024893263e-05,1.7671382823791694e-05,-9.028553331896775e-06
9.325284709275264e-07,2.3148574843432347e-06,2.5825419308087302e-06,4.2773826323661245e-06,1.575057480435865e-05,8.385190404331531e-06,-5.4292421949058255e-06,9.090204161253027e-06,-2.0378143553501167e-06,-9.337372331633949e-07,5.497584928985924e-06,1.0560852606380165e-05,3.3122567144529394e-06,8.644277038381551e-06,4.015714831723292e-06,1.4034032420534845e-05,2.345671822631064e-05,-1.063844206737563e-05
8.612265722009365e-07,2.1711842898222104e-06,2.494545214888468e-06,4.346272857830545e-06,1.387551549844985e-05,6.424524734266159e-06,-6.852881932945083e-06,7.041672796370119e-06,-1.1818504900696179e-06,-1.1025856940135085e-06,6.037058426849996e-06,1.1137108322862499e-05,4.424712893719623e-06,1.2485206700218654e-05,1.2666911658134584e-06,1.4843138523812589e-05,2.7414449507556884e-05,-1.137777573046503e-05
7.628743742765267e-07,1.985063961627432e-06,2.3339715616241757e-06,4.432129443623686e-06,1.1505002075669944e-05,4.5512968706854265e-06,-8.745130078555302e-06,5.563832570837314e-06,-4.3303606624312904e-07,-1.3404449547347491e-06,6.2572437574741184e-06,9.704647914220887e-06,5.150471737832706e-06,1.5980658383204373e-05,-1.4873374786026995e-06,1.276048501625133e-05,2.8918048506659772e-05,-1.0795817114099083e-05
6.521344448329649e-07,1.7739246172708713e-06,2.131601654871361e-06,4.4151190407661234e-06,8.75499618787594e-06,2.8000164484360215e-06,-1.0616479241385401e-05,4.725929974641187e-06,8.803400498791226e-08,-1.592516233109863e-06,6.096154306698407e-06,6.4992602548156e-06,5.183241447370579e-06,1.833710426834725e-05,-3.6800747756673737e-06,8.25348298559752e-06,2.8367387579108494e-05,-8.850850329697288e-06
5.44736609983336e-07,1.580850503659982e-06,1.9259776691001837e-06,4.250643427522051e-06,5.85830174416906e-06,1.1169719396764075e-06,-1.2013475854254982e-05,4.428361515851642e-06,3.880746570693487e-07,-1.8257431761370381e-06,5.652670670502477e-06,2.388516212267577e-06,4.411240919419826e-06,1.9130116388734223e-05,-4.962250276655067e-06,2.0383837903505608e-06,2.643932587078002e-05,-5.9320967874920675e-06
4.5318551298558617e-07,1.4142843788773172e-06,1.7395708046980456e-06,4.2272108155200705e-06,3.0677890516134398e-06,-3.987069629380468e-07,-1.25846269432786e-05,4.393299462321018e-06,5.35455565729194e-07,-1.8973079584099524e-06,5.1205455654007435e-06,-1.4198181427735464e-06,3.0470592573906685e-06,1.840525572585218e-05,-5.183024763644463e-06,-4.97195012579203e-06,2.4537033191439088e-05,-2.7171377372630188e-06
3.865413805506923e-07,1.282100349852524e-06,1.6001677063276638e-06,4.247274226411405e-06,6.478203163213956e-07,-1.5568584228284758e-06,-1.2120304964509276e-05,4.229264436750461e-06,5.61783826753918e-07,-1.773706270647358e-06,4.5679888947639245e-06,-3.827962420684682e-06,1.572639978159609e-06,1.6533672603376145e-05,-4.365939279311152e-06,-1.167913001328881e-05,2.264853847265349e-05,4.388244464705775e-08
3.2664092616567127e-07,1.2854718708002901e-06,1.524203283266221e-06,4.20276136271828e-06,-1.0744763535409374e-06,-2.1991013374197047e-06,-1.0588343390087184e-05,3.584915792552374e-06,4.589036605123229e-07,-1.7976825179506676e-06,4.069191277630703e-06,-4.226415941877917e-06,6.249939633817325e-07,1.4075426969793734e-05,-2.7298703846527325e-06,-1.6930743388953163e-05,2.0383090698016817e-05,1.7413194078630139e-06
3.064093566353055e-07,1.266435668427366e-06,1.4836838166265001e-06,4.170638234706074e-06,-1.718267178184581e-06,-2.205777873085729e-06,-8.175945061023986e-06,2.401166158312055e-06,2.737989761664601e-07,-1.8471596094193639e-06,3.544574183119978e-06,-2.6325228298268485e-06,4.5698551306693116e-07,1.1564815723276947e-05,-6.305257407867872e-07,-1.9829905792957783e-05,1.6983739647804508e-05,2.0703476640535083e-06
3.4580552652643476e-07,1.2972366605337375e-06,1.5117931492549795e-06,4.1662550728457005e-06,-9.60574938284086e-07,-1.5360758851248375e-06,-5.275909969010726e-06,1.017937746984682e-06,1.7849782233334474e-07,-1.587830649998917e-06,2.8884150860303577e-06,3.5539692377072785e-07,9.661565710830646e-07,9.532807004389949e-06,1.59538585470161e-06,-2.0034456998402528e-05,1.282776264141646e-05,1.0898712272184992e-06
4.155607691837996e-07,1.4254179726940668e-06,1.5690182646344725e-06,4.3268919041793655e-06,1.3253323416545262e-06,-2.5866889059395917e-07,-2.4028600302001276e-06,-3.064240525436543e-08,4.296489679461226e-07,-1.2534752001884125e-06,2.231644437892838e-06,3.7993938989022986e-06,1.96392689889683e-06,8.385316121529964e-06,3.69618027703342e-06,-1.789915334002502e-05,8.885376348981334e-06,-8.474615324443706e-07
4.839906650137456e-07,1.5230931830007067e-06,1.6098815860614234e-06,4.365021137341805e-06,4.994486806740063e-06,1.3813288588635053e-06,6.890375165531894e-08,-3.7964059280684166e-07,1.240353003840589e-06,-1.2270079708938105e-06,1.664548272731562e-06,6.429489184272664e-06,2.895545283425507e-06,8.42514352594952e-06,5.410716829852931e-06,-1.438738020277387e-05,5.924492135201124e-06,-3.237393780884212e-06
5.083274616214734e-07,1.4094615245070271e-06,1.59605101226649e-06,4.3556010924093765e-06,9.628355884680393e-06,2.9689092155142546e-06,2.0906893480613545e-06,-6.527311951393008e-08,2.6204433796641046e-06,-1.2623947214717954e-06,1.3371443925873908e-06,7.165022089932819e-06,4.183082974301367e-06,9.842672811056612e-06,6.4122079789597384e-06,-1.0700362666250769e-05,4.585284351398296e-06,-5.542022881690958e-06
4.308726229473017e-07,1.2685953756258983e-06,1.493721023026368e-06,4.35960350655214e-06,1.4566635558178357e-05,4.051647291210747e-06,3.851766096716696e-06,4.436218950807491e-07,4.2582311284010265e-06,-1.322516575153758e-06,1.465309707167836e-06,5.5862150136461296e-06,6.587525036012237e-06,1.2632504791138836e-05,6.4517944525508725e-06,-7.888045359053959e-06,4.114940003864456e-06,-7.236244723825492e-06
2.679261301180529e-07,1.1916599729996302e-06,1.3226624574054267e-06,4.303728580543376e-06,1.8976840267777713e-05,4.418862980297124e-06,5.504460290140443e-06,5.113628769712718e-07,5.561174498010347e-06,-1.5349912507179925e-06,2.0985185570224885e-06,1.9890185356917565e-06,1.0347338469932401e-05,1.644100857626362e-05,5.576437061107097e-06,-6.496835477104278e-06,4.0370745897529e-06,-7.850295185870335e-06
1.2083785400085647e-07,1.2190259223845474e-06,1.0792803719851735e-06,4.228953838061707e-06,2.1995924062599563e-05,4.288068548459074e-06,6.930771750641899e-06,-3.1416016758539413e-07,5.881900919615337e-06,-1.8309998139171855e-06,2.7239348309596814e-06,-2.5520304017126994e-06,1.4609157178803342e-05,2.053988112612579e-05,4.174701583015253e-06,-6.487735586348334e-06,3.835504387188688e-06,-7.09171160940466e-06
-1.2009633776566111e-08,1.2817341125260365e-06,8.828323822639386e-07,4.182987216916541e-06,2.292281488000601e-05,4.292854688295712e-06,7.693167857157696e-06,-2.0057405317444614e-06,4.794654393089667e-06,-2.1649721817711297e-06,3.332851109372111e-06,-6.847494866313811e-06,1.8136362507713725e-05,2.3906535840255167e-05,2.7816408297788277e-06,-7.340710040594809e-06,3.544471184793958e-06,-5.002773868103889e-06
-9.986622271796552e-08,1.275492719436739e-06,7.434520548406987e-07,4.063986766658117e-06,2.1395703712560342e-05,5.1450376035694814e-06,7.270199743248456e-06,-4.05609618094205e-06,2.270221568911947e-06,-2.389554819979832e-06,3.648184866378751e-06,-1.0060642753159806e-05,1.737781729232441e-05,2.5529233350048478e-05,1.8147630717501967e-06,-8.39372885577311e-06,3.028132832217741e-06,-2.032007398938915e-06
-2.4162269301087706e-07,1.2395512453965105e-06,6.31739104653714e-07,4.062265191212246e-06,1.7509257506505724e-05,7.151394539914526e-06,5.4600367601827005e-06,-5.797596740399468e-06,-1.2982576629290883e-06,-2.464018996106597e-06,3.377329361127703e-06,-1.1787368972783932e-05,1.2904166321511018e-05,2.4860458137545522e-05,1.4442279803863007e-06,-9.166946491066278e-06,2.262951094727621e-06,1.049083326972587e-06
-2.8333196954525536e-07,1.1570892260241178e-06,4.635518463274406e-07,4.067395430055875e-06,1.1845500543302418e-05,9.926869823911862e-06,2.6189497174038503e-06,-6.714007720009085e-06,-5.187406434267767e-06,-2.5236247609758073e-06,3.075071387326938e-06,-1.1981228143288177e-05,1.0086769614125516e-05,2.199188114594468e-05,1.633674516731318e-06,-9.656042390634502e-06,1.4364081496630745e-06,3.354776139417349e-06
-2.5486567314543204e-07,9.852702268180726e-07,3.468151565636742e-07,3.96464878403685e-06,5.368491803746406e-06,1.2529957255020837e-05,-4.3920477897867726e-07,-6.525351274775784e-06,-8.52397451579612e-06,-2.5458117909680422e-06,2.1938537734977464e-06,-1.0817986143366373e-05,9.814548004339658e-06,1.7543384174132154e-05,2.2528497914499542e-06,-9.863639160843268e-06,4.179490953856733e-07,4.133638527514501e-06
-2.7286417091152064e-07,7.599864080601304e-07,2.8214220786361893e-07,3.7162467149170897e-06,-8.496567350427696e-07,1.3915314444828023e-05,-2.878998177607087e-06,-5.067018079375611e-06,-1.0521872755464825e-05,-2.630627787526198e-06,6.217352576438787e-07,-8.548167226654043e-06,9.505803277914764e-06,1.2471621471453409e-05,3.1527646339877396e-06,-9.745247089126802e-06,-6.995462827324995e-07,3.00103630223168e-06
-2.859076829587948e-07,5.415484803482632e-07,2.9374125097416525e-07,3.5144936346228224e-06,-5.970056400150762e-06,1.3459639278696227e-05,-4.199109954964884e-06,-2.2747497733392312e-06,-1.0714895407643358e-05,-2.80609111487567e-06,-1.1894330921192063e-06,-5.478994555409311e-06,6.2865874618477904e-06,7.645774803443679e-06,4.161168365371762e-06,-8.999805167285462e-06,-1.9281315984657536e-06,1.0397937002128054e-07
-2.593338544017315e-07,4.400192512218238e-07,2.5466709935105567e-07,3.337708782491408e-06,-9.571875263797646e-06,1.1236581470462734e-05,-4.332541054384772e-06,1.655872522274031e-06,-9.125993227176206e-06,-2.9417690007741586e-06,-3.2307350787409758e-06,-1.996069965945491e-06,1.3483968031050372e-06,3.6283748547943986e-06,5.0365597353495675e-06,-7.420391471981462e-06,-3.053213188298068e-06,-3.879433984131668e-06
-3.009672804982889e-07,4.510311634011539e-07,2.5536679780376006e-07,3.235699735791376e-06,-1.1560679298214751e-05,7.95219783066739e-06,-3.5329605215189294e-06,6.1110886408610786e-06,-6.310341586900228e-06,-3.0652763082981185e-06,-4.471038934823888e-06,1.5875442198518607e-06,5.701369636773013e-07,8.47625039338925e-07,5.446118801499534e-06,-4.980727111913664e-06,-3.6781957878908303e-06,-7.951533747892401e-06
-3.806396186996052e-07,5.040424659838039e-07,1.8814129211218747e-07,3.260346174925079e-06,-1.1943913617932761e-05,4.642995106615997e-06,-2.192312598057537e-06,1.01112719775434e-05,-3.193314965761277e-06,-3.143508652789522e-06,-4.855016105533989e-06,4.958182037868273e-06,2.3610622455787415e-06,-6.60329154010997e-07,5.035938189857525e-06,-1.7652085726477805e-06,-3.2254825027102237e-06,-1.1121884068046816e-05
-4.178018989505042e-07,6.04220737552693e-07,2.5163013301036852e-08,3.3242343414828946e-06,-1.0715302930296143e-05,2.254496490798165e-06,-6.859775138574531e-07,1.257014407474006e-05,-7.043843097484698e-07,-3.1984654259207996e-06,-5.8598533395120516e-06,7.576421080354262e-06,1.9323907720354537e-06,-8.045347571056854e-07,3.6254244933870384e-06,1.7944945470571791e-06,-1.3046967953292018e-06,-1.2715774542120758e-05
-4.899074970683306e-07,4.7371028440065426e-07,-5.2939989289130206e-08,3.2627124446981694e-06,-7.92413638593412e-06,1.3010268145423713e-06,7.698784227585876e-07,1.2626398637730631e-05,6.173776919105323e-07,-3.2269651819131858e-06,-6.076672781977411e-06,9.18301154362749e-06,1.2150260054350111e-06,3.440969602269267e-07,1.3988268597735003e-06,5.3453703849379745e-06,2.0192257419353325e-06,-1.2558467308350008e-05
-5.846636551709278e-07,2.5982015851231e-07,-6.81714053450382e-08,3.191993734077138e-06,-3.830971569042777e-06,1.7402304683415212e-06,2.215541295703687e-06,9.93985197313333e-06,7.959038552851723e-07,-3.2942743640521735e-06,-5.778340579947777e-06,9.58613839448507e-06,2.182182110303505e-06,3.0143074045243e-06,-1.1146709703387213e-06,7.7797455721273e-06,6.233972663573294e-06,-1.0977894733209836e-05
-6.686210526187409e-07,5.901733914626119e-08,-1.4295663467772458e-07,3.1432587650635896e-06,9.81568192651607e-07,3.1125835054326914e-06,3.7205186415249575e-06,4.878080295612398e-06,2.8744659559019194e-07,-3.368999862222956e-06,-5.039086140990343e-06,8.747829813309552e-06,3.5700017835561092e-06,6.923891966160337e-06,-3.276562077887374e-06,8.15746018739176e-06,1.0317036435881045e-05,-8.64170860249547e-06
-7.913951433241586e-07,-1.532867387541518e-07,-2.168444613062705e-07,3.1558215626678495e-06,5.660536096347568e-06,4.835269870283544e-06,5.190841539777234e-06,-1.5142710124287896e-06,-3.0773172100341377e-07,-3.484049717384351e-06,-3.998610752460562e-06,7.06958993782758e-06,4.148514250255253e-06,1.133758482542672e-05,-4.585629680725617e-06,5.580882333543742e-06,1.3013276052598073e-05,-6.350569924310583e-06
-9.230871150703577e-07,-1.6101160438407648e-07,-3.54103848454025e-07,3.197396009409306e-06,9.334516391654986e-06,6.445825056939767e-06,6.416776760265069e-06,-7.8258926784337e-06,-5.086971512264066e-07,-3.736829049582731e-06,-3.0235742144668803e-06,4.884695847900594e-06,5.455196982161303e-06,1.334193875901832e-05,-4.803102381082593e-06,5.013164657404318e-07,1.3445410385536705e-05,-4.840402461874504e-06
-9.901616209241104e-07,-5.866627445646417e-08,-3.9863299809735007e-07,3.210671994620274e-06,1.1418935187485834e-05,7.640360413075305e-06,7.062269779149555e-06,-1.2717852948108312e-05,-1.013777849578675e-07,-3.899481707954995e-06,-2.3254774322530124e-06,2.464172783991394e-06,6.93891461261452e-06,1.1617601578759913e-05,-3.977961729907012e-06,-5.311790634276389e-06,1.1500883084615742e-05,-4.594261563292688e-06
-9.652338577494268e-07,1.908227108736543e-08,-4.34976099304609e-07,3.223956028045076e-06,1.1778995120321215e-05,8.180990641283623e-06,6.7598420329698435e-06,-1.5330939084746818e-05,8.527838760972937e-07,-3.7874891073324487e-06,-2.2410859314041367e-06,1.7021888008620885e-07,8.087801175368052e-06,9.17500664054116e-06,-2.424449204629785e-06,-1.024736321225673e-05,7.776546343575556e-06,-5.682053347380485e-06
-1.069141638109043e-06,4.579070227985449e-08,-3.9612779685309234e-07,3.200548811365132e-06,1.0728030856825685e-05,7.862828133110152e-06,5.169481370970117e-06,-1.554669996984051e-05,2.1260504813991487e-06,-3.6497361691222135e-06,-2.3387441769085092e-06,-1.3028308116906661e-06,8.104970827508319e-06,7.774490404793823e-06,-6.456389833346977e-07,-1.1934036840844387e-05,3.3578832680200602e-06,-7.672990515510965e-06
-1.178275476188823e-06,-8.265217810792579e-08,-3.9945425207231143e-07,3.127297403447617e-06,8.92899100784172e-06,6.598840725410777e-06,2.0803018272163447e-06,-1.3997955935702254e-05,3.47329958488857e-06,-3.6075197068902645e-06,-2.1909084048842313e-06,-1.294929210173075e-06,7.4992330605391e-06,8.764686139280739e-06,8.08751140643125e-07,-1.1410432149364325e-05,-5.656086749558649e-07,-9.726205561060225e-06
-1.2352654700211798e-06,-2.1139332091269993e-07,-5.792076736103506e-07,2.9912289588383344e-06,7.17359643814741e-06,4.525052013593325e-06,-2.349033951755579e-06,-1.1756622090554e-05,4.703259979436121e-06,-3.5628605432324995e-06,-1.7624359997478427e-06,6.570854688074013e-07,7.041676654393591e-06,1.1895693853946674e-05,1.52996787030935e-06,-1.095452422852662e-05,-2.9940996676196753e-06,-1.0903759553627809e-05
-1.3150035708351513e-06,-4.4875049779633627e-07,-6.675789810598779e-07,2.828185590414855e-06,6.027622272082791e-06,2.0046412896823803e-06,-7.461526590698823e-06,-9.848447015556252e-06,5.623739721693276e-06,-3.3771998985684454e-06,-1.0414577994679618e-06,4.120484101499137e-06,6.854412309704427e-06,1.607504699070451e-05,1.407159059028811e-06,-9.886988625108967e-06,-3.3504704111666705e-06,-1.0561144011473678e-05
-1.3703744260565338e-06,-6.875089149016885e-07,-9.305074876554595e-07,2.6830555240607363e-06,5.528391549721164e-06,-4.893852313124216e-07,-1.2286933691402538e-05,-8.904688930899465e-06,5.965302349785499e-06,-3.526766376181601e-06,-1.9710944218753832e-07,8.29257160330306e-06,7.12683892680876e-06,2.0013722737767413e-05,6.450823497171794e-07,-7.263662225622982e-06,-1.686333503097664e-06,-8.5803550390022e-06
-1.400959078318746e-06,-8.492153945596247e-07,-1.1129060571171224e-06,2.5568639647782625e-06,5.190148915683576e-06,-2.5265632787774175e-06,-1.590513183603534e-05,-9.063097830569113e-06,5.430431758575494e-06,-3.931565854086778e-06,4.57988407731171e-07,1.2357306166333326e-05,7.287007311669598e-06,2.20716507108164e-05,-3.6404009718615783e-07,-3.407549217036325e-06,1.1679418283546993e-06,-5.362572733287944e-06
-1.380457974253605e-06,-8.919843746006378e-07,-1.0981096173443657e-06,2.4801293898842575e-06,4.3430396755389855e-06,-3.787145163937449e-06,-1.756213747891426e-05,-1.0017008154145578e-05,3.882442882441386e-06,-4.267489322593723e-06,7.242385201740796e-07,1.50777663689848e-05,7.0848886372461595e-06,2.214913352016132e-05,-1.1971394773427831e-06,3.8909882646060676e-07,4.0148842387232315e-06,-1.620974402625637e-06
-1.4041096610465178e-06,-8.586824396371721e-07,-1.172025261571007e-06,2.46636696940147e-06,2.5510192371124915e-06,-3.999691256609576e-06,-1.7010272554475007e-05,-1.1125744734074166e-05,1.5251466047526028e-06,-4.3393064356839815e-06,5.359641130820665e-07,1.6010959662135315e-05,6.589049840114469e-06,2.0590263381624678e-05,-1.4904513126534715e-06,3.606479544394611e-06,5.860997355533822e-06,1.8355196808980733e-06
-1.425388534497687e-06,-8.357909017820916e-07,-1.304635493619863e-06,2.504136924726986e-06,-1.6006762998589527e-07,-2.8605258600543543e-06,-1.4337905412424673e-05,-1.163126191190071e-05,-1.1030201738480762e-06,-4.345773105740078e-06,-2.3675723097409199e-07,1.5628493144732176e-05,5.98617183378323e-06,1.7841263699513076e-05,-9.764506824374264e-07,5.990915601292013e-06,6.179683072304907e-06,4.239984809535419e-06
-1.3992630907439152e-06,-9.324991359009852e-07,-1.3585842494341395e-06,2.584283547106043e-06,-3.339341345919247e-06,-1.4122682492539739e-07,-9.571368472529019e-06,-1.0987753811107415e-05,-3.342092921396601e-06,-4.37122186855085e-06,-1.4616883847541786e-06,1.4475702376917884e-05,5.54154675832017e-06,1.437157945697535e-05,4.928711297431873e-07,7.0071083191838676e-06,5.090009886664899e-06,5.0026168475013385e-06
-1.4412717039232185e-06,-7.184439928010188e-07,-1.45755580707818e-06,2.6846412433260402e-06,-6.352461958563782e-06,3.983545479627883e-06,-3.4235033026798518e-06,-9.140277676512728e-06,-4.680418696561419e-06,-4.457117327858884e-06,-2.871327558818445e-06,1.310566565807919e-05,5.285414551566458e-06,1.0713643241656073e-05,2.916354429508202e-06,6.9258553609941845e-06,3.1310018196324356e-06,3.920767527784057e-06
-1.4306255028019918e-06,-3.737317692966073e-07,-1.3633484225003735e-06,2.7861463623254603e-06,-8.701541921829767e-06,8.689054824854743e-06,3.585674402683232e-06,-6.561939106702346e-06,-4.92591720639587e-06,-4.582962858146243e-06,-4.185462804311813e-06,1.2411836247197205e-05,5.111310970981764e-06,7.423022757522344e-06,6.112883377738367e-06,6.66578001165733e-06,1.0043812489099622e-06,1.3399531158411314e-06
-1.42892837594938e-06,-8.551847210765636e-08,-1.269076071183572e-06,2.8699111489415403e-06,-1.0232853277761373e-05,1.267822383026614e-05,1.104678228973101e-05,-4.013738208523764e-06,-4.223943140038735e-06,-4.58468352055209e-06,-4.980201279143582e-06,1.1992205768885466e-05,5.042211454440212e-06,4.829228406730494e-06,9.670701482637996e-06,6.475812952104077e-06,-2.767935474000503e-07,-1.9691994483166313e-06
-1.4569555073803498e-06,2.247256981875549e-07,-1.2427420608927324e-06,2.9423487839954325e-06,-1.1108056601270538e-05,1.474325564812157e-05,1.7598027734780103e-05,-2.1687901866420434e-06,-2.939122627326375e-06,-4.43229992005969e-06,-4.714636689639597e-06,1.052689824057653e-05,5.355928924983697e-06,3.0464633080945567e-06,1.2895052149171702e-05,6.6329951507097436e-06,-4.93008491556602e-07,-5.1929279733752835e-06
-1.4163032014878638e-06,4.83799752757864e-07,-1.1498782765152637e-06,3.009638618513335e-06,-1.1606149056565812e-05,1.4313414547470935e-05,2.1061834461576844e-05,-1.3124209649748804e-06,-1.4716748671494668e-06,-4.277261956837895e-06,-4.22363317522066e-06,8.022140181634394e-06,6.387057796750315e-06,1.829508904326666e-06,1.490523505995251e-05,6.814681424537483e-06,-1.2527889780276138e-07,-7.80807150272002e-06
-1.3481462737058532e-06,6.643639211084975e-07,-1.0853904990374303e-06,3.071607135552396e-06,-1.191951612383517e-05,1.1664028570031644e-05,2.1134604369070683e-05,-1.2563080679606013e-06,-9.696414172269521e-08,-4.034053797114771e-06,-2.7473261866336305e-06,4.640466024438432e-06,8.168657257293584e-06,9.759913300576306e-07,1.497019396527992e-05,6.660084309158962e-06,6.346041900395412e-07,-9.631891746368213e-06
-1.3154013695274528e-06,7.921000705341905e-07,-1.0345234956899928e-06,3.1291256063292055e-06,-1.2058375431370447e-05,7.769606115071561e-06,1.8999849928282866e-05,-1.4625950905469139e-06,1.1352396063126465e-06,-3.990120493544002e-06,-1.1592542383402863e-06,7.076896446539067e-07,1.020767740874459e-05,3.7302669168686835e-07,1.2884934683554986e-05,5.844770454281079e-06,1.4866886789100635e-06,-1.066693454574472e-05
-1.2912140861406207e-06,8.406573627912395e-07,-9.053487479480318e-07,3.174217292374176e-06,-1.1893451987598317e-05,3.9244664290978225e-06,1.4929024524351764e-05,-1.2842407815390382e-06,2.420066862615989e-06,-3.875617325456785e-06,3.2300353941845497e-07,-2.6242277255010326e-06,1.183890553146684e-05,2.3142555852293165e-08,9.103346387958785e-06,4.020929863716937e-06,2.1319392791449525e-06,-1.0945027549114922e-05
-1.2338665747678157e-06,8.422992474492995e-07,-7.816587058662658e-07,3.1995514054771506e-06,-1.127959851120047e-05,1.2528419231159934e-06,1.262394783182838e-05,-2.578268987711382e-07,4.075184478372844e-06,-3.7851269893880427e-06,1.5876003116142133e-06,-4.655886612949326e-06,1.253164446351895e-05,-9.939656128895255e-08,4.577322651968754e-06,1.1574240554772453e-06,2.705760052359984e-06,-1.05077996215183e-05
-1.0856507180058092e-06,8.240726811384231e-07,-7.069031078551203e-07,3.1982753681929075e-06,-1.016344495812672e-05,2.935720532773374e-07,1.1958123801746159e-05,1.6362378620491237e-06,6.283670040179166e-06,-3.742205792410702e-06,2.6664055796171664e-06,-5.704153564872285e-06,1.1964805227493478e-05,-4.2619355372038294e-08,4.403449967005403e-07,-2.666150909821169e-06,3.5253589885573833e-06,-9.500631395245426e-06
-9.665542265688427e-07,7.989869763025739e-07,-7.093404109178815e-07,3.166319836097386e-06,-8.635047334327138e-06,8.644902506771596e-07,9.486229968246264e-06,3.91069837374378e-06,8.8272673448682e-06,-3.7201361794144526e-06,3.600984409312092e-06,-5.675927104720865e-06,1.0284217980568801e-05,1.7248306371078993e-07,-2.335307123817295e-06,-7.0214071545038395e-06,4.107514584511119e-06,-8.247925754470748e-06
-9.574673081137274e-07,7.882664641997226e-07,-7.17104200408556e-07,3.113245040705365e-06,-6.93518971340614e-06,2.259551455370517e-06,6.449538046473791e-06,5.801711499065932e-06,1.114961877311692e-05,-3.6176371352763204e-06,4.423143742187203e-06,-4.278138480857077e-06,7.965346735866516e-06,5.2766869463966e-07,-3.2182085787115483e-06,-1.1205893045024529e-05,5.5502695225230405e-06,-7.171579034722597e-06
-1.0228305609884388e-06,8.009219627844147e-07,-8.291859706055614e-07,3.0514183168044027e-06,-5.4057376029516665e-06,3.632465369625442e-06,1.9992385131648298e-06,6.668967517607182e-06,1.2598934656652631e-05,-3.4986911583670308e-06,5.12125994850987e-06,-2.2487865592450195e-06,5.563476181584739e-06,1.0068364221965909e-06,-2.2329574351672334e-06,-1.4348613775735676e-05,9.393291441253553e-06,-6.579596295377673e-06
-1.1219997457049726e-06,8.431111936676498e-07,-1.0066892475511208e-06,2.9865889416140006e-06,-4.34615828255973e-06,4.333382701101975e-06,-2.9615219526775136e-06,6.285840389304829e-06,1.2652703968592746e-05,-3.4328922831134912e-06,5.658648832344687e-06,-1.4978463442048059e-07,3.634253245337002e-06,1.5020491229067042e-06,1.4883956909706894e-07,-1.5779667044749134e-05,1.4967943122649063e-05,-6.506734997945615e-06
-1.1673464911869758e-06,9.11295946310519e-07,-1.12326829612049e-06,2.925123370061042e-06,-3.8084980261908872e-06,4.061503516411525e-06,-5.374012826519619e-06,4.846810644614265e-06,1.120869598484603e-05,-3.3198301582326726e-06,6.042852289082957e-06,1.5395944002996587e-06,2.7380057502431673e-06,1.8184459332470337e-06,3.256811645207459e-06,-1.526981944026354e-05,2.0442708722655028e-05,-6.754449463584043e-06
-1.1626511201739709e-06,9.750507142670368e-07,-1.1893961855535276e-06,2.868272129199263e-06,-3.498312668192282e-06,2.888235155399887e-06,-5.443088418087576e-06,2.757343278577437e-06,8.608388317002488e-06,-3.1940748488734e-06,6.299486882930444e-06,2.2615363842492133e-06,3.3812946386305516e-06,1.8073009883423439e-06,6.4410134084566416e-06,-1.3085268708032177e-05,2.4203013281770674e-05,-7.061047967831572e-06
-1.1358293185287273e-06,1.035716717416731e-06,-1.211630851034562e-06,2.8147627304144696e-06,-2.9305291828150726e-06,1.173699668289916e-06,-4.110180493350929e-06,4.084652489726023e-07,5.443600881964786e-06,-3.084318990241673e-06,6.445049784170679e-06,1.8966799927465984e-06,5.813451535216635e-06,1.4970398688698304e-06,9.193011277900582e-06,-9.933519727141655e-06,2.2580114997859994e-05,-7.229382507846225e-06
-1.1013088140430186e-06,1.093505272942498e-06,-1.1829512635491682e-06,2.7820729268946263e-06,-1.7463385526175143e-06,-5.250920224520771e-07,-2.163006292370226e-06,-1.9252024929618016e-06,2.4709496690630785e-06,-2.9678748746581972e-06,6.499420052074014e-06,6.796780370659142e-07,9.7892367158341e-06,1.1202403903880538e-06,1.1191532685172942e-05,-6.728871792951896e-06,1.829706077279231e-05,-7.142158775702253e-06
-1.0796537387964013e-06,1.1447698519510321e-06,-1.134476822456039e-06,2.7596473882261766e-06,5.571099373859422e-08,-1.6076066241791754e-06,-5.469234655171849e-07,-4.067349371174768e-06,6.177016734905257e-07,-2.8668466854228605e-06,6.510126537118293e-06,-1.350280276697881e-06,1.4504492647879917e-05,1.022047079432433e-06,1.228114603474902e-05,-4.3319351931854876e-06,1.7453717777182658e-05,-6.7189082771262355e-06
-1.0573921338507819e-06,1.192134641614292e-06,-1.1451968296006799e-06,2.745022927414731e-06,2.1132626211319597e-06,-1.6224050401302775e-06,-2.4428999299259264e-07,-5.860206285691537e-06,8.85193078966258e-08,-2.792083920415359e-06,6.473646669516471e-06,-4.029124100265235e-06,1.893695136375619e-05,1.4958332551255838e-06,1.2414269176866274e-05,-3.2055916302108568e-06,1.971910851828402e-05,-5.925620912824761e-06
-1.0402416836653807e-06,1.218636883761746e-06,-1.1168149997456244e-06,2.7380855749322767e-06,3.892570221912381e-06,-4.476519313254561e-07,-1.2787884888150643e-06,-7.072077644432935e-06,1.155435616357657e-06,-2.8215224608117305e-06,6.359185663077533e-06,-6.876433085389033e-06,2.223576041015223e-05,2.6104602569075226e-06,1.1642827695847128e-05,-3.1925874457750646e-06,1.799390070558478e-05,-4.860947410950394e-06
-1.0391290210581942e-06,1.2164155189445248e-06,-1.0627546327694182e-06,2.729516409958752e-06,4.9593221066053105e-06,1.6373082027673099e-06,-3.1701601099039817e-06,-7.383672945317849e-06,3.0253420947997584e-06,-2.8848706235133028e-06,6.1359974063784445e-06,-9.492695517349116e-06,2.382064127521928e-05,4.118717780590236e-06,1.0188137796902943e-05,-3.652525912151943e-06,1.4257388724162355e-05,-3.831030266394728e-06
-1.0470948622881863e-06,1.1761460247450067e-06,-1.0280794591887053e-06,2.716763346821816e-06,5.163731387129933e-06,4.022671523946626e-06,-5.452109760010508e-06,-6.5512165235468165e-06,3.7772774936382938e-06,-2.979948657707032e-06,5.677280987679937e-06,-1.1350271517399574e-05,2.3474732192195267e-05,5.527992042348061e-06,8.46124579205184e-06,-3.886230106325751e-06,9.809523641512703e-06,-3.2999224890538964e-06
-1.0772984254332598e-06,1.1011678104579342e-06,-1.0110349238702727e-06,2.6963047117848435e-06,4.642722307578726e-06,6.031629675873376e-06,-7.5646741468835254e-06,-4.640600473317007e-06,3.19465563343549e-06,-3.0850807126753832e-06,4.819563997216114e-06,-1.2285585506060421e-05,2.0998772710271116e-05,6.3350832979334316e-06,6.919353328960597e-06,-3.5475641797299483e-06,5.896056564622321e-06,-3.703084513263077e-06
-1.1110358811954157e-06,9.982887144094864e-07,-1.0180929674693128e-06,2.6666537586929284e-06,3.7089474442984316e-06,7.200990095089826e-06,-9.073937510901123e-06,-2.0886000338931414e-06,3.925209104048873e-06,-3.173775527961455e-06,3.5266004335620826e-06,-1.2361589520073712e-05,1.645798991080778e-05,6.307278655516361e-06,5.846723857471367e-06,-2.7653360386052754e-06,3.1100285892040677e-06,-5.201735708344565e-06
-1.1328707393899926e-06,8.78045033267272e-07,-1.0445040697710314e-06,2.623707053832809e-06,2.7625080052932004e-06,7.380417418892614e-06,-9.97196741181972e-06,5.076208616273636e-07,4.331084171982333e-06,-3.283913839989524e-06,1.9850392083208146e-06,-1.1664340662048274e-05,1.0751815655744153e-05,5.626146994912815e-06,5.246810742217813e-06,-1.9229160966131737e-06,2.8144843610287875e-06,-7.51207198911318e-06
-1.1480182196380479e-06,7.594984558129106e-07,-1.0799272663052226e-06,2.5755680675514285e-06,2.243094965540915e-06,6.746463197725615e-06,-1.0363971726943576e-05,2.7044544497864573e-06,3.733008197286399e-06,-3.392364737484542e-06,4.5205926886008057e-07,-1.0324041669916371e-05,5.113531799119386e-06,4.797617800204718e-06,4.932110159613058e-06,-1.3205528821368133e-06,3.5610412777169033e-06,-9.95884307370102e-06
-1.1529766907866354e-06,6.587863945809488e-07,-1.1006889269333712e-06,2.5309424301304394e-06,2.5435167204284208e-06,5.75982329913074e-06,-9.954324702676107e-06,4.386485470964698e-06,2.5459301254215314e-06,-3.5624464537993516e-06,-3.9873169784158524e-07,-8.48971887639086e-06,6.929764536299723e-07,4.395543960002698e-06,4.725731615312999e-06,-1.0254230810261798e-06,4.0987193619442415e-06,-1.176134767540823e-05
-1.156081196037448e-06,5.884116094869627e-07,-1.125295883702572e-06,2.4879169293600545e-06,3.8788837934826455e-06,5.050063935137737e-06,-8.523042503837658e-06,5.702202718016795e-06,8.768954924245839e-07,-3.7007643050771535e-06,-6.207197208486294e-08,-6.371089286870717e-06,-1.8220908275924942e-06,4.778936703885025e-06,4.588402590407893e-06,-9.792725270929238e-07,4.1317524334631615e-06,-1.233012293126881e-05
-1.154697209524344e-06,5.467376466673742e-07,-1.1493431103116857e-06,2.449559821178137e-06,6.207456797151283e-06,5.113914589215752e-06,-6.030336791662418e-06,6.828228175760531e-06,-4.406777789671663e-07,-3.816605885132468e-06,-2.0255920023634675e-07,-4.2066923473535196e-06,-2.4609139903255e-06,5.904793204986357e-06,4.571008146609618e-06,-1.1784937349039114e-06,2.990493065006865e-06,-1.1338240269397281e-05
-1.1543103198858901e-06,5.226287227210696e-07,-1.1756376393503304e-06,2.4101871239049524e-06,9.255597961821231e-06,6.035656870284728e-06,-2.629415569694841e-06,7.691981175990078e-06,-8.703329581466081e-07,-3.931869502605557e-06,2.099510186592956e-07,-2.251484009888437e-06,-1.7824063383798367e-06,7.315449580488393e-06,4.692035853169365e-06,-1.7518409966400612e-06,1.6621541453395051e-06,-8.637881901926392e-06
-1.1545634324539726e-06,5.068831423309088e-07,-1.2031448254632582e-06,2.363754338741648e-06,1.2571505899643372e-05,7.389250332047144e-06,1.1988716347482624e-06,8.015429443333059e-06,-2.642373492134165e-07,-4.031292747613768e-06,1.4335989904732776e-06,-6.499140527312886e-07,-4.942936628116064e-07,8.318250677557975e-06,4.890808485418815e-06,-2.906445644528389e-06,1.7934078928293332e-07,-4.150679140561006e-06
-1.1573180933418475e-06,4.871537217716046e-07,-1.2313585931015264e-06,2.312070605391142e-06,1.5529689530152553e-05,8.741891894802231e-06,4.764687493459814e-06,7.456987617680368e-06,1.4148355446470868e-06,-4.137777185985348e-06,2.9767175153907405e-06,4.6883571436999175e-07,7.832440732955743e-07,8.305079220947665e-06,5.084325044269194e-06,-4.775671568875643e-06,-1.5420334686722067e-06,1.640053169149739e-06
-1.1628410316163092e-06,4.6425574291060977e-07,-1.2620621974874765e-06,2.258214496233377e-06,1.7373219699431653e-05,9.798310614437759e-06,7.275728544885736e-06,5.737582030933522e-06,3.837114298909474e-06,-4.2366030439176996e-06,3.6816633950398293e-06,9.590987684994268e-07,1.6282700126549532e-06,7.069333644864778e-06,5.245614220308212e-06,-7.2326827250085755e-06,-3.067194497357524e-06,7.905011284435146e-06
-1.156689072869667e-06,4.524273133076237e-07,-1.286022925024587e-06,2.219641734389453e-06,1.7455682059863498e-05,1.0446916925247616e-05,8.029585976364984e-06,2.9207711159761377e-06,6.680122290320494e-06,-4.320786534121888e-06,3.6243291597605663e-06,7.765747352844863e-07,2.0097511029787293e-06,4.9116879531850265e-06,5.424673624702201e-06,-9.815844277096704e-06,-4.009134803376311e-06,1.3505350272673752e-05
-1.1257116408337273e-06,4.6903665043025223e-07,-1.29062705321953e-06,2.2118267780010936e-06,1.561655349412375e-05,1.0712909009708073e-05,6.721388087380239e-06,-5.863505968810235e-07,9.673773082693006e-06,-4.361933366755637e-06,3.3708439746630375e-06,-4.849617120412173e-08,2.222163434115872e-06,2.4484035540565853e-06,5.6955513214718135e-06,-1.1881193376975e-05,-4.08909755114007e-06,1.602393098828436e-05
-1.0586983329287352e-06,5.291744242285008e-07,-1.265777709172437e-06,2.2460645461716448e-06,1.234400300090755e-05,1.0616625210799783e-05,3.6760025732169945e-06,-4.249311068014836e-06,1.24577436222604e-05,-4.355955992065353e-06,2.6787790296020796e-06,-1.27236107252847e-06,2.6998197934524148e-06,2.926113924217921e-07,6.072254297128631e-06,-1.2867297541842971e-05,-3.148284034078179e-06,1.4993584157937803e-05
-9.554892089335656e-07,6.349498990817768e-07,-1.202023684356896e-06,2.3242553473943115e-06,8.4974339055456e-06,9.926885140404046e-06,-2.0050679392516708e-07,-7.38933482604212e-06,1.4579151584377998e-05,-4.302238265916662e-06,1.9428401453921404e-06,-2.4939823491499545e-06,3.8136877412675437e-06,-1.1564142045623934e-06,6.47290172287336e-06,-1.2420428964022211e-05,-1.233614642329677e-06,1.4765151440213617e-05
-8.271134248028218e-07,7.719055502496226e-07,-1.1065019657120592e-06,2.43504149307572e-06,4.8107452345017975e-06,8.480056026940682e-06,-3.78372240336498e-06,-8.95296429963845e-06,1.5629070746848154e-05,-4.205648373958391e-06,1.133386630000389e-06,-3.4369170616174803e-06,5.509880009363063e-06,-1.7574684250648487e-06,6.7751551237807e-06,-1.031630746147193e-05,1.3192748406215862e-06,1.0884983119130405e-05
-6.810283586669192e-07,9.161082421198886e-07,-9.860198440237594e-07,2.5594917612389225e-06,1.6135918583255296e-06,6.6059138163529085e-06,-6.166992256110397e-06,-8.539945309136959e-06,1.5440696432478985e-05,-4.094047959467699e-06,7.55511063771347e-10,-3.977341118727089e-06,7.506431313685687e-06,-1.5704455107584777e-06,6.902491191358713e-06,-6.258946997189003e-06,4.408084024641563e-06,5.465436671234815e-06
-5.330752117048952e-07,1.0409508858683287e-06,-8.588331743249083e-07,2.6755651526814664e-06,-1.0580684169826991e-06,4.539586988171719e-06,-6.913058559688797e-06,-5.406357760574627e-06,1.4176480949745634e-05,-3.9743991424928166e-06,-5.747643100488235e-07,-4.205752326106723e-06,9.367814844880483e-06,-7.791309265385084e-07,6.852248911847847e-06,-4.6125273055121197e-07,7.760206831876938e-06,1.1984897501142007e-06
-4.015934268175605e-07,1.1222998148447248e-06,-7.433867250988246e-07,2.7665425629512016e-06,-3.185989480366334e-06,2.6490041191417317e-06,-6.084131008992061e-06,-4.1660189717881285e-07,1.2222765885327224e-05,-3.8664120147250396e-06,-1.970002619720374e-07,-4.360823090609176e-06,1.0413434808254487e-05,3.2839048751079307e-07,6.6707797820706225e-06,6.2378850519087445e-06,1.0803619636211235e-05,-1.2809891360172554e-06
-2.9676042090063145e-07,1.1454605788653846e-06,-6.49049713784335e-07,2.8162542880143198e-06,-4.643358184381719e-06,1.268054409417081e-06,-4.10122153223076e-06,3.806936861741803e-06,9.974574147999316e-06,-3.8124731503095598e-06,3.3976303528416745e-07,-4.712054609945516e-06,1.0222650115011146e-05,1.3716329529492137e-06,6.449563930365657e-06,1.2385658090096839e-05,1.2959837285640329e-05,-2.3726971538762114e-06
-2.2630271328878604e-07,1.1087027329353004e-06,-5.813154620044289e-07,2.816286694651596e-06,-5.294409333880294e-06,4.965744337974594e-07,-1.5098140427965488e-06,6.573975639039289e-06,7.681176552291358e-06,-3.7731580387554977e-06,6.418740838591536e-07,-5.462978539480965e-06,8.778382441629593e-06,2.0302767064762145e-06,6.352391437954412e-06,1.3679764875194008e-05,1.3802165235841866e-05,-2.235577554396348e-06
-1.8941741392336607e-07,1.0237056517132334e-06,-5.385167963363201e-07,2.784897459596746e-06,-5.164302634541086e-06,-1.4161646735631602e-07,1.199806037203416e-06,1.0542808848047378e-05,5.456147207672503e-06,-3.7568362529865553e-06,6.325246976799949e-07,-6.666944277325149e-06,6.433801115014944e-06,2.2927664566503677e-06,6.581752137300633e-06,1.1650914971732713e-05,1.3288445849252695e-05,-1.3050871356453695e-06
-1.780179757347995e-07,9.132285152318423e-07,-5.087200559282358e-07,2.727165678061226e-06,-4.519896977172913e-06,-9.952977273262165e-07,3.59960172921483e-06,1.350578604363369e-05,3.3925938143479037e-06,-3.76072050561636e-06,7.092806526138707e-07,-8.158160832888373e-06,3.848626605010093e-06,2.5453030484412542e-06,7.252881156827179e-06,1.0093463435365161e-05,1.1877879448459886e-05,-2.4686243723241327e-08
-1.890981529046315e-07,8.046150501803036e-07,-4.976344580970983e-07,2.6570683628793584e-06,-3.794660507425422e-06,-2.062574760039584e-06,5.261576621468155e-06,1.3749414769265019e-05,1.648865811206744e-06,-3.7749314267455808e-06,1.2942837097554258e-06,-9.547431951380097e-06,1.7463830320845942e-06,3.3678065641507006e-06,8.227078404466829e-06,6.9195427126292645e-06,1.0140871153970729e-05,1.2798979245201463e-06
-2.0902543159213591e-07,7.206734359215223e-07,-4.911210418311662e-07,2.6006930575086565e-06,-3.3611605913363784e-06,-3.3580664417938924e-06,5.8155240349919656e-06,1.3067462684236799e-05,4.45506366539603e-07,-3.7851855439451384e-06,1.4686092929954186e-06,-1.0347746509652492e-05,6.30547239222741e-07,5.175666021881002e-06,9.069849701031725e-06,1.7362391070712694e-06,8.680306825399423e-06,2.4516802826956216e-06
-2.2646383681512942e-07,6.751146461129749e-07,-4.7261790223586063e-07,2.5699970126051395e-06,-3.281865987544702e-06,-4.373521227378098e-06,5.116085903369482e-06,1.1751340371477371e-05,-7.527430113899789e-09,-3.7703792652901977e-06,1.2436020454918802e-06,-1.0078621050924376e-05,6.539321784569195e-07,7.938409033310409e-06,9.175566180575435e-06,-2.5983691525078626e-06,8.322817589837087e-06,3.449193997448543e-06
-2.334053289464182e-07,6.716320623269635e-07,-4.3411487393138415e-07,2.5797047413859863e-06,-3.2746515254663653e-06,-4.678774524769486e-06,3.345008981572479e-06,8.48956875076375e-06,3.6580030745076797e-07,-3.7161791365517045e-06,1.0746399397258354e-06,-8.400993639548963e-06,1.638374108697224e-06,1.1114590140562691e-05,8.031671156887284e-06,-2.990412080748186e-06,9.28199701706783e-06,4.2407210920385525e-06
-2.1980042049021549e-07,7.062823800527601e-07,-3.615308993907738e-07,2.648931464072166e-06,-2.9688369314770355e-06,-4.2175481540501366e-06,9.662713485731508e-07,4.078185330114543e-06,1.3790301988632353e-06,-3.600766467700464e-06,8.472696033917729e-07,-5.290578575839202e-06,3.109825116268985e-06,1.3848676281475622e-05,5.54737208370895e-06,-7.788790089252755e-07,1.18722136809813e-05,4.787464980217085e-06
-1.7814934348559403e-07,7.712955479964845e-07,-2.4938168986867195e-07,2.7957786587275868e-06,-2.216422117379213e-06,-3.349134928609106e-06,-1.3778062128009508e-06,7.472760941781212e-08,2.56992988982659e-06,-3.4350370065211293e-06,2.3120763829888952e-07,-1.1770965895746444e-06,4.56396402483005e-06,1.5387116474457575e-05,2.2457970060504053e-06,2.105814654791488e-06,1.622635488056985e-05,5.08579222130639e-06
-1.0701951725049714e-07,8.569636123919967e-07,-9.971156413581347e-08,3.0284542558626506e-06,-1.2383950145085139e-06,-1.997160426919668e-06,-2.949991940732073e-06,-2.6342829668949443e-06,3.3838814688411427e-06,-3.2315233453695713e-06,-7.73321130268245e-07,3.0474240298426238e-06,5.7222846148731475e-06,1.5486644678049328e-05,-9.036316137123741e-07,4.240335716819451e-06,2.1209903839001723e-05,5.274975583221437e-06
-1.3603859685587182e-08,9.526434441480106e-07,7.412116869441538e-08,3.3269835702821183e-06,-4.767887987455775e-07,2.450418286375387e-09,-3.02564629600833e-06,-3.872329300189355e-06,3.4484897508596203e-06,-3.00183802942741e-06,-1.89037299398209e-06,6.230585336828493e-06,6.573187747025732e-06,1.4489811452677292e-05,-2.925359298664182e-06,4.519786027342891e-06,2.462805659700451e-05,5.50475901074773e-06
8.678674108081481e-08,1.0486753734723347e-06,2.5770354018961993e-07,3.6582129151527915e-06,-3.3855442702476935e-07,2.4265736266868984e-06,-1.1096314994710883e-06,-3.3518115887141343e-06,2.736047740271427e-06,-2.7647150957249774e-06,-2.628961648811944e-06,7.40069651944003e-06,7.320864277562938e-06,1.2983965908214587e-05,-3.2878027453301105e-06,2.5951158365211703e-06,2.563407326132221e-05,5.651973397563546e-06
1.782431406958938e-07,1.1367006676762568e-06,4.2853423688202166e-07,3.9102836429337634e-06,-9.95443047413819e-07,5.193798788457471e-06,2.7740518170280375e-06,-1.099385161148738e-06,1.524378435496536e-06,-2.563795307308039e-06,-2.766356284300783e-06,6.2734346549534775e-06,8.194478406270221e-06,1.1339328068319287e-05,-2.0974191279256203e-06,-1.1197899372633443e-06,2.4771187879911553e-05,5.32763520586169e-06
2.530400661495652e-07,1.2118506514689607e-06,5.687685136435714e-07,3.984331478072727e-06,-2.288444852764449e-06,7.974115465775425e-06,7.924162221119085e-06,2.4613135168057807e-06,2.2999130056704251e-07,-2.4105549422860774e-06,-3.3676017323002525e-06,3.458942588073653e-06,9.390314787619179e-06,9.506003107287002e-06,2.6118766243459446e-08,-5.743292392387631e-06,2.1662242508573705e-05,4.015356698833223e-06
3.1141915863586274e-07,1.272366543142809e-06,6.722373931758041e-07,3.860146180225024e-06,-3.7686279479557658e-06,1.0336029756725244e-05,1.3144727898579978e-05,6.561201849628009e-06,-7.536917192771968e-07,-2.303821980465965e-06,-3.306347822902323e-06,1.8687993443947258e-07,1.1066928143686286e-05,7.170648042000081e-06,2.2400615787059335e-06,-1.0378274369330057e-05,1.9062098555423847e-05,1.2800376391874546e-06
3.5805730144073403e-07,1.316932406781679e-06,7.375053714013904e-07,3.8218917461438754e-06,-4.8400279670139106e-06,1.2004368098084361e-05,1.7220166674518796e-05,1.0256721000982308e-05,-1.1420600000726595e-06,-2.2342215162556373e-06,-1.856414839171096e-06,-2.2925012094201975e-06,1.310480904199971e-05,4.083231184798991e-06,3.7927272888967597e-06,-1.4427998311118884e-05,1.670423671173802e-05,-2.839560856920027e-06
3.956711449644075e-07,1.3429742016607232e-06,7.697993218135083e-07,3.937601655987039e-06,-4.960598441560624e-06,1.2960315703166281e-05,1.93572690461672e-05,1.2729550227051316e-05,-8.063485124991498e-07,-2.198649757924039e-06,-7.843238278418787e-08,-3.256448486049313e-06,1.4996445782210579e-05,3.4722027310372e-07,4.249712016438033e-06,-1.757380542848755e-05,1.1963888977992731e-05,-7.5750915784484254e-06
4.2452336754556696e-07,1.3458321313293773e-06,7.713733263453684e-07,4.0437975938455635e-06,-3.850401010523545e-06,1.2976443603572952e-05,1.9304603538298043e-05,1.3579096689616227e-05,1.6078162956600305e-07,-2.188415060194228e-06,1.4883391775535484e-06,-2.719943593768857e-06,1.5976895261738885e-05,-3.440837374417081e-06,3.5627172936765326e-06,-1.9531379627566385e-05,6.750646760826379e-06,-1.2249950634242456e-05
4.401872975193675e-07,1.3201274448740369e-06,7.462027671908868e-07,4.127142111917985e-06,-1.6302940333322018e-06,1.1825872236713221e-05,1.7201957919016204e-05,1.2908946020582372e-05,1.407534051647812e-06,-2.1978277851619475e-06,2.657081303340532e-06,-1.260518247892444e-06,1.537247922946356e-05,-6.301906153207216e-06,1.9701988469183515e-06,-1.994754683672598e-05,1.28770513975222e-06,-1.5922167477222704e-05
4.415075191934983e-07,1.2625701752622062e-06,7.058632294667741e-07,4.058802890718571e-06,1.1504810515083665e-06,9.723427382091402e-06,1.3437678858029027e-05,1.119448141041363e-05,2.425967160589995e-06,-2.223104037012548e-06,3.5581332016973566e-06,3.719447234813445e-07,1.3025643746423208e-05,-7.22689163531464e-06,-1.2556650419340785e-07,-1.8606782426355925e-05,-1.4118805341038792e-06,-1.7903446029115512e-05
4.224989325524196e-07,1.1754053699168095e-06,6.543405587336605e-07,3.902914092897471e-06,3.712646950895344e-06,6.8547227546041335e-06,8.637435786929665e-06,9.08690862384511e-06,2.8114391963703476e-06,-2.2589622923504674e-06,3.888129179661307e-06,1.5856806686231813e-06,9.46065609565997e-06,-5.57176451171817e-06,-2.2899228745485276e-06,-1.5672057127560737e-05,-3.1376210174431174e-06,-2.0063149899180925e-05
3.768119995397308e-07,1.067606116368687e-06,5.962745308051864e-07,3.715582362646165e-06,5.3794226380855205e-06,3.5115422087191513e-06,3.6588124030281094e-06,7.226421022690531e-06,2.526113740578873e-06,-2.3117492085697415e-06,3.7937058492162104e-06,2.090590120268693e-06,5.610414819112783e-06,-1.3198971469574457e-06,-4.129742401544871e-06,-1.1649269581372025e-05,-3.2868861250023185e-06,-2.0189301702455525e-05
3.0417013664793734e-07,9.534157419041534e-07,5.3836796256847e-07,3.497176758789581e-06,5.823905147388128e-06,2.0367635339971902e-07,-5.367783427464983e-07,6.047647878607429e-06,1.9559962357347117e-06,-2.3840922313547425e-06,3.4973450242983295e-06,1.8550076763727385e-06,2.3292974973465902e-06,4.8211732578109675e-06,-5.308751376054114e-06,-7.153906810886895e-06,-2.0572110264689432e-06,-1.823645294738267e-05
2.0909671281457578e-07,8.486282929377391e-07,4.884592148025883e-07,3.3641458265089386e-06,5.1194745222960765e-06,-2.4960611399430707e-06,-3.139226625533715e-06,5.65441063366029e-06,1.7101535962311315e-06,-2.4762274362027743e-06,3.1331390581049894e-06,1.0475364986714936e-06,8.718694778634978e-08,1.1535431472398287e-05,-5.564225814592954e-06,-2.733126936890848e-06,1.3601795055191209e-06,-1.5815183460986972e-05
1.0558695891657195e-07,7.662237743081234e-07,4.5908608277989044e-07,3.317762666173523e-06,3.6171032557713973e-06,-4.084261936215245e-06,-3.794143097861137e-06,5.869885207689018e-06,2.3383624037894877e-06,-2.5763162673666984e-06,2.9401172750923555e-06,-8.4548343019113e-09,-1.0921817960695405e-06,1.7274369424682954e-05,-4.741570693358143e-06,1.1758891357643516e-06,3.925872743075614e-06,-1.3305458886224938e-05
1.02521363749134e-08,7.13967662062578e-07,4.6418318156245917e-07,3.3292235763052514e-06,1.794112843672652e-06,-4.219236602175836e-06,-2.78356230006752e-06,6.3887658949355215e-06,4.1221326682236415e-06,-2.6708853342081334e-06,2.9566552576183842e-06,-9.404155606352149e-07,-1.3470240214637435e-06,2.0752685410733507e-05,-2.849128287189332e-06,4.2186620870648075e-06,4.837104588124624e-06,-1.09766031586709e-05
-6.375340426017828e-08,6.9420731526057e-07,5.092860254097185e-07,3.394053969649916e-06,1.345884742161885e-07,-2.871676260531885e-06,-9.113077332923723e-07,6.869093723741114e-06,6.9120280833695905e-06,-2.753886637090678e-06,3.174369225259802e-06,-1.5473063817652995e-06,-8.017036885342052e-07,2.1301835233889753e-05,-1.0139555390386807e-07,6.107249542237295e-06,4.742852065580147e-06,-9.52663585536971e-06
-1.0977495455933798e-07,7.04668572120624e-07,5.882426082522658e-07,3.4729965735293395e-06,-9.362453466201162e-07,-4.028685583198969e-07,8.66905439216921e-07,6.9519143384940095e-06,1.003137885599975e-05,-2.8261584826827586e-06,3.541894073823477e-06,-1.9188322153784084e-06,3.649569806288882e-07,1.8970637804803637e-05,3.106663628328043e-06,6.666139459694617e-06,4.054421236947781e-06,-8.495855230925364e-06
-1.282507292818375e-07,7.390876599443746e-07,6.856533702664959e-07,3.554499924940556e-06,-1.1396603466225783e-06,2.666796748160008e-06,1.8088986041009305e-06,6.30959802834112e-06,1.2417274423963852e-05,-2.8876496570650895e-06,3.964760899887694e-06,-2.3548674449030715e-06,1.9348912378538636e-06,1.446122649872362e-05,6.325341002715566e-06,5.9433890472240016e-06,3.448571486091176e-06,-7.469414778837495e-06
-1.2509983533830582e-07,7.876796688863561e-07,7.793481261749512e-07,3.6227657574929177e-06,-4.596609618208526e-07,5.711594331889196e-06,1.5365462559767533e-06,4.763659976664697e-06,1.3060959787839446e-05,-2.9389532004530582e-06,4.323445414540388e-06,-3.055881196403937e-06,3.485504336707224e-06,8.966641575166334e-06,9.177555974470388e-06,4.33115149997466e-06,3.729368046359754e-06,-6.1147260396900525e-06
-1.1073388679606999e-07,8.382922507377701e-07,8.483878414022914e-07,3.6567361956297823e-06,8.361277799287098e-07,8.082016780711144e-06,1.4667028523016035e-08,2.4112199470288626e-06,1.1530431020993802e-05,-2.9919737505924692e-06,4.474374019046134e-06,-3.9051156246367545e-06,4.476071977679662e-06,3.882506226393596e-06,1.137545322293067e-05,2.58005378453553e-06,5.419751069776856e-06,-4.141468625819661e-06
-9.954829122935874e-08,8.78469375194273e-07,8.785985043905186e-07,3.650195647205775e-06,2.3318179876468447e-06,9.346389099706175e-06,-2.485188303387956e-06,-3.307330454345571e-07,8.20104165155951e-06,-3.0541775335312473e-06,4.382135886730159e-06,-4.507146120909512e-06,4.429022534244054e-06,4.4172191002830234e-07,1.265398883878513e-05,1.5959101308894032e-06,8.293093893703488e-06,-1.7305107959737845e-06
-1.0661678058750084e-07,8.979240437756006e-07,8.644337920057868e-07,3.6099397608867577e-06,3.6551243041101876e-06,9.458065043095248e-06,-5.435764073927126e-06,-2.7993426343859462e-06,4.009025133607525e-06,-3.1347014842557223e-06,4.090454283145845e-06,-4.467737839115135e-06,3.5871990909048044e-06,-5.951481413855352e-07,1.2776886974737634e-05,2.0561084706795145e-06,1.1654183607697487e-05,7.689050306046826e-07
-1.4465838767743561e-07,8.909870154834968e-07,8.113606284592979e-07,3.548168131367681e-06,4.557095910215422e-06,8.78379366361714e-06,-8.194145450355922e-06,-4.2708111675878885e-06,-3.3936979018850505e-08,-3.2387940442064992e-06,3.601526284766969e-06,-3.5834344887934005e-06,2.811400238044109e-06,8.690248900919742e-07,1.1690256168748143e-05,4.054573694977239e-06,1.4960292292562931e-05,3.0371760088362813e-06
-2.1576993811100337e-07,8.582309587269065e-07,7.322912279333831e-07,3.486097754006704e-06,4.926966466811253e-06,7.943274722134166e-06,-1.0179451243308702e-05,-4.236005872108034e-06,-3.1890950623144997e-06,-3.3645443748225223e-06,2.9004871026069423e-06,-2.0111539121772425e-06,3.007601731222078e-06,4.22808718421709e-06,9.531748341872198e-06,6.992697576988368e-06,1.7666874530852334e-05,4.85698478756437e-06
-3.0727045737267225e-07,8.061681216110169e-07,6.502214229874661e-07,3.44115252822228e-06,4.769724449295962e-06,7.531966367438588e-06,-1.1007106528519853e-05,-2.6833791987823744e-06,-5.088003452633511e-06,-3.5070418037068572e-06,1.941163451589931e-06,-2.0755712654122794e-07,3.118253813111047e-06,8.360199519931624e-06,6.688939297335966e-06,9.797045634129747e-06,1.9415414901669194e-05,6.110281470396575e-06
-4.0228469347486457e-07,7.450211938304166e-07,5.830349926941239e-07,3.4231893239828115e-06,4.245166923140042e-06,7.886475155627245e-06,-1.0589256770371653e-05,-1.8125393305480296e-07,-5.678668814829595e-06,-3.659650601667129e-06,7.00838050104175e-07,1.3207604684298242e-06,2.9436132227929964e-06,1.2032993416225066e-05,3.643642651370828e-06,1.135124026842864e-05,2.0152660390424202e-05,6.678964004140485e-06
-4.839400978815573e-07,6.854787397903384e-07,5.416402320981333e-07,3.4340656106883077e-06,3.6103697937039638e-06,8.99213421210548e-06,-9.183143668215864e-06,2.377240983921874e-06,-5.111667146575915e-06,-3.8185913997920275e-06,-7.036566571281122e-07,2.219801524429151e-06,4.208246866463555e-06,1.4345911920362671e-05,8.141684446762411e-07,1.0902495826813367e-05,1.994231709545374e-05,6.415652396002271e-06
-5.433849378874455e-07,6.352770548695246e-07,5.283884375039011e-07,3.4679622400437924e-06,3.050109404628188e-06,1.050750029210976e-05,-7.273349805316635e-06,4.217885493993192e-06,-3.620120653333341e-06,-3.973603838692415e-06,-1.7434796662391388e-06,2.442156458689745e-06,7.25865712670957e-06,1.5003344230309894e-05,-1.4831359974564197e-06,8.281296248989025e-06,1.8852234677057333e-05,5.243303870064524e-06
-5.830564378459849e-07,5.970225420535743e-07,5.338878539627525e-07,3.5137626932675966e-06,2.5998098060194825e-06,1.1833340733815708e-05,-5.2627126177347155e-06,4.979618809108782e-06,-1.453947178163543e-06,-4.116962117326203e-06,-2.1628293564414906e-06,2.1894229505877496e-06,1.0485364809036819e-05,1.4335541582513922e-05,-3.0920504677002523e-06,3.918219042350669e-06,1.6846233310899782e-05,3.2548789674467332e-06
-6.123806052853513e-07,5.690267434688552e-07,5.451365107729193e-07,3.5602064150068227e-06,2.117652561039449e-06,1.2241806478777118e-05,-3.157310504952918e-06,4.662132716477606e-06,1.1096906027477958e-06,-4.23887916268763e-06,-1.492587509748911e-06,1.7755659669457385e-06,1.2889093663105481e-05,1.3072172510264094e-05,-4.032132520193656e-06,-1.3131928545190178e-06,1.386229353012222e-05,7.150885771191171e-07
-6.385485029615158e-07,5.488546350386463e-07,5.509836674737907e-07,3.5992565749706314e-06,1.6478179248555157e-06,1.1148817228893656e-05,-5.102125829109226e-07,3.406675328550014e-06,3.7421568863070025e-06,-4.327611709453989e-06,-1.1932221537790192e-07,1.2679324976856916e-06,1.419607036822435e-05,1.1934129632502303e-05,-4.433045201830341e-06,-6.34541315082583e-06,1.0000207850475264e-05,-2.012546446431469e-06
-6.617579150492073e-07,5.364464850486801e-07,5.474109379025084e-07,3.6272932310970468e-06,1.3272945842781061e-06,8.456688005138543e-06,3.2600014847479983e-06,1.3875617523917619e-06,6.082876375261237e-06,-4.374337462582932e-06,5.739965484728567e-07,9.079620638931991e-07,1.3761662714380219e-05,1.1250056811807805e-05,-4.460220241094601e-06,-1.0131217101982081e-05,5.592065065321149e-06,-4.5588841335468695e-06
-6.790239659884403e-07,5.337100884861019e-07,5.346722463561365e-07,3.6464360561568195e-06,1.2936811433942166e-06,4.673748329981569e-06,8.345543960261651e-06,-1.160324516574529e-06,7.75479800991142e-06,-4.381518264250485e-06,1.3352495819669314e-06,9.135822485270712e-07,1.1911798576581583e-05,1.0853660822848584e-05,-4.263075005002841e-06,-1.179659036839742e-05,1.1309667954915643e-06,-6.623417951500679e-06
-6.852165768982648e-07,5.407353164187358e-07,5.161329682677508e-07,3.6594517299708768e-06,1.6987110619099098e-06,6.620570494915442e-07,1.4183203572105033e-05,-3.9213216863366026e-06,8.34584788424572e-06,-4.35300652518811e-06,2.6714827957367625e-06,1.4370596590148706e-06,9.01227280487562e-06,1.0316944067560784e-05,-3.917531233454251e-06,-1.0808073040719922e-05,-2.8488856654830704e-06,-8.025699244728433e-06
-6.815184751725055e-07,5.520663480875571e-07,4.93291678496399e-07,3.665856982598628e-06,2.6332397033812417e-06,-2.7409992633717137e-06,1.9534233062129393e-05,-6.552211720364622e-06,7.4874781817470986e-06,-4.3204504174207945e-06,3.591879393110229e-06,2.3517537689769776e-06,5.585761207862466e-06,9.334209282985184e-06,-3.457025291500449e-06,-7.15822294758149e-06,-5.864389199054586e-06,-8.74391957620152e-06
-6.813884890164239e-07,5.566285153392679e-07,4.634550574012028e-07,3.660160433036989e-06,4.168596534544395e-06,-4.9237693319712715e-06,2.3030961848322867e-05,-8.732417284725471e-06,5.104442614203127e-06,-4.3093880349781725e-06,2.86107254112387e-06,3.408174612498026e-06,2.396369800095532e-06,8.014429584104446e-06,-2.9372560374637716e-06,-1.4516565719902562e-06,-7.529414260131032e-06,-8.915142798866699e-06
-6.996047741662289e-07,5.418778071718055e-07,4.228832536668064e-07,3.634339893482569e-06,6.364885359205385e-06,-5.52784625428191e-06,2.3755033457913562e-05,-1.016876725488206e-05,1.6085777626044124e-06,-4.333269525285005e-06,1.2743966653337629e-06,4.340495056280292e-06,-1.8140818620541514e-07,6.9159943164515334e-06,-2.45836509450383e-06,5.187878367606187e-06,-7.591201551857808e-06,-8.768042686574386e-06
-7.431517118162669e-07,4.996750968122607e-07,3.6968662793901476e-07,3.5837058209524145e-06,9.253207076730066e-06,-4.470042207264324e-06,2.1626906105262642e-05,-1.0599617574638453e-05,-2.208915028207949e-06,-4.395833086946646e-06,6.623880146564579e-07,4.874528294684121e-06,-1.9860348297122575e-06,6.793874225259658e-06,-2.1419180359977054e-06,1.1355640621430497e-05,-6.0090354705348315e-06,-8.512986311122716e-06
-8.048406560941125e-07,4.3086660342085346e-07,3.090424487243136e-07,3.5110346817872687e-06,1.2768640658446231e-05,-2.003060790748909e-06,1.725391370835847e-05,-9.840037724728686e-06,-5.473202089845984e-06,-4.483741728418955e-06,6.287984315920091e-07,4.991294896202347e-06,-2.9930947848311764e-06,8.208277120841518e-06,-2.1458741211863046e-06,1.5715741821159928e-05,-3.044336333194025e-06,-8.236389888148123e-06
-8.697369873434437e-07,3.465175297029331e-07,2.506534435119442e-07,3.42984992818948e-06,1.6482632618859e-05,1.2803178084114014e-06,1.1572618161861702e-05,-7.848740517355877e-06,-7.442691042319555e-06,-4.577581487700428e-06,2.5722789659834685e-07,4.43123545533395e-06,-3.313966345607858e-06,1.1232167335323871e-05,-2.384583481367731e-06,1.742914641172167e-05,7.626286285510841e-07,-7.8767589376244e-06
-9.173797713802543e-07,2.64788196801192e-07,2.0676502210827287e-07,3.3620528979963565e-06,1.9712636650664378e-05,4.593302515676236e-06,5.6062101474074324e-06,-4.784087057222558e-06,-7.607945334870558e-06,-4.651355899951586e-06,-3.713609154074393e-07,3.250146286205526e-06,-3.1704408446785264e-06,1.5403475637313584e-05,-2.730394546895896e-06,1.6485104084031984e-05,4.78699233934504e-06,-7.296745249509725e-06
-9.334326093271925e-07,2.0463466754737417e-07,1.8961595062191573e-07,3.329523412203442e-06,2.1609835526915273e-05,7.237517359759544e-06,2.767307028994837e-07,-1.0304091547806123e-06,-5.786794440929602e-06,-4.687405233583639e-06,-1.116781099999138e-06,1.5968023677186637e-06,-2.8965584861571474e-06,1.991070244654144e-05,-2.977433895437699e-06,1.3678072157556441e-05,8.537009449253701e-06,-6.384109901472813e-06
-9.153329109894342e-07,1.7994169100288447e-07,2.0463371498107737e-07,3.3480217569796585e-06,2.13641743146059e-05,8.871847624106732e-06,-3.72173191458191e-06,2.850721367615098e-06,-2.227690081078508e-06,-4.673674024058103e-06,-1.8405024964356883e-06,-9.170783505478371e-08,-2.829094296941833e-06,2.3883676858492684e-05,-2.901067529279011e-06,1.0176397156346952e-05,1.1721202418236803e-05,-5.1151386601063285e-06
-8.672050733304601e-07,1.9667988968782734e-07,2.4957874246550906e-07,3.4213130108921452e-06,1.8639789504325552e-05,9.579695350155796e-06,-5.995404525268806e-06,6.266710604439346e-06,2.27143628123656e-06,-4.613511498555578e-06,-1.9910536546702674e-06,-1.3594638742701005e-06,-3.0988261400186773e-06,2.6615812401330258e-05,-2.4736719719374217e-06,6.956241581689753e-06,1.4152424153742923e-05,-3.595375348313165e-06
-7.96798712260605e-07,2.5222843481907844e-07,3.1599502595045485e-07,3.540488583824435e-06,1.3836612504587647e-05,9.687581388955933e-06,-6.435232523278095e-06,8.784958447320546e-06,6.714792792887002e-06,-4.521183795746148e-06,-1.0265763921791968e-06,-1.916653979149275e-06,-3.494900982944206e-06,2.763230839078722e-05,-1.8013719085399085e-06,4.450050764732954e-06,1.561603560418151e-05,-2.079896272230452e-06
-7.137103930270638e-07,3.3536360855563404e-07,3.8970958424316017e-07,3.681140927315617e-06,8.296050146110578e-06,9.485775047127055e-06,-5.251527127442545e-06,1.0264010789210613e-05,1.0142349983386177e-05,-4.4165206064995576e-06,-6.609142958124638e-07,-1.6227687587904752e-06,-3.5608070119581493e-06,2.6701429032762544e-05,-1.025096946317984e-06,2.5628004624592677e-06,1.5817044762008347e-05,-9.179122466364399e-07
-6.306345580271648e-07,4.276031393340989e-07,4.541121253356592e-07,3.8129731131745946e-06,3.454047607403156e-06,9.042337506452706e-06,-2.9966371582199534e-06,1.0846005183522994e-05,1.1746724470377294e-05,-4.322621335201481e-06,-1.0492744050096941e-06,-6.480329358020388e-07,-2.87278113971426e-06,2.392422183898739e-05,-1.8997059000174798e-07,9.867009845673812e-07,1.4648473667337374e-05,-4.184684667956956e-07
-5.628697775364678e-07,5.070194336322871e-07,4.923624616519968e-07,3.913368092777578e-06,5.600107479796112e-07,8.185678464793307e-06,-3.831467714240854e-07,1.0832929097732798e-05,1.1285720527352793e-05,-4.2580166600929005e-06,-1.7023078109917313e-06,7.991202192113679e-07,-1.2983199662374061e-06,1.983671233550787e-05,7.440973882990257e-07,-4.441923268597357e-07,1.2348392157990583e-05,-6.886731555064359e-07
-5.275357058753677e-07,5.538694495107432e-07,4.913204834764095e-07,3.958816913956006e-06,2.0301863065094782e-07,6.63407724812569e-06,1.920243034297352e-06,1.0539342642789225e-05,8.900157701996999e-06,-4.232587391909116e-06,-1.5559965959183093e-06,2.2303547407917492e-06,9.246087190645003e-07,1.532087904286295e-05,1.8454777536718225e-06,-1.6616835117563417e-06,9.350906150053142e-06,-1.5619632389755593e-06
-5.375879472197016e-07,5.562514937083279e-07,4.50941456253945e-07,3.943521846280209e-06,2.0083197400982867e-06,4.201936945095061e-06,3.583749617927796e-06,1.0188677561799195e-05,5.231860612476946e-06,-4.246397176430161e-06,-7.069580122201444e-07,3.2305154919000464e-06,3.3023837030665228e-06,1.1277828938796823e-05,3.032225240185128e-06,-2.548535865462656e-06,6.192338955287457e-06,-2.7248323830589035e-06
-5.943728717448652e-07,5.137469577072046e-07,3.7407117038246986e-07,3.876795732465302e-06,5.0204282573664685e-06,9.633927827862294e-07,4.739228233738496e-06,9.868728156150863e-06,1.1666326051831332e-06,-4.285086851366501e-06,-3.442482419258892e-08,3.4303118349302e-06,5.294325231261949e-06,8.237593946063646e-06,4.032548193762346e-06,-3.112553603797018e-06,3.3810045706039114e-06,-3.9403827790711295e-06
-6.849089958371684e-07,4.3711770208842877e-07,2.7203518086015707e-07,3.774594811045951e-06,8.01811700948042e-06,-2.7020269858161464e-06,5.4365827640180015e-06,9.533493902140576e-06,-1.6776142794877161e-06,-4.327005746184921e-06,3.3892095535498763e-07,2.6030533389492254e-06,6.516309356397038e-06,6.1325664366614905e-06,4.537932802289584e-06,-3.479391311391976e-06,1.3206532825148906e-06,-5.1328727374640725e-06
-7.886050276896855e-07,3.4358679952829874e-07,1.6169617314003404e-07,3.6537448188540125e-06,9.893931326775775e-06,-6.153957188366008e-06,6.018010446331026e-06,9.03573146499558e-06,-1.7193897426325586e-06,-4.352371924943852e-06,6.56030261956464e-07,9.649953020351953e-07,6.8825291822699815e-06,4.394623058804032e-06,4.386948372573938e-06,-3.8142481907462233e-06,2.516492989897099e-07,-6.2578708768127625e-06
-8.867922098944982e-07,2.4977145819647907e-07,5.670501998418465e-08,3.5325891851465993e-06,9.926861699375548e-06,-8.619117609981785e-06,6.4896443883485805e-06,8.216993891998156e-06,1.6257504801893463e-06,-4.362709603599302e-06,5.23113925156909e-07,-1.3136522978773617e-06,6.641394412491913e-06,2.3672854013457835e-06,3.740258681163488e-06,-4.283216504872249e-06,1.899966146224071e-07,-7.14891944076455e-06
-9.726767207966521e-07,1.658485492458657e-07,-4.824552468125906e-08,3.4419695228800096e-06,7.984872558217925e-06,-9.425277727862947e-06,6.811438078337569e-06,7.095562255374567e-06,4.395449238014959e-06,-4.362334632255543e-06,4.0058803667464103e-07,-3.6198819077086836e-06,6.236508756370358e-06,-2.2022506245851555e-07,3.147043587282553e-06,-5.027467932263253e-06,9.39621178366699e-07,-7.555359267488228e-06
-1.0498481809460684e-06,9.375491999923291e-08,-1.4954825969575016e-07,3.3771187133539427e-06,4.559514208984403e-06,-8.244755613359359e-06,6.538746315484883e-06,6.023736188991692e-06,5.81686373606286e-06,-4.357758601563829e-06,3.479721818439312e-07,-5.0991684461726324e-06,6.0016978071726565e-06,-3.0487562096172136e-06,3.1938697830211998e-06,-6.109002721144634e-06,2.1769010901822093e-06,-7.331886451268514e-06
-1.13356640461812e-06,2.9747594802454204e-08,-2.4089567620161743e-07,3.3367240913501922e-06,5.76764819292066e-07,-5.198702123057207e-06,5.447762484426713e-06,5.608401375725723e-06,1.0420059001823975e-05,-4.365207083172332e-06,8.825150973412285e-08,-5.330988444144914e-06,5.914747340862665e-06,-5.378818050635243e-06,4.34156917292822e-06,-7.444796200836802e-06,3.5183772344657405e-06,-6.579106629722785e-06
-1.2280116718935194e-06,-3.100038680386531e-08,-3.310018904970268e-07,3.316246808495438e-06,-3.0627388547772506e-06,-8.033096109553951e-07,3.5914157470738893e-06,6.386703331207021e-06,1.5883216277691655e-05,-4.383983586966335e-06,-5.288736458178496e-07,-3.4520152510910477e-06,5.673151331683959e-06,-6.418657208174001e-06,6.568405565899183e-06,-8.786809951099844e-06,4.516481223165123e-06,-5.6128169346322225e-06
-1.3243143646810854e-06,-9.121196285420928e-08,-4.2066956270085324e-07,3.303726382157071e-06,-5.786549765597538e-06,4.157286273894974e-06,3.135533756984585e-07,8.500343883380634e-06,1.7493202371310363e-05,-4.407378112679585e-06,-1.4796044310319751e-06,-9.882540934733353e-07,5.02874312731355e-06,-5.667111148629268e-06,9.274201250783238e-06,-9.779903662705579e-06,4.72879105926968e-06,-4.796827701379295e-06
-1.4068767088866544e-06,-1.513594946526649e-07,-5.095136064228244e-07,3.2900863805664586e-06,-7.444517058054772e-06,8.759061606433522e-06,-3.487849106071606e-06,1.1576329738668064e-05,1.5114669818168952e-05,-4.43344963844772e-06,-2.519372092112131e-06,3.1044797376048205e-07,4.036215277763402e-06,-3.1200860837662807e-06,1.1223778067834241e-05,-1.0068531984075312e-05,3.850325590956702e-06,-4.336207298523181e-06
-1.4678382943143915e-06,-2.1048468820750812e-07,-6.053177234750281e-07,3.310558173174466e-06,-8.233934160178396e-06,1.207658426883941e-05,-8.085711022760361e-06,1.4798723541715487e-05,1.382039586286559e-05,-4.4603577133956134e-06,-3.31105805349692e-06,1.6634106584296146e-06,3.01075747471347e-06,6.938837247658568e-07,1.0551269924209282e-05,-9.436555417315231e-06,1.8124401346845135e-06,-4.145722481442596e-06
-1.517558831325181e-06,-2.589531760381785e-07,-6.922040953965292e-07,3.3747467218720315e-06,-8.635868143093633e-06,1.3429584895663928e-05,-1.3430362501352176e-05,1.7303140355895577e-05,1.3879971087627073e-05,-4.486255695622395e-06,-3.5616418862797416e-06,3.2329647230527967e-06,2.307133458315941e-06,4.866487802805186e-06,9.25023979901717e-06,-7.956417187597834e-06,-8.183846672563029e-07,-3.899480818432411e-06
-1.5467202886597322e-06,-2.8989194022115073e-07,-6.773505854945801e-07,3.515421379935648e-06,-8.877202686056291e-06,1.2731398971376048e-05,-1.7899902358598673e-05,1.8478045621144075e-05,1.2534660113904367e-05,-4.512806815351785e-06,-3.2295728063086675e-06,3.3383560276289693e-06,2.116168108478496e-06,8.419014912189802e-06,4.928590150322344e-06,-6.0195808193960115e-06,-3.793859024182892e-06,-3.2818322900605456e-06
-1.5546900079124425e-06,-2.9298190345499295e-07,-5.590598107042545e-07,3.753472377676518e-06,-9.088499382460851e-06,1.065838220340693e-05,-1.9805160001117188e-05,1.806188798605364e-05,9.769554708808757e-06,-4.539174732067145e-06,-2.3348745668047776e-06,2.217562654245088e-06,2.3877952960220704e-06,1.0645678592147493e-05,3.3476816309564143e-07,-4.176295795605483e-06,-7.1429511537284816e-06,-2.2725380402599398e-06
-1.524828251996355e-06,-2.596139693935916e-07,-3.0145833698932416e-07,3.885152512776861e-06,-9.334699202662358e-06,8.371417375824974e-06,-1.9473457801972978e-05,1.6191745557283667e-05,5.7311586932980364e-06,-4.562658684623199e-06,-9.640340075342902e-07,4.3059655928305995e-07,2.9164846560828307e-06,1.1340343520963228e-05,-3.5990158769059947e-06,-2.9329714121132963e-06,-1.0272233500691065e-05,-1.2161621758610818e-06
-1.4321208520825798e-06,-1.7954365926282354e-07,9.189137913429812e-08,3.951475504641943e-06,-9.434278963763801e-06,6.930001395670399e-06,-1.75738202699932e-05,1.3112810754643921e-05,1.962635528005539e-06,-4.59542309220453e-06,7.44076113756994e-07,-2.3507050232216693e-06,3.5347875038410623e-06,1.0820826454861649e-05,-5.988767746978492e-06,-2.6378223691607026e-06,-1.2707700433724746e-05,-6.01042536069062e-07
-1.2754889040048242e-06,-4.325817931888301e-08,1.901484976005032e-07,3.954352051292876e-06,-9.122006107555783e-06,6.811164931084624e-06,-1.511555389246899e-05,9.142252352738364e-06,-1.078572772274753e-06,-4.600411331207201e-06,2.5375833218456066e-06,-5.2573080539722404e-06,4.268242943639628e-06,9.747772071387263e-06,-6.4700887747354815e-06,-3.3757232073245794e-06,-1.397176492048702e-05,-7.462665193852646e-07
-1.1004182384355608e-06,1.385859251638002e-07,3.0102492402055204e-07,3.928225311078177e-06,-8.185496475356481e-06,7.805401034582682e-06,-1.0618421965323886e-05,4.766508584586392e-06,-3.2153871200276984e-06,-4.578288120845817e-06,4.104309406433113e-06,-8.041260379074687e-06,5.323745363450114e-06,8.809039169669898e-06,-5.177821586092893e-06,-4.8392401672334676e-06,-1.3555790469152853e-05,-1.6157021280851375e-06
-9.442425908794432e-07,3.4293890784170546e-07,5.302564990450328e-07,4.076672919807875e-06,-6.647427762280461e-06,9.278400874247339e-06,-4.334928949680308e-06,1.0238940356831483e-06,-3.1732390645531733e-06,-4.568682993028271e-06,5.1410240857664805e-06,-1.0488509350792621e-05,6.9132645873551956e-06,8.413014665106818e-06,-2.6538780068306036e-06,-6.360600188652016e-06,-1.1323225842954513e-05,-2.846568103254856e-06
-7.990372607103513e-07,4.7522978895207083e-07,6.53779822302538e-07,4.092552732399063e-06,-4.753195476384506e-06,1.0570926109614024e-05,1.8636672761646627e-06,-6.744613298064311e-07,-1.2559266307869846e-06,-4.543115616112839e-06,5.4202316501667304e-06,-1.222165393499918e-05,9.03514163097019e-06,8.564720495829739e-06,2.6795115736009316e-07,-7.202278180382328e-06,-8.19636147867377e-06,-3.972041289798351e-06
-7.171219073017639e-07,4.612298941497638e-07,6.117492153104646e-07,3.956538153322997e-06,-2.9004740641313824e-06,1.1289665958293228e-05,6.030699097174934e-06,6.623058577963092e-07,1.6208436153798605e-06,-4.5123680829669485e-06,4.900385552791506e-06,-1.2865548275426638e-05,1.1374692605165809e-05,9.002839067076235e-06,2.6899399131029286e-06,-6.872973207953555e-06,-4.296353551240427e-06,-4.668707781945485e-06
-6.8738400015301e-07,2.5593655042447e-07,5.903338014393185e-07,3.9565163310684405e-06,-1.1271817507886314e-06,1.1244683885913797e-05,8.150979533185427e-06,3.2231692035377297e-06,4.731151431758972e-06,-4.521761108273482e-06,3.7442707682036925e-06,-1.2143826396837534e-05,1.340693816084821e-05,9.458836417159752e-06,3.989403299982044e-06,-5.204301116956949e-06,7.91364080441072e-07,-4.900829615671922e-06
-7.922927104791756e-07,1.032715131077025e-07,4.496695682135008e-07,3.955768339807642e-06,4.325009848056078e-07,1.0396420629321577e-05,8.070398612188583e-06,6.737701897007384e-06,7.124229276845764e-06,-4.524875158960376e-06,2.25853571089128e-06,-1.0154622016660275e-05,1.4644388144819275e-05,9.796251678861846e-06,4.040039352132781e-06,-2.2641572742054555e-06,6.091929949700086e-06,-4.879092798370144e-06
-1.021899951482616e-06,1.1239233818183555e-07,2.7546664051916826e-07,3.869334662602881e-06,1.6228277244678376e-06,8.974845228122306e-06,6.6019749524500035e-06,1.2541032590684733e-05,8.42836475489188e-06,-4.552349952694848e-06,7.965689053493084e-07,-7.249373976637732e-06,1.4885868119127615e-05,9.9598879672465e-06,3.2055533672754795e-06,1.6445807496533278e-06,1.0790647427777969e-05,-4.889083429171076e-06
-1.0556028731805856e-06,6.685761853077048e-08,1.159296936650143e-07,3.791375776774808e-06,2.331342593050101e-06,7.423227548793233e-06,4.7259827732467435e-06,1.866329968436837e-05,8.477912726847891e-06,-4.645474444908176e-06,-3.4241309924490547e-07,-4.208080494980835e-06,1.4304800309899759e-05,9.885566059234951e-06,2.1048036752657477e-06,5.881938526150982e-06,1.4085977024032677e-05,-5.1373796399841435e-06
-1.0895127483332833e-06,-7.08439958483241e-08,5.669351415658018e-09,3.70386834223401e-06,2.534555905171646e-06,6.317115312868367e-06,3.0278718689978144e-06,2.2275974671658852e-05,7.205264153691554e-06,-4.7892791454987805e-06,-9.738712376661076e-07,-1.7180050640164473e-06,1.3328611379203196e-05,9.53525276249409e-06,1.3196102003218858e-06,9.478405367578419e-06,1.5260282434383375e-05,-5.675573229677383e-06
-1.1683146499952425e-06,-3.1811582294425473e-07,-1.57990527825798e-07,3.4676891853657004e-06,2.292700528868112e-06,6.234210668657022e-06,1.8910686559280903e-06,2.32169156585193e-05,4.757792310629199e-06,-4.912313569785933e-06,-1.0424766017637481e-06,-2.751256901257194e-07,1.2400292267177616e-05,9.043480333302068e-06,1.2332458257187104e-06,1.1377909813413138e-05,1.4546243800606401e-05,-6.407946117234765e-06
-1.2663657331408086e-06,-5.337094944874958e-07,-3.349047600815523e-07,3.425160750133281e-06,1.7268875548478676e-06,7.412373559938576e-06,1.3207839989367393e-06,2.1695377112993585e-05,1.4744239619751755e-06,-4.9286756873016694e-06,-6.214590145455484e-07,-2.467572910903998e-07,1.175330438505801e-05,8.786218121293808e-06,1.978283100333162e-06,1.082905584937738e-05,1.3337299976705552e-05,-7.15318942946159e-06
-1.2366383367015757e-06,-5.628581177059056e-07,-5.201093969263509e-07,3.389957757748686e-06,9.125644501598143e-07,9.300270944363136e-06,1.1085183510957908e-06,1.772199141491494e-05,-2.132242789149037e-06,-4.729353598800849e-06,1.1362284000610469e-07,-1.6608326088269455e-06,1.1313001196648607e-05,9.241513984218009e-06,3.453639938378975e-06,7.749368394277005e-06,1.2343377848742143e-05,-7.688448127219001e-06
-1.0863388613087383e-06,-4.996696823812292e-07,-5.985501979559757e-07,3.2423885091667658e-06,-7.747034466480492e-08,1.1399522410878602e-05,8.908745561415801e-07,1.2532830633018948e-05,-5.43087291445185e-06,-4.402540742322763e-06,9.258234820051247e-07,-4.198471550002676e-06,1.0805943527421189e-05,1.0730553186799942e-05,5.37034749357342e-06,2.86179896519002e-06,1.1380050810489157e-05,-7.747402855916487e-06
-9.435315057735358e-07,-3.827764161560575e-07,-5.495151281207717e-07,3.036173255395528e-06,-1.2931936404710087e-06,1.2788028923682046e-05,3.4819300440063254e-07,7.072147838270281e-06,-7.747200661664858e-06,-4.123028266508915e-06,1.567353331921781e-06,-7.1649053291005665e-06,9.989059358604612e-06,1.3214050592172964e-05,7.343038612865605e-06,-2.5767266328722045e-06,1.0604480120671997e-05,-7.077428232547923e-06
-8.869209858373014e-07,-4.0305125791591124e-07,-5.881783566084036e-07,2.9300614756780658e-06,-2.5014867856440634e-06,1.217859796068311e-05,-6.618105910385956e-07,2.1755935528103326e-06,-8.480572401344873e-06,-3.8645733623094465e-06,1.837182055843512e-06,-9.66484152870699e-06,8.788412729217849e-06,1.6228101322408283e-05,8.973747820160604e-06,-7.364280936201756e-06,9.551521123574064e-06,-5.578023682257925e-06
-8.235136933309156e-07,-3.4106002919433494e-07,-6.413861242419081e-07,2.8098062037601997e-06,-3.1685674945913756e-06,1.17814279787705e-05,-1.9951106831199844e-06,-1.3570572673289183e-06,-7.2808140236868094e-06,-3.7432349192429758e-06,1.642571010847914e-06,-1.1088432738675424e-05,7.242328438707547e-06,1.8947972152576762e-05,9.924250368761566e-06,-1.0822912251682461e-05,7.821800193807137e-06,-3.4073498129227664e-06
-7.522149903567716e-07,-1.8342920024078294e-07,-6.702256019912716e-07,2.5898991400620505e-06,-2.6546406152917165e-06,1.101045918129384e-05,-3.2823492197863856e-06,-3.270121786633763e-06,-4.212285481152071e-06,-3.5749145446108493e-06,1.0407931638958897e-06,-1.134380798034305e-05,5.372272156246066e-06,2.038683181912697e-05,9.99827230202917e-06,-1.281717569393461e-05,5.646390647904838e-06,-9.344033427859284e-07
-5.414032179135873e-07,5.095012120963444e-08,-6.793258802355618e-07,2.5799354718855565e-06,-2.3977377698114364e-07,7.666532297282452e-06,-4.142906640834969e-06,-3.492533486066562e-06,2.1491252847204592e-07,-3.2981742594643426e-06,2.2744826079280492e-07,-1.0643855260488884e-05,3.1794891956841943e-06,1.9759940012583054e-05,9.178289711904102e-06,-1.3469181953920658e-05,3.452026285693701e-06,1.399978991690214e-06
-2.3150040423957545e-07,3.177138909925708e-07,-6.780955899952342e-07,2.570871302757116e-06,3.97026553513376e-06,3.7036136862279064e-06,-4.397616787208664e-06,-1.987099414808385e-06,5.19465190118507e-06,-2.90964480650452e-06,-5.449425661679924e-07,-9.127793181940202e-06,7.762904223817966e-07,1.6870464776434014e-05,7.608555825784508e-06,-1.2931555568648778e-05,1.6260083250035489e-06,3.294417221382454e-06
6.814769119309019e-08,5.849625287762601e-07,-6.006563391128438e-07,2.4511975726813584e-06,9.420359587738923e-06,1.0272380554899452e-06,-4.131217049314165e-06,1.126322389636158e-06,9.875833762075344e-06,-2.5744667461793964e-06,-1.072638198944452e-06,-6.767205696314834e-06,-1.5337960981926124e-06,1.2215551201133396e-05,5.5385553929212286e-06,-1.138873594533952e-05,5.35828711970026e-07,4.491659668904339e-06
3.432476896799562e-07,8.485998111728259e-07,-4.997127263497563e-07,2.506957480776623e-06,1.3927044634236447e-05,-8.40255972689003e-07,-3.5541473442215082e-06,5.3796823428810464e-06,1.3566523861883348e-05,-2.254444963943374e-06,-1.252225574183099e-06,-3.5459808250487974e-06,-3.3639052765462814e-06,6.728925694671489e-06,3.244387678703411e-06,-9.193919394873476e-06,2.3333453606684432e-07,4.9037665625060175e-06
5.859560520417496e-07,1.0454927030880515e-06,-3.6666920764168275e-07,2.608724588834541e-06,1.473609639020845e-05,-2.4166209398446178e-06,-2.8160871961375066e-06,9.880183481666479e-06,1.5824464004233273e-05,-1.904320045127911e-06,-1.0470030336012875e-06,2.619058614154854e-07,-4.453898214323453e-06,1.4187707437643762e-06,9.69979524633367e-07,-6.901107327556596e-06,1.732865806929006e-07,4.8721390659296196e-06
7.702004044154467e-07,1.1934756211815434e-06,-1.389273868083035e-07,2.7534760889328667e-06,1.284834378744607e-05,-3.169184655950394e-06,-1.9371295194773387e-06,1.3555952851870216e-05,1.647568935067718e-05,-1.5898568091123826e-06,-4.589139401889713e-07,3.973953833306731e-06,-4.7973367434676645e-06,-2.83559554895043e-06,-1.0433481933760797e-06,-5.03992667089195e-06,-1.9262009590589603e-07,4.9112383986179235e-06
9.248237823568969e-07,1.3330112661319844e-06,8.817683558197219e-08,2.935543798012705e-06,1.1342808643725337e-05,-2.771677782008007e-06,-8.903112705179833e-07,1.55750636406306e-05,1.5597175066906328e-05,-1.2643587400167094e-06,4.345524246907196e-07,6.772148636719834e-06,-4.535517088519977e-06,-5.325682447942818e-06,-2.5318455094249703e-06,-3.8032245882847218e-06,-1.205150804676209e-06,5.535068685095187e-06
1.0824464584985312e-06,1.4709854148307091e-06,2.901075975187329e-07,3.1282226409200907e-06,9.314834068444949e-06,-1.8653088165808075e-06,2.359429156716379e-07,1.5651345725141576e-05,1.3494129782044666e-05,-8.940505305571432e-07,1.443614159748413e-06,7.978865453569021e-06,-3.7678414508226155e-06,-5.559644845724822e-06,-3.2830163131470995e-06,-2.964207481022091e-06,-2.91832648951491e-06,7.019756380038396e-06
1.2488997177697934e-06,1.6139275589698111e-06,5.569211285536359e-07,3.278765913413614e-06,3.2742169530580085e-06,-1.453281486209717e-06,1.1579831010352609e-06,1.4140950231374787e-05,1.0697565550014808e-05,-5.205020037537467e-07,2.302449977825501e-06,7.428562273080361e-06,-2.4272954151760952e-06,-3.3882945462026464e-06,-3.2495312849922076e-06,-2.076117115383383e-06,-4.978359158555528e-06,9.009979568579358e-06
1.4275610530811019e-06,1.7277388902015987e-06,7.787800689946019e-07,3.310508450852753e-06,-3.0954120636235305e-06,-1.0030887625254157e-06,1.5371345601146324e-06,1.194315989499844e-05,7.902755986644463e-06,-1.4256035702848614e-07,2.761892578859666e-06,5.491397258521426e-06,-3.552677967060556e-07,8.235846943349285e-07,-2.5265508845996784e-06,-7.427112129936225e-07,-6.78684106529703e-06,1.017174475493436e-05
1.5521542250227784e-06,1.775860277502055e-06,8.743226685060952e-07,3.407012807742467e-06,-4.673229045821127e-06,1.1357295948059285e-07,1.2176400681416024e-06,1.0149124791970842e-05,5.770511424167549e-06,1.9393784858213274e-07,2.6704451041670764e-06,2.798045448886365e-06,2.47272937594265e-06,6.243985713298488e-06,-1.2051992942457637e-06,1.1884247139826218e-06,-7.702399683181722e-06,9.934726883380941e-06
1.616573096301028e-06,1.7413410183752497e-06,1.0028432232378061e-06,3.530282296911244e-06,-5.596999582023233e-06,2.195997485996657e-06,2.8033874672021553e-07,9.475004592855278e-06,4.690432407561838e-06,3.728008426903284e-07,2.0068185687028557e-06,-8.132471495023072e-08,5.785174383385171e-06,1.1736656054095505e-05,6.930164976650501e-07,3.518830095343297e-06,-7.256389986743598e-06,6.584221865334884e-06
1.6244447834115415e-06,1.6269733064696639e-06,1.1255821066302556e-06,3.65531125857149e-06,-6.139787443333568e-06,5.247395301024487e-06,-1.124095485273828e-06,9.796585620775e-06,4.676154447176056e-06,3.922579123151647e-07,8.625975690138015e-07,-2.630234997553968e-06,9.10025258124762e-06,1.614319054762833e-05,3.1199104252469232e-06,5.714614317590664e-06,-5.338220628329026e-06,2.1407901097631846e-06
1.5622780175665757e-06,1.45376379004113e-06,1.0832570446340597e-06,3.6678455728501775e-06,-5.3827684460754135e-06,8.730872635847797e-06,-2.897636537557508e-06,1.0162136648496877e-05,5.455165749028049e-06,2.677902753567459e-07,-5.900404863983522e-07,-4.915971782409672e-06,1.1933879291922726e-05,1.8653914742421206e-05,5.777674268047035e-06,7.1029768249579055e-06,-2.2541823382315064e-06,-4.754276450539121e-07
1.4618232067244523e-06,1.2517596684949485e-06,8.987584467555953e-07,3.563370311384902e-06,-3.646694585487308e-06,1.1653424695259654e-05,-4.909505487227014e-06,9.363494610430964e-06,6.6681090336951496e-06,1.2216086088140192e-07,-2.115039344415238e-06,-6.8781002920251874e-06,1.3950256926657048e-05,1.9077949784481255e-05,8.067488621534742e-06,7.177091796010799e-06,1.3934241854349989e-06,-4.790975599509556e-06
