0,1,2,3,4,5,6,7,8,9,10,11,12,13,14,15,16,17
7.567152395444442e-07,-1.1747390318372137e-07,-3.3451261991044826e-07,-2.93272483076951e-07,3.541272656944073e-07,4.5039892949157365e-07,-3.3694574612440715e-07,-2.6210600540075953e-07,-3.8498872730060347e-07,5.881951395290795e-07,2.3051676871411564e-07,-5.106947277250475e-07,-6.021994182304804e-08,-5.660290849025242e-07,-1.1533149135300998e-07,-3.201248731690409e-07,-1.7139255355748791e-07,5.5964774811510595e-09
5.972093073550715e-07,-1.0249018627901292e-07,-3.243098970786431e-07,-2.1590389379309294e-07,2.755762861800156e-07,4.1017114547504016e-07,-3.387303941064147e-07,-1.9500545704124006e-07,-3.770871749959467e-07,5.29319372210848e-07,1.5978240871028267e-07,-4.0984422082290074e-07,-4.563802684551709e-08,-4.3407109366920946e-07,-1.1465317804917015e-07,-2.8509206194454077e-07,-1.337033546206765e-07,1.4335700141216407e-10
5.045896530007529e-07,-8.133742466808886e-08,-3.595245527288018e-07,-1.583424212669666e-07,1.6445984086614633e-07,3.380023663564356e-07,-3.3449468341044296e-07,-1.447413590031163e-07,-3.5867426025905324e-07,4.431238889279712e-07,1.2992135006194915e-07,-3.3187485864710195e-07,-2.854630751429826e-08,-3.7233632511302984e-07,-1.0270120165641324e-07,-2.5433053291908713e-07,-1.0720481007547602e-07,-7.429010132163308e-09
4.1646553386034695e-07,-9.456671320712959e-08,-3.921354537547381e-07,-1.1746816278613976e-07,4.2303403235161503e-08,2.2814573799947133e-07,-3.1950489770330993e-07,-9.611130371583394e-08,-3.231671052097909e-07,3.790532764878913e-07,1.0393317634722087e-07,-2.553171490581567e-07,-1.2403802520958832e-08,-3.1649401493142924e-07,-7.625117618160886e-08,-2.0575207967710471e-07,-7.634471413550919e-08,1.1405626763264442e-08
3.3536685568289193e-07,-1.3781990687028938e-07,-3.7635150637550777e-07,-7.804478385987668e-08,-6.24346315609899e-08,8.69102450642724e-08,-2.8820449751067644e-07,-5.8832726776884954e-08,-2.3199644743946636e-07,2.91305466839358e-07,6.844461718551103e-08,-1.74706394971497e-07,-9.5927847859235e-09,-1.8439362820610655e-07,-5.095579189469857e-08,-1.1652038187432837e-07,-3.0486938924730764e-08,1.8589469736260244e-09
2.4358466160410796e-07,-1.3099771034652515e-07,-3.188511968223823e-07,-2.4758535501110407e-08,-1.2828172604883896e-07,-7.207952635579171e-08,-2.3522285315556013e-07,-1.419572978620325e-08,-1.5503503254909802e-07,1.272003521035154e-07,3.109234719991554e-08,-1.163837249051452e-07,-9.811396446401122e-09,-2.3611371774199133e-08,-6.645155038949098e-08,-5.814657733902409e-08,-7.787012988400899e-10,-9.66476207881595e-10
1.1938893187131987e-07,-1.1513612689280834e-07,-2.3057174407621344e-07,2.6525808024178185e-08,-1.4388758696804757e-07,-2.0672945752781216e-07,-1.5784011131368554e-07,-4.1395533147295994e-09,-8.2134431774684e-08,-2.1867501242073345e-08,5.602842254786647e-09,-5.0717909497865246e-08,2.96017933028445e-08,6.284408006665123e-08,-5.474092731046407e-08,-7.875487966562338e-08,3.0375349333896577e-09,1.0374586953806287e-08
-5.303957102039098e-08,-1.0098594590718596e-07,-1.4738226200875121e-07,5.2673879880831994e-08,-1.1976347012489474e-07,-2.6154166778155096e-07,-5.8663353974565415e-08,4.691311394667468e-08,-2.678821772015425e-08,-8.66191857090431e-08,-1.1506917454439809e-08,3.291654664469774e-08,5.1634825395425975e-08,6.92879314033647e-08,-3.16431160686771e-08,-4.780421899753084e-08,1.4333436261193111e-08,1.3311553426443423e-08
-1.7653471708682624e-07,-6.451700100747731e-08,-7.189475480052669e-08,6.601879675804878e-08,-7.783646323333211e-08,-2.55409964586373e-07,5.3357337360977514e-08,8.122711210258697e-08,2.665347673578462e-08,-1.1497426441086359e-07,-5.0700031748587606e-08,1.0535638317308792e-07,2.8832369957127793e-08,1.1393999810011648e-07,-2.373762332276747e-08,-1.371497583947019e-08,1.1082821173205036e-08,1.7501751846493536e-08
-2.24069289169355e-07,-3.577236236659517e-08,6.775584763257293e-09,8.71407552383527e-08,-1.7724636578627964e-08,-2.2846484160815532e-07,1.6378633709921436e-07,5.930498250999491e-08,8.658234675872091e-08,-1.793820156723988e-07,-7.399011466315144e-08,1.4086405440699226e-07,5.936927546939797e-09,1.4106370941835762e-07,2.2955183923074124e-08,3.23394743647482e-08,3.520718278102722e-08,2.022325389543241e-08
-2.948267092481127e-07,9.452864884424246e-09,1.4688396124514489e-07,8.372228281488702e-08,5.874586158591195e-09,-2.1956366190990585e-07,2.5578975008633096e-07,4.9478619600220315e-08,1.896294060566934e-07,-2.3394881536409948e-07,-9.140931506914478e-08,1.8203013511123007e-07,1.3819165937597858e-08,1.8480606342317693e-07,6.595247759088475e-08,1.1649879889101307e-07,6.133821562908727e-08,9.217117373477893e-09
-3.523288175837509e-07,6.525524777991406e-08,2.9092435643358477e-07,7.827853067676958e-08,-3.0394503511633125e-08,-2.195950933148329e-07,3.1600498829555824e-07,7.046028022994374e-08,2.387712319139816e-07,-3.289715433799962e-07,-9.97244693003374e-08,2.0934829522649215e-07,3.3702353496422455e-09,2.577520886566001e-07,8.85072116339665e-08,1.7060951564670108e-07,6.10078848032444e-08,-8.525864494013242e-09
-3.834331103936818e-07,1.2210976040395584e-07,3.8311384308143106e-07,1.1754685337526292e-07,-6.357772717203017e-08,-1.9036191712203874e-07,3.404241740481198e-07,8.567324842877658e-08,3.037037693636144e-07,-3.9092066444390756e-07,-1.0618619179310821e-07,2.206244778263432e-07,-1.1279776017880985e-08,2.797675249954905e-07,1.0646713021041806e-07,2.1856717438068397e-07,6.150111455130244e-08,-3.5248037231279356e-09
-4.4959329586643586e-07,1.886058714246606e-07,4.6056111360494744e-07,1.382954963223877e-07,-7.780606292266843e-08,-1.001592020550251e-07,3.356078975984135e-07,1.0648663763237645e-07,3.148248776595483e-07,-4.231343596442174e-07,-1.0229428259224667e-07,2.78124870971445e-07,-1.3636411139239735e-08,2.930398590866839e-07,1.259635004419566e-07,2.5090597739971885e-07,6.951214705146366e-08,-2.2665867899084994e-09
-5.14428746405587e-07,2.5847765781213847e-07,5.753000648637352e-07,1.251812009429448e-07,-7.566032551713812e-08,4.7100008512450454e-08,3.1446331016743566e-07,1.2877721892129316e-07,3.5781771912127515e-07,-3.305862515467004e-07,-9.302124449318534e-08,3.2313072458656533e-07,2.1457122904383878e-08,2.6031169570887567e-07,1.229882474224875e-07,2.732138091682762e-07,9.753942614272028e-08,-2.014852698425258e-08
-5.250659261447937e-07,3.3719587842374407e-07,6.919750635639121e-07,1.1240667625047505e-07,-4.497424849612008e-08,1.931768993622388e-07,2.901727426430136e-07,1.4681092166690041e-07,4.218885696391788e-07,-2.4779289468536203e-07,-1.004609433595807e-07,3.571434976808607e-07,3.647600669930509e-08,2.341225677371812e-07,1.0363230500351294e-07,3.181058315746094e-07,1.0535130928608719e-07,-4.677140338376061e-08
-5.022284694748051e-07,3.5929767290680094e-07,7.923713831357792e-07,1.1545784387763986e-07,2.171191587883783e-08,3.317691744764473e-07,2.7181377331506007e-07,1.4115589679558122e-07,4.750626753510819e-07,-1.838782491521571e-07,-1.1567295823234443e-07,3.7713885008714366e-07,1.601268828288254e-08,2.0010091782021987e-07,8.323721837939981e-08,3.93679957760797e-07,9.513878645781467e-08,-7.576954882177818e-08
-4.855241408074524e-07,3.6064416859804074e-07,8.285495687597763e-07,9.781884450227963e-08,1.18346374703163e-07,4.3386773738128675e-07,2.6316869654124455e-07,1.2375558267199942e-07,5.465455583216214e-07,-1.1904151236025134e-07,-1.3901291832413836e-07,3.7933784435406493e-07,-2.6511576352439547e-08,1.78506898769042e-07,4.833317966724048e-08,4.416927734567423e-07,8.599226600025269e-08,-7.73766635621289e-08
-4.7338195308920545e-07,4.066379059971045e-07,8.637091634945172e-07,8.539705983775045e-08,2.355326279117274e-07,5.010865494171273e-07,2.6426213894974187e-07,1.4297310009684158e-07,6.167380174288573e-07,-7.105442420134206e-08,-1.6045491971657816e-07,3.727591190247033e-07,-8.848592963840976e-08,1.8272634014951935e-07,2.2395554179497724e-08,4.6203855978728874e-07,8.144106655130121e-08,-5.705163032193142e-08
-4.1569979229704163e-07,4.7348621912027136e-07,8.435926520194588e-07,7.160028424416683e-08,3.628664995042872e-07,5.498385272476685e-07,2.734995375686555e-07,1.1399825995056147e-07,6.70720028315924e-07,3.2614719035352764e-08,-1.528171630118196e-07,3.7518388954765924e-07,-1.693453327764528e-07,1.795804119392604e-07,1.3419935323952859e-08,4.6235481913209745e-07,7.719420078699282e-08,-5.117407286384338e-08
-3.7465765683972074e-07,5.544225977965647e-07,7.838871731370128e-07,5.1700782546327355e-08,4.906963296906831e-07,5.860943621869161e-07,2.8876318163594265e-07,1.1938881852839108e-07,6.987361813061665e-07,1.487430405691046e-07,-1.410918690125758e-07,3.42100056160331e-07,-2.1953672788736792e-07,1.8566564786157323e-07,1.2586321229324275e-08,4.3538064135752696e-07,7.280348166374184e-08,-3.938418770577233e-08
-3.1559500910144373e-07,6.270075543014226e-07,7.472655096428147e-07,5.196400263273611e-08,6.091142557536657e-07,6.225541244305128e-07,3.078951566579638e-07,1.1709847199366099e-07,7.290846044613416e-07,2.78412752645449e-07,-1.54061738606762e-07,3.1153208078635554e-07,-2.5694469280472444e-07,1.8997354804893741e-07,2.4172117620437195e-08,3.919269520725962e-07,6.607562019013027e-08,-3.323042030781831e-08
-2.3303376991443054e-07,6.973452856929747e-07,7.130608525732621e-07,5.413212947097135e-08,7.116985926643507e-07,6.578757891422457e-07,3.2910845393449054e-07,1.0108935599109155e-07,7.565014898815363e-07,4.1803668578892114e-07,-1.4460858630566076e-07,3.009024704982897e-07,-2.851254658391212e-07,1.8694132740774522e-07,4.67236887543313e-08,3.4194306222889095e-07,5.823661069486841e-08,-3.780384678064638e-08
-1.5927948577116338e-07,7.720936617225883e-07,6.923048604175834e-07,5.036438837604109e-08,7.945359310521702e-07,6.887961975223383e-07,3.508903524924621e-07,7.748354750466597e-08,7.42824786319766e-07,5.461355205691982e-07,-1.4388794504861536e-07,2.936923558467795e-07,-3.44960738374004e-07,1.8613792611150772e-07,6.83075350692546e-08,2.8199201042358194e-07,5.443148441281445e-08,-5.828167291278901e-08
-7.492549085035368e-08,8.257871404287452e-07,6.823884989417879e-07,4.345461289895716e-08,8.578109648264165e-07,7.140248238325177e-07,3.7175788208699667e-07,4.037866467718407e-08,7.623446936315178e-07,6.716191293655903e-07,-1.0679028428822264e-07,3.0753446680944343e-07,-4.0845228079346573e-07,2.0552111903845234e-07,6.329716934686176e-08,2.3573787205857919e-07,5.931889846654342e-08,-8.063481504635462e-08
5.1663490213739005e-09,8.667700749299558e-07,6.690808608222321e-07,2.1420518458880644e-08,9.046718184138688e-07,7.3195170420499e-07,3.90609199375505e-07,6.709326765500348e-08,8.265116516567505e-07,7.887070129129431e-07,-8.312678079666789e-08,3.315330340478747e-07,-4.0769868645376024e-07,2.2285854708750297e-07,5.4288191201899906e-08,2.0700055358785853e-07,6.457085815656043e-08,-9.78178364106161e-08
7.436224299983887e-08,8.965816836789993e-07,6.602358532903581e-07,-1.653820656174618e-08,9.400295212773979e-07,7.425444041066008e-07,4.071163327628732e-07,6.00515557291359e-08,8.76805233120965e-07,8.630492504064604e-07,-9.996541515396148e-08,3.56974526704858e-07,-3.832418750061581e-07,2.4144681332935226e-07,4.22393290230749e-08,1.8868221270899352e-07,6.931988225101963e-08,-1.0904894765919612e-07
1.0196420267407654e-07,9.179277488092392e-07,6.661371750177834e-07,-6.513041925265107e-08,9.705722632067484e-07,7.477946377509176e-07,4.216438135312297e-07,3.7190394267167245e-08,9.056373643226254e-07,9.073955614443863e-07,-1.0716293343693587e-07,3.818622742662731e-07,-3.728156987833255e-07,2.6425616902866136e-07,3.567436158040097e-08,1.811670858242325e-07,7.591183524787459e-08,-1.0615384913648752e-07
1.222107530466979e-07,9.377890532842775e-07,6.792325058328408e-07,-1.0564731943249975e-07,1.0020767793981079e-06,7.516400015170507e-07,4.3510932721077857e-07,1.1038627086100708e-08,9.250765263532551e-07,9.611663266924929e-07,-1.0878623266393275e-07,4.2407088717426596e-07,-3.643907786176639e-07,2.8205145051301533e-07,4.0494845999692914e-08,1.802509809315186e-07,8.05135731746535e-08,-9.976490829867965e-08
1.3466999155159182e-07,9.618175640270009e-07,6.967414554859783e-07,-1.4173399610990007e-07,1.0380683680499884e-06,7.586728521854198e-07,4.4865381067390935e-07,-2.3333569850019123e-08,9.279005784516577e-07,1.0139676830266554e-06,-1.0938054233064667e-07,4.7416224327940355e-07,-3.440028970900176e-07,2.989552245623163e-07,4.3701322012448346e-08,1.876758508296302e-07,8.427721906039655e-08,-9.540165945032893e-08
1.3966096165328503e-07,9.868305122346435e-07,7.174117005675048e-07,-1.6784627143173945e-07,1.0789980073962003e-06,7.719580664378583e-07,4.629119683458367e-07,-4.2049150390172145e-08,9.314702659598721e-07,1.054365992713787e-06,-8.137334423566124e-08,5.270616768406777e-07,-3.5811872784108473e-07,3.13296490603308e-07,4.3287765159417985e-08,2.0262084431550833e-07,8.664048432097905e-08,-9.43283074844828e-08
1.530008945324335e-07,1.0104883546173072e-06,7.362353782695106e-07,-1.9368747576807125e-07,1.1225267843340431e-06,7.919479340853251e-07,4.777232316687151e-07,-8.47076811299857e-08,9.508824130129585e-07,1.0936802386225058e-06,-5.748971087296256e-08,5.691566989125543e-07,-3.903001537344946e-07,3.2398890107068116e-07,3.342278208520818e-08,2.1084071966190348e-07,9.021081261718478e-08,-9.730070194870687e-08
1.6422724491667757e-07,1.0319279169753545e-06,7.524622587839318e-07,-2.1908299951693092e-07,1.1655506588497376e-06,8.167686845282418e-07,4.923835026087871e-07,-1.5423657805202207e-07,9.720154481503548e-07,1.1226076735307443e-06,-3.98505800370207e-08,5.980711620908905e-07,-4.265743440520605e-07,3.264533197453077e-07,3.336327974854373e-08,2.2179921080205087e-07,9.231920013158956e-08,-1.0003010704782522e-07
1.7495002367527297e-07,1.0483383425134849e-06,7.650083163194666e-07,-2.433379456942153e-07,1.2031829111752297e-06,8.426329085878615e-07,5.054262322846277e-07,-2.1746624994177348e-07,9.956678116463948e-07,1.1408760739439262e-06,-1.817784881959347e-08,6.186140148010361e-07,-4.720396078951638e-07,3.226960128298303e-07,3.476162028778307e-08,2.291017018690418e-07,9.480184168602801e-08,-1.0380498644974543e-07
1.8502003994725397e-07,1.0598812130701747e-06,7.730689146088249e-07,-2.779932315992721e-07,1.2301347621121279e-06,8.649285578787621e-07,5.144895682047097e-07,-2.502285126360759e-07,1.0241601956041816e-06,1.15445374337845e-06,-1.1175151217118537e-08,6.295792977387349e-07,-5.079902949743299e-07,3.1317314021832147e-07,3.3664486232126275e-08,2.3006180320131555e-07,9.664366328709964e-08,-1.0965966478725221e-07
1.938294179515219e-07,1.064291803193904e-06,7.775644730773582e-07,-3.140822223160908e-07,1.2430371131686574e-06,8.805615463240054e-07,5.176449168951443e-07,-2.6228103148988354e-07,1.0387954810587205e-06,1.164537425904343e-06,-1.52040255199342e-08,6.327382340554897e-07,-5.491902912783854e-07,2.97020557168456e-07,2.5674849534288668e-08,2.263735353811573e-07,1.0036306744910205e-07,-1.0602261090090179e-07
1.920402308608391e-07,1.0609494690614851e-06,7.809969243507761e-07,-3.6415229402774885e-07,1.2429644954904304e-06,8.893447591230508e-07,5.150308497504097e-07,-2.61831804441988e-07,1.0446456666443e-06,1.1804172817989923e-06,-2.619983136077291e-08,6.348283975821907e-07,-5.995909051284055e-07,2.8019894802048695e-07,1.544402158401393e-08,2.175429378708433e-07,1.0519699160480572e-07,-1.0321947686525363e-07
1.7859327477794527e-07,1.0511051227049262e-06,7.867482631744727e-07,-4.2581231995036416e-07,1.2348512424843417e-06,8.930384232798804e-07,5.08734363846296e-07,-2.514109098436069e-07,1.0460544252091915e-06,1.1891720624936458e-06,-4.5176258337340576e-08,6.330159030839105e-07,-6.561968844977836e-07,2.608880833220744e-07,6.781043032329378e-09,2.1756297713663816e-07,1.0955631756697904e-07,-1.0225683671947325e-07
1.589200429322248e-07,1.0359837764449573e-06,7.97933564366983e-07,-4.807602664183009e-07,1.22416044556855e-06,8.941954918637122e-07,5.016597483315486e-07,-2.4702607133613105e-07,1.045123804279656e-06,1.2006574375130774e-06,-6.966288398496568e-08,6.202653884474712e-07,-7.21522483530158e-07,2.419142399841005e-07,-3.106501735056031e-10,2.243697366235065e-07,1.1308998465253e-07,-9.614786141297684e-08
1.2918478552288926e-07,1.017944651660145e-06,8.166738665223103e-07,-5.284823992890778e-07,1.216328325719729e-06,8.961425491077979e-07,4.970231354177907e-07,-2.389268135968029e-07,1.0445910339008895e-06,1.2218863302768022e-06,-9.288658465899203e-08,6.044741667593592e-07,-7.904254680115598e-07,2.2494063440716662e-07,-2.945678003557223e-11,2.415856823943062e-07,1.1671647777793585e-07,-8.582651382518344e-08
9.2282901988687e-08,9.995330423029474e-07,8.435491374712626e-07,-5.660766798008268e-07,1.2154864032738362e-06,9.022635768965666e-07,4.97760648557521e-07,-2.1081298385514412e-07,1.0488206446484107e-06,1.255455783966251e-06,-1.0943198248054787e-07,5.867917108313959e-07,-8.623539914507217e-07,2.0958352700761574e-07,3.0363916611762273e-09,2.681409065391011e-07,1.2335852764455175e-07,-6.749446537180281e-08
5.420132041771162e-08,9.822115544883184e-07,8.766255434860403e-07,-5.898995004688479e-07,1.2226755039006452e-06,9.141845057589576e-07,5.050939092735756e-07,-1.9598849801776435e-07,1.0574155661953154e-06,1.3091620573824851e-06,-1.1880826909789952e-07,5.701893266586864e-07,-9.375235976651069e-07,1.9728871598997718e-07,1.0113933411833906e-08,3.0610774658257037e-07,1.3604340641348648e-07,-4.0363094179499965e-08
2.0650032541634133e-08,9.675598299658142e-07,9.112163734044284e-07,-6.007310879180965e-07,1.235454175229516e-06,9.31390587692482e-07,5.179429261230576e-07,-1.729417030953162e-07,1.0782040902729304e-06,1.3875166068891861e-06,-1.155834840006664e-07,5.585222156235551e-07,-1.0069285413227387e-06,1.858895466966191e-07,2.0630361593604904e-08,3.5271216947084626e-07,1.5515580781896082e-07,-7.015990005475729e-09
1.742025914712787e-09,9.563917836749334e-07,9.411896885049691e-07,-6.007064977230481e-07,1.25051308275111e-06,9.526240376480457e-07,5.341411747358354e-07,-1.4408153286933543e-07,1.1076561021024256e-06,1.4789671303983242e-06,-9.882967797281701e-08,5.536276762654643e-07,-1.0690827053227754e-06,1.7455837358814982e-07,3.359074805260134e-08,4.029453487742766e-07,1.7849497347109497e-07,2.733433454379353e-08
3.804075758940812e-09,9.49512380426642e-07,9.603011146309108e-07,-5.890760027811348e-07,1.2656686078933112e-06,9.76253852311616e-07,5.514517669938734e-07,-1.2613417376473875e-07,1.1358426389563134e-06,1.567543472016781e-06,-6.92053915254728e-08,5.489440124570329e-07,-1.124867984437408e-06,1.6320094707779963e-07,4.416949200880537e-08,4.5173252429374974e-07,2.0474578517638425e-07,6.162200146565874e-08
3.0780944678360416e-08,9.479588642402153e-07,9.628974082243878e-07,-5.693980080990637e-07,1.2789645847261592e-06,9.993402945882698e-07,5.672858093183575e-07,-1.1236231553048886e-07,1.1568025122071532e-06,1.6484801727794476e-06,-2.6308164792419637e-08,5.494072067815693e-07,-1.1729223397472445e-06,1.5358405933255907e-07,4.859072271650214e-08,4.84411165229455e-07,2.3231447905729735e-07,9.246755575463013e-08
8.260814232539327e-08,9.519103511808997e-07,9.439914508010773e-07,-5.502636117151083e-07,1.2889716451205877e-06,1.0182649349115706e-06,5.790146057443827e-07,-1.0850879231608604e-07,1.160457917514274e-06,1.7146722834048502e-06,2.6142691820698496e-08,5.600772005397231e-07,-1.211141977349567e-06,1.4674433973440442e-07,4.5707260073504874e-08,4.993561308590267e-07,2.602602850753755e-07,1.1534900979435098e-07
1.5730933030859298e-07,9.62008879923003e-07,9.029444730009204e-07,-5.313305840208604e-07,1.296731236513598e-06,1.0308649843256547e-06,5.855057520151202e-07,-1.1657520621932195e-07,1.1452198134721836e-06,1.7573108904915104e-06,8.692330069188705e-08,5.852804333731221e-07,-1.2385052216903213e-06,1.4529871712799437e-07,3.560778478455182e-08,5.018715518964757e-07,2.890328553783213e-07,1.3032001552201107e-07
2.519413045137837e-07,9.788072641023643e-07,8.442879340554896e-07,-5.167757884640268e-07,1.3053812763326371e-06,1.0369832690166342e-06,5.874944538566728e-07,-1.3668700468548394e-07,1.1163940940460777e-06,1.7783418410623933e-06,1.4323153653986477e-07,6.257090072503114e-07,-1.2537388534875987e-06,1.519335254875893e-07,2.180713387399407e-08,4.885739652432343e-07,3.172280936039321e-07,1.38674847736459e-07
3.5453483233646906e-07,1.0016873024076757e-06,7.741924740318209e-07,-5.09398325008376e-07,1.3166602100760571e-06,1.0370851170914157e-06,5.860603812889263e-07,-1.5862494489475792e-07,1.0776624034093363e-06,1.782701213787756e-06,1.980141944849411e-07,6.750600610243311e-07,-1.253592033038826e-06,1.6643875874868538e-07,8.589441632564744e-09,4.6885663444464073e-07,3.4443518674750323e-07,1.4224292467652553e-07
4.5558582418406175e-07,1.0281381159391976e-06,7.000576701706969e-07,-5.084239445739463e-07,1.3296634286231895e-06,1.0317444047128813e-06,5.817415670700303e-07,-1.8846538817258851e-07,1.0316904065407885e-06,1.7753941266839614e-06,2.521165895768779e-07,7.319844046605798e-07,-1.245387813150691e-06,1.827987931496088e-07,-2.134941659943999e-09,4.407244288695537e-07,3.70134564573987e-07,1.4392298439691875e-07
5.4784459596442e-07,1.0544651345445064e-06,6.285340964045608e-07,-5.143335147349359e-07,1.3429265694146207e-06,1.0222878820858402e-06,5.752843865659761e-07,-2.237076606101258e-07,9.877247073415296e-07,1.7679116691605309e-06,3.0392246215578044e-07,7.885143948097378e-07,-1.236734978221277e-06,1.9790674451326123e-07,-8.977811324820028e-09,4.0928799878369026e-07,3.927047338981997e-07,1.4422106071721603e-07
6.256541406299732e-07,1.0782929810321146e-06,5.637311984152453e-07,-5.242449658675681e-07,1.3556894074460755e-06,1.0102351300137633e-06,5.679848714751391e-07,-2.5766370769329196e-07,9.483310077120102e-07,1.7677618191095124e-06,3.465515334832342e-07,8.32476420575674e-07,-1.2290439285096927e-06,2.080138517940569e-07,-1.255125491830443e-08,3.788328909406419e-07,4.139756531396312e-07,1.4918809873651437e-07
6.881733401698575e-07,1.0968458896263033e-06,5.069421096004544e-07,-5.357583686812743e-07,1.3670782290488398e-06,9.961782292777654e-07,5.609990114742786e-07,-2.922786457621234e-07,9.127187130895256e-07,1.7865260907779317e-06,3.7819961257644134e-07,8.484992643774578e-07,-1.222427862189433e-06,2.1071158640573203e-07,-1.2689042761938253e-08,3.4332322450073065e-07,4.3506363180345387e-07,1.6252079029708655e-07
7.361325820885141e-07,1.1072009645857975e-06,4.5728136670701957e-07,-5.491611436363489e-07,1.3769270891254314e-06,9.804777492971263e-07,5.554039845740084e-07,-3.234967858669264e-07,8.804739093225359e-07,1.8218009001896023e-06,4.01456907763863e-07,8.438635900914209e-07,-1.2148466365451277e-06,2.0719890611865235e-07,-9.100193402462048e-09,3.0723311274947703e-07,4.5762631843714347e-07,1.8678940783913305e-07
7.753263815660146e-07,1.107952554087085e-06,4.131320831307757e-07,-5.600182864583473e-07,1.3876491284411767e-06,9.64733297691061e-07,5.528443714444808e-07,-3.5063931378831304e-07,8.489231260936491e-07,1.8742192018068246e-06,4.157386818868784e-07,8.228505816571642e-07,-1.2053778946269217e-06,1.9984797754617171e-07,-1.2101186727040907e-09,2.745269151865897e-07,4.834469392184077e-07,2.2608878736496175e-07
8.100043673867573e-07,1.099358817123119e-06,3.7318985931330853e-07,-5.627819867471424e-07,1.4025876352884364e-06,9.510677725297137e-07,5.544185248568479e-07,-3.7342573880675227e-07,8.159485765176817e-07,1.94208644974706e-06,4.2351474664230627e-07,7.907721517642271e-07,-1.189168429809031e-06,1.9196826366604812e-07,1.0301047818656357e-08,2.4892017761080487e-07,5.129089058661652e-07,2.784795894356949e-07
8.441780946574914e-07,1.0827682081809626e-06,3.363785719170984e-07,-5.557752128235453e-07,1.4216665702151347e-06,9.40258501639278e-07,5.582124406280429e-07,-3.923103119925986e-07,7.799277545875046e-07,2.0156710769202565e-06,4.2960951965101337e-07,7.507256876870033e-07,-1.1660300794995213e-06,1.8421617251562316e-07,2.1142164256547888e-08,2.3006163832981207e-07,5.436302234906413e-07,3.3915693538666427e-07
8.784723355116661e-07,1.0607486729435678e-06,3.010949137877095e-07,-5.404609195677863e-07,1.4399335514242854e-06,9.31915878228651e-07,5.587183719315444e-07,-4.182930001495129e-07,7.354594332334826e-07,2.086035863642423e-06,4.3506794687042673e-07,7.156176016752665e-07,-1.1413424613366365e-06,1.7590109806977722e-07,2.604645887569166e-08,2.192945839175839e-07,5.719725655581023e-07,4.0118285686281035e-07
9.094323499083074e-07,1.0354036791069927e-06,2.6614735089449226e-07,-5.204598548043725e-07,1.4502119433085797e-06,9.262763783442196e-07,5.491975928720669e-07,-4.554745865318852e-07,6.810824752669301e-07,2.147908246886963e-06,4.364209521005464e-07,6.794098043529709e-07,-1.1151347521005195e-06,1.6454252946418957e-07,2.0972834703539523e-08,2.1706198672555822e-07,5.949604743535638e-07,4.5793087852195344e-07
9.308664580701616e-07,1.0081361654793907e-06,2.313098510331523e-07,-4.992398675850352e-07,1.445117617499035e-06,9.245963232690964e-07,5.233910615092792e-07,-5.068242423817848e-07,6.176793310245825e-07,2.198172656202219e-06,4.444890999418324e-07,6.485117812187896e-07,-1.0918511612760894e-06,1.431105871156858e-07,2.5001096856600427e-09,2.2575424919822072e-07,6.095894195328672e-07,5.023244543068778e-07
9.395671169381756e-07,9.787550844937569e-07,1.958253221349996e-07,-4.790841476221165e-07,1.4172466657179277e-06,9.28074211683019e-07,4.766600541968899e-07,-5.773266282635224e-07,5.456082515479741e-07,2.235913782547625e-06,4.518465156100173e-07,6.426763064619594e-07,-1.0772777016021684e-06,1.1510387256747439e-07,-3.160938372234344e-08,2.515522125098173e-07,6.140659755062679e-07,5.306203836382971e-07
9.34437956927217e-07,9.449511037627763e-07,1.603253725477951e-07,-4.6043012889431903e-07,1.3608716994117193e-06,9.376336903586195e-07,4.074390312934925e-07,-6.664443243732516e-07,4.6786016414951335e-07,2.265817715129826e-06,4.5074732116300763e-07,6.304051147505222e-07,-1.0714566834379892e-06,7.19542303806665e-08,-8.018217889408222e-08,2.978532583500607e-07,6.090302222137472e-07,5.432265492159758e-07
9.153746238667926e-07,9.045193415729277e-07,1.2589529259954528e-07,-4.425651614615528e-07,1.275240750567409e-06,9.541531203453234e-07,3.190053228919445e-07,-7.694229115658579e-07,3.885142570603513e-07,2.2920113433637418e-06,4.4182749602621504e-07,6.063060447920698e-07,-1.073820437132419e-06,8.621456560961447e-09,-1.387042697871609e-07,3.7219160223507053e-07,5.97589659293368e-07,5.465175221920387e-07
8.889510478927643e-07,8.569164527880803e-07,9.389717623513406e-08,-4.246125828979139e-07,1.1656621236270617e-06,9.77157974705765e-07,2.195957235719723e-07,-8.78459828345e-07,3.143112231102032e-07,2.326135132848786e-06,4.4097488170214127e-07,5.722066811384501e-07,-1.0841462904538207e-06,-7.453807681752469e-08,-2.0050577739628605e-07,4.6965360218168917e-07,5.843948113606031e-07,5.504281765884001e-07
8.65515556825312e-07,8.033939694217018e-07,6.367867580508741e-08,-4.031543902397392e-07,1.0418077402179537e-06,1.0032903732051432e-06,1.1989804021724843e-07,-9.84362221847218e-07,2.487677348044586e-07,2.3799436549566903e-06,4.473020320299073e-07,5.340597224658792e-07,-1.1016658262669734e-06,-1.788588679812996e-07,-2.583307549251458e-07,5.901698294185123e-07,5.728944953330952e-07,5.629580252771846e-07
8.563796573767467e-07,7.470286414030859e-07,3.227191747553391e-08,-3.7591028267630716e-07,9.160691755263989e-07,1.027366114894343e-06,3.0752035611942504e-08,-1.0779178064987248e-06,1.946535793255635e-07,2.458815844435978e-06,4.538034846552204e-07,4.6222616144500213e-07,-1.1196809301384373e-06,-2.8839436740978783e-07,-3.0586418788443973e-07,7.265958380955348e-07,5.658705549089582e-07,5.900842989494404e-07
8.697550244344169e-07,6.934608137234571e-07,-3.1204348485105203e-09,-3.421666677167811e-07,8.016089938147289e-07,1.045230274310531e-06,-3.856742276262328e-08,-1.1554899838236936e-06,1.533795910753387e-07,2.5499457149683026e-06,4.5144733921849285e-07,3.759613138491911e-07,-1.1290164644531738e-06,-3.9301191421625567e-07,-3.390664567832352e-07,8.637827219594546e-07,5.649622736485776e-07,6.343499042069903e-07
9.075529858882619e-07,6.485741517044261e-07,-4.324446337126142e-08,-3.0072836409135395e-07,7.080790430362281e-07,1.0555926739205326e-06,-8.291715821514326e-08,-1.2176608296710757e-06,1.2549694189680418e-07,2.6436635297038326e-06,4.343853008904179e-07,2.946813837163361e-07,-1.1313140939665936e-06,-4.828288295901798e-07,-3.57759307342529e-07,9.993548287349764e-07,5.697878850759454e-07,6.916780838654707e-07
9.626223375581663e-07,6.161281216386696e-07,-8.698433568170091e-08,-2.5248429913513063e-07,6.377412582586945e-07,1.0602946181583261e-06,-1.0250446589338658e-07,-1.2696164142436045e-06,1.1297700985796253e-07,2.7297775131826654e-06,4.155126645694124e-07,1.956343264000872e-07,-1.1335294420612228e-06,-5.506414425816262e-07,-3.6606691077021946e-07,1.1349490416285716e-06,5.788709450896586e-07,7.536674340927756e-07
1.0225182577479265e-06,5.966053400697364e-07,-1.3051648346991623e-07,-1.9948850036659153e-07,5.859733886958938e-07,1.0637710225777203e-06,-1.0123802948694576e-07,-1.3130062981143598e-06,1.1654232794210264e-07,2.807946297314573e-06,4.0491660949346687e-07,1.0733054173332203e-07,-1.1408279292708307e-06,-5.920956558417218e-07,-3.697678388670394e-07,1.2682965958879832e-06,5.909015504043738e-07,8.108177954767784e-07
1.076027408624246e-06,5.875533728927331e-07,-1.704467897211306e-07,-1.4134527761146557e-07,5.451059428106792e-07,1.0712012692693138e-06,-8.389652168374928e-08,-1.3523420272647072e-06,1.3741459275535811e-07,2.870337906741054e-06,4.1090216820654616e-07,2.6993525284031807e-08,-1.154770537900825e-06,-6.033041316151641e-07,-3.735306565475069e-07,1.3987767703692916e-06,6.056256504291842e-07,8.541325254329087e-07
1.1167338084166496e-06,5.85059819029317e-07,-2.0638280541126037e-07,-8.23392733542442e-08,5.077445008027198e-07,1.085625702347755e-06,-5.4738876925518886e-08,-1.389656902328828e-06,1.738440053864038e-07,2.906988015682295e-06,4.0670051882749855e-07,-5.4519161566842484e-08,-1.1760553995865802e-06,-5.751714478033508e-07,-3.8006638979755587e-07,1.5256959857407619e-06,6.229169495054665e-07,8.785016531640759e-07
1.1428587211740422e-06,5.850415289768344e-07,-2.399370400166801e-07,-2.8706453822187295e-08,4.6935801222947505e-07,1.1065566435023736e-06,-1.7620289653946928e-08,-1.4173504268657906e-06,2.2122159583868648e-07,2.909672976448242e-06,3.932539068597187e-07,-1.3579091467881896e-07,-1.2007393496076374e-06,-5.22013938006615e-07,-3.8951347395621306e-07,1.6405671156013786e-06,6.423652589729556e-07,8.808266880445424e-07
1.1567689010426295e-06,5.845914012485759e-07,-2.742672837801977e-07,1.503284887265914e-08,4.3079830017643584e-07,1.131203190122565e-06,2.3839361148349554e-08,-1.4397372477410165e-06,2.7203792392995173e-07,2.877361543775044e-06,3.762104567036441e-07,-1.9036513389238725e-07,-1.2232651841476863e-06,-5.005248011955076e-07,-3.991475080626639e-07,1.739575784595709e-06,6.631929765745274e-07,8.656741600619275e-07
1.1621493656985069e-06,5.833307060512285e-07,-3.043302347791971e-07,4.46062326826019e-08,3.983428929644544e-07,1.156042245077245e-06,6.585370213689075e-08,-1.4570214352979245e-06,3.186987778713149e-07,2.8190634175183367e-06,3.562633066406967e-07,-2.114133830121433e-07,-1.246300863858412e-06,-4.955074153123295e-07,-4.0468655333338533e-07,1.8237078328583743e-06,6.845208158067973e-07,8.402586306378037e-07
1.1688571728035175e-06,5.816549553491009e-07,-3.294904496846932e-07,6.257550215507565e-08,3.802330266120452e-07,1.1772784600815624e-06,1.0430488746225229e-07,-1.4663615261022198e-06,3.5671003030267375e-07,2.735065816630724e-06,3.523630423090024e-07,-2.168951505480635e-07,-1.2670060930411026e-06,-5.049735085294543e-07,-4.0165837653887516e-07,1.8926223947484955e-06,7.05554545282214e-07,8.121587414428551e-07
1.1809327251405753e-06,5.816624678535498e-07,-3.4330107586397725e-07,7.352040905085098e-08,3.8302918613963324e-07,1.1915675888822891e-06,1.358758187580802e-07,-1.471146047218471e-06,3.84668580141247e-07,2.6326775107674285e-06,3.576088792553771e-07,-1.9786496127892644e-07,-1.283057718621252e-06,-5.04376012943722e-07,-3.8675940507064166e-07,1.946330887634731e-06,7.258771241808984e-07,7.921666405327923e-07
1.2002015006920872e-06,5.858471483887882e-07,-3.3276869914417896e-07,8.24950874543874e-08,4.1023238709532114e-07,1.1973732023314425e-06,1.6082372306392207e-07,-1.4727013033013951e-06,4.057982986410359e-07,2.5383400149214e-06,3.658277580552091e-07,-1.7493767134103876e-07,-1.2961836304964942e-06,-4.5060009694623777e-07,-3.5848982832180676e-07,1.989867227809693e-06,7.460504714082643e-07,7.838228079587607e-07
1.2353163650159187e-06,5.964896530844949e-07,-3.0124355600793627e-07,9.480419123998046e-08,4.6176191718899e-07,1.1953272097813239e-06,1.845095160324837e-07,-1.472350607713573e-06,4.2577061572623624e-07,2.4564178441743167e-06,3.760332004336801e-07,-1.5136620577175277e-07,-1.3044030055990432e-06,-3.728550863217609e-07,-3.1755928192476826e-07,2.0256844840962627e-06,7.668009568092055e-07,7.921416615382819e-07
1.2848135745518884e-06,6.138071385218784e-07,-2.66369637520842e-07,1.1458100462576581e-07,5.334348052716071e-07,1.1874627690865602e-06,2.1581538766886389e-07,-1.4726013145133642e-06,4.4895240962507417e-07,2.3923766526184134e-06,3.9281612706596965e-07,-1.212631119885316e-07,-1.304317981496574e-06,-2.8085481605512716e-07,-2.6677542494372973e-07,2.0555139689114514e-06,7.88148515590641e-07,8.211516575628178e-07
1.3475846125351072e-06,6.357562073279879e-07,-2.319098399545557e-07,1.4286679267381743e-07,6.179796921682539e-07,1.1768354565544487e-06,2.6398273952366626e-07,-1.4758312268196167e-06,4.771713105366769e-07,2.3562950493434523e-06,4.042768974889078e-07,-8.845311806373741e-08,-1.2973992497205084e-06,-2.2531634585079717e-07,-2.097905251474021e-07,2.0807915618695583e-06,8.106367790348304e-07,8.720195475893762e-07
1.419557144652884e-06,6.600700734913848e-07,-1.9149570479066065e-07,1.7872727153574277e-07,7.040883916434108e-07,1.1673165600265134e-06,3.3478032335168145e-07,-1.4793126920987656e-06,5.061307946917847e-07,2.3599715396724023e-06,4.101114614083871e-07,-4.9186287367470034e-08,-1.2919085118239241e-06,-1.7670924288974736e-07,-1.501419974139492e-07,2.1033715136752347e-06,8.333636020519956e-07,9.44712530877989e-07
1.5081211644151128e-06,6.85502498947136e-07,-1.8030980480458165e-07,2.1832828746820898e-07,7.827413856179929e-07,1.1625239473813004e-06,4.264945096318373e-07,-1.4804389678519884e-06,5.30210662669272e-07,2.406174391473275e-06,4.1969110198408546e-07,-1.6903306635371538e-08,-1.2697644985313532e-06,-1.2774216459037327e-07,-9.182939430909825e-08,2.123923142414783e-06,8.550635086436057e-07,1.0298464086768527e-06
1.5725323170568825e-06,7.185537105932894e-07,-1.9729490895327052e-07,2.5663248154045714e-07,8.438721507240233e-07,1.164972381623761e-06,5.280550303055374e-07,-1.475272783830745e-06,5.375972014025262e-07,2.476423429834606e-06,4.1021682037328433e-07,7.51409530416217e-09,-1.2266491328846255e-06,-9.657138601890662e-08,-3.943392580772387e-08,2.142067948716882e-06,8.760888777678042e-07,1.1125594037690847e-06
1.623952857920185e-06,7.637532882900785e-07,-1.9717672581803504e-07,2.8776806562288776e-07,8.783333787516952e-07,1.176436107152429e-06,6.213945858552676e-07,-1.4566913256476716e-06,4.930244225295013e-07,2.5760689668706208e-06,3.8010857197986644e-07,2.043729046190552e-08,-1.1718364290431424e-06,-5.3570126468302576e-08,3.543803134980307e-09,2.1610357070329345e-06,8.89923316269634e-07,1.1505702351718615e-06
1.6319448609499804e-06,8.184368065613073e-07,-2.491005624921556e-07,3.0610901799677145e-07,8.761029738613665e-07,1.1979694144188256e-06,6.871661613332595e-07,-1.4197259518248275e-06,4.171564590870906e-07,2.6142826939601448e-06,3.2911995961722866e-07,2.368403696106022e-08,-1.0471462725641288e-06,-1.2361592027821926e-08,3.5631916105258876e-08,2.1918299315904334e-06,8.941169556376299e-07,1.1104201848929586e-06
1.472569670023863e-06,8.485280933225926e-07,-3.232245276152706e-07,3.0230661542442006e-07,8.27655493492741e-07,1.2285821859140676e-06,7.109559494189643e-07,-1.3592286016898244e-06,3.527696878034327e-07,2.550515530353352e-06,2.511300086835111e-07,1.4479771564404044e-08,-9.018729911470591e-07,3.624903574165214e-08,5.684802317826715e-08,2.2406364741476117e-06,9.183715521455595e-07,1.0457703087811106e-06
1.3706693730902018e-06,8.389310654208277e-07,-4.199763865350866e-07,2.7676151865839384e-07,7.347343559027693e-07,1.2646049007133228e-06,6.884550394252795e-07,-1.2741396105505694e-06,2.505669947379504e-07,2.5145481290892254e-06,1.6624316517052693e-07,-1.1911047349341446e-08,-7.807167110149945e-07,1.3276403951672246e-07,6.812705027914432e-08,2.305245979899037e-06,9.430555847163295e-07,9.95271143825676e-07
1.3226903190890301e-06,7.937412570328382e-07,-5.303361800752788e-07,2.348609605024628e-07,6.08938104279927e-07,1.3010718366098657e-06,6.284958402541975e-07,-1.1702783400850222e-06,1.2876307618183562e-07,2.4365434444871743e-06,9.632428226278829e-08,-5.2001918561646304e-08,-6.664910508148967e-07,2.457675501991123e-07,7.109795169722003e-08,2.353786106626941e-06,9.580185335062089e-07,9.823024743455896e-07
1.2048775910661868e-06,7.541287951597098e-07,-5.594921881446927e-07,1.8543516836917917e-07,5.036911618382118e-07,1.333335234123434e-06,5.515256102612176e-07,-1.052490188775222e-06,6.143133958387421e-08,2.2287956007024015e-06,5.3714991248048115e-08,-1.0363471794211448e-07,-5.730317334585341e-07,3.813939047377947e-07,6.76824031764253e-08,2.352663288007591e-06,9.727826047093274e-07,9.032220674540175e-07
1.0896421913687981e-06,7.311016295690419e-07,-5.245790939225005e-07,1.4601313402827317e-07,4.912024856739759e-07,1.3574729605244443e-06,4.828217999904399e-07,-9.29352004464816e-07,6.539239611258382e-08,1.9970011520026847e-06,6.68832179102899e-08,-1.4797096153564838e-07,-5.614142445648457e-07,4.7612341356102454e-07,6.012668426453237e-08,2.2661452199703173e-06,1.0064848262750723e-06,7.971687139921468e-07
9.94024646770171e-07,7.665542976427024e-07,-4.841999588373256e-07,1.208790336165882e-07,5.535128644717372e-07,1.3706467230501524e-06,4.4435219301540837e-07,-8.101466664449722e-07,7.008862706185184e-08,1.9151777955917545e-06,6.705236159935606e-08,-1.7014716364581157e-07,-5.213323898245786e-07,4.994326421313352e-07,5.198336071142954e-08,2.1688732450737494e-06,1.0367348980149331e-06,7.936276540021042e-07
9.209705815535268e-07,8.391538235329061e-07,-4.139371084490106e-07,1.1024814739157033e-07,6.457276425872572e-07,1.3722031263969244e-06,4.492009544729695e-07,-7.013590434635976e-07,3.167184945015795e-08,1.92586713066824e-06,4.873688278635687e-08,-1.579495715510219e-07,-5.031376721229008e-07,5.224052465027906e-07,4.839362567246223e-08,2.1195899444344414e-06,1.05205530210215e-06,8.431573581437151e-07
8.6945116373849e-07,9.066214660975532e-07,-3.816008828792252e-07,1.1264365826638823e-07,7.307726983047262e-07,1.3642361708913818e-06,4.996245729211954e-07,-6.080791496404988e-07,2.6615894276752204e-08,1.9378000720884617e-06,3.3770087751380443e-08,-6.641277208420465e-08,-5.959507480594197e-07,5.115314286719852e-07,5.445760817347129e-08,2.071131877299921e-06,1.0361078131443223e-06,8.808980048781132e-07
8.179860826207763e-07,9.408551310316809e-07,-3.723126424999299e-07,1.2449732506445478e-07,8.074274366361724e-07,1.350840862958852e-06,5.883963492458273e-07,-5.362279877337905e-07,7.704673451833867e-08,1.9743403271164706e-06,6.829497322337659e-08,2.0349523502605035e-08,-6.746341558397977e-07,5.2730804019116e-07,7.282819369129406e-08,1.914991811239858e-06,1.0211031598145191e-06,8.884483463954441e-07
7.953479923452415e-07,9.874951919474748e-07,-3.607239954103395e-07,1.3985270544523772e-07,9.05909231479729e-07,1.3367104324364975e-06,7.032261770535506e-07,-4.895239852403e-07,1.2886071970751422e-07,2.0271405601812924e-06,1.2717072277888488e-07,1.2535803912920533e-07,-7.134419428119476e-07,5.351836955656663e-07,1.0281892101862635e-07,1.7423737343534053e-06,1.0268629136486433e-06,9.076958730506314e-07
8.932087816976298e-07,1.0763534295013388e-06,-2.6819467562223177e-07,1.5353020243080955e-07,1.06544602955796e-06,1.3253975412536744e-06,8.318712036734129e-07,-4.560926214946202e-07,1.3708210043899362e-07,2.109138944352956e-06,1.7850592137108175e-07,2.55832736697257e-07,-7.200917508811513e-07,5.003506371943303e-07,1.4070437710135348e-07,1.6239199296327565e-06,1.0475516569524588e-06,9.742649724142892e-07
9.997423923855999e-07,1.1221139437378558e-06,-7.935730253161249e-08,1.6071791929713428e-07,1.2350488459628222e-06,1.3177010902640954e-06,9.637826426471754e-07,-4.641017719891442e-07,1.3286827609341923e-07,2.2002975681475307e-06,2.2578930101346657e-07,4.2315757767931755e-07,-6.794244435034414e-07,4.620034516505354e-07,1.7939436946050935e-07,1.5249270662529805e-06,1.0823459923845392e-06,1.0850715397469731e-06
9.894040040689903e-07,1.1581338263121152e-06,6.231522945284176e-08,1.5566455585708978e-07,1.2824425080153426e-06,1.311763392752614e-06,1.0883223209081782e-06,-4.995359660120469e-07,1.1685941249944799e-07,2.208934686958705e-06,2.662925879270594e-07,5.689037349831547e-07,-6.373541022432537e-07,4.224960635839371e-07,2.1053461058776867e-07,1.4068943472002792e-06,1.1294899241393206e-06,1.1584758105536857e-06
9.67031490612609e-07,1.1821554139933793e-06,1.6732297681149453e-07,1.3849110168517796e-07,1.3476678805169639e-06,1.305173732181351e-06,1.1936116486500146e-06,-5.465936830714173e-07,5.2310417146430755e-08,2.2030624955291327e-06,2.7800815383973884e-07,6.527388173722498e-07,-5.945603100470587e-07,3.906540409445104e-07,2.282263964512339e-07,1.3107801289130565e-06,1.174643994380114e-06,1.2174262671673827e-06
9.143861923249438e-07,1.2014671308720395e-06,3.1553680646296903e-07,1.1123813632052711e-07,1.403152610600293e-06,1.2967745933173698e-06,1.2677644132089016e-06,-5.842423458141259e-07,-4.546763238353968e-08,2.1613578581881938e-06,2.805167820582574e-07,6.900672437829799e-07,-5.600596946697405e-07,3.859841842706122e-07,2.3131830296458849e-07,1.3848503190472538e-06,1.2144022145745147e-06,1.3064093391519143e-06
8.107909375386553e-07,1.193449481861068e-06,3.9933794968911403e-07,7.773358164232373e-08,1.4669253497482548e-06,1.2866265544475964e-06,1.301420309198801e-06,-6.184544931020263e-07,-1.230498069988342e-07,2.107946793146067e-06,2.8590872664109354e-07,7.760495352716068e-07,-5.433534592648513e-07,3.9177206763419834e-07,2.2285988868005897e-07,1.5130096406312708e-06,1.2433660250373145e-06,1.3175902944325052e-06
6.812770084709211e-07,1.154014893817378e-06,4.2439088131889665e-07,4.70079829649685e-08,1.5021697412401123e-06,1.2755484270027886e-06,1.290819105542573e-06,-6.426782262412509e-07,-1.6636892765601754e-07,2.0777211162326346e-06,2.981091591348994e-07,7.914551461385052e-07,-5.440470712881756e-07,4.0272687649629614e-07,2.0796917127310236e-07,1.5927490282423315e-06,1.2575862427445779e-06,1.2786762705167458e-06
5.817638287998288e-07,1.108766326772245e-06,4.3167308815439233e-07,2.2654696973065993e-08,1.4422837502998663e-06,1.2655207429987493e-06,1.2407212502091511e-06,-6.536229112836418e-07,-1.926729229079845e-07,2.063877466854975e-06,3.209321104828695e-07,7.588955414800351e-07,-5.579339229174476e-07,4.0701858650303493e-07,1.9169987834045522e-07,1.651396774519229e-06,1.2585623328255315e-06,1.2419792720170327e-06
5.221818811797299e-07,1.0762874706943881e-06,4.502024278700274e-07,9.061572329115169e-09,1.3922866258294363e-06,1.259848390687718e-06,1.1648458287348427e-06,-6.576725712711342e-07,-2.1439085898716247e-07,2.081186051679411e-06,3.4718145373385457e-07,7.25488198230604e-07,-5.834493213523095e-07,3.934277427175076e-07,1.767595168222557e-07,1.6824801454894138e-06,1.2477445000494263e-06,1.211284098356815e-06
4.860209556619015e-07,1.044675697575006e-06,4.953969318982794e-07,1.0315325494897195e-08,1.3151889021544468e-06,1.2622682032760062e-06,1.0827093546768683e-06,-6.59065989371948e-07,-2.38471695076843e-07,2.120030524013119e-06,3.724048397926971e-07,6.996576762902022e-07,-6.182220233803922e-07,3.694209735191416e-07,1.6243571095024883e-07,1.68049614841213e-06,1.2264743766829542e-06,1.1902003032613596e-06
4.753768049691764e-07,1.041290550452072e-06,5.246199819763106e-07,1.8919028732923826e-08,1.2073531148195826e-06,1.2761597665668587e-06,1.0152348394066335e-06,-6.628680542858412e-07,-2.6587842823548925e-07,2.161652572366512e-06,3.9293905811982874e-07,6.750742428444382e-07,-6.568814583789409e-07,3.409011909099627e-07,1.4552638530266575e-07,1.671222820425295e-06,1.19995976079457e-06,1.1722676560359902e-06
4.811644138819431e-07,1.0449620724985727e-06,5.349762007621474e-07,3.216135453275549e-08,1.138839730743818e-06,1.3043291962522305e-06,9.80864651223428e-07,-6.716294269041399e-07,-3.0344019613740933e-07,2.184929671124946e-06,4.0333987050342023e-07,6.574335325166677e-07,-7.094429896924803e-07,3.1424615608531764e-07,1.2244086598355604e-07,1.6517595544469683e-06,1.174063390332513e-06,1.1456426407260614e-06
4.936236720232141e-07,1.0519040724078703e-06,5.316705056575064e-07,4.6356612518420154e-08,1.0885674254120993e-06,1.3480221731078348e-06,9.915082854524105e-07,-6.847464739948136e-07,-3.4830965800276493e-07,2.1756787605795457e-06,3.992725816636351e-07,6.456671297716967e-07,-7.718850583358004e-07,2.927351507432136e-07,9.077356498890143e-08,1.6203410136997377e-06,1.1520223502669608e-06,1.1028335370823429e-06
5.047856067215282e-07,1.0625763634255978e-06,5.186447072779659e-07,6.237475380619657e-08,1.0508843413920109e-06,1.4049983182563813e-06,1.0485593297820536e-06,-7.003123793094766e-07,-4.007059107026874e-07,2.1302538165034373e-06,3.777435947845921e-07,6.372316547731299e-07,-8.28458132582023e-07,2.796672178399142e-07,5.042122334632103e-08,1.5798928811352494e-06,1.136584274946437e-06,1.0399280958640381e-06
5.115980023195914e-07,1.0647071920290382e-06,4.992973985407231e-07,7.031554554061962e-08,1.0118851230263573e-06,1.4682216964647023e-06,1.141530563427642e-06,-7.163925290369087e-07,-4.4037268294574744e-07,2.054829292991637e-06,3.3724369864551914e-07,6.302688673061341e-07,-8.659155105507639e-07,2.764082246210784e-07,4.691184418267468e-09,1.5261290121428797e-06,1.1273305774526517e-06,9.592486164240378e-07
5.150498989438059e-07,1.0628917065851367e-06,4.5904151304692287e-07,6.852555184263468e-08,9.526260352995025e-07,1.5282796385183527e-06,1.2501255463697956e-06,-7.315336040319982e-07,-4.7335747999763356e-07,1.966401341390493e-06,2.8186774726454983e-07,6.224589923266832e-07,-8.90931753144779e-07,2.791217359921283e-07,-4.040445629329364e-08,1.458166278794409e-06,1.122007774666055e-06,8.691928250109312e-07
5.178815750891237e-07,1.0591434384099656e-06,4.057786762876691e-07,5.009400187341914e-08,8.880876381830678e-07,1.5665083204857097e-06,1.3481870784959162e-06,-7.474472080328737e-07,-5.005232236246573e-07,1.8882669853154514e-06,2.1779834736161196e-07,6.135604599530874e-07,-9.090376998186598e-07,2.8107732938774773e-07,-7.905631602975147e-08,1.3772236658956892e-06,1.108292372632166e-06,7.79992985588903e-07
5.237139413249103e-07,1.0536091864906333e-06,3.4861606105546834e-07,2.0207397052139246e-08,8.234190594147153e-07,1.5461387889384625e-06,1.4093121843982191e-06,-7.71127504876649e-07,-5.233963067867306e-07,1.8275761543134608e-06,1.5157340362616708e-07,6.08890022253326e-07,-9.215725205268281e-07,2.755314676421642e-07,-1.0794890918251188e-07,1.2800323596931931e-06,1.0869214719157883e-06,7.003746030495266e-07
5.335096838931101e-07,1.0477745667716155e-06,3.049572007714089e-07,-3.85271720748753e-09,7.644979207437718e-07,1.527583046127004e-06,1.4141921107582558e-06,-8.118728595844909e-07,-5.455579513285253e-07,1.7924949732225931e-06,9.09800977317504e-08,5.988605527145827e-07,-9.607391012315602e-07,2.5216612617202195e-07,-1.2676597611947278e-07,1.165559629608208e-06,1.042529014248125e-06,6.35483843821696e-07
5.46104541156176e-07,1.0418892830792792e-06,2.822496373292805e-07,1.4190060115509515e-09,7.19392944127322e-07,1.4337899140075553e-06,1.3565156454887585e-06,-8.786418694193185e-07,-5.476090744067682e-07,1.7853225343899071e-06,4.243579064474113e-08,5.823512245182126e-07,-9.998318236616988e-07,2.048731217648918e-07,-1.3771752219151148e-07,1.0441776256942669e-06,9.917455293523234e-07,5.862139185700308e-07
5.597155866960305e-07,1.0346548938009673e-06,2.821285467457372e-07,8.142788967821645e-08,6.921479776917025e-07,1.3244670257370685e-06,1.2438089966373515e-06,-9.760322149855919e-07,-5.25318640186801e-07,1.796350192712137e-06,9.639638384402963e-09,5.413245364023226e-07,-1.0900509260163804e-06,1.3702183288547903e-07,-1.4464305420358547e-07,9.316445607189457e-07,9.579407842058308e-07,5.508372621587275e-07
5.727897084556369e-07,1.0238481536670456e-06,3.00339843126115e-07,1.6059711179609122e-07,6.88223817601794e-07,1.2116226216511095e-06,1.0941274444486863e-06,-1.0998946630110066e-06,-4.628123043585107e-07,1.8086097894163855e-06,-6.749592753234034e-09,4.3608225430589647e-07,-1.1512047117089195e-06,5.481277501102721e-08,-1.5118338074531706e-07,8.447893257893251e-07,8.770845152989405e-07,5.267920807947565e-07
5.865593303335237e-07,1.0084210589738343e-06,3.311089321552054e-07,2.472376749554031e-07,7.284973524857147e-07,1.115851017782961e-06,9.319203168669803e-07,-1.2376060318560163e-06,-3.8668709035479405e-07,1.8096244623229809e-06,-8.452576853877053e-09,2.764489237424401e-07,-1.2351354488389274e-06,-2.9539758246333732e-08,-1.5888988354455572e-07,7.963673286138503e-07,7.803746697194536e-07,5.122263824935648e-07
6.06105028416386e-07,9.902051617999903e-07,3.7525220466429647e-07,3.3502588258587415e-07,8.132716879014254e-07,1.0512769097265753e-06,7.832723040100245e-07,-1.3722827282866387e-06,-3.804348641980423e-07,1.789589661760118e-06,1.5610559568139602e-09,1.4376928901803345e-07,-1.380312303207827e-06,-1.0153992489596616e-07,-1.6704986257635542e-07,7.892241447562604e-07,6.965989132847723e-07,5.067488024734556e-07
6.356163572282228e-07,9.738164351972281e-07,4.281106574871406e-07,3.9749017083501866e-07,9.225379724814251e-07,1.021884736745412e-06,6.69259864116665e-07,-1.4820198194381585e-06,-3.7779684534289e-07,1.7456762731945752e-06,1.8985728054864443e-08,2.2083989918749732e-08,-1.5207870743655763e-06,-1.5147973200983774e-07,-1.7366066297796124e-07,8.143540194911639e-07,6.434285362902625e-07,5.102902860699382e-07
6.767369286552424e-07,9.654530349483087e-07,4.856012513421314e-07,5.028008962585656e-07,1.0537588083084268e-06,1.0215156802809032e-06,5.995509836690027e-07,-1.535315743083488e-06,-3.595963352707429e-07,1.6864673452748777e-06,4.237322164785242e-08,-4.9098131247950584e-08,-1.5760018439862168e-06,-1.7623817510421477e-07,-1.7613980242429843e-07,8.564604364110283e-07,6.082127181750311e-07,5.232967917764762e-07
7.288379864698939e-07,9.71119189457154e-07,5.429997444562196e-07,5.986667435972574e-07,1.1921795356168795e-06,1.0376513519201074e-06,5.698310046657122e-07,-1.588267218509443e-06,-2.615082983639795e-07,1.627185836242509e-06,7.132450543223092e-08,-7.282959746468438e-08,-1.5871567716469144e-06,-1.7735236614236164e-07,-1.7209737883520424e-07,9.022732463048327e-07,5.861014935403782e-07,5.459351258280452e-07
7.887698476480552e-07,9.9375149108573e-07,5.92447990873636e-07,6.744609029416145e-07,1.3201724072960512e-06,1.0562832747546103e-06,5.642249696158308e-07,-1.5742040014805772e-06,-1.1339606446481302e-07,1.5811685044292283e-06,1.0405531283701375e-07,-1.0456837897166178e-07,-1.5809723972555553e-06,-1.6149911809596885e-07,-1.609216199782056e-07,9.426160089068212e-07,5.818244024565066e-07,5.766823917251916e-07
8.522218176822206e-07,1.0304920864385757e-06,6.262894764789357e-07,7.510208734847147e-07,1.4274962899736253e-06,1.0658808071501042e-06,5.612241048618809e-07,-1.5460387274419815e-06,-4.695225384131042e-08,1.5579443798685104e-06,1.3775387945515963e-07,-1.219066288439403e-07,-1.6059224521579071e-06,-1.391872543986255e-07,-1.4460748768381164e-07,9.753139859638579e-07,6.028725260400615e-07,6.120043153929784e-07
9.149014567672048e-07,1.0724691341036725e-06,6.349745476454328e-07,7.816679077675561e-07,1.5033049956126251e-06,1.0600570816935498e-06,5.417042272926004e-07,-1.5125253676760065e-06,2.191417028227704e-08,1.5604652538525126e-06,1.6840005986485283e-07,-5.141273005367329e-08,-1.6690393910795918e-06,-1.201026525742385e-07,-1.2653336976193544e-07,1.0014705325547857e-06,6.169702802950746e-07,6.479892701572542e-07
9.728785036855661e-07,1.1107543068164386e-06,6.168774137063218e-07,8.619806714279071e-07,1.5340093930299506e-06,1.0382868342746663e-06,4.958801349669287e-07,-1.4884672621156169e-06,1.0999551897135923e-07,1.5811333677253054e-06,1.9180882256910363e-07,2.0487407088530915e-08,-1.6942640542648287e-06,-1.107376717984303e-07,-1.0954908451502458e-07,1.0250835570580913e-06,6.126970183247228e-07,6.82269548868167e-07
1.022560402258608e-06,1.1438293781219823e-06,5.785761104625677e-07,9.378461919765781e-07,1.5300702635223739e-06,1.004367198447447e-06,4.256900084774581e-07,-1.4820913383681615e-06,1.40465004593885e-07,1.6076903205475654e-06,2.0477176382518896e-07,6.049709923624112e-08,-1.7314279147334656e-06,-1.131022095554829e-07,-9.50377977749044e-08,1.0475982549532148e-06,5.884513572000855e-07,7.143802779366901e-07
1.0617129120833296e-06,1.152237446219785e-06,5.251525258107419e-07,9.942149649342816e-07,1.5179115223802293e-06,9.640620772567784e-07,3.4255811407925847e-07,-1.4936244543967587e-06,1.2402401860960957e-07,1.63200503436425e-06,2.0509675200263382e-07,7.930489374925974e-08,-1.713246032240678e-06,-1.2487086548250133e-07,-8.29290793790765e-08,1.0834414271570667e-06,5.60414668732148e-07,7.447807191660947e-07
1.0890766260124573e-06,1.1592570880161337e-06,4.6532175560510986e-07,1.0679595671511502e-06,1.5050643075889526e-06,9.234108988411594e-07,2.6247493266544406e-07,-1.516292965743353e-06,1.1831476203256423e-07,1.6397859851334977e-06,1.9181858264117305e-07,8.418765940355616e-08,-1.699161754662721e-06,-1.40608752408762e-07,-7.19713204028788e-08,1.135308071392151e-06,5.338933286939347e-07,7.737805595678527e-07
1.105053639021248e-06,1.1590190005034977e-06,4.08395253739753e-07,1.0786986705377077e-06,1.5002583765771715e-06,8.874285768002942e-07,2.0011432515434182e-07,-1.539832192293608e-06,1.4146481840201897e-07,1.6235940799980672e-06,1.6614726020992754e-07,8.886759764521868e-08,-1.7016902129983696e-06,-1.5377277599553573e-07,-6.081999779739152e-08,1.2005395217185434e-06,5.12664729341635e-07,8.000661840984686e-07
1.112314589380153e-06,1.1587126313011041e-06,3.6019782142569906e-07,1.0832264606803965e-06,1.5073195616139863e-06,8.590369127448359e-07,1.6392640981226564e-07,-1.5540585543829966e-06,1.558994370258035e-07,1.5866041621335566e-06,1.3148921989992946e-07,9.513947517225036e-08,-1.7015861786199762e-06,-1.5926014157647534e-07,-4.880126323353674e-08,1.2737461317543209e-06,5.028505468521659e-07,8.209515192604045e-07
1.1160893144415784e-06,1.1608219484087501e-06,3.2350200185960356e-07,1.090996495362149e-06,1.5212225628007242e-06,8.388896594829191e-07,1.54107142730344e-07,-1.5516067007328201e-06,1.6472353130189703e-07,1.5368091695866118e-06,9.27366701496836e-08,1.0796581771762492e-07,-1.7059749372668106e-06,-1.5485230337815252e-07,-3.539045526610788e-08,1.3432981673735158e-06,5.023058645497282e-07,8.337527281676279e-07
1.1239242302109366e-06,1.165858448456073e-06,2.9747451675497434e-07,1.0794680076087356e-06,1.539793078685752e-06,8.258338201066444e-07,1.63681484343312e-07,-1.5292902156932538e-06,1.847939820799583e-07,1.4883950812789312e-06,5.550766047150431e-08,1.312370352161236e-07,-1.7091103189987656e-06,-1.408854825111239e-07,-1.9745970743576205e-08,1.4032589322495305e-06,5.094883177353328e-07,8.37523522292861e-07
1.1431918241747949e-06,1.1735175472845182e-06,2.772603643410145e-07,1.0690706689149258e-06,1.5634724008508838e-06,8.173015211437056e-07,1.8128824521723895e-07,-1.4882496402058104e-06,2.014666082690272e-07,1.454509633483463e-06,2.4177086129196837e-08,1.61960263822847e-07,-1.6971615688180186e-06,-1.201412030007438e-07,-9.8834239443932e-10,1.4517898609359897e-06,5.224768967536068e-07,8.338910517934165e-07
1.1778046186443145e-06,1.1836496607270534e-06,2.571656505330493e-07,1.0589587562231371e-06,1.5883946686654651e-06,8.100979735724872e-07,1.950129945025988e-07,-1.4326578376149223e-06,2.1950065971353874e-07,1.4426787292963565e-06,7.742542276866905e-10,1.9973193268999933e-07,-1.6650449473102286e-06,-9.697160429210362e-08,2.1393949929011138e-08,1.4914672743598045e-06,5.38297289506542e-07,8.263076310212096e-07
1.227364725425115e-06,1.196785604017863e-06,2.3523415741996477e-07,1.027496840106433e-06,1.60928279450105e-06,8.017819093300165e-07,1.9642475623952324e-07,-1.3687308680175053e-06,2.2754346900206308e-07,1.4524695611230054e-06,-1.416882576533879e-08,2.416350070458918e-07,-1.6214749333002925e-06,-7.554060281655277e-08,4.706796184625664e-08,1.5236895552272198e-06,5.543702729776974e-07,8.197237398557025e-07
1.2868807692550293e-06,1.2136013515603625e-06,2.1205680591123726e-07,9.847841818855784e-07,1.6271388968423488e-06,7.913224548445581e-07,1.8247392038478293e-07,-1.3030354327148948e-06,2.2252756497840196e-07,1.4799545007916085e-06,-2.2097473920845686e-08,2.824369959274734e-07,-1.5717754693085815e-06,-5.918281384785218e-08,7.406873346100484e-08,1.5510770174179955e-06,5.680876415512995e-07,8.168098584095254e-07
1.3478292565200821e-06,1.23367148489306e-06,1.8979541180696074e-07,9.404932583818916e-07,1.641191274368369e-06,7.786140324327335e-07,1.54643632804983e-07,-1.2417866352505958e-06,2.122050015969897e-07,1.515727861882313e-06,-2.5738135965360937e-08,3.1671546870409007e-07,-1.5235140277684565e-06,-5.016859622067918e-08,9.883390535805745e-08,1.5740454831972793e-06,5.768393117012277e-07,8.177042644644911e-07
1.4007660057540597e-06,1.2552866033427983e-06,1.7125357573591305e-07,8.959840114660493e-07,1.6495615031959518e-06,7.641829484161016e-07,1.1745727008178875e-07,-1.1897446375386128e-06,2.005215639249749e-07,1.549353086290145e-06,-2.805060241475551e-08,3.407155819930093e-07,-1.484286781511936e-06,-4.864349098285502e-08,1.1772385877170246e-07,1.591733706890516e-06,5.790450422724054e-07,8.207898670670483e-07
1.437710476914237e-06,1.2767030042769318e-06,1.5878693987207947e-07,8.541196939185142e-07,1.6522959125320835e-06,7.494153515912621e-07,7.760632094441925e-08,-1.1491319140801144e-06,1.907231793270764e-07,1.5718549089003486e-06,-3.183945461571077e-08,3.534710555542181e-07,-1.474470334167115e-06,-5.1984961234208835e-08,1.2844046107535762e-07,1.604751021967979e-06,5.748796465504517e-07,8.235095355729649e-07
1.4538039798334161e-06,1.2971381299367227e-06,1.5434927218337287e-07,8.129621612011953e-07,1.6504815666860117e-06,7.364133101481493e-07,4.254642530162618e-08,-1.1193468890938226e-06,1.8017037778524395e-07,1.5752709166678657e-06,-3.933167528634495e-08,3.563043484287238e-07,-1.4784375151619181e-06,-5.603176465085363e-08,1.3019821086293772e-07,1.6139243968507869e-06,5.657608428504638e-07,8.235228842007606e-07
1.4478951088935048e-06,1.3167905106424285e-06,1.590957060681424e-07,7.895087251113315e-07,1.6476752706482339e-06,7.275527371574444e-07,1.859498899446946e-08,-1.0967655947484463e-06,1.713917921405357e-07,1.5553703929063432e-06,-5.157836696694374e-08,3.518908683479864e-07,-1.4943100070781748e-06,-5.654409873124118e-08,1.2359680425059533e-07,1.6203614288333254e-06,5.535903724819883e-07,8.188040261999719e-07
1.4223476814551658e-06,1.3364595011773564e-06,1.7308669344199674e-07,7.716429621323579e-07,1.6491336927787124e-06,7.251964677736278e-07,9.6462985796193e-09,-1.0765521522211157e-06,1.675735592319296e-07,1.5126253703863678e-06,-6.838855029303669e-08,3.433818325273965e-07,-1.5227436577209465e-06,-5.0438847199692564e-08,1.1074876299537001e-07,1.6268556932138364e-06,5.402900360471525e-07,8.093705731748815e-07
1.3820914777955776e-06,1.3567064359332497e-06,1.947751165634751e-07,7.615209773246907e-07,1.6590481630289415e-06,7.308175287799455e-07,1.6058994147177007e-08,-1.0537980397078391e-06,1.7400627368707664e-07,1.4513003465860915e-06,-8.836846017785878e-08,3.3302368791385186e-07,-1.5498963427481508e-06,-3.696638630333111e-08,9.477628175069379e-08,1.6328210430167014e-06,5.270766665986634e-07,7.966860388767259e-07
1.333751333671125e-06,1.3765077448294439e-06,2.2001581260741906e-07,7.59535204781968e-07,1.6772249011115405e-06,7.434473936541835e-07,3.359139646280642e-08,-1.0263643972210247e-06,1.9009547728702177e-07,1.384507148871777e-06,-1.0966585065958269e-07,3.2091967592244554e-07,-1.5749081170289843e-06,-1.9452931017954342e-08,7.871696410269833e-08,1.638598425575835e-06,5.139267531813639e-07,7.833875299348934e-07
1.2848284473305583e-06,1.3928933969174917e-06,2.4228491919153583e-07,7.54501025322155e-07,1.6980664448865607e-06,7.592596059614184e-07,5.4281613132954005e-08,-9.958318043402413e-07,2.0960139585725706e-07,1.3248114887380325e-06,-1.311405454300236e-07,3.0524193278455603e-07,-1.593770392761998e-06,-5.389431429892883e-09,6.522811199844656e-08,1.6454051918661708e-06,5.002171056306213e-07,7.731245202752962e-07
1.2421148366618698e-06,1.4023817156480378e-06,2.5498921484073117e-07,7.472286527485552e-07,1.7134353276951844e-06,7.730586913105829e-07,6.989291120618902e-08,-9.661904694405052e-07,2.2772585575486966e-07,1.2839629495550896e-06,-1.5256257999521784e-07,2.8265565393140534e-07,-1.601657969952808e-06,-2.436905883232419e-09,5.6606314328193316e-08,1.6544501872299676e-06,4.856947551217373e-07,7.694958377515972e-07
1.2102680078314774e-06,1.4026241316971089e-06,2.541839931279172e-07,7.349657056002185e-07,1.7161823108220065e-06,7.801218474436969e-07,7.523140924857044e-08,-9.414571512921721e-07,2.4094106992770246e-07,1.2720514444541055e-06,-1.7447926254607873e-07,2.4993881245677846e-07,-1.5976783662583692e-06,-1.6178253768800368e-08,5.3928994516872406e-08,1.6666492060476882e-06,4.704223822224723e-07,7.744158569627449e-07
1.190698299444386e-06,1.393011266798479e-06,2.3997760743965977e-07,7.150780726479027e-07,1.7016595268961118e-06,7.773911553651303e-07,6.907032324772604e-08,-9.242121753761093e-07,2.440716946897818e-07,1.292001709953847e-06,-1.983063674515092e-07,2.0494876742065323e-07,-1.5869158364195052e-06,-4.900636346691781e-08,5.626255906623686e-08,1.6818799346730469e-06,4.5430605392171105e-07,7.864383921045508e-07
1.181053838426729e-06,1.3748813198279127e-06,2.1657112812900325e-07,6.822694572743221e-07,1.6683211816338287e-06,7.645025479087056e-07,5.350279981797764e-08,-9.151906418733407e-07,2.377297587782947e-07,1.3409823201229818e-06,-2.2521413919597176e-07,1.4736884408493813e-07,-1.575722418050194e-06,-9.898796688766731e-08,6.109395188740406e-08,1.698241118525081e-06,4.372093780271777e-07,8.012040730621037e-07
1.176079579813467e-06,1.3514902107941992e-06,1.9100441271901018e-07,6.405307404444082e-07,1.6180647646800443e-06,7.442855904301809e-07,3.280345742829588e-08,-9.133299873536223e-07,2.2391969584762588e-07,1.411209970990659e-06,-2.555501707652944e-07,7.922155808877917e-08,-1.57420927553382e-06,-1.6079627263968327e-07,6.521963178869557e-08,1.7123418084234052e-06,4.1907501941338024e-07,8.125001956635324e-07
1.17012520487142e-06,1.3267986677156015e-06,1.7062218059443184e-07,5.978179602441443e-07,1.5551240347419465e-06,7.21842856455786e-07,1.1866265822195205e-08,-9.170475732456202e-07,2.0569437656386293e-07,1.4925814007712923e-06,-2.8856535231027576e-07,3.748306941765681e-09,-1.5863410802246483e-06,-2.2828470585564036e-07,6.54344100136546e-08,1.7212109056769396e-06,3.996811042010502e-07,8.141543447157064e-07
1.1582378913708036e-06,1.3036398191708968e-06,1.6073048909968404e-07,5.541024292509707e-07,1.484193261083574e-06,7.029764569699595e-07,-4.687758242761751e-09,-9.25298201646193e-07,1.853365478091864e-07,1.5742277766458678e-06,-3.2369743313758613e-07,-7.536340818307003e-08,-1.6160733336889129e-06,-2.961062048871554e-07,5.982986410292987e-08,1.7219862856774268e-06,3.789820098097978e-07,8.031061112732641e-07
1.1366401079115038e-06,1.2829794561313116e-06,1.6404623093237567e-07,5.083756154684637e-07,1.4097396285547202e-06,6.931001571009017e-07,-1.170523962633415e-08,-9.364850646749274e-07,1.6362710427834283e-07,1.6477748276168695e-06,-3.603755204937261e-07,-1.5392998039851064e-07,-1.6647203804686504e-06,-3.5956819493441164e-07,4.927987910135685e-08,1.7148313368703412e-06,3.5790868295188953e-07,7.817265999250578e-07
1.1032668656564853e-06,1.2641627334715396e-06,1.812661345358974e-07,4.6369624706431505e-07,1.3358368414698853e-06,6.961048568343314e-07,-2.829427847144351e-09,-9.483860606250205e-07,1.4374381402831942e-07,1.7085832967075067e-06,-3.979779434138955e-07,-2.2728086343105294e-07,-1.7278605255639963e-06,-4.155302292195237e-07,3.697731084426676e-08,1.7030314988728835e-06,3.380234359722923e-07,7.564638047165655e-07
1.0578460637888e-06,1.24493072858601e-06,2.1125148971555535e-07,4.193771016408274e-07,1.2651072038977e-06,7.12719850041034e-07,2.7953954330422238e-08,-9.592723640715658e-07,1.2884752240583535e-07,1.7524656241498069e-06,-4.363743864683772e-07,-2.9164999665147123e-07,-1.7998397579179555e-06,-4.638465120473241e-07,2.6037262011205565e-08,1.6893132483643686e-06,3.20138829296361e-07,7.351807160012983e-07
1.002556690802293e-06,1.2217468385633607e-06,2.5103384935566853e-07,3.729297556902135e-07,1.1984248387667812e-06,7.400008466614205e-07,8.377296266685846e-08,-9.680560945622663e-07,1.203754086451152e-07,1.7758541002500646e-06,-4.741229421987524e-07,-3.4461179402873587e-07,-1.874700456271023e-06,-5.068131127866739e-07,1.7933372470256895e-08,1.6740654722486875e-06,3.0397307928521493e-07,7.241406633908117e-07
9.430603242943123e-07,1.1915631237697705e-06,2.962862522661983e-07,3.225543954683556e-07,1.1369501414279862e-06,7.731291858292145e-07,1.6379821997200808e-07,-9.746343878280402e-07,1.1868136187016101e-07,1.7775679561248789e-06,-5.10059930079992e-07,-3.8406144325622636e-07,-1.9456872956560287e-06,-5.463602626253902e-07,1.2873702738986077e-08,1.6577146298981519e-06,2.892015388880215e-07,7.262086522641029e-07
8.885698281648257e-07,1.1538254005161663e-06,3.414916022866444e-07,2.669573566871947e-07,1.0839075573689054e-06,8.079305068523063e-07,2.635521113871633e-07,-9.78079587831651e-07,1.2372512250333016e-07,1.7600556992590754e-06,-5.410535298623483e-07,-4.08351849530237e-07,-2.0050377307391245e-06,-5.821423093993225e-07,1.0458699191922017e-08,1.6436893365168441e-06,2.7610740445129657e-07,7.399577228141533e-07
8.496345243205867e-07,1.1106461873973475e-06,3.7950407163215294e-07,2.066446244303198e-07,1.0430367762518534e-06,8.422203814467915e-07,3.756686312121518e-07,-9.771068292156908e-07,1.3363264266338587e-07,1.7280237868772052e-06,-5.643347995250556e-07,-4.178170014553234e-07,-2.0495360512425437e-06,-6.125702642583445e-07,9.504044635267886e-09,1.6300219055275946e-06,2.6532018759955034e-07,7.610917173595874e-07
8.347042958669012e-07,1.0654608931749751e-06,4.022295388925735e-07,1.4611763878726026e-07,1.0175851216174257e-06,8.761395023149939e-07,4.919577769913554e-07,-9.71052502000348e-07,1.4554787594071828e-07,1.6885811186023054e-06,-5.79610364631042e-07,-4.146903872944007e-07,-2.0778718570053735e-06,-6.359833383038729e-07,8.564761954828376e-09,1.6167638101170563e-06,2.577522079871186e-07,7.81535481760284e-07
8.47021188757227e-07,1.0217392536763838e-06,4.033884807294585e-07,9.122067377098013e-08,1.009477904319055e-06,9.118682583717132e-07,6.063985641315823e-07,-9.590121377966746e-07,1.5787018124010768e-07,1.6492459431157667e-06,-5.893289789014263e-07,-4.037226231624564e-07,-2.091562412550631e-06,-6.507089854223276e-07,6.889401180527816e-09,1.6046588608078542e-06,2.5466677164111096e-07,7.940939938374837e-07
8.835013731294435e-07,9.820277412105296e-07,3.8138389031227984e-07,4.4845692645680005e-08,1.0191184952974754e-06,9.519769249915542e-07,7.159193221344409e-07,-9.403062116869534e-07,1.6835418479716368e-07,1.6153761700572789e-06,-5.979536619618454e-07,-3.901303627989668e-07,-2.0947396929577287e-06,-6.552427189820929e-07,4.238238689734751e-09,1.593683341684076e-06,2.569732621598941e-07,7.953169491802299e-07
9.358231772039044e-07,9.47289568772398e-07,3.40170746738925e-07,7.718210553279205e-09,1.0443753118541394e-06,9.969365693766422e-07,8.180223428634857e-07,-9.157364251920667e-07,1.7559459763411795e-07,1.5880773771172479e-06,-6.09535942099297e-07,-3.7885015345899287e-07,-2.091475111460864e-06,-6.512113339764761e-07,4.515781094973925e-10,1.5850797097524686e-06,2.643852521302806e-07,7.854227054301081e-07
9.92986200364599e-07,9.173232684027539e-07,2.884042365802727e-07,-2.2273777958493897e-08,1.0798143136092708e-06,1.0441976610723478e-06,9.086390908725945e-07,-8.880540501134455e-07,1.7882833786930652e-07,1.566113777576461e-06,-6.259453295018395e-07,-3.726595532876888e-07,-2.086333157879523e-06,-6.425901942948994e-07,-4.369753137971565e-09,1.578736621866687e-06,2.755367579130792e-07,7.689607305910814e-07
1.0445149178526553e-06,8.919403063593598e-07,2.3750452759284843e-07,-4.849379001945467e-08,1.1184897217104004e-06,1.0895701938546212e-06,9.826841715945796e-07,-8.611527178133799e-07,1.788424496386099e-07,1.5471436570334373e-06,-6.451940104645693e-07,-3.718913402764574e-07,-2.083112657008554e-06,-6.326987832959086e-07,-9.891744120782734e-09,1.5741681593219372e-06,2.884526060794384e-07,7.51817111051975e-07
1.0829690515150089e-06,8.711641277081472e-07,1.984007523917298e-07,-7.338592502555169e-08,1.1535862718834542e-06,1.1290086470990023e-06,1.0357335233126024e-06,-8.387062986086178e-07,1.767056984495593e-07,1.527558542261732e-06,-6.631761928106917e-07,-3.755080904836886e-07,-2.0840269757513894e-06,-6.251469857776441e-07,-1.6355549629083108e-08,1.5690114714819337e-06,3.0063701942231004e-07,7.397654710109747e-07
1.104809244473754e-06,8.543812653266607e-07,1.7809893540231978e-07,-1.001134420176202e-07,1.1790798651555373e-06,1.1597838133653147e-06,1.0652228811570207e-06,-8.24156530028682e-07,1.7295012834273178e-07,1.504123825920453e-06,-6.75713413256918e-07,-3.813170076414103e-07,-2.092164904954828e-06,-6.227766548144991e-07,-2.4742792379149535e-08,1.560640393749643e-06,3.096162553796739e-07,7.348538018620114e-07
1.1103741839131443e-06,8.402376894229888e-07,1.7840414087962555e-07,-1.2909877007867803e-07,1.1907503265647606e-06,1.181659423506779e-06,1.0717042886664245e-06,-8.192250468189207e-07,1.6787090106356272e-07,1.4744069755533783e-06,-6.790721831442603e-07,-3.8623058468378173e-07,-2.1079654238981755e-06,-6.259641936027038e-07,-3.573189855327667e-08,1.5469799887388482e-06,3.141673266405126e-07,7.370958213689081e-07
1.102870413445983e-06,8.274033346521917e-07,1.968866019252319e-07,-1.574597645077525e-07,1.1878914502582237e-06,1.1974871884037286e-06,1.0597453870145757e-06,-8.234057710410876e-07,1.6240152486048944e-07,1.4371197432918316e-06,-6.708555950143004e-07,-3.8664276903593046e-07,-2.129066165333531e-06,-6.329938070434344e-07,-4.915042990799283e-08,1.5283813197622186e-06,3.1461420824872614e-07,7.454692436115401e-07
1.0864575016274615e-06,8.145838513925258e-07,2.2817456939009294e-07,-1.8319834126459834e-07,1.172659199698726e-06,1.2119473979614515e-06,1.0369751580062808e-06,-8.35039027032782e-07,1.5865731614548026e-07,1.3913633868237678e-06,-6.508474051451765e-07,-3.7773703772752135e-07,-2.1523269220978905e-06,-6.419260893281498e-07,-6.465735059251849e-08,1.5063253508857262e-06,3.117184427447033e-07,7.577768406709171e-07
1.0645104608585039e-06,8.0002522761135e-07,2.6520386650487067e-07,-2.0463097277012075e-07,1.145592498127956e-06,1.2296370942890641e-06,1.0122222722038166e-06,-8.52139750122012e-07,1.5802349347391758e-07,1.3379482612666891e-06,-6.213333125554821e-07,-3.589878351504428e-07,-2.174504676972629e-06,-6.516629522333485e-07,-8.188316012398187e-08,1.4791695513268325e-06,3.06110909749209e-07,7.749882477145969e-07
1.0388967729187415e-06,7.823752362917622e-07,3.014088979798771e-07,-2.210285861530495e-07,1.1118647929545651e-06,1.2547832227129478e-06,9.953884161923435e-07,-8.725317933709667e-07,1.624368229263143e-07,1.282999123232835e-06,-5.862508857174579e-07,-3.313081971749878e-07,-2.1928752805536994e-06,-6.615047469960105e-07,-9.913560260608419e-08,1.4527716984222285e-06,2.991246959225738e-07,7.957800049502073e-07
1.0102970670484765e-06,7.624471124346572e-07,3.3302227416192913e-07,-2.3188190215273497e-07,1.075270157954122e-06,1.2920489459320326e-06,9.98401100538478e-07,-8.929658421360146e-07,1.739578450957209e-07,1.2327803651335713e-06,-5.492053414011427e-07,-3.00927153868395e-07,-2.205094003542704e-06,-6.708854953963069e-07,-1.1283735692420206e-07,1.435854797347208e-06,2.931716458407009e-07,8.224825844815206e-07
9.7881005179621e-07,7.433802124683134e-07,3.59424575539165e-07,-2.360774341429313e-07,1.0399587882942927e-06,1.346058608505092e-06,1.0338522977453242e-06,-9.099415873450526e-07,1.9391224928339676e-07,1.1953962808956252e-06,-5.139521850215707e-07,-2.7175805962731545e-07,-2.2092453467700266e-06,-6.7874293002243e-07,-1.1909767810673803e-07,1.4272051176012664e-06,2.905885910900422e-07,8.584722351571438e-07
9.445849243168214e-07,7.289796611793384e-07,3.817487705371596e-07,-2.3345905104720602e-07,1.0105950083899287e-06,1.4196456759609795e-06,1.1109743142858976e-06,-9.211289259194781e-07,2.2201681783578702e-07,1.1770912229935413e-06,-4.839455003688221e-07,-2.474486629100955e-07,-2.2047721920194195e-06,-6.868440241603147e-07,-1.1548406599419293e-07,1.4315215301796423e-06,2.925936024180776e-07,8.92743032808749e-07
9.085606341451306e-07,7.224735461532934e-07,4.0187093442429493e-07,-2.2560933409879352e-07,9.885539007342084e-07,1.5128584088007513e-06,1.2321460403170808e-06,-9.255042194371845e-07,2.565978058995035e-07,1.1923153996182604e-06,-4.6174173604684913e-07,-2.354913288148498e-07,-2.1917914473185237e-06,-6.972719143747685e-07,-1.015658055659606e-07,1.4506715811076503e-06,2.994919634420361e-07,9.255508215180944e-07
8.732000870740233e-07,7.261290407739813e-07,4.221579696203603e-07,-2.141674733345128e-07,9.751729402868345e-07,1.6229108862171158e-06,1.3914715813625401e-06,-9.230763283145809e-07,2.8702757801187847e-07,1.239508203568467e-06,-4.4849841457209727e-07,-2.3576196216692948e-07,-2.1714098780390776e-06,-7.112090837591535e-07,-7.92976429832949e-08,1.482793829384029e-06,3.107671367284007e-07,9.627729429904657e-07
8.415785620991496e-07,7.400498077522963e-07,4.444194035131383e-07,-1.9997107883628638e-07,9.705779958323003e-07,1.7438137362087536e-06,1.5745214117767188e-06,-9.148739159987593e-07,3.126712256579183e-07,1.3027434993872315e-06,-4.439374235008365e-07,-2.4658346324980996e-07,-2.1459856206611725e-06,-7.347925480551026e-07,-5.379603242563461e-08,1.5251129055178932e-06,3.241927594752941e-07,1.0004554757210823e-06
8.157885603027534e-07,7.605211964833943e-07,4.681689544082647e-07,-1.8525744737539474e-07,9.709638317668364e-07,1.8665490091818561e-06,1.760195977013519e-06,-9.033627447024616e-07,3.317933825205259e-07,1.3740837771900192e-06,-4.455806400657e-07,-2.6338144560959756e-07,-2.119893964015773e-06,-7.67689777014764e-07,-3.280246541898733e-08,1.5690057255417977e-06,3.3558806741644775e-07,1.0087757299874447e-06
7.959310033723595e-07,7.794667608050494e-07,4.902972753824243e-07,-1.7365190173160796e-07,9.66524466180471e-07,1.9819509962997873e-06,1.9268694788454335e-06,-8.910167874583769e-07,3.4683168222549066e-07,1.414376243273899e-06,-4.5089969398831703e-07,-2.920708578711072e-07,-2.0985581679722457e-06,-8.02390601986038e-07,-2.39084692500592e-08,1.597687099009333e-06,3.402862645053522e-07,9.915739421616237e-07
7.797861552641308e-07,7.895165964362111e-07,5.065066490682747e-07,-1.6829011432867697e-07,9.462652592283001e-07,2.0849741328192207e-06,2.060383235250575e-06,-8.787917909909537e-07,3.5267832643872015e-07,1.4084316715344428e-06,-4.556694399183377e-07,-3.070402150192094e-07,-2.0866062267109236e-06,-8.410611152842871e-07,-3.191855854382704e-08,1.5671637873318093e-06,3.3463911468562854e-07,9.316232765076708e-07
7.635143087716915e-07,7.858224024378006e-07,5.124030142636739e-07,-1.714433819049297e-07,9.001071448610502e-07,2.1760843649394305e-06,2.1576540638150833e-06,-8.639199977732271e-07,3.425964358362223e-07,1.3108046976714259e-06,-4.549013310807941e-07,-3.12535261590804e-07,-2.088077307454614e-06,-8.934503155003891e-07,-5.841848266564509e-08,1.5110151078501942e-06,3.161458330731197e-07,7.999322397640188e-07
7.443922416346169e-07,7.638793171311223e-07,5.03453968376112e-07,-1.8550773313548007e-07,8.18999222512575e-07,2.25851393828731e-06,2.223863556623347e-06,-8.419392544082582e-07,3.131832788875586e-07,1.1675842621175787e-06,-4.416519255635013e-07,-2.926899712948363e-07,-2.106381354781432e-06,-9.52253948154829e-07,-1.0212529071146688e-07,1.421315277516563e-06,2.8355883228171064e-07,7.271843268399018e-07
7.229615203380864e-07,7.229365064821475e-07,4.7549464331624344e-07,-2.1289509707476194e-07,6.979392504897267e-07,2.3346812617342755e-06,2.2682062678595027e-06,-8.10615154893332e-07,2.592932244572014e-07,1.0314200744684371e-06,-4.089295788441751e-07,-1.7392850360102448e-07,-2.143469952150724e-06,-1.0196790101608472e-06,-1.5819161894298906e-07,1.2794168802770416e-06,2.3825139998073763e-07,6.891408273319266e-07
7.042573314813136e-07,6.632725697459535e-07,4.264765030780367e-07,-2.5387302012948744e-07,5.400619764118491e-07,2.404348967933879e-06,2.298603786027899e-06,-7.694381841468018e-07,1.99378655533832e-07,9.356027976326478e-07,-3.5386421013154844e-07,-8.039548013459766e-08,-2.197775034271558e-06,-1.0842340606581755e-06,-2.1787049876212918e-07,1.1546069207093626e-06,1.8523782644615066e-07,6.366156384123886e-07
6.966628107092223e-07,5.918699179189274e-07,3.5775857476547184e-07,-3.0523028550306744e-07,3.58984497609248e-07,2.4638798653525846e-06,2.3220874708453404e-06,-7.221751620868022e-07,1.3304389316011794e-07,7.738948233557405e-07,-2.786743197574503e-07,-2.4646197754224706e-08,-2.264237420990373e-06,-1.055385756953801e-06,-2.707313765608887e-07,9.70490480698604e-07,1.318882343370414e-07,5.975586084122599e-07
7.072992119408293e-07,5.201711574342113e-07,2.737804482584537e-07,-3.613825816277513e-07,1.9360727161260276e-07,2.5061800562857427e-06,2.340138489503637e-06,-6.752269969358448e-07,5.899455999374651e-08,5.494634573099534e-07,-2.0215205344689763e-07,5.341505186888452e-08,-2.3359428954938704e-06,-9.549724127194398e-07,-3.0836103773887e-07,7.664465016279519e-07,8.547225448304384e-08,5.012052314647316e-07
7.373352147838742e-07,4.584179853571684e-07,1.8093385148742428e-07,-4.158704696986426e-07,4.1219438008619534e-08,2.5228440317533807e-06,2.3486041046571535e-06,-6.392096869758714e-07,-3.3642633870712744e-08,2.4547209192221475e-07,-1.505488235979645e-07,1.478567183173013e-07,-2.4054645373931144e-06,-8.649527203036584e-07,-3.2658601719890204e-07,6.052759250356425e-07,5.196503027792478e-08,3.4691342072161087e-07
7.805535733952347e-07,4.3980556453261693e-07,8.650332899166503e-08,-4.6200676749227164e-07,-8.246015799893756e-08,2.508503946911594e-06,2.342577962043697e-06,-6.135523331380918e-07,-1.369486765340651e-07,1.7769708789985046e-08,-1.4786415537429471e-07,2.2375876008798167e-07,-2.465456090080216e-06,-7.862374018199318e-07,-3.2553777089953554e-07,4.969364089238154e-07,3.587696865827974e-08,2.2774978362633874e-07
8.257431539881806e-07,4.546879898265299e-07,-2.2275386396851086e-09,-4.942571279797385e-07,-1.626716316186818e-07,2.464135557756963e-06,2.31944193254195e-06,-5.899139247761803e-07,-2.359963590709993e-07,-1.2169214058531862e-07,-1.5149234800071186e-07,2.4640819730615897e-07,-2.510031514975151e-06,-7.186790633443909e-07,-3.0927110637524116e-07,4.859843933229261e-07,3.910721868572368e-08,1.5955749315132772e-07
8.605971970438008e-07,4.5855115411739304e-07,-7.853657497018294e-08,-5.106480932298535e-07,-2.070390898300907e-07,2.396663005303184e-06,2.2824643316396963e-06,-6.07303894076855e-07,-3.227283646621262e-07,-2.313600179195623e-07,-1.5308048199838862e-07,2.504068133107172e-07,-2.5362656805061274e-06,-6.660855205671849e-07,-2.8512185446687345e-07,5.130576251298234e-07,5.931063763412296e-08,1.0827190407049339e-07
8.755595431937068e-07,4.344100448003366e-07,-1.3655910427266984e-07,-5.132778780578805e-07,-2.1819193357284367e-07,2.3161758198839513e-06,2.2384855691659273e-06,-6.512590347081961e-07,-3.8806007846313254e-07,-3.0587045190497346e-07,-1.5022501422936515e-07,2.693129538065062e-07,-2.5445432727596338e-06,-6.277702319561145e-07,-2.6145907655319144e-07,4.459736575239285e-07,9.041704381638021e-08,5.138258138652037e-08
8.66415198204578e-07,4.566804286302041e-07,-1.7214101724098663e-07,-5.054713450605643e-07,-2.067734260645342e-07,2.233579074017281e-06,2.1936817595788643e-06,-7.229415352417077e-07,-4.4512815325151e-07,-2.1660150449733394e-07,-1.6731693000136407e-07,2.62890591381043e-07,-2.536124085743407e-06,-5.884144683145168e-07,-2.443774428538927e-07,3.8944021783035086e-07,1.2553545916075356e-07,-1.6826305213773344e-08
8.352051402294406e-07,5.011884218984346e-07,-1.8455159413498365e-07,-4.88593108267856e-07,-1.8210999976239856e-07,2.1590161015923884e-06,2.1543653269386615e-06,-7.994953990202199e-07,-4.914459876031731e-07,-1.268059345589486e-07,-2.1134199214269888e-07,2.41063044726881e-07,-2.511769749793222e-06,-5.541790117406683e-07,-2.3596083035989103e-07,3.6828025777029493e-07,1.595805822092777e-07,-6.90541031409095e-08
7.889560907092747e-07,5.280887952178037e-07,-1.7755468904855475e-07,-4.615344775387406e-07,-1.8474399536535806e-07,2.1002825928453664e-06,2.1248412280012985e-06,-8.697300998920069e-07,-5.225632837680537e-07,-1.291621985103894e-07,-2.7336010530239846e-07,2.2065619036232283e-07,-2.4725243805656473e-06,-5.220591350278348e-07,-2.3493456043226023e-07,3.8062357604577883e-07,1.901450485311069e-07,-1.0822268863248978e-07
7.367556043069603e-07,5.640288912874508e-07,-1.5796166783375526e-07,-4.2184177163543437e-07,-1.667292596562902e-07,2.0621576502171486e-06,2.1065515280679755e-06,-9.316182527373064e-07,-5.266068677265076e-07,-1.64892248129537e-07,-3.240159946376678e-07,1.664412114845014e-07,-2.4206586210459754e-06,-4.7623276242093655e-07,-2.3784068665553112e-07,4.589012262475305e-07,2.173957543223128e-07,-1.0175707539767409e-07
6.869320698322247e-07,6.09030101485333e-07,-1.322546193679452e-07,-3.666209397520421e-07,-1.2513439006479093e-07,2.047332382373798e-06,2.1007598779081653e-06,-9.66399062096655e-07,-5.045163708053726e-07,-2.127798896066757e-07,-3.6455211419106317e-07,8.842461344941571e-08,-2.35990419225246e-06,-4.2263685060869623e-07,-2.4013239746185036e-07,5.820491761251456e-07,2.4333490990841463e-07,-7.219538990246641e-08
6.452307902154685e-07,6.411437852013505e-07,-1.0424483508906324e-07,-2.9390828770542703e-07,-7.003768282637643e-08,2.057097125332209e-06,2.1099044577977355e-06,-9.747997645713919e-07,-4.6198959692268335e-07,-2.454745628963527e-07,-3.843007726166975e-07,-3.6532402333167176e-09,-2.295200505401423e-06,-3.622118110880055e-07,-2.3797804077993256e-07,7.377391364699613e-07,2.7011067299481704e-07,-3.163022602226225e-08
6.14188693114855e-07,6.674684215608875e-07,-7.55062239955313e-08,-2.0485970973933954e-07,1.0369970476672294e-08,2.0903844782511878e-06,2.13615432258453e-06,-9.721234804596209e-07,-4.0320363092299655e-07,-2.562786180568408e-07,-3.8656849140366676e-07,-1.0445152500268675e-07,-2.2324017042305097e-06,-2.987219039710146e-07,-2.298682477679386e-07,8.850808078690555e-07,2.984438227187211e-07,2.6536999957596943e-08
5.945255040531753e-07,6.889733878641853e-07,-4.7157245373183253e-08,-1.0454876729836317e-07,9.653444372802201e-08,2.1427443977934156e-06,2.179260868053487e-06,-9.590641428898126e-07,-3.392557222015425e-07,-2.5212424223240746e-07,-3.8024306864229035e-07,-1.7084866366307292e-07,-2.176473838986367e-06,-2.419064299054315e-07,-2.1648057641883062e-07,1.00478610459833e-06,3.275530577047845e-07,6.939859479762214e-08
5.871415651750505e-07,7.064247758231555e-07,-2.093414741025281e-08,-2.717042894412454e-10,1.778450242661897e-07,2.206921772209465e-06,2.236808400805613e-06,-9.430143138583019e-07,-2.754027168593987e-07,-2.281880724530358e-07,-3.684978507462359e-07,-2.0167583693474866e-07,-2.1299332182069625e-06,-1.9564657821075128e-07,-1.9965000605767523e-07,1.10805328594022e-06,3.559367215612232e-07,1.0072286679301362e-07
5.936382064410629e-07,7.249033424541817e-07,7.478008342036972e-10,1.0058686618910338e-07,2.4723724728138313e-07,2.2743637455985832e-06,2.3028592855058595e-06,-9.308385014158294e-07,-2.2108129008030493e-07,-1.8603707094670596e-07,-3.5811854613096204e-07,-2.3667200982896263e-07,-2.092774936397256e-06,-1.5897143805037014e-07,-1.819199013563995e-07,1.192990867774587e-06,3.818103658473271e-07,1.2871131430081337e-07
6.150207322062813e-07,7.427443856965503e-07,1.54812196271135e-08,1.916858598244518e-07,3.254822864994765e-07,2.33685039282603e-06,2.369771733839591e-06,-9.242612515602441e-07,-1.8429771687732594e-07,-1.289578203594551e-07,-3.492447549773941e-07,-2.752653254246381e-07,-2.0635569255947454e-06,-1.3229270338991353e-07,-1.6600299204120773e-07,1.3016192982388286e-06,4.0361133056665954e-07,1.488239797870041e-07
6.49696099188957e-07,7.581963346606627e-07,2.2373463001965457e-08,2.6879410609452785e-07,3.729199854694365e-07,2.388441613347203e-06,2.4304920694956746e-06,-9.271985126168712e-07,-1.7044430507678262e-07,-6.364241999089339e-08,-3.413336934969598e-07,-3.196727196944021e-07,-2.0403053104704554e-06,-1.1567879991313098e-07,-1.5355871155978985e-07,1.3826366726538511e-06,4.2092312497949587e-07,1.6600896201502195e-07
6.923279300999354e-07,7.715442817770809e-07,2.342012124281745e-08,3.308262740637939e-07,3.9213408096931844e-07,2.4267855951930267e-06,2.4801721012605167e-06,-9.400168665336675e-07,-1.7631677481807848e-07,-2.0316670096153436e-09,-3.347884881965469e-07,-3.470874967075103e-07,-2.0201751343447847e-06,-1.0268770102984489e-07,-1.4465672950820584e-07,1.4346773886889458e-06,4.3466877430740765e-07,1.7723923400067264e-07
7.34394850977394e-07,7.838886189987668e-07,2.3217719757066246e-08,3.7935584661337816e-07,4.0022692495505267e-07,2.4522349065350057e-06,2.516841111145805e-06,-9.595934341075855e-07,-1.9443162376810294e-07,4.309030542125166e-08,-3.292994819520915e-07,-3.548668387164015e-07,-2.001861242378109e-06,-8.758077465809602e-08,-1.384435133003146e-07,1.4760931761946193e-06,4.4625481360009966e-07,1.852199594318217e-07
7.665842298466063e-07,7.96657798734692e-07,2.739087344856337e-08,4.169938494489141e-07,3.96294262131255e-07,2.4657146721874533e-06,2.5395126217685146e-06,-9.819292030826666e-07,-2.1785589226244664e-07,6.432056572561768e-08,-3.245457507515168e-07,-3.5079890316974713e-07,-1.984014969040557e-06,-6.623799121665288e-08,-1.333202535541861e-07,1.5010638882489978e-06,4.5721722624752215e-07,1.9496781555421124e-07
7.819374150478905e-07,8.113383446958688e-07,4.1519335304689385e-08,4.4664142568018214e-07,3.9883852968286843e-07,2.467673128345437e-06,2.5482487889763964e-06,-1.0018002133119175e-06,-2.389580767367999e-07,6.083120851456779e-08,-3.199861808629984e-07,-3.4289592885123686e-07,-1.9658618056103715e-06,-3.480186589552382e-08,-1.2611385186428116e-07,1.5288131595491252e-06,4.698120182699603e-07,2.1177031510203727e-07
7.780644909175866e-07,8.298593198611945e-07,7.079356480705302e-08,4.7152668735520204e-07,4.1611543746662856e-07,2.458011574035889e-06,2.5453402616405405e-06,-1.0126756684572406e-06,-2.5173384014091134e-07,3.8015193489487474e-08,-3.146457657933422e-07,-3.3380236393538344e-07,-1.9465358782587498e-06,8.717992403576719e-09,-1.1227417578547574e-07,1.566478464370584e-06,4.868787966288048e-07,2.378218766645655e-07
7.576388554216496e-07,8.54265813910667e-07,1.1916530722289386e-07,4.944259695105131e-07,4.5230947533189033e-07,2.436352808121771e-06,2.535428735063239e-06,-1.0083518034671674e-06,-2.5190578599923026e-07,4.848085489377291e-09,-3.082318917451456e-07,-3.107936921671445e-07,-1.925265642145595e-06,6.473416064468625e-08,-8.77450290918374e-08,1.6143971540483836e-06,5.104769557254255e-07,2.74821902382877e-07
7.273988908038658e-07,8.857134273724033e-07,1.879304336142031e-07,5.166026830343139e-07,5.039273719029182e-07,2.3993719805541415e-06,2.519053757823152e-06,-9.848884725355743e-07,-2.377594220301621e-07,-2.948213476282769e-08,-3.017115898621341e-07,-2.6946431739000867e-07,-1.9023727362726338e-06,1.3179256950222856e-07,-5.031796060528834e-08,1.6622466265647635e-06,5.410334502956163e-07,3.2332872078981686e-07
6.967076036536962e-07,9.240943211575472e-07,2.746961599993885e-07,5.382091343308702e-07,5.818941244743054e-07,2.3429295845447318e-06,2.4956984153450405e-06,-9.414141949149521e-07,-2.1010297661251634e-07,-5.6808142397221845e-08,-2.971280555715323e-07,-2.1149128941255914e-07,-1.8778054448803979e-06,2.0732089175658286e-07,5.310181033539336e-10,1.7174911543886373e-06,5.777277002901598e-07,3.8224631004468277e-07
6.761782233407945e-07,9.68191117298732e-07,3.7270941628302156e-07,5.595037195262778e-07,6.848423060276344e-07,2.2642837850317083e-06,2.4636628343422202e-06,-8.804218167515114e-07,-1.7170191475461116e-07,-7.06137337245225e-08,-2.970083123258098e-07,-1.463201434284015e-07,-1.8506543163722716e-06,2.8825396483492793e-07,6.383399313344063e-08,1.775289098712172e-06,6.188551047525948e-07,4.510100620913148e-07
6.760900922534652e-07,1.0153936361797133e-06,4.705432490290207e-07,5.809830335548411e-07,8.053552769793909e-07,2.16238646528573e-06,2.4181080426882053e-06,-8.079433480078167e-07,-1.274977571598775e-07,-6.661343529874127e-08,-3.037595927106343e-07,-7.907306170362926e-08,-1.8192648739652716e-06,3.7041879679483473e-07,1.3689428494438078e-07,1.828515880028006e-06,6.618474107029683e-07,5.275501017913757e-07
7.042978291931801e-07,1.0616353097966195e-06,5.537594043851223e-07,6.027836959044855e-07,9.369487831307047e-07,2.0388642883893693e-06,2.3529187814171487e-06,-7.320854193273074e-07,-8.379621058458348e-08,-4.286955133347139e-08,-3.186714931162344e-07,-1.4101529107488125e-08,-1.7824201427603424e-06,4.489572480856292e-07,2.1589296509238707e-07,1.8787297090001664e-06,7.039416520234711e-07,6.088029978121652e-07
7.644251530212819e-07,1.1026056927684727e-06,6.093328765970066e-07,6.246876326590298e-07,1.0653942450133371e-06,1.8990299811774908e-06,2.262416690358941e-06,-6.599055621157228e-07,-4.588668056989734e-08,2.833969891746418e-10,-3.403533368242781e-07,4.3363489284214775e-08,-1.7392754059202687e-06,5.202557740412881e-07,2.9700510222046267e-07,1.923997834513352e-06,7.4306915128131e-07,6.909996919965884e-07
8.541679540795097e-07,1.1351568033963859e-06,6.30444765183653e-07,6.460866468859326e-07,1.179906405858916e-06,1.7498814833987605e-06,2.1441457589188034e-06,-5.958906273530067e-07,-1.6618374066930853e-08,5.95233841805809e-08,-3.6325304655395834e-07,9.376031914021783e-08,-1.6903934351655962e-06,5.828741570636529e-07,3.763133503236775e-07,1.966427438821873e-06,7.775908373002817e-07,7.706755023347281e-07
9.641718875318327e-07,1.157416006896065e-06,6.188141560599642e-07,6.652582453913496e-07,1.272512398565827e-06,1.601891030569466e-06,2.002218176542938e-06,-5.434986248736886e-07,2.7106260953247274e-09,1.275830678309813e-07,-3.8084360769551307e-07,1.364582727358338e-07,-1.6386820269591448e-06,6.366959513592484e-07,4.4906199695058565e-07,2.0070336464935397e-06,8.055042227230316e-07,8.431539892020607e-07
1.0791170310458391e-06,1.1683637294251031e-06,5.842528671768121e-07,6.796987465893057e-07,1.3372352067445135e-06,1.466420636800279e-06,1.8472515976955023e-06,-5.068207524397436e-07,1.1380811871128908e-08,1.9413617785595148e-07,-3.869128038886424e-07,1.6969660893863863e-07,-1.5888339212958826e-06,6.823660893477693e-07,5.102863588736776e-07,2.04787395059971e-06,8.247979573924797e-07,9.040676949903008e-07
1.1815093973075235e-06,1.1680337319306837e-06,5.42008169874545e-07,6.883338414750998e-07,1.3735673957790724e-06,1.3549201144388425e-06,1.694643660985398e-06,-4.898543395493803e-07,9.619006556341527e-09,2.4865632881323795e-07,-3.7755726087964436e-07,1.9403250016337703e-07,-1.5454743404575106e-06,7.213935609913147e-07,5.564598273782869e-07,2.086556851198676e-06,8.345469259618135e-07,9.515021322918153e-07
1.2566775421775265e-06,1.157550268563638e-06,5.078670959697418e-07,6.928852246496568e-07,1.386636318976699e-06,1.2752240351088894e-06,1.5629754397217717e-06,-4.948190886156479e-07,-1.2527154908520624e-09,2.832709920021106e-07,-3.5215663098460603e-07,2.0930641236384374e-07,-1.5119483241348913e-06,7.552840159129768e-07,5.861697167513453e-07,2.1218034071226215e-06,8.352187511484038e-07,9.846698214726948e-07
1.29652375024671e-06,1.138299540531011e-06,4.925155020942401e-07,6.964551784535417e-07,1.3837520513351813e-06,1.2357293949648245e-06,1.4692555760103589e-06,-5.217549034101697e-07,-2.05025159224603e-08,2.9423231470631164e-07,-3.1689160372504355e-07,2.147405032495017e-07,-1.4894393497085287e-06,7.840993092266926e-07,5.999727072101794e-07,2.158088766620033e-06,8.278957219208239e-07,1.0070775539460238e-06
1.3009093127836198e-06,1.1114717337443638e-06,4.984469417667512e-07,7.015452437299636e-07,1.3718841419159688e-06,1.2379901616951106e-06,1.424372545115901e-06,-5.680324487886843e-07,-4.544009890402991e-08,2.8282229172341107e-07,-2.819954070624892e-07,2.1066686227132092e-07,-1.4769063403858118e-06,8.064401066827163e-07,6.004064733221407e-07,2.199292847366548e-06,8.162847064286277e-07,1.02236458277355e-06
1.2768243722062336e-06,1.0787012295647944e-06,5.206841268470041e-07,7.096704388294818e-07,1.3569167598978585e-06,1.2775365315380736e-06,1.4323761283366838e-06,-6.274352573733e-07,-7.011492742860377e-08,2.5590152951849216e-07,-2.5283531624844115e-07,1.9981452782672094e-07,-1.4701208855784786e-06,8.203265821027722e-07,5.920548219506191e-07,2.249975947092819e-06,8.047496910567843e-07,1.0198848478125197e-06
1.23598725980656e-06,1.0423997492261396e-06,5.49309197147727e-07,7.211790119417427e-07,1.3437274185565482e-06,1.3470992015533558e-06,1.4906976702377117e-06,-6.907755030879504e-07,-8.837751300733195e-08,2.2473579988523688e-07,-2.673140796242794e-07,1.850817205677995e-07,-1.4629759880938025e-06,8.229516599612502e-07,5.798952988712451e-07,2.314021171270869e-06,7.974139067249975e-07,1.0222160421328356e-06
1.1913700172481003e-06,1.0050420484451228e-06,5.723142291507347e-07,7.341247656959731e-07,1.334386457709662e-06,1.432732381743567e-06,1.5870594680400189e-06,-7.479945457064172e-07,-9.41033871380008e-08,2.0167622994350753e-07,-3.079033791887508e-07,1.6963158443142355e-07,-1.4501327382247499e-06,8.102792692094423e-07,5.670542732936981e-07,2.384050221937946e-06,7.969709162116029e-07,1.0285260480227242e-06
1.15354024002458e-06,9.689230071734947e-07,5.794723522787936e-07,7.442207230923379e-07,1.3274348206718893e-06,1.5176782785792448e-06,1.7019545261283812e-06,-7.902342360169379e-07,-8.465135175052127e-08,1.9600524213796395e-07,-3.383198250393197e-07,1.556798646859446e-07,-1.428744866937825e-06,7.79012870003596e-07,5.539947095392826e-07,2.4120618756714854e-06,8.02777575347267e-07,1.0312666721672435e-06
1.1278432641323098e-06,9.371203390687942e-07,5.667582143664e-07,7.471464183293109e-07,1.3211487988323311e-06,1.5856437940057153e-06,1.8121622760536368e-06,-8.11231704061788e-07,-5.713236489497863e-08,2.1031520385261734e-07,-4.0505959613606215e-07,1.4562063931689498e-07,-1.3995497901447296e-06,7.297918644911912e-07,5.387241004936762e-07,2.4047100636976886e-06,8.129314714234595e-07,1.0311525561760798e-06
1.1132706664896758e-06,9.138684752819893e-07,5.382085109222535e-07,7.409558420218443e-07,1.3160253107259154e-06,1.6251271709575161e-06,1.895593086262328e-06,-8.092933328440573e-07,-1.9361753548739742e-08,2.3899799145630033e-07,-4.894460648143319e-07,1.4040528993586654e-07,-1.3672362561663349e-06,6.679369297048401e-07,5.172431170770566e-07,2.3493157337269837e-06,8.239671984311737e-07,1.0228218909948861e-06
1.103940226771217e-06,9.031889768821778e-07,5.034733138716788e-07,7.267221002981633e-07,1.3144513426097858e-06,1.6301155544987315e-06,1.9355165719695897e-06,-7.891403429952628e-07,2.926070080291903e-08,2.7054566971180367e-07,-5.801928247833892e-07,1.380679794602747e-07,-1.3396589106691193e-06,6.01327692232748e-07,4.850646319221829e-07,2.2138917376935833e-06,8.341174547660928e-07,9.95054594359731e-07
1.0932449129384924e-06,9.073288122733229e-07,4.7335444768958993e-07,7.086039572115814e-07,1.3192602753501556e-06,1.6034579479822787e-06,1.925506344986135e-06,-7.606465683204956e-07,8.192715943053116e-08,2.9320719757163253e-07,-6.493942681976077e-07,1.3571062437637515e-07,-1.32475194316306e-06,5.382282166324346e-07,4.404907604971014e-07,2.1917155087848383e-06,8.375315518821989e-07,9.497942893457708e-07
1.078461291869497e-06,9.263733129362739e-07,4.5638770373112957e-07,6.940354792571447e-07,1.334196006340529e-06,1.5523956034456158e-06,1.863629058321211e-06,-7.343191291359049e-07,7.222896196018199e-08,3.0100982889412176e-07,-6.884552501651358e-07,1.325575439283199e-07,-1.3262322740749254e-06,4.860661080656132e-07,3.8719300721550966e-07,2.1345447621266806e-06,8.360054725306271e-07,8.728296820795423e-07
1.0627574791676442e-06,9.582102021677084e-07,4.5707501885256947e-07,6.923278805376563e-07,1.3638420469454732e-06,1.4875400887313106e-06,1.7574313495809867e-06,-7.172286620347572e-07,3.356948799728069e-08,2.958341187648238e-07,-7.107752402636373e-07,1.2914086209443984e-07,-1.3416221799781978e-06,4.5004468950837577e-07,3.336095209338031e-07,1.9986447916269676e-06,8.057984805659571e-07,7.27896044040718e-07
1.0530313629902645e-06,9.983771066828108e-07,4.755946494508644e-07,7.113520163194573e-07,1.4109788425251746e-06,1.4197157311247927e-06,1.6211799122084176e-06,-7.119442931591901e-07,-1.012816507089845e-08,2.849290658552716e-07,-7.156804612869872e-07,1.2775344437959137e-07,-1.363425893749041e-06,4.31965772471498e-07,2.897363952955575e-07,1.822494295075532e-06,7.491865467908596e-07,6.01444873955796e-07
1.0551195025491506e-06,1.0409872192835741e-06,5.094099819784667e-07,7.548226842029303e-07,1.4741947932137685e-06,1.3572155864807038e-06,1.4724018955114803e-06,-7.174234806236241e-07,-1.3159742021687402e-07,2.7618184584539415e-07,-7.02570689368533e-07,1.3126700064037084e-07,-1.3817075061617608e-06,4.304955982380785e-07,2.6339975721657474e-07,1.6378177253547398e-06,7.112761069415828e-07,5.008350314681785e-07
1.0700046405617516e-06,1.080735284570523e-06,5.557289612667967e-07,8.21454843400159e-07,1.5483034837563971e-06,1.3011297157311523e-06,1.3350096531830956e-06,-7.305065213549575e-07,-2.5071024044766567e-07,2.7365891067516143e-07,-6.78633125108897e-07,1.400367070423174e-07,-1.3877610211558537e-06,4.421161126777247e-07,2.5708281786225103e-07,1.4782483979823935e-06,6.86390826005589e-07,4.0820456142710264e-07
1.0934338374347128e-06,1.1140303784917902e-06,6.123702642462502e-07,9.047790020669121e-07,1.6250796012890457e-06,1.278963239907441e-06,1.2318565167169395e-06,-7.478522199949748e-07,-3.420611015133128e-07,2.753174673699539e-07,-6.468969170797211e-07,1.514784243578983e-07,-1.3781923256521533e-06,4.617351701704916e-07,2.664290530616395e-07,1.3869376770439705e-06,6.653499438122957e-07,3.6221078571530387e-07
1.1184385032774573e-06,1.1386969776551011e-06,6.766584526545959e-07,9.937314687796774e-07,1.694121620575512e-06,1.2783598266631646e-06,1.1867794280219256e-06,-7.670539835420916e-07,-4.020683879660421e-07,2.7439360339458644e-07,-6.139950891003518e-07,1.6101700471363376e-07,-1.3560135159795104e-06,4.839440438856023e-07,2.8216037743475975e-07,1.3454689136596907e-06,6.59505894718501e-07,3.463568303932368e-07
1.1384661078510491e-06,1.1537592982452629e-06,7.44350190348344e-07,1.075632106751784e-06,1.7452515375158417e-06,1.2975437919973838e-06,1.2112388016165491e-06,-7.862011137197437e-07,-4.390070826485659e-07,2.6388402795536497e-07,-5.858002790596572e-07,1.647881638641723e-07,-1.3290292344798053e-06,5.051840146411042e-07,2.947710484941632e-07,1.3471667919313999e-06,6.593777798175449e-07,3.478184976650125e-07
1.1492753199908357e-06,1.1597551588348423e-06,8.097465460511251e-07,1.1406144723069267e-06,1.7717842459609977e-06,1.344728836420815e-06,1.3036416764756445e-06,-8.034699024156132e-07,-4.678752315966308e-07,2.4067233765796027e-07,-5.643674684357531e-07,1.6172439700477712e-07,-1.3048484963706787e-06,5.246124417711986e-07,2.9842047541853457e-07,1.3723334158944822e-06,6.611794816966687e-07,3.387446018003859e-07
1.149274630080073e-06,1.1586352559385698e-06,8.667721052044185e-07,1.1845750892911744e-06,1.7722622846826505e-06,1.4136321447186918e-06,1.4518690802101579e-06,-8.174526976358641e-07,-4.905431251831733e-07,2.07086268074329e-07,-5.494402451222923e-07,1.539160789990021e-07,-1.2882826013779377e-06,5.42855725878142e-07,2.922880509972919e-07,1.3976081250921806e-06,6.644405398797724e-07,3.35536970717293e-07
1.1392084412984708e-06,1.1533649905719574e-06,9.109997244317707e-07,1.209825775583466e-06,1.7509429732369369e-06,1.4991273985305656e-06,1.619781845237961e-06,-8.269518572366556e-07,-5.116184225502415e-07,1.7012656679530442e-07,-5.387719668342919e-07,1.4506757219798005e-07,-1.2804342235741075e-06,5.609692925419975e-07,2.80201565031121e-07,1.42135273346634e-06,6.647525026386392e-07,3.398682759702791e-07
1.1217494858780539e-06,1.1478578898492419e-06,9.418959635100696e-07,1.2241782118841767e-06,1.7179743043819306e-06,1.6045454735391707e-06,1.798016915464737e-06,-8.297567949214e-07,-5.329321515746044e-07,1.388514657433096e-07,-5.290407378798455e-07,1.3961435617879284e-07,-1.27811466696815e-06,5.807451271547213e-07,2.689724198265342e-07,1.4457828726599756e-06,6.647883304254197e-07,3.4476105428343346e-07
1.1005986614151514e-06,1.1465155308318196e-06,9.631923980590934e-07,1.238104904246456e-06,1.6869152984917578e-06,1.7410517381302614e-06,1.9767591832456875e-06,-8.225332536877183e-07,-5.472329279215135e-07,1.2079977124742953e-07,-5.169399215358284e-07,1.4142346864539727e-07,-1.2760036397460244e-06,6.046356922847127e-07,2.6544884015629427e-07,1.4742047544282214e-06,6.659790607968654e-07,3.592898039043139e-07
1.0791311417550777e-06,1.152837332762574e-06,9.80719287277331e-07,1.2604540413386091e-06,1.6696226983521269e-06,1.860761828773826e-06,2.1479608214855e-06,-8.026171164771142e-07,-5.528263718924933e-07,1.189216951832205e-07,-5.004577187889404e-07,1.5209082303664678e-07,-1.2687545871605434e-06,6.34663214743966e-07,2.739078837174018e-07,1.5111831872524956e-06,6.692475154266367e-07,3.7826778907405496e-07
1.0595229563958257e-06,1.1683697019740534e-06,1.0000021838201027e-06,1.295621694567709e-06,1.6720105339147674e-06,1.9969955560438764e-06,2.313740968602187e-06,-7.69530899328527e-07,-5.492096234816435e-07,1.315580740876374e-07,-4.791806017460338e-07,1.710184591334272e-07,-1.2527404744912268e-06,6.717611648222773e-07,2.955447889321982e-07,1.5604528364089667e-06,6.760913685571397e-07,4.0308735661464e-07
1.0427828077365898e-06,1.1928462827229062e-06,1.0248128018443674e-06,1.3437466649163884e-06,1.6940039192165047e-06,2.1302967790123803e-06,2.4445881969770807e-06,-7.249758740203138e-07,-5.360690510183894e-07,1.5490381312138539e-07,-4.5378545728517855e-07,1.9645990273480075e-07,-1.2260710668257657e-06,7.156381960359084e-07,3.291741665622745e-07,1.624081042102423e-06,6.873929734806859e-07,4.365052535730855e-07
1.0291633079193207e-06,1.224438519248989e-06,1.0569448028727943e-06,1.4020289430874862e-06,1.7314904884237497e-06,2.2396256454440167e-06,2.5524103505773186e-06,-6.722969993608119e-07,-5.145440304628249e-07,1.8551041944100544e-07,-4.257306929225037e-07,2.261383323856169e-07,-1.1887982171755899e-06,7.641550322133526e-07,3.716644980296263e-07,1.700508802926849e-06,7.028441616626009e-07,4.836207335998925e-07
1.0184750699204247e-06,1.2595704276779526e-06,1.0959200108158983e-06,1.4655558792057766e-06,1.777694637740224e-06,2.3480910882560177e-06,2.651669957711511e-06,-6.159269605782899e-07,-4.866295349364213e-07,2.2174213950180064e-07,-3.9657809614199787e-07,2.5758261370026846e-07,-1.1426555874843218e-06,8.130964684806444e-07,4.1845448685592643e-07,1.7836943707103643e-06,7.206342340304962e-07,5.343487188850579e-07
1.0101310714352877e-06,1.2934567743028552e-06,1.139352862447969e-06,1.5283104930437555e-06,1.8249137719891991e-06,2.436607387377574e-06,2.7311141674958745e-06,-5.6025511611247e-07,-4.5443247670350905e-07,2.6352879458552873e-07,-3.6773861380821886e-07,2.8873437885875214e-07,-1.0902277598696737e-06,8.574789214077331e-07,4.645944369580922e-07,1.8651057414541123e-06,7.382781715241905e-07,5.853991058356096e-07
1.0028265607628738e-06,1.3216728835925406e-06,1.1843468620536962e-06,1.5845356982571617e-06,1.866785919192046e-06,2.47644269027173e-06,2.783302956241101e-06,-5.085406364940973e-07,-4.1958884908330296e-07,3.103445554071489e-07,-3.406025197518859e-07,3.1797046652668115e-07,-1.034878842571882e-06,8.930501055560924e-07,5.053654663880222e-07,1.9361284730218317e-06,7.535690527390642e-07,6.351879294058758e-07
9.942853825398595e-07,1.3415145887690726e-06,1.22845857292279e-06,1.629542361616229e-06,1.8994198580170266e-06,2.4577822788816036e-06,2.794414827739339e-06,-4.627548667580593e-07,-3.836814942108542e-07,3.588419071026513e-07,-3.1689110861197476e-07,3.434999962869815e-07,-9.812110568073176e-07,9.166863912001453e-07,5.362881032963055e-07,1.9889550217309582e-06,7.649083456745061e-07,6.776288499798359e-07
9.81800383456132e-07,1.3526440504553256e-06,1.2701797615216921e-06,1.6602523429275745e-06,1.921918838409105e-06,2.4097420569966826e-06,2.7803651899850086e-06,-4.236961762442306e-07,-3.4868176533479196e-07,4.0226513013366696e-07,-2.99165944871612e-07,3.6331686509699846e-07,-9.352480523148552e-07,9.266866178922621e-07,5.535718756089362e-07,2.017149623056575e-06,7.715015107700633e-07,7.107948775308232e-07
9.633666143093809e-07,1.3572730059766785e-06,1.3093291306445801e-06,1.6760240267923403e-06,1.9369641506862915e-06,2.295311075755625e-06,2.721034343802923e-06,-3.9080621669791034e-07,-3.1663204096623434e-07,4.317237475015496e-07,-2.9055053409605475e-07,3.7571500179262787e-07,-9.03435216266459e-07,9.234116864245146e-07,5.549254304160266e-07,2.016366161648888e-06,7.73424984295506e-07,7.314054691369853e-07
9.385320559186814e-07,1.359381767066172e-06,1.3468956737711365e-06,1.6786957137974886e-06,1.950571473220474e-06,2.231237780602653e-06,2.6691846598574465e-06,-3.626664786712018e-07,-2.8951640133867303e-07,4.386151888324379e-07,-2.940176481201793e-07,3.796970245884872e-07,-8.915051035466743e-07,9.090793957694452e-07,5.400626061428522e-07,1.984571797209802e-06,7.712234892160467e-07,7.369038550139445e-07
9.08856352913074e-07,1.3629554457953836e-06,1.3837312686682132e-06,1.6714477454678058e-06,1.9692267780538053e-06,2.2095654348714594e-06,2.6056959791587177e-06,-3.380175992286266e-07,-2.6944978015771453e-07,4.181750185208892e-07,-3.113665200086475e-07,3.7551500410889164e-07,-9.02904924973226e-07,8.869476755167797e-07,5.112042569889839e-07,1.9229172979524706e-06,7.658051590690566e-07,7.27605330540816e-07
8.782811651742267e-07,1.3707436605304608e-06,1.4194491939489562e-06,1.65814892396298e-06,1.9974944936644382e-06,2.189685397935663e-06,2.5191973823546052e-06,-3.157908753970237e-07,-2.5793852136463474e-07,3.729832616068844e-07,-3.420033199618552e-07,3.657652817393108e-07,-9.365075967971494e-07,8.612614645615839e-07,4.738698301067623e-07,1.8376946948657312e-06,7.591339295798485e-07,7.070942883663572e-07
8.528959100816006e-07,1.3841904469906653e-06,1.4523806693955063e-06,1.6436043475978327e-06,2.037896395278918e-06,2.225552517865051e-06,2.4647893344758196e-06,-2.9444403458877573e-07,-2.546217527080362e-07,3.135839840509666e-07,-3.820245156794384e-07,3.5568720310415297e-07,-9.85753086549933e-07,8.372752341729667e-07,4.3632746021830987e-07,1.7403182096119618e-06,7.544120851113273e-07,6.820654216213622e-07
8.393682622723877e-07,1.4032942560449244e-06,1.4796701376414047e-06,1.6328372762940932e-06,2.0906273570930957e-06,2.2070711585161253e-06,2.416004939988462e-06,-2.7205294363165427e-07,-2.572468989461163e-07,2.5481332897724546e-07,-4.2497958680114665e-07,3.513832483916293e-07,-1.0404832694277311e-06,8.200308454890878e-07,4.0689848363370047e-07,1.643681650433974e-06,7.548615331405453e-07,6.600911970461138e-07
8.423980899758075e-07,1.4260361850196353e-06,1.4979562829909222e-06,1.629100757551188e-06,2.15276388130337e-06,2.152897524077818e-06,2.377327422569553e-06,-2.471251825049265e-07,-2.6264508686712446e-07,2.097913805084227e-07,-4.6394884630048024e-07,3.5749500070655924e-07,-1.0901248954693928e-06,8.129915065345408e-07,3.910683028233237e-07,1.5582140846311715e-06,7.623942418932164e-07,6.472589107773733e-07
8.624547417154508e-07,1.4486777038218548e-06,1.504332874582229e-06,1.632640817243126e-06,2.2180251335042398e-06,2.0896889877127592e-06,2.3012291619341756e-06,-2.1903543668349994e-07,-2.6728742008033744e-07,1.8491511913519082e-07,-4.932282612366261e-07,3.7594260992030707e-07,-1.1266943163237202e-06,8.177911000344446e-07,3.9008648992305933e-07,1.490312903830779e-06,7.7725083470603e-07,6.469534236958803e-07
8.948781919281574e-07,1.4671447110757415e-06,1.4977668779703278e-06,1.6408836907089307e-06,2.27879176087803e-06,2.0040991385543785e-06,2.21878137673417e-06,-1.883349831059811e-07,-2.6782553388349177e-07,1.7746168111284947e-07,-5.101922128541729e-07,4.0531237982300926e-07,-1.1469889069597324e-06,8.340061902152695e-07,4.007051944254378e-07,1.4416137718156794e-06,7.979131243181799e-07,6.591892796734801e-07
9.308293489937888e-07,1.4782978744542464e-06,1.479930940881506e-06,1.6491582527658086e-06,2.3279103651106585e-06,1.91603177518395e-06,2.111365301379382e-06,-1.5738343870100825e-07,-2.6240413583690697e-07,1.7682455269187426e-07,-5.162499618762733e-07,4.407691509404792e-07,-1.1536631334964588e-06,8.584773288198026e-07,4.1593876361937846e-07,1.4084468442363379e-06,8.210671621741576e-07,6.802774202464762e-07
9.600879664082342e-07,1.4808351390782616e-06,1.4549063109751501e-06,1.6523389188296393e-06,2.3606850985109956e-06,1.840018469157843e-06,1.9971376601448305e-06,-1.300878455747019e-07,-2.514965156459955e-07,1.6961890161400973e-07,-5.159596395938413e-07,4.755728965713883e-07,-1.1540926815014906e-06,8.860110620902711e-07,4.2774706520044865e-07,1.3836525675446282e-06,8.425914000428683e-07,7.041442156737549e-07
9.74824368386959e-07,1.4760910214142907e-06,1.4287032879267042e-06,1.6477276669312734e-06,2.3777081538089007e-06,1.7534415982593102e-06,1.8749932338197525e-06,-1.101068396858567e-07,-2.3722013080803314e-07,1.4654784361964262e-07,-5.147216486066034e-07,5.038892855562348e-07,-1.156706342742441e-06,9.117835971891856e-07,4.3066218550973956e-07,1.3604976504964503e-06,8.593364196924997e-07,7.249414440165746e-07
9.724057737237268e-07,1.4677789401256944e-06,1.4078202640704466e-06,1.6368912482413353e-06,2.3853600653230664e-06,1.6580895983794187e-06,1.7218970262952198e-06,-9.919179811353316e-08,-2.2229623429825446e-07,1.0690960205062714e-07,-5.164183644654922e-07,5.22727227161702e-07,-1.16727366421108e-06,9.330918825736885e-07,4.2381787870190086e-07,1.335525958139991e-06,8.702058655028737e-07,7.389979277550377e-07
9.555720984282112e-07,1.4601765721977489e-06,1.3969314611490306e-06,1.6245457022787048e-06,2.3923443190149708e-06,1.5571656277871126e-06,1.550896478887507e-06,-9.654158049650213e-08,-2.0950066918460359e-07,5.8381566292713715e-08,-5.224033571046211e-07,5.322437031726466e-07,-1.1871166098647108e-06,9.494767848929287e-07,4.106259308425913e-07,1.3093796260384588e-06,8.762021959849828e-07,7.456566451730558e-07
9.302298135680433e-07,1.4563208718284515e-06,1.3974505994242267e-06,1.6160513327771313e-06,2.4057764352522893e-06,1.4438029525340034e-06,1.3534804186979773e-06,-9.983029834998966e-08,-2.0091619165462457e-07,1.3113921364602922e-08,-5.316845879243514e-07,5.351701722974502e-07,-1.2130695088486578e-06,9.623181216627426e-07,3.9706520050143466e-07,1.2864271802212022e-06,8.799525277820033e-07,7.471346539784774e-07
9.026505011331867e-07,1.457419773424868e-06,1.4078905246871235e-06,1.6155762949174754e-06,2.4288889693880354e-06,1.3243212249174894e-06,1.1787603714011167e-06,-1.049594708877892e-07,-1.9718003405247283e-07,-1.7461593784048167e-08,-5.419505545144855e-07,5.354271251276391e-07,-1.2393403391793133e-06,9.739378976282145e-07,3.8902026344419014e-07,1.2725021366146291e-06,8.844714431747951e-07,7.469160902608767e-07
8.775823710284315e-07,1.4627947306278225e-06,1.4247354609356648e-06,1.6248886553968925e-06,2.4605719521011058e-06,1.2032465924258704e-06,1.0081355529078736e-06,-1.0756385143189044e-07,-1.9774786208289907e-07,-2.676724035868051e-08,-5.509009257924638e-07,5.35994390018733e-07,-1.2601672814707583e-06,9.858861724397668e-07,3.893729044987654e-07,1.2710500540411854e-06,8.913660185882646e-07,7.472183787108198e-07
8.576452914847515e-07,1.4700426683990435e-06,1.443341859680968e-06,1.6428359232198685e-06,2.4962734977733987e-06,1.1115477055519635e-06,8.523062247829223e-07,-1.0492696853016908e-07,-2.0159765965043513e-07,-1.451120454860462e-08,-5.573091820638902e-07,5.376534493196779e-07,-1.2726017121020454e-06,9.97937400453454e-07,3.9680501282507153e-07,1.2809800710793722e-06,9.000230961215594e-07,7.476290186546015e-07
8.436351552178624e-07,1.476069030785978e-06,1.4593914204125374e-06,1.6662107893348921e-06,2.5304297199786766e-06,1.0451593099975162e-06,7.238554822607327e-07,-9.625390610150696e-08,-2.0731625205273846e-07,1.4662152849269721e-08,-5.611496553120057e-07,5.394239882718111e-07,-1.277170274566093e-06,1.0087586709992426e-06,4.071145754200821e-07,1.2977430742862565e-06,9.083550200478339e-07,7.458647572459971e-07
8.351042810131267e-07,1.4784671761157128e-06,1.4700072435182125e-06,1.6911085653086732e-06,2.5587784470869363e-06,1.0061917906808733e-06,6.201367289137519e-07,-8.25676360647277e-08,-2.132082755543464e-07,5.367537121074956e-08,-5.63284043977302e-07,5.395506532224555e-07,-1.2770994658657423e-06,1.0167592480728426e-06,4.1549361079298313e-07,1.3154870387498094e-06,9.1392379720325e-07,7.395558685373199e-07
8.308144737292793e-07,1.4761086505256612e-06,1.4738221272167048e-06,1.7136066433648305e-06,2.5785602460558857e-06,9.806810304853118e-07,5.240313242995262e-07,-6.655950194155322e-08,-2.1788525468735005e-07,9.554971877763026e-08,-5.652236145918647e-07,5.364427682176547e-07,-1.277077440332921e-06,1.0203262580985484e-06,4.1864438983312285e-07,1.3291920497959052e-06,9.14871761802208e-07,7.281323052337538e-07
8.291504040154566e-07,1.4692860394887257e-06,1.4710454435426084e-06,1.730704327219824e-06,2.588445111237055e-06,9.573822106438115e-07,4.434422312023127e-07,-5.1592076384077787e-08,-2.2013001704305747e-07,1.3592449070231678e-07,-5.684677007803986e-07,5.29744512764799e-07,-1.2810572776039517e-06,1.0185040112144883e-06,4.165768927698962e-07,1.3372414391852802e-06,9.109378797433721e-07,7.144906884766494e-07
8.285035083492567e-07,1.4599147073163853e-06,1.464005329515907e-06,1.7420423804412237e-06,2.589545937946326e-06,9.374194779572193e-07,3.787250596851815e-07,-3.949927241920837e-08,-2.1782786528460513e-07,1.746752291763743e-07,-5.733195880770302e-07,5.209350001955571e-07,-1.2900874254406915e-06,1.0118610707278434e-06,4.129818172211746e-07,1.342660852596036e-06,9.038293856152002e-07,7.049657918328746e-07
8.272635223912011e-07,1.4509371336664657e-06,1.4572113659526324e-06,1.750504648163301e-06,2.586048619935136e-06,9.17485420947985e-07,3.1197670888772985e-07,-2.9702562913886807e-08,-2.0761218140312547e-07,2.155129182164534e-07,-5.785542846607414e-07,5.125401164679606e-07,-1.3019456537344827e-06,1.0021476117666503e-06,4.1333692680267504e-07,1.351268384561073e-06,8.962149517809485e-07,7.069652293835396e-07
8.234547977770369e-07,1.4447660694744864e-06,1.456008738730909e-06,1.7607400327899921e-06,2.5834760849875057e-06,9.016843857123542e-07,2.605118484729391e-07,-1.9558342180548638e-08,-1.8576017806424642e-07,2.6367846153659497e-07,-5.81861337329201e-07,5.068421516242266e-07,-1.3124577141234102e-06,9.913035393950436e-07,4.2221241455259846e-07,1.3687916068653966e-06,8.903871128309299e-07,7.25944555122373e-07
8.146762175206733e-07,1.442244471801938e-06,1.4649844517201847e-06,1.7771014181709858e-06,2.5865625825306695e-06,8.879966360469062e-07,2.2754608599381236e-07,-5.471574311825863e-09,-1.4940972058650393e-07,3.23049811162537e-07,-5.807202118586813e-07,5.052870242016865e-07,-1.3173760023370444e-06,9.810717618446013e-07,4.415991624798523e-07,1.399231969068391e-06,8.876975822315247e-07,7.635690364845165e-07
7.987086660441367e-07,1.4427745187735512e-06,1.4865848639023484e-06,1.8019077985164656e-06,2.5978158719973733e-06,8.75971337149177e-07,2.1371679022290025e-07,1.5657718744064925e-08,-9.79634904282065e-08,3.93649722291253e-07,-5.736477135922271e-07,5.082015497359956e-07,-1.3140121497821146e-06,9.726385191112136e-07,4.7030540811555456e-07,1.4437514009279953e-06,8.883588384880857e-07,8.172868997227338e-07
7.745188954317441e-07,1.4448707370425748e-06,1.5199401758670744e-06,1.8339854397993797e-06,2.6161663731340425e-06,8.880650982826762e-07,2.4006877527101783e-07,4.436338995978957e-08,-3.456295723358998e-08,4.70448873370577e-07,-5.612611304753096e-07,5.146284053681678e-07,-1.302826953783515e-06,9.659391549248326e-07,5.042520727800055e-07,1.4997780059149594e-06,8.913491967359104e-07,8.80936790620456e-07
7.432385004201123e-07,1.4469351368230133e-06,1.5607306783649054e-06,1.8685550130570248e-06,2.6370475779636055e-06,9.207427074539607e-07,3.0068803717520903e-07,7.791880634634802e-08,3.380305157098502e-08,5.44509562883153e-07,-5.4632243649047e-07,5.228904416975313e-07,-1.2875408902075638e-06,9.598310464969084e-07,5.379118541991028e-07,1.56140739849997e-06,8.948419098994031e-07,9.46456697294967e-07
7.086190538271127e-07,1.4482492898182232e-06,1.602585862733119e-06,1.898993542893938e-06,2.6547720069760376e-06,9.625178795711637e-07,3.759728472436814e-07,1.1155130105253084e-07,9.80430256906476e-08,6.059267794920686e-07,-5.326103550104165e-07,5.315523940409263e-07,-1.2737767782586343e-06,9.531344239711959e-07,5.659902230198885e-07,1.6201716828979195e-06,8.9669160772939e-07,1.005437507803273e-06
6.764433989333366e-07,1.4492698633407326e-06,1.6391553373369033e-06,1.918837989424326e-06,2.665037386410858e-06,1.005734846599651e-06,4.537085987058925e-07,1.4070348538606578e-07,1.4912710410565756e-07,6.46775697398828e-07,-5.236269084898518e-07,5.398109971249116e-07,-1.267956893648322e-06,9.452178739790184e-07,5.842292213368046e-07,1.6649166671603255e-06,8.943577385739798e-07,1.0496835140359436e-06
6.52986515360479e-07,1.4510601294086075e-06,1.6659077159455223e-06,1.9231593005261225e-06,2.666378238985387e-06,1.0363463062838943e-06,5.18665387993765e-07,1.6134270668912902e-07,1.8001377877659033e-07,6.630758950178808e-07,-5.205566068701181e-07,5.477195390847428e-07,-1.2761829280345668e-06,9.364013339053842e-07,5.899349998638733e-07,1.682718880233349e-06,8.850889620343245e-07,1.0718613325343441e-06
6.432508297431544e-07,1.4550547263178448e-06,1.68186575111138e-06,1.9102479869175384e-06,2.661423310118133e-06,1.0489949749395294e-06,5.623744251631806e-07,1.7162062229324654e-07,1.8766012125164056e-07,6.555624338501359e-07,-5.216761205926241e-07,5.567478180523627e-07,-1.3032605516150978e-06,9.288477078994854e-07,5.828414171531056e-07,1.6623797735556944e-06,8.669773704272152e-07,1.066920988922456e-06
6.495212574017114e-07,1.4632915945273822e-06,1.690589968168976e-06,1.8831853403063367e-06,2.658296795266828e-06,1.045304094743037e-06,5.871113760428252e-07,1.723702404617785e-07,1.7414217337069636e-07,6.286625667284129e-07,-5.225176030284901e-07,5.696129713530627e-07,-1.3518236584396492e-06,9.26582577401189e-07,5.654101234803973e-07,1.5982610957014945e-06,8.398631531529149e-07,1.0333672333720941e-06
6.705226824786814e-07,1.4780287182050411e-06,1.6992646585951121e-06,1.8496713553566346e-06,2.667155990584687e-06,1.0325603647599053e-06,6.006509035100411e-07,1.6579076953116392e-07,1.4593119797510124e-07,5.879594560559604e-07,-5.175112250295397e-07,5.890693748153013e-07,-1.422559756140843e-06,9.339114903580177e-07,5.419629187942087e-07,1.492484599112224e-06,8.054916699602206e-07,9.737782976448104e-07
7.0167084403185e-07,1.5009128028782937e-06,1.7162487293065476e-06,1.8203857993526488e-06,2.6984262106677875e-06,1.0159050302264864e-06,6.10380392986103e-07,1.5480771624272536e-07,1.124357394065401e-07,5.379755539348274e-07,-5.022975796786579e-07,6.170259611611882e-07,-1.5139151176169959e-06,9.54029538463687e-07,5.177060058590006e-07,1.3572672537377138e-06,7.675400021020102e-07,8.949633269549183e-07
7.366509439626571e-07,1.5325875847132634e-06,1.7482187993634559e-06,1.8068276445772967e-06,2.7605015632484067e-06,1.0117515264407806e-06,6.384791025883046e-07,1.4314386930518221e-07,8.46100226513422e-08,4.814516733256978e-07,-4.741951554925298e-07,6.543761294590016e-07,-1.621214555674905e-06,9.886593094450979e-07,4.977799770772055e-07,1.2091358135389025e-06,7.313308723205226e-07,8.071207546362746e-07
