0,1,2,3,4,5,6,7,8,9,10,11,12,13,14,15,16,17
3.763301776812619e-07,3.1807366282972037e-07,3.2101451505981064e-07,2.95435173442814e-07,-6.57661787897682e-08,2.431414147809374e-07,5.243128707121007e-07,2.6088376036062414e-07,1.8656700421453518e-07,2.4557623873615243e-07,2.325937732690958e-07,1.7708579957616093e-07,3.2685532650579454e-07,4.130692175272883e-07,4.616401887444631e-07,3.346596437231376e-07,8.951255019965845e-08,1.1569300992064817e-07
2.947282031460841e-07,2.3418648154715245e-07,2.507681275436926e-07,1.7406839020319236e-07,-1.522488293798912e-07,1.9112753956467823e-07,4.2337520913266e-07,3.5943347145730115e-07,1.383204200380058e-07,1.5510607740520063e-07,1.6197197226984457e-07,1.251269159529722e-07,2.4675768499243995e-07,3.316926331519867e-07,3.6557996360385026e-07,3.459642499061029e-07,3.6870077640309315e-08,9.555402338108824e-08
2.3023022921332628e-07,1.6928559984106473e-07,1.9619593228259278e-07,7.739021135829278e-08,-2.304067545960594e-07,1.3686281617904113e-07,3.11159765003081e-07,4.5946970007128565e-07,1.0439479599076251e-07,8.540211833020522e-08,1.0644736045195011e-07,8.486753517785452e-08,1.8314423999980819e-07,2.6827548630123615e-07,2.521750312369264e-07,3.9495409653654747e-07,2.460507726187997e-09,8.697098908963173e-08
1.7916403875084577e-07,1.1935003097045554e-07,1.531917309960662e-07,1.1060873314377388e-08,-2.7371334581444525e-07,7.661649661529733e-08,1.839488847335757e-07,5.202253558060794e-07,8.005182806662349e-08,3.30659549659126e-08,6.275868253451739e-08,5.1349731515569285e-08,1.3241058475944686e-07,2.176349173643745e-07,1.2736911852303457e-07,4.351466189015484e-07,-1.418682436449317e-08,7.847491953713349e-08
1.3564795243201217e-07,7.629433995279866e-08,1.1594584871948379e-07,-2.714518035264835e-08,-2.603872009942263e-07,1.110681397289874e-08,5.0680991383819556e-08,5.16292196695415e-07,5.851055072065252e-08,-7.175420903498544e-09,2.6145448125665078e-08,1.956975410750099e-08,8.804257169332174e-08,1.70628008531566e-07,2.1535639625350584e-09,4.0285964799358726e-07,-1.6106239983371283e-08,6.441822061804219e-08
9.49275808149593e-08,3.3400679353842914e-08,8.006162866479227e-08,-4.466995278554824e-08,-1.7831091877533553e-07,-5.260892290206547e-08,-6.40606963341366e-08,4.434768735496882e-07,3.444715294170579e-08,-3.875867545313909e-08,-6.433883455726055e-09,-1.2323541633306869e-08,4.386845215994031e-08,1.1498135363255187e-07,-1.090257575497035e-07,2.5292274598173667e-07,-7.757808919935168e-09,4.368725895875675e-08
5.4655765977709635e-08,-1.1496596292992196e-08,4.344650958610645e-08,-4.960760666585688e-08,-3.5406567731472e-08,-1.029421409175904e-07,-1.5335399665261366e-07,3.147443901041427e-07,6.403603269740009e-09,-6.234071591172568e-08,-3.528844387345975e-08,-4.2428023868153785e-08,-3.100567578116305e-09,4.9134428445898644e-08,-1.923242690206892e-07,-9.907439228365047e-09,5.42762200391167e-09,1.6941819009582827e-08
1.3606529050764441e-08,-5.641206769572635e-08,5.214266075954068e-09,-4.775331618367441e-08,1.3385648094106107e-07,-1.2908537471705204e-07,-2.184995578482797e-07,1.5011455551254638e-07,-2.340621732412612e-08,-7.736896108154545e-08,-5.926813233388051e-08,-6.704637373223058e-08,-5.232587513572058e-08,-2.2742930982411515e-08,-2.3851972849895314e-07,-3.270825994310824e-07,1.7298774704763258e-08,-1.3800333580093976e-08
-2.9434196881489417e-08,-9.745933403095316e-08,-3.535397698315224e-08,-4.235276486827791e-08,2.7718721160379595e-07,-1.272207975746394e-07,-1.9957617669647463e-07,-3.096326845014317e-08,-5.1276667035731145e-08,-8.405311244186255e-08,-7.745817138984637e-08,-8.327664418194923e-08,-1.0026656189646849e-07,-9.485669187792027e-08,-2.4554721248878626e-07,-6.079383442848923e-07,2.208985214906557e-08,-4.4246610817965874e-08
-7.544752996306564e-08,-1.304904105273059e-07,-7.825852772319791e-08,-3.6039671458671525e-08,3.475233357274715e-07,-1.0328255338196792e-07,-2.597673863481485e-07,-2.1065157535037898e-07,-7.414042252887391e-08,-8.368300818084076e-08,-8.94880618401435e-08,-9.012829848479628e-08,-1.412263366711611e-07,-1.5947802298885784e-07,-2.1884983585093074e-07,-7.610719496939117e-07,1.6465475863324976e-08,-6.813871649096875e-08
-1.23723698373773e-07,-1.512284957240584e-07,-1.2120819468924852e-07,-3.2228497190885855e-08,3.25775697263566e-07,-6.968733092836398e-08,-2.829916182932625e-07,-3.6979128223497326e-07,-9.002577061939654e-08,-7.73493068378373e-08,-9.45407316944452e-08,-8.76795900604701e-08,-1.6846931982279313e-07,-2.0745644263001817e-07,-1.6914485658316522e-07,-7.278817436693679e-07,1.2763641342211729e-09,-7.96125760029512e-08
-1.707236884929128e-07,-1.553600098791312e-07,-1.5910943843074857e-07,-3.438860805348368e-08,2.284945596487127e-07,-3.84863658316077e-08,-2.22071180684925e-07,-4.865238903225874e-07,-9.728806804503661e-08,-6.498567442194584e-08,-9.077322479277896e-08,-7.576399238524674e-08,-1.758470154928179e-07,-2.3739128613738e-07,-1.0876069473444618e-07,-5.108840421123095e-07,-1.8452417010732638e-08,-7.710054248588015e-08
-2.1135992945028993e-07,-1.4042995051262333e-07,-1.8599755960326942e-07,-4.435988025859446e-08,9.78809778340598e-08,-1.663899069462706e-08,-1.3693297786720747e-07,-5.413711758991549e-07,-9.445820454704982e-08,-4.605051777737713e-08,-7.640543103248692e-08,-5.389767925583203e-08,-1.6050587533667878e-07,-2.4967804562246656e-07,-4.852963791107412e-08,-1.7958590275120318e-07,-3.5594617369840667e-08,-6.586296421834602e-08
-2.415531893772968e-07,-1.0875683155486309e-07,-1.9847070306813465e-07,-5.927341082188276e-08,-1.876229607621684e-08,-5.949427870397355e-09,-5.674106182292856e-08,-5.288066229185071e-07,-8.14205731875648e-08,-2.1168535370874914e-08,-5.180597434448951e-08,-2.244181539396249e-08,-1.2488051713995394e-07,-2.3608378553218016e-07,3.87629738813148e-09,1.546753582917091e-07,-4.364342943790342e-08,-5.508438165587847e-08
-2.5996481892486274e-07,-6.840218317494693e-08,-1.979281215122851e-07,-7.085404992175822e-08,-8.928009449422737e-08,-4.7214735410678665e-09,2.7442127325767547e-08,-4.6660395305614844e-07,-6.053546079660674e-08,7.2576046141641255e-09,-2.0532814658704306e-08,1.6604709765979212e-08,-7.542176869026216e-08,-2.0268885111370267e-07,4.4507970534266734e-08,3.8044906988959604e-07,-3.826545210486284e-08,-5.035870345942918e-08
-2.6708342560327313e-07,-3.0554915102434064e-08,-1.8951203691846245e-07,-6.928170975739422e-08,-1.0643607636702503e-07,-8.23170275347323e-09,7.307480425697192e-08,-3.8992853532518906e-07,-3.614397115763968e-08,3.6525934329013105e-08,1.2077632764887665e-08,6.038151289991093e-08,-1.9035022346779033e-08,-1.5503998806996466e-07,7.339985864454e-08,4.2272058994716837e-07,-1.739443523030415e-08,-4.753541180336913e-08
-2.621810394410697e-07,-4.763503015225249e-09,-1.7850429273354376e-07,-4.902245047676274e-08,-8.224576473876629e-08,-8.71836901084557e-09,1.1043277760051254e-07,-3.3067948183075257e-07,-1.2398691493221761e-08,6.596370998114378e-08,4.1855317950739835e-08,1.0680421811682906e-07,4.036193002991375e-08,-9.488791492277974e-08,9.47268762635742e-08,2.623392776640016e-07,1.9000755225824473e-08,-3.23735395345754e-08
-2.4154800280159174e-07,5.065754675884084e-09,-1.6737478635414412e-07,-1.2592929498210969e-08,-3.460458754189937e-08,2.333375156789619e-09,1.4213241541905824e-07,-2.983314255890096e-07,8.86682186054497e-09,9.756893504509031e-08,6.770992772089099e-08,1.5531567932273627e-07,1.0269287070984689e-07,-2.6372283622069745e-08,1.158332156302217e-07,-6.199438300184924e-08,6.880308517458773e-08,1.3530057506796155e-08
-2.0045441573944722e-07,1.8285339158299701e-09,-1.5592284748972267e-07,3.099462062091147e-08,2.179332605540222e-08,2.9702680557788972e-08,1.5724582025405076e-07,-2.7793286468057653e-07,2.860499035292803e-08,1.339433417086529e-07,9.096215112359247e-08,2.059745384035494e-07,1.6949473264783698e-07,4.1009596281292453e-08,1.4445910943365192e-07,-4.6465492807922495e-07,1.2765903711645154e-07,1.02595775450774e-07
-1.3782332047211888e-07,-6.8315181886674484e-09,-1.437551912565698e-07,7.146675987014657e-08,7.74870877158152e-08,7.12901121154015e-08,1.7647756307302467e-07,-2.458719183507752e-07,4.9194426886491084e-08,1.7527168525297696e-07,1.1311604363913193e-07,2.578246569296214e-07,2.4065235385132543e-07,1.0849505094387006e-07,1.8532177134523706e-07,-8.371288061262672e-07,1.8938065097427217e-07,2.3207258319532245e-07
-5.9521743793300594e-08,-1.2628092281780393e-08,-1.3215117010100917e-07,1.0115207493745993e-07,1.286096861847604e-07,1.1877188018865598e-07,2.0585471323907063e-07,-1.886290363997514e-07,7.244282073530894e-08,2.1822561684640603e-07,1.3443025043219666e-07,3.0832093353441055e-07,3.1252904762907654e-07,1.751811430829498e-07,2.3801821750837356e-07,-1.0838256151779366e-06,2.472080462157082e-07,3.8268172720697557e-07
2.301601132164308e-08,-1.0361911844359874e-08,-1.2329415310390195e-07,1.1668084857099603e-07,1.7735004668689225e-07,1.6156418693955212e-07,2.414653776194088e-07,-1.0923825725120426e-07,9.87363265732779e-08,2.579590960428503e-07,1.544972163666134e-07,3.547492529465975e-07,3.791847852548638e-07,2.304361997247816e-07,2.9751083614151526e-07,-1.1535183990016161e-06,2.9604791592279937e-07,5.274434831776741e-07
9.799714592296272e-08,1.2105975020647793e-09,-1.1777871071779363e-07,1.1973209755944351e-07,2.3099496775604302e-07,1.9195302648895606e-07,2.851207897736333e-07,-1.9806778021801386e-08,1.277021993516545e-07,2.9131855421189454e-07,1.7377118237102065e-07,3.964806347211844e-07,4.3582235197484365e-07,2.773783694755242e-07,3.566517552741059e-07,-1.0474438995305133e-06,3.3455645224101713e-07,6.444972532610001e-07
1.5814060815555955e-07,2.154405850637181e-08,-1.131841813472121e-07,1.1814845852132645e-07,3.004226347061095e-07,2.08457461550437e-07,3.364576819532975e-07,6.900972153930882e-08,1.590817182973658e-07,3.182880147088537e-07,1.9402832085016251e-07,4.3561187578111917e-07,4.810764387586438e-07,3.187975429517125e-07,4.084950600594843e-07,-8.040801500761827e-07,3.6503149046872324e-07,7.241425922997011e-07
2.016713137189911e-07,5.052917688602368e-08,-1.0550925664390216e-07,1.251266435243595e-07,3.96801276141489e-07,2.1490504151186425e-07,3.9276425791142435e-07,1.5354885686630409e-07,1.9243970873947257e-07,3.4041696469919973e-07,2.1695952352566832e-07,4.7489469089449353e-07,5.16643123562446e-07,3.5539385627105443e-07,4.4725136097948285e-07,-4.765603763819703e-07,3.9045639525165245e-07,7.666107833497954e-07
2.2989920120074633e-07,8.771528071093945e-08,-9.242722252624179e-08,1.542173617478631e-07,5.238875860809623e-07,2.1588926719717757e-07,4.533266328007303e-07,2.361172302038788e-07,2.2599567359183104e-07,3.581020447868581e-07,2.4208888463784857e-07,5.147478917703171e-07,5.44879003754176e-07,3.88602515213799e-07,4.690676573378878e-07,-1.1568161732847941e-07,4.110068487251083e-07,7.761196214466684e-07
2.441095588250107e-07,1.2952361763268803e-07,-7.525313650034258e-08,2.128964976991419e-07,6.703165264533907e-07,2.1272677151299686e-07,5.167750006381987e-07,3.2036015224276e-07,2.560616755671259e-07,3.696178291210821e-07,2.6612576630408224e-07,5.524286380776185e-07,5.670339189861435e-07,4.2019961378843975e-07,4.7326509672247305e-07,2.394276668891509e-07,4.236052999667205e-07,7.581022062796246e-07
2.450696245630023e-07,1.686122613029159e-07,-5.743425106584306e-08,2.981860448547677e-07,8.105591604526321e-07,2.0347396967419487e-07,5.766064104856195e-07,4.082427595973125e-07,2.782203779366273e-07,3.731113422503625e-07,2.8480501132382284e-07,5.844044604257742e-07,5.833905495782024e-07,4.4254682921074316e-07,4.630405809268875e-07,5.639320974417896e-07,4.253664499950792e-07,7.204830328204433e-07
2.3525026218568976e-07,1.972134434949096e-07,-4.084823743935246e-08,3.977288536085375e-07,9.143284613412485e-07,1.8739851465441771e-07,6.26258892802864e-07,4.992561584667824e-07,2.8986941139950825e-07,3.6958499533892834e-07,2.959729838083818e-07,6.096299709630736e-07,5.94203664250317e-07,4.529801952277299e-07,4.449221324220983e-07,8.42618717666533e-07,4.176284006386127e-07,6.752219031909728e-07
2.2070074779809847e-07,2.116696526571136e-07,-2.3551132527204985e-08,4.943561352559633e-07,9.559631187022774e-07,1.701151462536289e-07,6.669073958915316e-07,5.886016297534221e-07,2.9226178807014727e-07,3.637528820850841e-07,3.013109266604849e-07,6.304917711306785e-07,6.003341727651362e-07,4.5869739402391346e-07,4.268945660072189e-07,1.0602522838872675e-06,4.066100887871004e-07,6.371154515990465e-07
2.1023784911148506e-07,2.1426037407571863e-07,-1.2277388766671877e-09,5.713234179319973e-07,9.21853448681471e-07,1.6404716544094296e-07,7.022856045375355e-07,6.647178955946415e-07,2.90273167983164e-07,3.616230821120464e-07,3.051028375326854e-07,6.505309836306537e-07,6.034876585523427e-07,4.6547157937774843e-07,4.1541380221714114e-07,1.1930545229381657e-06,4.0012895398459256e-07,6.195885771709749e-07
2.1149859495373397e-07,2.1085393629465076e-07,2.8845624476205945e-08,6.171727654187308e-07,8.183637477058111e-07,1.8214399727786768e-07,7.363563699391775e-07,7.116848122946193e-07,2.8978143112009513e-07,3.6667152885201845e-07,3.1094247561263345e-07,6.710657863692239e-07,6.052608755793301e-07,4.798029381650647e-07,4.1261587685906465e-07,1.2097565146063403e-06,4.0320133302490973e-07,6.291872809294349e-07
2.2646155531538936e-07,2.061127879377489e-07,6.460827701994526e-08,6.285618857506015e-07,6.767072668828405e-07,2.28992348080582e-07,7.706721196810802e-07,7.186823513945965e-07,2.94391696572506e-07,3.77465014037027e-07,3.18956645190256e-07,6.89653161060835e-07,6.05994948477721e-07,5.036186469252195e-07,4.156153754289387e-07,1.0889113504599109e-06,4.155807229067054e-07,6.619769253011664e-07
2.496457581439703e-07,1.998708092963832e-07,9.911833580036654e-08,6.094878029538552e-07,5.456736149858318e-07,2.964224782996545e-07,8.015007511393953e-07,6.895061504201379e-07,3.037371925034454e-07,3.88342470753773e-07,3.254567846869875e-07,7.013373985362065e-07,6.046564895690559e-07,5.317050813485295e-07,4.184511996497479e-07,8.444093511462875e-07,4.321213777297117e-07,7.044698569018723e-07
2.707194255934649e-07,1.8710334429943613e-07,1.230313655301287e-07,5.673468080581727e-07,4.719003774158999e-07,3.666525662733131e-07,8.223433596409435e-07,6.414791047109805e-07,3.14005039007513e-07,3.9199777550322306e-07,3.246985774029941e-07,7.010265600100589e-07,5.995561631436696e-07,5.541899059008365e-07,4.153546303796252e-07,5.364336409368603e-07,4.4492902419437326e-07,7.386901676065093e-07
2.780185933614886e-07,1.605368537828571e-07,1.2752378025655336e-07,5.091914018998615e-07,4.782276605869998e-07,4.197361269666659e-07,8.266649274884301e-07,5.920848376335546e-07,3.194797365834444e-07,3.817572565693297e-07,3.1099138344063114e-07,6.850121412283642e-07,5.891094099872335e-07,5.627340176930511e-07,4.0334267983779053e-07,2.5468270893379954e-07,4.4591271711750826e-07,7.490356648383639e-07
2.615423594139648e-07,1.1344165541821971e-07,1.065148978122025e-07,4.3933725434028633e-07,5.535235956945703e-07,4.4037365601858104e-07,8.091995441711117e-07,5.449180862683224e-07,3.1393188545398246e-07,3.527993547497611e-07,2.800147007046192e-07,6.515296514821258e-07,5.719231233341552e-07,5.505273605807499e-07,3.829126973154529e-07,8.40392295067479e-08,4.290585414223481e-07,7.283860896056261e-07
2.1538835369724232e-07,4.171689492385264e-08,5.8461074321856804e-08,3.5934599122932815e-07,6.609783870236565e-07,4.219501935938356e-07,7.664666209168215e-07,4.879230767606612e-07,2.920277346528442e-07,3.034402136506602e-07,2.297894566471189e-07,6.015312410831294e-07,5.467423279981419e-07,5.144667655717011e-07,3.570560114189872e-07,7.196397599009055e-08,3.9237921784976615e-07,6.808784376186396e-07
1.3971490528048522e-07,-5.421869809977906e-08,-1.215685029164693e-08,2.6999492345517085e-07,7.593402696174141e-07,3.676507692172714e-07,6.979147794691239e-07,4.0390755987347044e-07,2.514334960964621e-07,2.367262222209976e-07,1.621651588569892e-07,5.399846682200623e-07,5.131301298361417e-07,4.581687539106917e-07,3.295800943501294e-07,2.1021923872444232e-07,3.3933711108930556e-07,6.200434793134229e-07
4.237012322846993e-08,-1.6782656568224946e-07,-9.446425937071935e-08,1.7470799282395578e-07,8.252864330032712e-07,2.887295779179114e-07,6.081883211762983e-07,2.8264759074676034e-07,1.949707757420464e-07,1.6141161317937187e-07,8.427253845625273e-08,4.7642884427004535e-07,4.731124540491018e-07,3.9077485640768726e-07,3.0365749931402596e-07,4.3748538946066754e-07,2.789285548057785e-07,5.635734610406237e-07
-6.236679225394084e-08,-2.8618250342686565e-07,-1.7292168269370564e-07,8.236444361267702e-08,8.634578297441044e-07,2.0061861110399404e-07,5.0835336258642e-07,1.2605608412359808e-07,1.311229523614165e-07,9.0755818699201e-08,8.13971641577231e-09,4.2332313450715875e-07,4.318067636340079e-07,3.255777223838735e-07,2.811693662221064e-07,6.647148958231217e-07,2.2355324945900807e-07,5.269586156048582e-07
-1.5731649234285036e-07,-3.919769987657468e-07,-2.313766979761717e-07,6.775278160269028e-09,8.965475791004328e-07,1.1876205210535654e-07,4.1391187119963925e-07,-5.277964807871675e-08,7.169978601385554e-08,3.8515856705314494e-08,-5.254682892874824e-08,3.922131448040768e-07,3.95737045619408e-07,2.7639990719925624e-07,2.6227883255423376e-07,8.14692934840233e-07,1.847490251624017e-07,5.173819364882871e-07
-2.2813677660174413e-07,-4.6786947962895413e-07,-2.585312472164097e-07,-3.872711950603577e-08,9.42833914144577e-07,5.5953932430615924e-08,3.3996695143519684e-07,-2.3309499408489927e-07,2.7406189781191976e-08,1.3578475215014993e-08,-8.748676823204539e-08,3.893312967625204e-07,3.6957748271445723e-07,2.5277216357266724e-07,2.442929058510043e-07,8.556552519077639e-07,1.6845064089477815e-07,5.297541967166278e-07
-2.6885864494764203e-07,-5.020908523995288e-07,-2.5264110567917336e-07,-4.921120053331045e-08,9.995521670707287e-07,2.1021992653372296e-08,2.9592137633748517e-07,-3.909413226341261e-07,3.5352279197744306e-09,1.592059488931274e-08,-9.400781564300928e-08,4.1284012343688324e-07,3.53434086336414e-07,2.5600878972519083e-07,2.2128602537076795e-07,8.105488457725077e-07,1.7253136966742023e-07,5.481238240351075e-07
-2.8398876206353155e-07,-4.92992678629285e-07,-2.2252117369682817e-07,-3.227826287271635e-08,1.0432185962595797e-06,1.7158284253319177e-08,2.8239799253553156e-07,-5.030291415825402e-07,-1.9539639357827072e-09,3.6717399743882296e-08,-7.787551441270816e-08,4.5349911830932786e-07,3.4282175918107814e-07,2.786245152849267e-07,1.8716686204663155e-07,7.404627451627095e-07,1.885033651666667e-07,5.537975715105632e-07
-2.856150726774778e-07,-4.5004513629267023e-07,-1.8331913514975393e-07,-5.294749133159798e-09,1.036377347862381e-06,4.0227407248656475e-08,2.921793803063932e-07,-5.48827741590508e-07,3.2016576110584928e-09,6.303201679879316e-08,-4.9935079832943056e-08,4.988221711692887e-07,3.317443780865169e-07,3.081689840498747e-07,1.4093864323211555e-07,7.120860929444743e-07,2.062726655100135e-07,5.363267307080455e-07
-2.867831049452561e-07,-3.9040544442162346e-07,-1.4920324824066516e-07,1.2461578535967893e-08,9.587568300099553e-07,7.95627657093671e-08,3.145467523305927e-07,-5.119611348789262e-07,9.887647211836791e-09,8.422356151823566e-08,-2.0695411561686496e-08,5.383284116577997e-07,3.167316250631737e-07,3.329085928404561e-07,8.908007254589749e-08,7.61661203996342e-07,2.1849776141189606e-07,4.999096781341004e-07
-2.9550273342341793e-07,-3.327002498118981e-07,-1.277743878815473e-07,9.399917001493235e-09,7.929801093130108e-07,1.2210397455197135e-07,3.402412792023681e-07,-3.859296005580731e-07,1.1933187331725083e-08,9.581419082273227e-08,3.689353730905932e-09,5.666204582546022e-07,2.9879303688732323e-07,3.4608117167231853e-07,4.239234711261286e-08,8.727642149284819e-07,2.2192617862898097e-07,4.6015103067409913e-07
-3.1351342569543696e-07,-2.9125006733134044e-07,-1.1950869455720497e-07,-1.6125696054605187e-08,5.339107936619551e-07,1.5743924249477287e-07,3.640863269146974e-07,-1.8385107068383544e-07,7.698023040293673e-09,9.889141787736796e-08,2.1960469846111455e-08,5.828998327302178e-07,2.8184122697479414e-07,3.465417677703178e-07,9.977318238201387e-09,9.821363031846766e-07,2.158934923930269e-07,4.3352222944350425e-07
-3.392678521554396e-07,-2.735859965365937e-07,-1.2140742825618473e-07,-5.879546031138406e-08,2.0240708397209993e-07,1.8074379612688153e-07,3.8425904449103734e-07,5.5107482424953405e-08,-1.482669499697417e-09,9.653597758903969e-08,3.539584061259499e-08,5.883549726390629e-07,2.693043850150971e-07,3.3643261779561526e-07,-4.940449758260113e-09,1.0111282733012662e-06,2.0019317458509798e-07,4.2740123457023354e-07
-3.716637289278043e-07,-2.8140856994268364e-07,-1.3113164956681328e-07,-1.1043767552881676e-07,-1.5868336154799014e-07,1.9237128594636884e-07,3.9973306429689907e-07,2.716668109656921e-07,-1.3948106044597212e-08,9.058745399038395e-08,4.501091955410844e-08,5.841795229804539e-07,2.617935675206353e-07,3.1831536636350925e-07,-4.602635644448823e-09,9.0540830824268e-07,1.74512484422403e-07,4.3728010028268184e-07
-4.111120305654539e-07,-3.121127684423107e-07,-1.482534914300495e-07,-1.6233170738265475e-07,-4.916875129523595e-07,1.951452635020918e-07,4.0832289096774345e-07,4.060068044835496e-07,-2.90471477895484e-08,8.122654335189645e-08,5.067926730780525e-08,5.717807929947539e-07,2.57060465366251e-07,2.940289607021915e-07,7.171003645385653e-09,6.626565664862896e-07,1.3971468169590036e-07,4.517938780734454e-07
-4.576686445659736e-07,-3.5878273406546686e-07,-1.7238181957970572e-07,-2.0480557591191338e-07,-7.497475452212861e-07,1.9168416466521423e-07,4.0678852718739435e-07,4.2226821434302517e-07,-4.6562676635328266e-08,6.89517751817634e-08,5.248433785250437e-08,5.542039468086283e-07,2.5157406184599616e-07,2.6572067499537053e-07,2.8547376453503066e-08,3.3725344686701534e-07,9.908932050444684e-08,4.60798874128114e-07
-5.088454411655042e-07,-4.1044311553066893e-07,-2.009364928381484e-07,-2.2803236286946762e-07,-8.613061916241604e-07,1.8321321107185816e-07,3.9281763220487634e-07,3.2648599746743375e-07,-6.548516403020728e-08,5.626386712211118e-08,5.2420990691875206e-08,5.365628251578894e-07,2.42336899542002e-07,2.3702215460903878e-07,6.031704717689995e-08,2.3651124657579342e-08,5.77520461966179e-08,4.607104251557667e-07
-5.596493550875199e-07,-4.552526087197273e-07,-2.2922783000100732e-07,-2.2546155561419824e-07,-8.873274680247351e-07,1.700485619777492e-07,3.672587449814166e-07,1.671024751998951e-07,-8.364179744344215e-08,4.716729400324445e-08,5.4367677927972524e-08,5.244772870558566e-07,2.2801989013665137e-07,2.123189497441455e-07,1.0376005988398733e-07,-1.7514688528156694e-07,2.0523914352199355e-08,4.545501660281702e-07
-6.049686152202915e-07,-4.855645563061759e-07,-2.527592260777284e-07,-1.98454270636193e-07,-8.256059959395616e-07,1.5292656361021006e-07,3.344265679121889e-07,1.505306619804816e-08,-9.857590367695021e-08,4.5111436329535024e-08,6.211091373117413e-08,5.216293948978864e-07,2.090979502188526e-07,1.9455707901898514e-07,1.5689239090139982e-07,-1.870301272277105e-07,-9.860648542542316e-09,4.478528047697585e-07
-6.419425073530106e-07,-5.008289636986988e-07,-2.6932606777380315e-07,-1.5736458784424165e-07,-6.567931813304489e-07,1.3365536437310797e-07,3.000209215684228e-07,-6.692036513193377e-08,-1.0866889854273847e-07,5.157208197275864e-08,7.723148084839993e-08,5.285342633056002e-07,1.875578978520467e-07,1.840139354992076e-07,2.1138415751969407e-07,-4.904975552615192e-09,-3.28267966142102e-08,4.4369539475903613e-07
-6.69422705993402e-07,-5.060534255553766e-07,-2.786434411104357e-07,-1.17615173256026e-07,-5.037697578912588e-07,1.146375168590739e-07,2.689097724125531e-07,-4.8669384423386415e-08,-1.1320358847779278e-07,6.694052081300872e-08,9.884467596770417e-08,5.4362292641121e-07,1.6689846968900238e-07,1.790210494741302e-07,2.53845756314891e-07,3.051999531211129e-07,-4.8434333282065e-08,4.4065229754901117e-07
-6.852893112382134e-07,-5.072588343722877e-07,-2.7979839866552444e-07,-9.179924168454524e-08,-2.783163115759163e-07,9.797379266807465e-08,2.4484422263845175e-07,6.067321682086028e-08,-1.1143281337736238e-07,9.278996195622115e-08,1.2524911405337322e-07,5.655351184985857e-07,1.520729079303818e-07,1.777145773494218e-07,2.723602620855937e-07,6.330995115564866e-07,-5.557965678181686e-08,4.353148020565202e-07
-6.840955284404914e-07,-5.070580830272248e-07,-2.692746609759893e-07,-8.346113798536522e-08,-4.789878443595655e-08,8.517353026046582e-08,2.312353601426815e-07,2.2389696046252337e-07,-1.0207995334179999e-07,1.3281953847893176e-07,1.5562154648387534e-07,5.94328038248753e-07,1.484356267224835e-07,1.787858538768471e-07,2.63477274965245e-07,8.735293636007052e-07,-5.143764967027611e-08,4.2660364032865264e-07
-6.580293193197957e-07,-5.029343814668268e-07,-2.4191222811982394e-07,-8.562612030690661e-08,8.313307286974496e-08,7.783848582576678e-08,2.3092753538761982e-07,3.96562513750015e-07,-8.418368095241208e-08,1.9097918655613588e-07,1.9013001655387694e-07,6.304511165163251e-07,1.5968328677378047e-07,1.8114753353801347e-07,2.353973502497425e-07,9.650370472761034e-07,-3.286478336582705e-08,4.1696852039536204e-07
-6.010973250961483e-07,-4.892161363895639e-07,-1.9436865216371479e-07,-8.397282874461309e-08,1.5709245252193158e-07,7.837379098520376e-08,2.447122421845432e-07,5.446856056458519e-07,-5.853055209655916e-08,2.680653001161684e-07,2.286956426377589e-07,6.725767721219507e-07,1.859105459999026e-07,1.8359589101841466e-07,1.9957062790967043e-07,9.042611548684282e-07,1.0672122325221315e-09,4.091755961984857e-07
-5.134532739617255e-07,-4.6125346010594183e-07,-1.2831146953087443e-07,-6.333958217347048e-08,7.394068935353984e-08,8.922840875440723e-08,2.701580932749938e-07,6.488704016853739e-07,-2.8128293636043402e-08,3.6203124347342294e-07,2.699455661595312e-07,7.164482435908044e-07,2.2304605388625825e-07,1.850223474168311e-07,1.6444639232438102e-07,7.378870943019469e-07,4.74321741039393e-08,4.0291413018739074e-07
-4.0317038819061466e-07,-4.184960486641472e-07,-5.089112982607007e-08,-1.5481304178285654e-08,-1.21255452164141e-07,1.1040773645625749e-07,3.018952486332978e-07,6.973859160561043e-07,2.7818356801195216e-09,4.606610789311604e-07,3.113175917382706e-07,7.563773441972124e-07,2.6406946391143034e-07,1.8477606017947386e-07,1.3596976507620942e-07,5.395880057701597e-07,9.982057605095832e-08,3.9554279545505964e-07
-2.843663845773924e-07,-3.648813157388948e-07,2.7378613308807648e-08,5.6782824489308484e-08,-3.3811835939819605e-07,1.376699640473939e-07,3.327483297922802e-07,6.807653055168266e-07,3.0009818715189824e-08,5.524755410275661e-07,3.4962452432978775e-07,7.85352055373944e-07,3.0097317520551556e-07,1.822170458861327e-07,1.1511203601181114e-07,3.8120357064644504e-07,1.49742339319066e-07,3.8574564253343577e-07
-1.7357410788020512e-07,-3.081414767963269e-07,9.533865044600396e-08,1.4060236423667935e-07,-5.528252126320942e-07,1.6325245008981313e-07,3.5426846359142783e-07,5.958277215225308e-07,4.961553873274072e-08,6.264806809694895e-07,3.8097838565085734e-07,7.962301897331802e-07,3.2596445265346606e-07,1.751022754833536e-07,1.0049888798329717e-07,3.0471216114041317e-07,1.878189512284701e-07,3.7559595782352757e-07
-8.589265620596617e-08,-2.592971544023445e-07,1.4337041064459498e-07,2.1866921373172348e-07,-7.125635712491724e-07,1.785979720363613e-07,3.5657972013762377e-07,4.535663713594675e-07,5.7276478392727133e-08,6.500879148471957e-07,4.004815547288792e-07,7.837703426522568e-07,3.316738976132122e-07,1.5785907292229424e-07,9.108671640943762e-08,3.0097898266044975e-07,2.0519733186951388e-07,3.696266480416218e-07
-3.124550571106463e-08,-2.3095261430833677e-07,1.655861694792058e-07,2.7622590149805573e-07,-8.101386289609985e-07,1.7775818897666164e-07,3.2758701840503206e-07,2.806266584670791e-07,4.855040877678602e-08,6.437178258909423e-07,4.0322611279600336e-07,7.42263754911851e-07,3.116664086482745e-07,1.2225100814718984e-07,7.469330862646506e-08,3.089672553932014e-07,1.9620459938899663e-07,3.729295796132501e-07
-1.1558688928856606e-08,-2.3314236033296497e-07,1.622402109531834e-07,3.045167576234767e-07,-8.561535030685245e-07,1.6022500748163942e-07,2.611169001576618e-07,1.1165527084224565e-07,1.943294286161785e-08,6.436159184338372e-07,3.870237519002133e-07,6.744664476278604e-07,2.599097057965391e-07,5.887779581370922e-08,3.450264213510922e-08,2.455970642532388e-07,1.615487285579223e-07,3.890575092064354e-07
-2.008621697302685e-08,-2.681755887006844e-07,1.4096655940779333e-07,3.0130072270979974e-07,-8.594320276920823e-07,1.3199805662814482e-07,1.6047638883643005e-07,-2.309843910172489e-08,-2.4806564913459367e-08,6.051520466774397e-07,3.5525149513712016e-07,5.903733003183387e-07,1.8055291620637699e-07,-3.047159591644417e-08,-2.8673031077713143e-08,5.429839241873608e-08,1.0973310081639332e-07,4.173177516736216e-07
-4.3769379063522956e-08,-3.273963921396698e-07,1.1526631814352845e-07,2.710304766323031e-07,-8.336638147020178e-07,1.0434524293415704e-07,4.2840073830246903e-08,-1.089058243433528e-07,-7.448951276804403e-08,5.226639315859362e-07,3.1768090250108914e-07,5.054659561543605e-07,8.716304805721397e-08,-1.3272440753923217e-07,-1.2860742646902773e-07,-2.566433386377438e-07,5.506379081665263e-08,4.511865141754918e-07
-6.788671227275896e-08,-3.9439990371864446e-07,1.003500023770591e-07,2.2586046220474885e-07,-7.891584802775018e-07,9.071718673324854e-08,-4.883048267404833e-08,-1.504737230934891e-07,-1.17607711215634e-07,4.602895344930638e-07,2.8718542512484624e-07,4.550216686539749e-07,-1.3382650056474237e-09,-2.280113833194024e-07,-1.760020964766595e-07,-6.102392451621756e-07,1.2901883123376401e-08,4.802171637257143e-07
-8.090143466176988e-08,-4.428552670965588e-07,1.0795675782410547e-07,1.8465990991308447e-07,-7.265517277463686e-07,1.0243917816862731e-07,-6.758902711515884e-08,-1.6557999897780178e-07,-1.2316752123366983e-07,4.7502542832106993e-07,2.7926481163926377e-07,4.6444489120059736e-07,-2.089935114742657e-08,-2.5097862102255375e-07,-1.1496838780303589e-07,-8.953321949504677e-07,-5.625379542245079e-09,4.947983524530153e-07
-7.819338541803225e-08,-4.328244375539954e-07,1.420296721832695e-07,1.6824773708419967e-07,-6.375675396106804e-07,1.4418751792319454e-07,-6.229312275012413e-08,-1.7189034623659697e-07,-9.070733169632138e-08,5.117731771147798e-07,3.130075274105768e-07,4.6907089814238886e-07,2.3861495586182984e-09,-2.316102538595069e-07,-1.2506325680202023e-07,-1.020143812673713e-06,2.690434578472541e-09,4.906120032245075e-07
-6.314749092783718e-08,-4.196898434295551e-07,1.9693518051025588e-07,1.916484156537183e-07,-5.138819059823487e-07,2.1142469010884708e-07,-5.850027843834093e-08,-1.7665880621293747e-07,-9.034797650323063e-08,5.228656237147491e-07,3.549123195660733e-07,4.7453096751444955e-07,1.910847168175996e-08,-2.2018341139423395e-07,-8.57325556458411e-08,-9.526452098525436e-07,3.2541624827307575e-08,4.703969951454287e-07
-4.517422933803972e-08,-3.3407450192063174e-07,2.595554793977434e-07,2.5732126534593536e-07,-3.5749762004665586e-07,2.9182781430909074e-07,-9.411368938312304e-09,-1.7526872787960258e-07,-4.498561018606645e-08,5.871389539932411e-07,4.3431620911487344e-07,5.557148966819029e-07,2.68449766983173e-08,-2.200810665278921e-07,1.9089443670658386e-08,-7.242575387112366e-07,7.335065308436577e-08,4.427330719102935e-07
-3.485775770882659e-08,-2.3497568336386515e-07,3.1499307688296777e-07,3.545397385847784e-07,-1.8522503574304071e-07,3.7022861783528297e-07,9.109805046693304e-08,-1.5681747115105677e-07,2.0077714415259118e-08,6.76942580842733e-07,5.151649695442246e-07,6.632553407726872e-07,1.2689152648747993e-07,-1.314242011022755e-07,1.1873080712558319e-07,-4.008264329811698e-07,1.1515581707568756e-07,4.186429275156182e-07
-3.8247204740965255e-08,-1.3468120236577692e-07,3.5305708032906643e-07,4.649088999852892e-07,-2.6482841094090225e-08,4.339630376768472e-07,2.0822655785698483e-07,-1.1152023511682071e-07,6.697692152135952e-08,7.41981322737475e-07,5.883109909937785e-07,7.627308093730071e-07,2.5145421017103074e-07,-2.0172902441301882e-08,1.9303673425655812e-07,-4.782446119769071e-08,1.535739517477257e-07,4.0751833346016963e-07
-5.3813138763722986e-08,-4.985971169579954e-08,3.7170868321182047e-07,5.708128013770103e-07,8.320037341645547e-08,4.758902027748578e-07,2.7420997175133095e-07,-3.441243182471308e-08,8.979501386113361e-08,7.780895267116101e-07,6.456198935345316e-07,8.316398987773339e-07,3.480499684576547e-07,6.362012352963878e-08,2.7466186268273987e-07,2.8765093931160323e-07,1.9067447357743893e-07,4.1439635013446124e-07
-7.412037723122259e-08,1.2680782035154383e-08,3.756426743376134e-07,6.609668173422703e-07,1.1446246160322476e-07,4.9381150680184e-07,2.9274027844173977e-07,7.550178161228041e-08,9.82384779281209e-08,8.013783355863272e-07,6.852743716167085e-07,8.707557222099378e-07,4.2309541419181586e-07,1.279866938616959e-07,3.4654786237617804e-07,5.775510845547822e-07,2.3170470388058734e-07,4.3922689636389744e-07
-9.132385101989958e-08,5.500325246240865e-08,3.71431414550842e-07,7.307663567924238e-07,6.077429589074744e-08,4.882792020129903e-07,2.8278119952074644e-07,2.1411724852374123e-07,9.673715357662799e-08,8.168063182471689e-07,7.094493305670925e-07,8.916233778025109e-07,4.846190257471217e-07,1.8064283847770396e-07,4.073467516423313e-07,8.072871431317269e-07,2.802152083590567e-07,4.77320065539234e-07
-1.0280619739594612e-07,8.212957468286966e-08,3.6278125359103716e-07,7.77948458237057e-07,-5.2032338194621563e-08,4.611795518059782e-07,2.551053261928267e-07,3.649732668908876e-07,9.178844245474949e-08,8.292563567396075e-07,7.212245045726058e-07,9.078587951220143e-07,5.304544553756009e-07,2.1751510814817978e-07,4.5977041388567084e-07,9.719166991922302e-07,3.3471947658477516e-07,5.209230102741146e-07
-1.129366794516668e-07,9.889475245764986e-08,3.492126874654133e-07,7.985863425802106e-07,-1.7347071011981875e-07,4.162244971526342e-07,2.253970403633035e-07,4.928632503324855e-07,8.701568001876007e-08,8.392695397077933e-07,7.231783551141002e-07,9.191174699016018e-07,5.624742382161607e-07,2.379229868921422e-07,5.014444182595328e-07,1.076780861021211e-06,3.8890333045895607e-07,5.618139979913161e-07
-1.295882427321461e-07,1.0761291571538173e-07,3.28690769886316e-07,7.885052836818426e-07,-2.484458648507999e-07,3.6020760614601595e-07,2.0536555027862807e-07,5.500121759936671e-07,8.307541610061193e-08,8.452143926832742e-07,7.181307460299205e-07,9.27769731264447e-07,5.837663200260819e-07,2.441718973327121e-07,5.392174734425358e-07,1.138816191434061e-06,4.35026225730346e-07,5.932037460953913e-07
-1.5815886540432987e-07,1.0935470945025458e-07,3.01391476169683e-07,7.482463480678675e-07,-2.3906727175228954e-07,3.023672162879836e-07,1.9999948568255363e-07,4.97696341449815e-07,7.960264771438794e-08,8.46562076897821e-07,7.101855271665736e-07,9.361901862018758e-07,5.98090431772091e-07,2.430689622268464e-07,5.761050189239581e-07,1.180177473965034e-06,4.6789822933791123e-07,6.101262622576314e-07
-1.9778478226462145e-07,1.0638619374744756e-07,2.711356035547402e-07,6.85679231554987e-07,-1.413835290015207e-07,2.512254336299173e-07,2.0794675431974658e-07,3.311221430898602e-07,7.652801881329203e-08,8.4497361211761e-07,7.040375717393376e-07,9.435892877479817e-07,6.083696242398817e-07,2.4389232656311583e-07,6.088180471117296e-07,1.2126429715518214e-06,4.865462976492665e-07,6.099564064949117e-07
-2.421915212807901e-07,1.0197275068671898e-07,2.434480472015714e-07,6.137140777147227e-07,1.1701401229138617e-08,2.109729102976487e-07,2.2367914509571287e-07,8.897232687371115e-08,7.345237347276901e-08,8.424397447085248e-07,7.024113678133848e-07,9.507889985898684e-07,6.148932530768776e-07,2.5347913458862003e-07,6.315436461393153e-07,1.2245815542474138e-06,4.926622041935503e-07,5.940306543111464e-07
-2.8388910188269463e-07,9.756725814253138e-08,2.2200685757452233e-07,5.460348525743897e-07,1.6684691253243465e-07,1.804365148221414e-07,2.3977093523739087e-07,-1.6251217374215363e-07,6.828803283740346e-08,8.38508752180348e-07,7.035031109772062e-07,9.545673220125492e-07,6.146203368434213e-07,2.7192165339422674e-07,6.376563908241066e-07,1.1851712540958818e-06,4.876986642456388e-07,5.684143828118489e-07
-3.180234423416774e-07,9.03432603021125e-08,2.0643343246628093e-07,4.942503331069377e-07,2.7671170025135567e-07,1.5538069342416372e-07,2.488597948051735e-07,-3.6133957524806416e-07,5.7149555387072874e-08,8.297074402275939e-07,7.008830050222989e-07,9.479638504940884e-07,6.028239811781967e-07,2.9217918995806826e-07,6.224599742574902e-07,1.0661900673875503e-06,4.717917918443047e-07,5.415015131982043e-07
-3.4304427145273224e-07,7.459325609249949e-08,1.9343622345518624e-07,4.6718476661063644e-07,3.177932319897505e-07,1.3204818083638641e-07,2.458404009476817e-07,-4.766305788245129e-07,3.634894270316308e-08,8.1225499208263e-07,6.868383265871139e-07,9.248864981625332e-07,5.769139968049799e-07,3.0414392605336156e-07,5.869049569912008e-07,8.654581126674356e-07,4.4781525938937126e-07,5.197366504702499e-07
-3.554617604370363e-07,4.6263012763566876e-08,1.8049120939240023e-07,4.695521178106435e-07,2.8898143240786515e-07,1.0986618088229925e-07,2.2990282178327255e-07,-5.1509038730785e-07,5.340935139797544e-09,7.860667250384242e-07,6.573682802452217e-07,8.840874959503664e-07,5.401194387566881e-07,3.012889026575883e-07,5.403581953373993e-07,6.163268042227084e-07,4.199049096780605e-07,5.080915809314991e-07
-3.559316556370664e-07,7.98577826589243e-09,1.687865595311403e-07,4.98591578569282e-07,1.9809758249055143e-07,9.19644563526254e-08,2.049971741496446e-07,-5.063119519693375e-07,-3.155838209802529e-08,7.565335642515608e-07,6.154006816351635e-07,8.308601646098847e-07,5.019998447916279e-07,2.855358490986459e-07,4.988942800825706e-07,3.7929866669362733e-07,3.9464138514408066e-07,5.052116363488134e-07
-3.3998443728583964e-07,-3.001316549266894e-08,1.6279818419398175e-07,5.4169033688348e-07,5.2919735147576755e-08,8.42688538681689e-08,1.7827820548537487e-07,-4.795235913778819e-07,-6.60986370959421e-08,7.322594509731401e-07,5.699147636098368e-07,7.750003553377534e-07,4.747732361082385e-07,2.668891857341858e-07,4.784474740872035e-07,2.211804781773054e-07,3.8354517384642724e-07,5.143664828166506e-07
-3.033731265673207e-07,-5.3776091110989894e-08,1.6687479981452144e-07,5.802327566848096e-07,-1.3589463864899444e-07,9.388137846210201e-08,1.5756121781222152e-07,-4.480412909727899e-07,-8.953573427376455e-08,7.201266257504776e-07,5.31504254650528e-07,7.262646937053996e-07,4.675756694834898e-07,2.578414926712271e-07,4.868473918929085e-07,1.9296465281017832e-07,3.946779712139512e-07,5.402871253555793e-07
-2.4797967237826e-07,-5.110086846159935e-08,1.8158899433991583e-07,5.986784283594118e-07,-3.470997637664977e-07,1.2666564858109835e-07,1.4889841142590473e-07,-4.079615932748007e-07,-9.677475788217662e-08,7.210255911600987e-07,5.072673526867942e-07,6.901102071616832e-07,4.823135699291909e-07,2.664102339878484e-07,5.203047583120372e-07,3.173889887228605e-07,4.318193626191169e-07,5.85436516752387e-07
-1.7644934037301524e-07,-1.6972892941715608e-08,2.026605624202432e-07,5.919440836662684e-07,-5.451076850343918e-07,1.8402160467647005e-07,1.5491382886983565e-07,-3.519915744864895e-07,-8.86144760762944e-08,7.291446082847616e-07,4.981106897190935e-07,6.660895704797357e-07,5.133878525000471e-07,2.924587678009269e-07,5.663992405880922e-07,5.862185198671283e-07,4.902522583646314e-07,6.511696897179837e-07
-9.928903629875194e-08,4.735624910818319e-08,2.2301575360932373e-07,5.652305584576271e-07,-6.849622503149564e-07,2.6018689023016495e-07,1.7430392461746482e-07,-2.7768155516574737e-07,-7.094644475693048e-08,7.34969327763114e-07,4.993981326545594e-07,6.491701502023943e-07,5.504832860214556e-07,3.287248807846642e-07,6.100914809875955e-07,9.655592121163848e-07,5.585808830750381e-07,7.26495688236212e-07
-3.100340272160626e-08,1.29113153177452e-07,2.3574541974114846e-07,5.271884095079401e-07,-7.273880652395613e-07,3.4246529543097576e-07,2.0240859224366321e-07,-1.922598205894284e-07,-5.224481120638504e-08,7.289821346419852e-07,5.032823489811846e-07,6.321642243604686e-07,5.818951662443016e-07,3.644028054634069e-07,6.382852326167497e-07,1.3727193881441436e-06,6.05352487705194e-07,7.967048330458878e-07
-5.255241925380746e-09,2.078438238258411e-07,2.3532144797977325e-07,4.81752277937918e-07,-6.604640205690363e-07,4.143879958854327e-07,2.3221595237185499e-07,-1.0907604566795302e-07,-4.14712149980777e-08,7.032704200954484e-07,5.006101393969207e-07,6.074000303999244e-07,5.96849978729416e-07,3.8830055116087436e-07,6.421124504280203e-07,1.7122077654529585e-06,6.040615152161396e-07,8.273946499139044e-07
-2.5391247046755747e-08,2.680747270501129e-07,2.1703843867981646e-07,4.2444432218144474e-07,-5.147202712306434e-07,4.6009648084348074e-07,2.5540622544127256e-07,-4.47305867133395e-08,-4.6852446219083925e-08,6.51354461948897e-07,4.820899920901585e-07,5.676248914197731e-07,5.870269171348296e-07,3.9076077924585667e-07,6.1762123921485e-07,1.8995901698591953e-06,5.503078339298141e-07,8.050896855419165e-07
-9.397029302102705e-08,2.6251046488235796e-07,1.7691872053636804e-07,3.4593902748308444e-07,-3.5736345021050885e-07,4.681503319935805e-07,2.6374195363607764e-07,-1.499469258532264e-08,-7.440250778109636e-08,5.686081605852173e-07,4.3987717261710723e-07,5.073371113857954e-07,5.478996616718472e-07,3.6517179551641675e-07,5.648293265427926e-07,1.8308292177604106e-06,4.985818319921055e-07,7.308748211893456e-07
-1.4969986187171585e-07,1.659386582146846e-07,1.1342153398617984e-07,2.394302294083237e-07,-2.6681660816877304e-07,4.336716085457643e-07,2.510236577875312e-07,-2.9522030684254464e-08,-1.2574442435765783e-07,4.5433218074939545e-07,3.700740998119269e-07,4.2479681047219314e-07,4.798975500185712e-07,3.0960110625059243e-07,4.863972828775231e-07,1.60449077166184e-06,4.852108499008731e-07,6.872324796134247e-07
-1.570389198376556e-07,1.2727311269097246e-07,2.9839860434559556e-08,1.0724254167888549e-07,-3.009334026352856e-07,3.587802241842239e-07,2.1489726763211383e-07,-9.123210323560741e-08,-1.9644779776867763e-07,3.1416183990787263e-07,2.7503038102376314e-07,3.235927168935618e-07,3.8896302597344406e-07,2.2788316664614352e-07,3.879032774061782e-07,1.4041568124077456e-06,4.4677154723897004e-07,6.077000193110967e-07
-2.5202423084103796e-07,5.367454797480421e-08,-6.464708033556373e-08,-3.544318658110729e-08,-4.709768063750843e-07,2.5213871302759763e-07,1.5760902288127398e-07,-1.9527644993688898e-07,-2.762130051995712e-07,1.6061700013228832e-07,1.6384091239029636e-07,2.126264727157047e-07,2.860114159477536e-07,1.293856378122681e-07,2.788288235580781e-07,1.162452660923515e-06,3.4242787515446524e-07,4.7172854863305064e-07
-3.9184438245305247e-07,-8.057340328563283e-08,-1.5635742517255674e-07,-1.618707616003336e-07,-7.315303152779345e-07,1.2823832595588637e-07,8.572729700149478e-08,-3.2920298727012965e-07,-3.5145746947333215e-07,1.0716544329340005e-08,5.031495617323524e-08,1.0415952839727268e-07,1.8494991623725354e-07,2.7381778060372447e-08,1.710719294199179e-07,8.878391650973619e-07,2.19637107904069e-07,3.3970003635629184e-07
-4.908315777043962e-07,-2.306129079935928e-07,-2.3074384956862216e-07,-2.4278502867772375e-07,-9.953578924303056e-07,5.657110926260661e-09,9.001062521726902e-09,-4.7302999382290476e-07,-4.094750468320474e-07,-1.1881901863246472e-07,-5.1115152695291535e-08,1.0272281749006739e-08,9.93616964020792e-08,-6.378002730961399e-08,7.43719274263084e-08,7.235418837719402e-07,1.4150138741316395e-07,2.471106891249955e-07
-5.855307288629859e-07,-3.250834098568533e-07,-2.771897156166177e-07,-2.602629482663586e-07,-1.171032769002973e-06,-9.685567223618387e-08,-6.22056533328628e-08,-5.968048207358246e-07,-4.4291826158415626e-07,-2.1716876841240664e-07,-1.3011516078262135e-07,-6.117991457231393e-08,3.8466249227336336e-08,-1.3239467571819325e-07,-7.578319586515744e-09,6.482744434908123e-07,6.440700861856935e-08,1.5944422745962627e-07
-6.322682321291557e-07,-3.6986067999300794e-07,-2.931382288241382e-07,-2.1715685293920446e-07,-1.2036885303518839e-06,-1.6699124781993616e-07,-1.207311642358183e-07,-6.674870049922847e-07,-4.5268595400938825e-07,-2.83282077262547e-07,-1.8378571571076298e-07,-1.0928848704095268e-07,3.801622915873143e-09,-1.728802184457002e-07,-7.651408346649713e-08,5.920767287154691e-07,-9.646487399501394e-09,1.1935356841652807e-07
-6.339183991606757e-07,-3.8053073069172e-07,-2.8527077203376486e-07,-1.3554260044383956e-07,-1.0945793649994103e-06,-2.0437915420975335e-07,-1.6549456921946532e-07,-6.636569863112235e-07,-4.4701117039552054e-07,-3.2559127426065497e-07,-2.1681426635076202e-07,-1.3969803985817005e-07,-1.1128235215823913e-08,-1.8739210806992936e-07,-1.3541138747525147e-07,5.335021621817563e-07,-2.4454832759248347e-08,1.2232881186816302e-07
-6.174741791006716e-07,-3.674515466286788e-07,-2.6634387866867007e-07,-4.563622062974805e-08,-8.899478142242218e-07,-2.2039303239820693e-07,-2.0105722630930633e-07,-5.832004167759444e-07,-4.3669476224037725e-07,-3.5724599147783634e-07,-2.381517879915559e-07,-1.6097149476279971e-07,-1.7283555765665412e-08,-1.843363352311814e-07,-1.8494356285835425e-07,4.6235670477826983e-07,-3.9898469736481686e-10,1.518795740008809e-07
-5.864168563146846e-07,-3.437310626889742e-07,-2.491302680213619e-07,2.6836866083137046e-08,-6.509974757987551e-07,-2.3182604794871146e-07,-2.3395070796560535e-07,-4.603832610380073e-07,-4.2949900925523165e-07,-3.8969303826601774e-07,-2.5616382931143147e-07,-1.8005068540154573e-07,-2.4676752502907393e-08,-1.7430807064446117e-07,-2.2258924028187502e-07,3.8360509622802056e-07,2.0953793748992464e-08,2.1029229752668435e-07
-5.648372247631587e-07,-3.1782187152178514e-07,-2.413368256773097e-07,6.719088627434704e-08,-4.270938850736941e-07,-2.521971448109027e-07,-2.685241212352878e-07,-3.276719523445254e-07,-4.274383548510099e-07,-4.2854582354249067e-07,-2.7522349844729976e-07,-1.9981727871665507e-07,-3.852239895560994e-08,-1.662110306640782e-07,-2.4330026520374115e-07,3.119420761293489e-07,2.1795810159120954e-08,2.743247358265535e-07
-5.571546380223439e-07,-2.940206951193568e-07,-2.444564220295878e-07,7.185770278849765e-08,-2.4691671144642535e-07,-2.8637845631268164e-07,-3.052291304048505e-07,-2.1580061705023146e-07,-4.2811426670788243e-07,-4.735766878457318e-07,-2.954208736502145e-07,-2.197934619329064e-07,-5.877160902392731e-08,-1.6581153961221143e-07,-2.415680792654042e-07,2.6577514688682085e-07,1.1331809482058607e-08,3.2774523025142396e-07
-5.591504374821018e-07,-2.7511749086699756e-07,-2.561660566446972e-07,4.4052366027378984e-08,-1.270998409171566e-07,-3.3099920400731054e-07,-3.4194272498406984e-07,-1.362510359399502e-07,-4.283117581389245e-07,-5.216947311814841e-07,-3.1472859110383484e-07,-2.3858552124268587e-07,-8.23504294852419e-08,-1.7630856140138958e-07,-2.1563792324590904e-07,2.595209679162485e-07,-8.985866372511341e-09,3.594124627787783e-07
-5.687513944705471e-07,-2.645633528963023e-07,-2.7343783533288853e-07,-1.0339582288432114e-08,-8.485268282991872e-08,-3.788154001365903e-07,-3.763051626988347e-07,-1.0158404481634944e-07,-4.2707148366497513e-07,-5.700495058058576e-07,-3.3147766027950714e-07,-2.557793096391903e-07,-1.0583132051632652e-07,-1.9887455657993804e-07,-1.7140708667497392e-07,2.948910140766512e-07,-3.6263285654165014e-08,3.605340207701326e-07
-5.831101658099564e-07,-2.65274896729167e-07,-2.937937796871533e-07,-8.294075982655507e-08,-1.3846718492058415e-07,-4.2276769951485075e-07,-4.0653693925492044e-07,-1.2241808229135507e-07,-4.2639328786034657e-07,-6.169246717345645e-07,-3.452622878046657e-07,-2.718973057960918e-07,-1.2653757418539477e-07,-2.3230647788612767e-07,-1.2175079445610126e-07,3.54906550809821e-07,-6.617089032940885e-08,3.326995395266598e-07
-5.989330497374079e-07,-2.7676334178926265e-07,-3.1449570377769763e-07,-1.6101746836587294e-07,-2.9154464553599704e-07,-4.569869679298116e-07,-4.3044349751818015e-07,-1.926573166756788e-07,-4.293240976638966e-07,-6.605125103552635e-07,-3.5608451371685813e-07,-2.8695388064664756e-07,-1.4200540116133265e-07,-2.725523372942427e-07,-8.111286935603552e-08,4.0999098040025884e-07,-9.433861023345067e-08,2.8621826397128387e-07
-6.114996489524411e-07,-2.9334323954955143e-07,-3.3159674767252053e-07,-2.281176278731174e-07,-5.153729115252944e-07,-4.7599861193614067e-07,-4.4468156991359275e-07,-2.9998284990227456e-07,-4.37142054740521e-07,-6.97720339141956e-07,-3.6312177095682176e-07,-2.994443847453763e-07,-1.4940487016077605e-07,-3.128574018997381e-07,-5.960169587453371e-08,4.3886941308386336e-07,-1.1568625319718039e-07,2.395283234900956e-07
-6.127576628736742e-07,-3.0286276024286516e-07,-3.384207752044539e-07,-2.6898371528794747e-07,-7.496105959456865e-07,-4.743459391698879e-07,-4.459543950770633e-07,-4.032345597325147e-07,-4.479345576784594e-07,-7.22441697659859e-07,-3.623168516984565e-07,-3.06923548688648e-07,-1.4630519425237746e-07,-3.448650373811115e-07,-6.195804928610737e-08,4.463381041835713e-07,-1.2522458173924568e-07,2.1220943392752985e-07
-5.990296326844305e-07,-2.9689636097289913e-07,-3.3260404726873975e-07,-2.7527940136554994e-07,-9.255313669994613e-07,-4.520620599782227e-07,-4.33343150743303e-07,-4.979684344330339e-07,-4.5768565896848407e-07,-7.328898275681425e-07,-3.5233225927599157e-07,-3.0751466019104134e-07,-1.3242453284290244e-07,-3.6086303012729137e-07,-8.482498904199402e-08,4.5795960552453627e-07,-1.2308873276853775e-07,2.167659051381758e-07
-5.700388603791535e-07,-2.714370839777848e-07,-3.153624696658815e-07,-2.4816780779456287e-07,-9.9596334566357e-07,-4.1286485212066845e-07,-4.0949677128270036e-07,-5.897424941927267e-07,-4.625867153253843e-07,-7.306096137397536e-07,-3.334591279161034e-07,-3.007471414169879e-07,-1.1042091681844071e-07,-3.5643646586474723e-07,-1.206776749379221e-07,4.970197928859936e-07,-1.1241765271875802e-07,2.5417634432398554e-07
-5.313411942125466e-07,-2.309174399557217e-07,-2.9098966680597604e-07,-1.9632112407976462e-07,-9.52777514828787e-07,-3.655713145338781e-07,-3.7921465129685927e-07,-6.948946513996563e-07,-4.602430847379988e-07,-7.199576508822674e-07,-3.0812427121516126e-07,-2.868966118217177e-07,-8.42231705649056e-08,-3.3163697119282085e-07,-1.5987518586381323e-07,5.657624040725027e-07,-9.565524884048514e-08,3.1291025153472727e-07
-4.856866813490976e-07,-1.790131986005614e-07,-2.608947954970378e-07,-1.3026520642547517e-07,-8.260545119178548e-07,-3.2192778751975116e-07,-3.4613479518566615e-07,-8.054947897083872e-07,-4.4907110224658115e-07,-7.019690925354412e-07,-2.7596939671572027e-07,-2.656748175688025e-07,-5.5922608438187956e-08,-2.899191152427374e-07,-1.903407709952711e-07,6.430810470822097e-07,-7.405511426869349e-08,3.759816262935549e-07
-4.3214811481348706e-07,-1.1582551553743543e-07,-2.2310889409476396e-07,-5.784759543964822e-08,-6.705835445290404e-07,-2.9031164480887384e-07,-3.0899334136688985e-07,-8.801348482283129e-07,-4.2748639867888064e-07,-6.744594576867769e-07,-2.346000070938357e-07,-2.3596108370968752e-07,-2.398928783623836e-08,-2.3604294127021665e-07,-2.0007723397935643e-07,6.962727486301015e-07,-4.6999776333807603e-08,4.293675361562564e-07
-3.656371701394697e-07,-3.7205346381951044e-08,-1.7252162102519911e-07,1.6412613016049304e-08,-5.4605237793713e-07,-2.699368832914442e-07,-2.647289007813098e-07,-8.975183365643057e-07,-3.94627336767375e-07,-6.331737132524327e-07,-1.7978217120312922e-07,-1.9738238998284883e-07,1.552256699652607e-08,-1.7484457812860234e-07,-1.7994804200370964e-07,7.00143955198078e-07,-1.2717315854225235e-08,4.653762141457308e-07
-2.868440617345006e-07,5.616884068035221e-08,-1.1163069369998483e-07,8.797685722690604e-08,-4.936342848394879e-07,-2.560622041266914e-07,-2.1099616388534952e-07,-8.341192171862286e-07,-3.504880568848958e-07,-5.819601108298651e-07,-1.1292628046766563e-07,-1.5284449007739008e-07,6.541709056651164e-08,-1.1168569961594148e-07,-1.267324360301708e-07,6.537209402337126e-07,2.2182501503902095e-08,4.882612708623964e-07
-2.288384139726191e-07,1.2895413809239473e-07,-6.909902636481446e-08,1.4858753833240008e-07,-5.190188346197613e-07,-2.441118858116382e-07,-1.503199106735428e-07,-7.370386279790413e-07,-3.033515614486728e-07,-5.502510244609224e-07,-6.467196806055809e-08,-1.100342353323572e-07,1.235205969217543e-07,-5.372615518822959e-08,-4.890295380737506e-08,5.818071327143631e-07,3.211192569589848e-08,4.949813398433386e-07
-1.9474842796653686e-07,1.7031670863552427e-07,-5.4502875169082995e-08,1.8638852249213096e-07,-5.946693547387885e-07,-2.3323570851721074e-07,-9.260547492743424e-08,-7.278002433388475e-07,-2.6274329289726757e-07,-5.485265572307841e-07,-4.145407912779961e-08,-8.029876973857671e-08,1.786293655314977e-07,-1.0264633648855942e-08,3.468821083704915e-08,5.184995239058189e-07,1.3005771351765048e-08,4.823134180867015e-07
-2.2707092230913798e-07,1.4418495119818098e-07,-1.1259278814076598e-07,1.9038945297893024e-07,-6.778049665762521e-07,-2.290562704352557e-07,-5.305241002710005e-08,-7.186231434923771e-07,-2.385294754011669e-07,-6.181774914553285e-07,-7.223369657634675e-08,-7.506999358252962e-08,2.1761796663050045e-07,8.77247259005751e-09,1.001297625119371e-07,4.866248969029738e-07,-5.4970681913627476e-08,4.4231064222004025e-07
-3.2499215874649e-07,4.31197240808283e-08,-1.998791142340007e-07,1.5585279798318634e-07,-7.279407010691882e-07,-2.3791837663898576e-07,-4.473891774127427e-08,-6.27320606326763e-07,-2.5541481943748955e-07,-7.085621367773854e-07,-1.654716123822819e-07,-1.0172947109224463e-07,2.2923427464039462e-07,-4.5749057380224e-09,1.2544680901919278e-07,4.876980604926862e-07,-1.453151643627603e-07,3.800459104803514e-07
-3.3532176576083724e-07,4.9749127616768604e-08,-2.3659069317733876e-07,8.589308844962006e-08,-7.159819556167126e-07,-2.6408142528999025e-07,-7.518489981359891e-08,-5.712590831299341e-07,-2.9628648068560785e-07,-7.703332338505509e-07,-2.03394655942981e-07,-1.6094614535165813e-07,2.0300968535770965e-07,-5.385325676735862e-08,1.0064702803501185e-07,5.060355896199055e-07,-1.833299513220949e-07,3.067462735544416e-07
-3.3027861969136776e-07,5.437307127536807e-08,-2.315502906367841e-07,-1.0931429654327156e-08,-6.305862288196661e-07,-3.073784496453902e-07,-1.4414192757897293e-07,-5.150655544055843e-07,-3.317563806721507e-07,-7.865106129862292e-07,-2.0129970505192637e-07,-2.4846948831235896e-07,1.3463544487702759e-07,-1.3656423207080306e-07,2.791870866377533e-08,5.074821727881252e-07,-2.1276522103579227e-07,2.249419146018416e-07
-4.0472248101977297e-07,7.268563471305975e-09,-2.9821120171654777e-07,-1.2481936829920567e-07,-4.832666596045915e-07,-3.6298669041420314e-07,-2.422265656297374e-07,-4.598350324256403e-07,-3.9706487645537284e-07,-8.6928987310321e-07,-2.3495416614537615e-07,-3.493193383244396e-07,3.1146885987710655e-08,-2.4376041495560343e-07,-7.717289358109817e-08,4.65467843755643e-07,-2.9453759894833704e-07,1.511859283803077e-07
-5.226881361209863e-07,-9.611094080681017e-08,-3.9097748175130784e-07,-2.4708846949324277e-07,-3.0583642456238016e-07,-4.2309998227222655e-07,-3.5448008882731686e-07,-4.7025951168783713e-07,-4.954291656607378e-07,-9.671426665059878e-07,-3.2696372380354613e-07,-4.4991452682709463e-07,-9.090178080657383e-08,-3.61365876515109e-07,-1.901771905926619e-07,3.7934552458821857e-07,-3.768570234711607e-07,8.107720251641592e-08
-6.604676218556604e-07,-2.0673062619919395e-07,-4.5777167660046276e-07,-3.69757291434366e-07,-1.3724091047909268e-07,-4.84275718422637e-07,-4.6381763061990685e-07,-5.021846688290459e-07,-5.842507540247375e-07,-1.0425934829521777e-06,-4.2052080271876586e-07,-5.331573313684623e-07,-2.1506047909474568e-07,-4.7305905842120444e-07,-2.74658157923049e-07,2.819375961223922e-07,-4.0872958648338356e-07,1.6376555706414032e-08
-7.324661430771798e-07,-2.5878441384448927e-07,-4.6520142489445556e-07,-4.830228217036169e-07,-8.509389513034868e-09,-5.254586595442163e-07,-5.548324190651829e-07,-5.427431006998419e-07,-6.349490237171046e-07,-1.060767318733622e-06,-4.678274152198458e-07,-5.510727136831649e-07,-2.800388756792165e-07,-5.636906401772395e-07,-3.172183578454636e-07,2.2806485228276296e-07,-3.747705385006773e-07,-2.7672331735968896e-08
-7.263115549529782e-07,-2.721578642340947e-07,-4.869414585473206e-07,-5.734054275120667e-07,6.11204891791108e-08,-5.376175669443449e-07,-6.174133116998975e-07,-5.784215766106851e-07,-6.341900915404e-07,-1.0934340431654386e-06,-5.201041294090239e-07,-5.724838689661701e-07,-2.6042465155313034e-07,-6.223102032114705e-07,-3.1431155262674803e-07,2.5909937228196396e-07,-3.3236387584051876e-07,-1.6134497459522766e-08
-7.553017936641686e-07,-3.306144082378707e-07,-5.107545778841624e-07,-6.258641191952012e-07,5.511693444298263e-08,-5.229195426851004e-07,-6.493395610157856e-07,-5.677365185756245e-07,-6.591721114470637e-07,-1.1439645418273555e-06,-5.639361368892482e-07,-5.759868156319348e-07,-2.798865535357317e-07,-6.443126711751196e-07,-2.755784546734011e-07,3.8099428499720474e-07,-3.1602133106229303e-07,5.779890102104182e-08
-7.785767947903488e-07,-3.1948947324080274e-07,-5.283589167067285e-07,-6.298388831579656e-07,-4.8675572740877724e-08,-4.835981692969144e-07,-6.552035219788961e-07,-5.256047686886827e-07,-6.907696460677908e-07,-1.1755222347248285e-06,-6.113342721764545e-07,-5.516551378516069e-07,-3.071568401406473e-07,-6.319044013397295e-07,-2.2140966832944662e-07,5.655004415470087e-07,-3.1792391590038934e-07,1.7085699225894827e-07
-7.41958342038345e-07,-2.8517085828976536e-07,-4.946413258901382e-07,-5.84121973725597e-07,-2.7066720898256384e-07,-4.2397655968809275e-07,-6.431177762791437e-07,-4.856181879337957e-07,-6.53391139097732e-07,-1.1456666548167615e-06,-5.668361543513494e-07,-4.853679479428755e-07,-2.8268468718967407e-07,-5.921584188634855e-07,-1.637615664514305e-07,7.699072040468822e-07,-2.990939956501568e-07,3.1256511188767555e-07
-6.961152362162752e-07,-2.103555895192863e-07,-4.32037702169954e-07,-4.956577233389271e-07,-6.095241212742767e-07,-3.699926244913778e-07,-6.194330928883314e-07,-4.4239495354868576e-07,-5.922691913965528e-07,-1.0824577702416072e-06,-4.918256027418018e-07,-4.264641165031788e-07,-2.4946850886587436e-07,-5.334195808955524e-07,-1.0989570307485302e-07,9.535912562544869e-07,-2.9093306585998167e-07,4.1122581469344985e-07
-6.401628815913404e-07,-1.4516879473890373e-07,-3.6426632611404735e-07,-3.7514148894451787e-07,-1.0284485573568027e-06,-3.3657261811345606e-07,-5.854931358355856e-07,-3.9124941351339016e-07,-5.427549421538418e-07,-9.986942119173688e-07,-4.415629282376536e-07,-3.79462560888539e-07,-1.9490071599651783e-07,-4.623324797283484e-07,-5.575696562444785e-08,1.0898617376123999e-06,-2.299734129715358e-07,4.582996610069515e-07
-5.768851933826066e-07,-7.995918922882303e-08,-2.990525101819077e-07,-2.3567998295296616e-07,-1.460625511294771e-06,-3.03558804458395e-07,-5.37865910336977e-07,-3.2470397458208173e-07,-4.984286456721066e-07,-9.115313010483736e-07,-3.7102227377005373e-07,-3.3270584923096476e-07,-1.2353810813916394e-07,-3.831533944346472e-07,1.4778269468892238e-08,1.1688170808541523e-06,-1.5306782659274332e-07,5.044430516029104e-07
-4.671778057258451e-07,2.028984299502374e-08,-2.2383277834167033e-07,-9.578666826607363e-08,-1.8294785319013472e-06,-2.6565002055379064e-07,-4.716013698527774e-07,-2.3275381160580085e-07,-4.5182061581219743e-07,-8.162373964309065e-07,-3.037586101596479e-07,-2.8445725356496667e-07,-6.4415876791831876e-09,-2.988533229149373e-07,1.1537889847282802e-07,1.1944924431053416e-06,-7.157344266144987e-08,5.29840183154145e-07
-3.2500064422000883e-07,1.19687857271913e-07,-1.7176012195248504e-07,1.966938111221241e-08,-2.0706157928855452e-06,-2.4295459718039307e-07,-3.8274001547569137e-07,-1.2276390344416263e-07,-4.04891449224816e-07,-7.375659014712284e-07,-2.4030503367348854e-07,-2.31286597560408e-07,1.421610147443827e-07,-2.1221080021248447e-07,2.530582155848733e-07,1.182459131164456e-06,4.922441959158539e-08,5.697568276976751e-07
-2.0250900167382758e-07,2.1722065112799365e-07,-1.4038571646647248e-07,8.711270811887147e-08,-2.1467103727907388e-06,-1.9759799393212915e-07,-2.7542782495978353e-07,-1.6031550275267182e-08,-3.585460178532257e-07,-6.795784625680299e-07,-1.7028393105882398e-07,-1.7133220506628117e-07,2.729164529620569e-07,-1.2554740929085135e-07,4.0446667712313634e-07,1.1543700016591829e-06,1.533163614860719e-07,6.129393099334044e-07
-9.191067970463256e-08,3.1248426587356844e-07,-1.167688618351941e-07,9.711394430386029e-08,-2.0529173461342885e-06,-1.1624670412503409e-07,-1.5766953440512766e-07,7.298014738838894e-08,-3.1404358020268444e-07,-6.304414251186e-07,-1.0464641608207103e-07,-1.0294678818206687e-07,3.891903161232535e-07,-3.9190910872883745e-08,4.607402941301759e-07,1.1068179175712405e-06,2.3691533017063477e-07,6.273387131855784e-07
5.5663116894115126e-09,3.9284044472015587e-07,-9.660311203948422e-08,6.216993644047705e-08,-1.813751265517373e-06,-6.922057465541583e-08,-3.8420202635156855e-08,1.3949229656925427e-07,-2.7235071142290244e-07,-5.855427442736058e-07,-3.24025099340318e-08,-2.3284995308078e-08,4.881753477826758e-07,4.985700967845661e-08,4.925075168924516e-07,1.0931039074593287e-06,3.1070989486702975e-07,6.646571439650731e-07
9.41191858039792e-08,4.690822358421088e-07,-6.256222567883474e-08,1.308930521427583e-08,-1.4736274371020982e-06,3.18110977799909e-08,7.741452450833952e-08,1.8049049342691386e-07,-2.3430338898602924e-07,-5.312182828721955e-07,4.969607437735424e-08,7.068842871660196e-08,5.727982232621714e-07,1.4701584104176384e-07,5.865332008771274e-07,1.1294907358539463e-06,3.79730163788022e-07,7.326705068903274e-07
1.9133624232261824e-07,5.467356495109281e-07,-9.257731221660991e-09,-1.3767526788369784e-08,-1.0871184310595358e-06,1.6033320419507966e-07,1.8776381038832383e-07,2.047169466547438e-07,-2.0116546598658544e-07,-4.6226472016830204e-07,1.4237336772244844e-07,1.787696161851794e-07,6.585894901303855e-07,2.5625785325193146e-07,6.524470614010261e-07,1.2132991117708937e-06,4.5556087524756966e-07,8.301100736234938e-07
2.952565762111938e-07,6.273790323614725e-07,6.240125635534597e-08,9.07388540134823e-09,-7.13122855538606e-07,2.6383584514731436e-07,2.8914812568993533e-07,2.234284039482059e-07,-1.7468564391631072e-07,-3.7749321812133853e-07,2.4608840275404803e-07,2.9435266026227687e-07,7.442057191952986e-07,3.754320525522017e-07,6.928576996594197e-07,1.3440929100181552e-06,5.409339049911491e-07,9.544968373310897e-07
3.9164231497888957e-07,7.098008091482162e-07,1.467676596214602e-07,9.032122563388228e-08,-4.062417582731486e-07,3.5594169637891437e-07,3.7554774710955453e-07,2.4161159088007803e-07,-1.5608677066445023e-07,-2.804862465891e-07,3.5498424484915043e-07,4.047583264759667e-07,8.235629780233071e-07,4.94616671798999e-07,6.998129333561626e-07,1.4913571793588752e-06,6.307336252182368e-07,1.0738954674867398e-06
4.748754874621021e-07,7.775133418964593e-07,2.3219686582422138e-07,2.1813898995052354e-07,-1.9962318573607242e-07,3.910611847024961e-07,4.387057778547993e-07,2.5988430018333843e-07,-1.4222354928998607e-07,-1.7737009154759226e-07,4.591504074989426e-07,4.958753447831015e-07,8.901380552035252e-07,5.99445747444594e-07,7.398465478557011e-07,1.630782077766147e-06,7.028914798326418e-07,1.1589854252632885e-06
5.408161591507243e-07,8.23259265942973e-07,3.0722724377607534e-07,3.6714944824143786e-07,-9.03049269224977e-08,4.443845208922169e-07,4.718210770758896e-07,2.761904625807415e-07,-1.2829062352124076e-07,-7.412784430161303e-08,5.494341078373932e-07,5.58474707034234e-07,9.383155801165885e-07,6.773248013459376e-07,8.07038154939174e-07,1.7468911874876208e-06,7.65482097092058e-07,1.1980334485307153e-06
5.900724867114493e-07,8.497391019814688e-07,3.658232537100061e-07,5.102946853960915e-07,-4.2478745069579555e-08,5.251345736124737e-07,4.8635616021728e-07,2.9155903483138014e-07,-1.0445635884875503e-07,2.8610019336468068e-08,6.220949721177292e-07,5.923128498311927e-07,9.683503371065365e-07,7.229986795415162e-07,8.835100679367698e-07,1.8820566103140282e-06,8.283121781894255e-07,1.1877056694355069e-06
6.332360078195864e-07,8.619200720248142e-07,4.090201448526308e-07,6.316232019899446e-07,-7.861995363688647e-09,6.018162698983227e-07,4.85504210852511e-07,3.130055433247034e-07,-6.049284809085764e-08,1.3688117689629545e-07,6.80330067150882e-07,6.058370481791978e-07,9.874843520071147e-07,7.405663318480573e-07,9.836339925388341e-07,1.9607997855437493e-06,8.933874858229445e-07,1.1368449209846103e-06
6.786382294329012e-07,8.725202182824155e-07,4.4256075060860337e-07,7.211236486440452e-07,5.346406535185899e-08,6.748838927037462e-07,4.922806621915288e-07,3.5050673709149264e-07,7.507679180707085e-09,2.543896012392728e-07,7.320779490142521e-07,6.119392406002897e-07,1.0068924177331315e-06,7.415839654906044e-07,1.103256668136391e-06,1.9733329934478826e-06,9.541534292796963e-07,1.0816996057967072e-06
7.34230007757129e-07,8.990398246462178e-07,4.728209467581994e-07,7.84263829431766e-07,1.6321784267246794e-07,6.705349614731787e-07,5.73507723615486e-07,4.124725560467285e-07,9.934571381016404e-08,3.6910879688692574e-07,7.856736069086662e-07,6.222196710243584e-07,1.0360648400311298e-06,7.403435380105964e-07,1.2007058619167264e-06,1.9303038272218023e-06,1.0106619004937228e-06,1.0450062297734008e-06
8.093415652609597e-07,9.495550839681197e-07,5.039458442188103e-07,8.368226149413705e-07,3.2427960436061245e-07,6.243281126986947e-07,6.774230192416064e-07,5.029704809453658e-07,2.0869505054447892e-07,4.980833080966613e-07,8.458968403569314e-07,6.429562564243243e-07,1.0784008703416021e-06,7.486359281433548e-07,1.2127688884487873e-06,1.8180812548815698e-06,1.0635357347889272e-06,1.0304184215309915e-06
8.938743655983053e-07,1.031252858592665e-06,5.374641380027652e-07,8.963982999197541e-07,5.231772123355763e-07,5.896544271828473e-07,7.45977424850574e-07,6.203780097373775e-07,3.222709652703132e-07,6.306282047887025e-07,9.125081886857267e-07,6.746568766512657e-07,1.1310556850008722e-06,7.730431531501055e-07,1.219525641675224e-06,1.6774155149051457e-06,1.1153330395529218e-06,1.0404342109213932e-06
9.730418716606533e-07,1.1366197034687485e-06,5.732297008154722e-07,9.811646485147194e-07,7.331999723452362e-07,5.358045482084002e-07,8.782219845477502e-07,7.577834559332645e-07,4.114809790140662e-07,7.337492518074423e-07,9.814655517573137e-07,7.142333975785925e-07,1.1884006366625046e-06,8.154316733504822e-07,1.2338391934299236e-06,1.5459840243042485e-06,1.1423120458830581e-06,1.0598759662063845e-06
1.0359527894455921e-06,1.2416865299136166e-06,6.097022530161182e-07,1.09294965851684e-06,9.188860858784385e-07,5.183745445848307e-07,1.0429953370212348e-06,9.052327378461888e-07,4.7456958599413724e-07,8.044196281321755e-07,1.0470384341101134e-06,7.571116528384439e-07,1.2454587997761879e-06,8.744336311572531e-07,1.2424694908334506e-06,1.456790379849074e-06,1.139175917437261e-06,1.1032785646662357e-06
1.0725947006274726e-06,1.307613168141965e-06,6.429915467405975e-07,1.218124727882286e-06,1.0430888371761507e-06,5.448707692514098e-07,1.1540350490764406e-06,1.0503081337226268e-06,4.869108119469182e-07,8.168118056125354e-07,1.1029570790233598e-06,7.976471411819121e-07,1.2983688326606947e-06,9.456643726410731e-07,1.2551048788806235e-06,1.4013720096727375e-06,1.1074120605674417e-06,1.1695331941714927e-06
1.0784068488505987e-06,1.330310311534631e-06,6.660314280174772e-07,1.308725355685763e-06,1.0783067628538887e-06,5.938185873762255e-07,1.187374979676101e-06,1.1745138273182752e-06,4.3539111341945394e-07,7.66841859067904e-07,1.1425444881348105e-06,8.286055758494405e-07,1.3422690792504126e-06,1.0210153739193715e-06,1.2533257389672031e-06,1.439150149735103e-06,1.0419225431459877e-06,1.226889234449153e-06
1.0516203519416123e-06,1.3087138854492188e-06,6.697583194787438e-07,1.319767962485537e-06,1.0193066597883656e-06,6.482415361852329e-07,1.1223093117205748e-06,1.2495816059714567e-06,4.373803279043554e-07,7.512760196469424e-07,1.159277561603744e-06,8.417487905761317e-07,1.3697350498123268e-06,1.0888610191637923e-06,1.219664118772644e-06,1.5526656339630571e-06,1.0295753791782672e-06,1.2561375202001754e-06
9.910295108675172e-07,1.261893972758117e-06,6.467280590003033e-07,1.2781698019875135e-06,8.887561135488907e-07,7.008227609586203e-07,1.0864223058912523e-06,1.2421051585166444e-06,4.7565692756148076e-07,8.027824394532851e-07,1.1487167742012957e-06,8.305915059151105e-07,1.3725417880637066e-06,1.1365731446274746e-06,1.1559848640329438e-06,1.695590527943095e-06,1.080046971671578e-06,1.2475692746931057e-06
8.978047067441974e-07,1.2782643187118531e-06,5.953888273029771e-07,1.243933272712912e-06,7.300541184680359e-07,7.41273811336197e-07,1.122265976249284e-06,1.1259877944890117e-06,4.926315522065003e-07,8.307883714957675e-07,1.1110694672817538e-06,7.940766285990042e-07,1.3461802090003634e-06,1.15493450365615e-06,1.0590373055922084e-06,1.8368026722580633e-06,1.1298555633220153e-06,1.1989865159947764e-06
7.980667476810802e-07,1.276142008869307e-06,5.222967959180697e-07,1.212422377107706e-06,5.911973235959602e-07,7.60725958879751e-07,1.1168104735159532e-06,9.141857038692313e-07,4.846447745967038e-07,8.171433805944755e-07,1.0527221659578966e-06,7.386257160113072e-07,1.2936109908546228e-06,1.1421365330717963e-06,9.62904668791176e-07,1.9460039609563163e-06,1.1171014900859147e-06,1.1201377025260096e-06
7.043971677214979e-07,1.191058226757625e-06,4.4076226077603293e-07,1.077972500783348e-06,5.081467028047858e-07,7.567896688715487e-07,1.106500179210884e-06,6.499440384725948e-07,4.117297329558789e-07,7.422292904098649e-07,9.855014791556195e-07,6.769015056386291e-07,1.2252506597425178e-06,1.1048902421592631e-06,8.817652215704711e-07,2.02924826478437e-06,1.071473248895279e-06,1.0286145228809021e-06
6.297463954689547e-07,1.105782515399908e-06,3.6644428976820296e-07,8.848250584608946e-07,4.9302612209955e-07,7.243598707662668e-07,1.0639799727255998e-06,4.061816564232791e-07,3.3570373481291744e-07,6.606149832392528e-07,9.235554432220452e-07,6.234721284751009e-07,1.1550766365592803e-06,1.0559146859482626e-06,8.255006066054869e-07,2.106084707460609e-06,1.0316456495573209e-06,9.357037386656408e-07
5.888959894890498e-07,1.0085557531109658e-06,3.116738349063323e-07,7.316794632449062e-07,5.319206883980596e-07,6.672247789477547e-07,1.0205504818562316e-06,3.2080941930920285e-07,2.645262193079792e-07,6.065540667469747e-07,8.788048032379967e-07,5.890671427347175e-07,1.095026984462872e-06,1.0088564641860366e-06,8.102921303466637e-07,2.203353715726482e-06,1.0044016104870907e-06,8.597743225412055e-07
5.818748521305398e-07,9.086963133464385e-07,2.8061290096833215e-07,5.874685748875511e-07,5.94641244493567e-07,5.996089139270599e-07,9.891577977086433e-07,3.3088114764508736e-07,1.9470132860473247e-07,5.663581971873216e-07,8.56553932376746e-07,5.760090321293959e-07,1.0504013116427057e-06,9.728755829569886e-07,8.238668808413539e-07,2.305425941309859e-06,1.025940620062675e-06,8.217310681537846e-07
6.082256792830169e-07,8.605135942646085e-07,2.6731251089843596e-07,5.03356503230852e-07,6.490511213359721e-07,5.389331354645919e-07,9.50031112998396e-07,3.845388240482856e-07,1.5950189353570356e-07,5.694920008021942e-07,8.507607305998264e-07,5.75035282545711e-07,1.0181107448760752e-06,9.492179319107498e-07,8.492044949161492e-07,2.38211906956764e-06,1.0546404598032955e-06,8.263932492926533e-07
6.485783452133405e-07,8.542325072650877e-07,2.5580758427203234e-07,4.7624452945469936e-07,6.697540402739141e-07,4.842965441522378e-07,9.498534257474997e-07,5.527848954506725e-07,1.3839701920653025e-07,5.702375019891638e-07,8.504765239279134e-07,5.756592929786333e-07,9.88154964508353e-07,9.310663545234752e-07,8.662409051779308e-07,2.34942806702976e-06,1.0696679099307762e-06,8.58409756174988e-07
6.656192147356159e-07,8.734997796716414e-07,2.324799217634803e-07,4.6784773607088945e-07,6.390677465877241e-07,4.316497311674379e-07,9.750839036619234e-07,7.506580786150398e-07,1.160596634143438e-07,5.66323104377922e-07,8.432094227367053e-07,5.635854042314462e-07,9.475672045084492e-07,9.062043029690665e-07,8.541394071286159e-07,2.2497294740725914e-06,1.0512922870737745e-06,8.955637795280394e-07
6.450972506857859e-07,8.807814287811963e-07,1.8417072202295926e-07,4.5561841652669046e-07,5.44602249892138e-07,3.745010723321586e-07,9.989321065360557e-07,7.868057353517575e-07,8.316290640987467e-08,5.040752609980615e-07,8.141602462109294e-07,5.27215258640706e-07,8.853359403065796e-07,8.612512701334269e-07,7.998809180553463e-07,2.0652017773198855e-06,9.867135884479444e-07,9.113199746031042e-07
5.817617641888465e-07,8.523699998228121e-07,1.0344655296384419e-07,3.9505636325321116e-07,3.7861098416596546e-07,3.044318878798231e-07,9.664942922044418e-07,6.775220609474225e-07,2.5126822102450078e-08,4.311091215805366e-07,7.549539247028333e-07,4.623660059120029e-07,7.962414280586963e-07,7.864438273402629e-07,7.121030436823853e-07,1.7746797092202287e-06,8.990243520968772e-07,8.871000113304894e-07
4.7322199345464295e-07,7.817586894854652e-07,-1.0778334503740026e-08,2.7199791181828464e-07,1.4260387944158968e-07,2.1931522313628516e-07,8.735682437622817e-07,5.101300145304184e-07,-5.963452137258172e-08,3.8913468030940263e-07,6.629031058743328e-07,3.682273794416645e-07,6.819696047750975e-07,6.794755698716636e-07,6.086154116908685e-07,1.5283142010885476e-06,8.152912806909799e-07,8.051218648586041e-07
3.32356973382552e-07,6.780463981458774e-07,-1.5098192924547147e-07,9.574646705084964e-08,-1.4702934265620723e-07,1.1923212946522478e-07,7.393086057597502e-07,3.103403100585016e-07,-1.6644590247396435e-07,2.8887225547494116e-07,5.448870501840017e-07,2.5399323717395595e-07,5.473685755099978e-07,5.467102812209078e-07,5.069609860577508e-07,1.2052802831984277e-06,7.041775262098054e-07,6.752606523819551e-07
1.7243112521139972e-07,5.591163342953128e-07,-3.022833180462622e-07,-1.0319022602540186e-07,-4.609054865051019e-07,6.506023536578269e-09,5.914613185269102e-07,-3.420052108136433e-08,-2.8522372819315674e-07,1.7024926169231205e-07,4.1316146539129534e-07,1.3484469658248343e-07,4.0617312496307037e-07,4.013502007142102e-07,4.21327384369723e-07,8.396675557189064e-07,5.566241108522516e-07,5.182232024533704e-07
8.963510294705867e-09,4.3870690467105633e-07,-4.5095067352132957e-07,-2.887956188218027e-07,-7.653736793729226e-07,-1.1302564072312469e-07,4.499894639495535e-07,-3.7688626007082765e-07,-3.915309829571416e-07,1.105406669394135e-07,3.0973929388423177e-07,4.7303473836428524e-08,2.695995770579527e-07,2.5976595414824404e-07,3.559822697945845e-07,5.238914923429738e-07,4.53444133275958e-07,3.554928063240488e-07
-9.023718094541136e-08,3.311599531558062e-07,-5.415313410966219e-07,-4.314870061902725e-07,-1.0295920532407316e-06,-2.2986443490841998e-07,3.2234593325409944e-07,-5.614651983416831e-07,-4.5738907061799784e-07,1.504299184211905e-07,2.820242477256913e-07,1.3000337251847911e-08,1.5374808068717695e-07,1.37387646596025e-07,3.079297180482942e-07,2.5133885973715204e-07,4.220398065317286e-07,2.094048616549881e-07
-1.1974429027079864e-07,2.5047350502969136e-07,-5.788149730368529e-07,-4.921967214932224e-07,-1.2272119632965667e-06,-3.3225303528982167e-07,2.1983566086991498e-07,-5.529278622453163e-07,-4.749778995374146e-07,2.0494657592964228e-07,2.762742539387814e-07,1.2964850385677972e-08,1.093811080571413e-07,4.493103792042496e-08,2.690180939351269e-07,1.4544921927262946e-07,3.795830109042458e-07,8.869886813001439e-08
-1.7100473989173958e-07,2.0937290452412948e-07,-6.388252334009397e-07,-5.06204989148951e-07,-1.3458396172198592e-06,-4.100026988269808e-07,1.4450417881363086e-07,-5.499373167097239e-07,-5.155543499519124e-07,2.458612805689151e-07,3.012245578287363e-07,2.287946984192855e-08,6.244402844964055e-08,-1.4271571685395413e-08,2.2769146943472365e-07,-7.264769850700668e-08,3.2938329810901124e-07,-6.071980836971132e-09
-2.2952463229469528e-07,1.901760884603166e-07,-6.992177670654899e-07,-5.354726479712735e-07,-1.388738642265145e-06,-4.579680357383632e-07,1.0695893818599564e-07,-5.482207364744851e-07,-5.82132238870426e-07,2.505079093583344e-07,2.7695677007568107e-07,-1.6184278223566972e-08,3.527287799443979e-08,-4.47594632709247e-08,1.7292686599184367e-07,-2.477059121038341e-07,2.566611705236459e-07,-7.87213364195803e-08
-2.849881637679078e-07,1.8916352800981184e-07,-7.089536459328611e-07,-5.382723247626667e-07,-1.3650126801447119e-06,-4.771286822646689e-07,9.399186285121717e-08,-4.4454021024554125e-07,-5.941826381176009e-07,2.67360063720476e-07,2.587560942743572e-07,2.7709817465621687e-08,3.590658695442096e-08,-5.6604991880656784e-08,9.942390900028923e-08,-2.6864138845199833e-07,2.2491741546797154e-07,-1.2877085515254427e-07
-2.910171206823115e-07,1.956301407966223e-07,-6.865665644092562e-07,-5.050246771848575e-07,-1.2872986831071384e-06,-4.720619308078394e-07,8.833243235560818e-08,-3.592161394124149e-07,-5.636725184851641e-07,2.8894003814783194e-07,2.9751946895317275e-07,9.52273789941927e-08,7.734751584794491e-08,-6.102353745674655e-08,1.2414967525049845e-08,-1.0770846724163462e-07,2.1946049423552323e-07,-1.563122224526207e-07
-2.6279644217850537e-07,1.9172721316768194e-07,-6.680691063711403e-07,-4.863045413720275e-07,-1.1671726779220065e-06,-4.4803595208086456e-07,5.9479402867235055e-08,-3.6846100186836657e-07,-5.422671722369312e-07,3.508650130207581e-07,3.538585278078752e-07,1.382709182712674e-07,1.0611920516285659e-07,-6.566598005351963e-08,-7.109611049695875e-08,6.250027332121127e-09,1.965768121669136e-07,-1.5231895964203907e-07
-2.642171230963969e-07,1.720561683267671e-07,-6.589629671997334e-07,-4.7379611881844984e-07,-1.015594732884768e-06,-4.102894250406631e-07,8.163664128324424e-09,-4.432429308556387e-07,-5.133392584078878e-07,4.16557471976314e-07,4.120137612436858e-07,2.0072192508486376e-07,1.1837468996968555e-07,-7.168157794225186e-08,-1.270036605060674e-07,1.5439973788133763e-07,1.8808687375656646e-07,-1.229484407827839e-07
-2.442021429787295e-07,1.3065377862318929e-07,-6.170799666753119e-07,-4.433002198323527e-07,-8.49761934058029e-07,-3.65469462060631e-07,-5.3266474486819396e-08,-5.377225013957668e-07,-4.721284827508281e-07,4.852397941953746e-07,4.773830781727375e-07,2.582519561582287e-07,1.2941689704354165e-07,-7.408479636405891e-08,-1.335606866592254e-07,3.1862906895855065e-07,2.034333268839283e-07,-7.96792826057955e-08
-2.163042054624475e-07,7.255303210948769e-08,-5.765148032512588e-07,-3.914694958049786e-07,-6.950870061923057e-07,-3.21200909147071e-07,-1.1648205794254289e-07,-6.188093308184139e-07,-4.450970087642903e-07,6.011043762704443e-07,5.266112796897873e-07,3.1767614892887234e-07,1.4514149483467133e-07,-6.551960643755495e-08,-8.085145955793397e-08,3.846728138223492e-07,2.268155390065767e-07,-3.151975149967506e-08
-1.8083904901858357e-07,2.229172547906011e-08,-5.350227632532815e-07,-3.207903561322523e-07,-5.773807488476833e-07,-2.8498372202606035e-07,-1.683625662495187e-07,-6.558077315527118e-07,-4.1991781555673705e-07,7.236389877080362e-07,5.760435998610551e-07,3.93304154432272e-07,1.7295559306386928e-07,-4.126428474892807e-08,2.480587594496699e-08,4.338038553026347e-07,2.681468818316981e-07,1.1030609454654886e-08
-1.2991340706328414e-07,-1.2800441921547897e-08,-4.852420833593296e-07,-2.401948357505737e-07,-5.121298809494627e-07,-2.6179485944189107e-07,-1.9190252948952658e-07,-6.330041234218403e-07,-3.947948220270032e-07,8.649279035734126e-07,6.279707304483607e-07,4.7153086444439e-07,2.1631471947954673e-07,-2.0879239711410854e-09,1.6308660551140663e-07,5.01029550299582e-07,3.222429631667316e-07,4.5228115447848905e-08
-8.141761966586936e-08,-3.021778544353613e-08,-4.4314400591146987e-07,-1.60965422145627e-07,-4.998335747629129e-07,-2.519563032467946e-07,-1.9571843931230265e-07,-5.523313763120328e-07,-3.72505953579181e-07,1.0057340320965274e-06,6.79393085621805e-07,5.541439014715211e-07,2.7398194687969e-07,4.629222683376439e-08,3.0625924403320687e-07,6.549889886940776e-07,3.805489518666894e-07,7.61443320260833e-08
-3.370190380535041e-08,-3.090555774848496e-08,-4.050706466254036e-07,-9.367254053230794e-08,-5.266644138044326e-07,-2.514191519011499e-07,-1.898089817831893e-07,-4.3054205952764075e-07,-3.5087808665881124e-07,1.097897171989722e-06,7.339236723030302e-07,6.300916065101274e-07,3.4032069330537596e-07,9.541572062741298e-08,4.268415536963442e-07,9.112598788471048e-07,4.3869547383903036e-07,1.0572163491509609e-07
6.9509538141223775e-09,-2.388896638806664e-08,-3.7660538042449406e-07,-4.744266522447281e-08,-5.693986976100236e-07,-2.531977518482904e-07,-1.7647379152883748e-07,-2.9502257364350514e-07,-3.386779027718208e-07,1.1328493006427524e-06,7.792243182726993e-07,6.856842791736052e-07,4.057763219190397e-07,1.360870304030785e-07,5.041215710083483e-07,1.2139841280026973e-06,4.855458428670641e-07,1.294117474282944e-07
3.307587151280789e-08,-1.699061267396505e-08,-3.6532132895879904e-07,-2.9098253460097333e-08,-6.002114499001816e-07,-2.5025874074967694e-07,-1.69230866673891e-07,-1.7992314091333328e-07,-3.4362758500966797e-07,1.1757735316997386e-06,8.038089623917556e-07,7.128188655419644e-07,4.582370079204631e-07,1.6013891687638302e-07,5.283699293998938e-07,1.4801424634633603e-06,4.958859451456424e-07,1.4054709634588794e-07
3.887920284491509e-08,-1.9490626906585887e-08,-3.743745291881974e-07,-4.08677573790163e-08,-5.928790626333299e-07,-2.3847810069435604e-07,-1.7505214393776597e-07,-1.1898309293115556e-07,-3.692641300622767e-07,1.2269476214253055e-06,8.018477115236574e-07,7.073609941788616e-07,4.859244804228228e-07,1.6243293361194886e-07,5.020188357292349e-07,1.68877196123945e-06,4.859754508113537e-07,1.2905381505225836e-07
1.6310950808211677e-08,-4.226037288494224e-08,-4.0459024414317153e-07,-7.817972810711057e-08,-5.517785945082334e-07,-2.1971900647730355e-07,-1.961152211356515e-07,-1.332102855546485e-07,-4.1783395996791396e-07,1.2723622622649278e-06,7.722681959483454e-07,6.699331149009504e-07,4.811858163822479e-07,1.4277314210898732e-07,4.3805734599301097e-07,1.8390156035370715e-06,4.829903070389799e-07,9.039033285187066e-08
-2.9201644024376607e-08,-9.701883352892007e-08,-4.5220788611322e-07,-1.2984170386101769e-07,-4.7374603257251324e-07,-1.9851407932053857e-07,-2.3198688482738282e-07,-2.1984516753874074e-07,-4.826132360406603e-07,1.2814601386687494e-06,7.208170566730368e-07,6.137249523838848e-07,4.4390644929291447e-07,1.0676558642485815e-07,3.567949106337316e-07,1.9182343621057487e-06,4.506473433789824e-07,3.127295904108086e-08
-9.019889532316467e-08,-1.7966132759248184e-07,-5.086927477479383e-07,-1.8155904689708351e-07,-3.5167541965472766e-07,-1.7865457415999722e-07,-2.7854432646535966e-07,-3.5204538287805983e-07,-5.540545765065809e-07,1.275465007311005e-06,6.593469358360856e-07,5.53424707021502e-07,3.831172986278067e-07,6.47549460663673e-08,2.814461455933926e-07,1.9266701932297893e-06,3.8530598201832274e-07,-3.401837300626292e-08
-1.5453067359221524e-07,-2.82573649294321e-07,-5.62260310809564e-07,-2.2102834843957585e-07,-2.1923319414223131e-07,-1.6139894140145261e-07,-3.216504180854577e-07,-4.907225424629393e-07,-6.21102474816534e-07,1.213760864591871e-06,6.029186491241513e-07,5.091524445138143e-07,3.1534200525524685e-07,2.8857377465803928e-08,2.3210530539000837e-07,1.8519865271156193e-06,3.273224701216959e-07,-8.921406302204965e-08
-2.0465090473770047e-07,-3.890902509208066e-07,-6.00718700106461e-07,-2.4162652309155914e-07,-1.0403222726436211e-07,-1.4392002075685343e-07,-3.4711529246161006e-07,-5.998264626744161e-07,-6.518098526082491e-07,1.198616089634506e-06,5.653820730376412e-07,5.310616683269637e-07,2.5940219569736437e-07,9.189140043293861e-09,2.191693178128144e-07,1.7127344533862484e-06,2.8423672491282717e-07,-1.2066723769118631e-07
-2.2705049253021062e-07,-4.748738892052907e-07,-6.150978878037047e-07,-2.4393529715522756e-07,-2.9238264204011093e-08,-1.2158540477898017e-07,-3.4234063299077586e-07,-6.562208705678658e-07,-6.433062833900152e-07,1.1993591050623604e-06,5.548314861589557e-07,5.501786931348592e-07,2.295927286343956e-07,1.0747373647916585e-08,2.39571232651462e-07,1.5444369489373772e-06,2.850140596079601e-07,-1.2579255812079625e-07
-2.1287818419694372e-07,-5.218551419473923e-07,-6.029601658638526e-07,-2.361366054578309e-07,-1.617817390077468e-08,-9.066483767845435e-08,-3.069501266841241e-07,-6.526164098831168e-07,-6.633978114299515e-07,1.176682884501208e-06,5.70878880136161e-07,5.871857863644234e-07,2.3058059810789902e-07,3.22469356308562e-08,2.7855390762526527e-07,1.3882639358608136e-06,3.2003707416150803e-07,-1.0899702531614937e-07
-1.646367178701575e-07,-5.281985023596637e-07,-5.6957010885516e-07,-2.32694144830439e-07,-6.477680312553937e-08,-4.963276085145632e-08,-2.5106892466928573e-07,-5.967406448173243e-07,-6.273362888753884e-07,1.2262405618466953e-06,6.052716476240133e-07,6.43948913262189e-07,2.568317487263151e-07,6.745000402228954e-08,3.165351014577445e-07,1.2653384972068113e-06,3.5113902460024054e-07,-8.274921327629217e-08
-9.82223219977778e-08,-4.983889429795513e-07,-5.257796017287539e-07,-2.4859743880476406e-07,-1.238727193477846e-07,2.0762283468424207e-10,-1.8859481868145588e-07,-5.094939961816358e-07,-5.591700161730538e-07,1.3177819107313326e-06,6.457663778919679e-07,7.279876966676876e-07,2.9656109962391284e-07,1.0803377919823085e-07,3.378987560435527e-07,1.1789539930581274e-06,3.778310559270179e-07,-6.329135945188253e-08
-2.8920568444351313e-08,-4.5463895570415487e-07,-4.83724303953712e-07,-2.909511108138441e-07,-1.935841962770742e-07,5.4215319243747474e-08,-1.33892372649073e-07,-4.2103448691390247e-07,-5.00468456901456e-07,1.39125438196435e-06,6.811973892642428e-07,7.861446157973595e-07,3.3712555384019746e-07,1.4623789795152588e-07,3.37124117010971e-07,1.1190132781352156e-06,4.025254387948581e-07,-6.066875567297399e-08
2.9987239221125e-08,-4.206181072594141e-07,-4.529136651590075e-07,-3.5407250476582263e-07,-3.2019801846599584e-07,1.0488465824344974e-07,-9.915830919027605e-08,-3.612515205199497e-07,-4.6309876558299926e-07,1.4367403303176345e-06,7.050367829529447e-07,8.100515715316833e-07,3.6872502604023767e-07,1.764625687323046e-07,3.1851482089129484e-07,1.0637795521130042e-06,4.1889966191889423e-07,-7.453681129776702e-08
6.903775752671021e-08,-4.0133652101745804e-07,-4.3833945338350377e-07,-4.210077626758257e-07,-4.84961303844605e-07,1.4431853606023912e-07,-8.464507790513675e-08,-3.45913004070132e-07,-4.4396889740452954e-07,1.4526697183931634e-06,7.16154439484152e-07,8.090179183624985e-07,3.8574908925003026e-07,1.9613388277230442e-07,2.9018427629002257e-07,1.00219534969265e-06,4.242243478923802e-07,-9.324322794243767e-08
8.545487742489581e-08,-4.031575904581492e-07,-4.403566982788768e-07,-4.7037152151780935e-07,-6.747168907368423e-07,1.6730030721499345e-07,-8.594808237373585e-08,-3.676043660518733e-07,-4.4394532512388866e-07,1.4413817473364076e-06,7.174539290715183e-07,7.85878122755503e-07,3.8657301285411983e-07,2.0601115042241741e-07,2.576359194504562e-07,9.445009815456695e-07,4.22469512744266e-07,-9.954538540112363e-08
8.039797579502686e-08,-4.224088063714198e-07,-4.55500024770824e-07,-4.847278670463366e-07,-8.656890807871708e-07,1.75033050002139e-07,-9.864294880871857e-08,-4.0006576094064336e-07,-4.5761803200210334e-07,1.4129541324250391e-06,7.136846093737729e-07,7.486398797033275e-07,3.7243946988350465e-07,2.0949129070487686e-07,2.2199238793129806e-07,9.189645493451869e-07,4.1591511494125366e-07,-7.956246608510347e-08
5.829086276083684e-08,-4.48603965125043e-07,-4.78055730006014e-07,-4.575245636905731e-07,-1.0145671952492736e-06,1.716201632682394e-07,-1.153744648978815e-07,-4.142539804436124e-07,-4.778690475699456e-07,1.3750541046804086e-06,7.090496052871477e-07,7.05326849381775e-07,3.459170552520256e-07,2.1042477191474015e-07,1.8257450993979515e-07,9.417852101670537e-07,4.058097691843664e-07,-3.265873977378726e-08
2.572917310473914e-08,-4.7371998339108266e-07,-5.026723556962206e-07,-3.9689259008276775e-07,-1.0960707792914763e-06,1.6158884993286074e-07,-1.3026808299217754e-07,-3.9519555699228117e-07,-4.987413223470284e-07,1.332415589784289e-06,7.048041009383673e-07,6.609527061482285e-07,3.093006275831937e-07,2.0990360642729556e-07,1.3937184000488022e-07,1.0035744370423895e-06,3.912327835129132e-07,2.7167614080229133e-08
-1.1260924096646168e-08,-4.948621677325678e-07,-5.27277281952474e-07,-3.2376828805312493e-07,-1.119348396817398e-06,1.4738123445817753e-07,-1.4187744922311034e-07,-3.497590992342027e-07,-5.178054727868821e-07,1.284564801724768e-06,6.976092244374249e-07,6.155411061813492e-07,2.6313062301246265e-07,2.03919066384076e-07,9.284842197961285e-08,1.0375612109788174e-06,3.691418723816798e-07,7.725134573356599e-08
-5.1663123980289785e-08,-5.142673046577841e-07,-5.542808045991287e-07,-2.677081594634782e-07,-1.0642556960232605e-06,1.2599506059339408e-07,-1.5175342805157188e-07,-3.0328330324804096e-07,-5.370286274787837e-07,1.2264761800550982e-06,6.799454842456568e-07,5.646040996810117e-07,2.0559411606985802e-07,1.8397998626769511e-07,4.2659570858552134e-08,9.528272994797039e-07,3.3416203132122637e-07,9.628375464270999e-08
-9.714044087811531e-08,-5.403945499853447e-07,-5.886326847472051e-07,-2.521928781027069e-07,-9.064685962150139e-07,9.060036180150905e-08,-1.638494735720443e-07,-2.8833499772315116e-07,-5.612580339548931e-07,1.1524907705794338e-06,6.431529121631472e-07,5.023474295070081e-07,1.3387184485664932e-07,1.4083567167063286e-07,-1.2560666694642067e-08,6.907219700442597e-07,2.828147845563625e-07,7.39528448763119e-08
-1.4901266022951427e-07,-5.849815541243564e-07,-6.338003072413284e-07,-2.860842309458439e-07,-7.048761176268343e-07,3.4952928805623636e-08,-1.855373488483922e-07,-3.3016666150843365e-07,-5.946779034876608e-07,1.0611138849210796e-06,5.81987036779991e-07,4.259097221819045e-07,4.7128035942879375e-08,6.92813302768281e-08,-7.390243719652286e-08,2.5062175194963606e-07,2.168558114311038e-07,1.4153316329842269e-08
-2.0613430378697826e-07,-6.515691944336264e-07,-6.885088641900384e-07,-3.630531436585787e-07,-5.308435392384975e-07,-4.171456965124692e-08,-2.2140016329707681e-07,-4.3412190018048354e-07,-6.372859690752162e-07,9.577709570587948e-07,4.984746642138286e-07,3.382648969361634e-07,-5.072905297729913e-08,-3.067365159380965e-08,-1.3989149099932648e-07,-2.715902270585219e-07,1.434466100799094e-07,-6.754484412636125e-08
-2.6350542130439396e-07,-7.359106074657025e-07,-7.463135466002805e-07,-4.6608734781771875e-07,-4.519915801554875e-07,-1.3215457909264176e-07,-2.694316075311237e-07,-5.800392956904363e-07,-6.837718880128107e-07,8.541462962453029e-07,4.030579129373617e-07,2.4852058965586277e-07,-1.5039519268771526e-07,-1.4534159490371228e-07,-2.0452005790174675e-07,-7.396308695811347e-07,7.376522663681223e-08,-1.498057914872074e-07
-3.1438858739093557e-07,-8.272194519526367e-07,-7.979758432415465e-07,-5.756802483410479e-07,-5.133932068632976e-07,-2.2234389575881194e-07,-3.203195127135967e-07,-7.271792327403221e-07,-7.255252124501524e-07,7.64544129872725e-07,3.1027823486639024e-07,1.6957917568783653e-07,-2.3930773335470317e-07,-2.5973877039965673e-07,-2.5768406274753186e-07,-9.770589562969576e-07,1.905991651474359e-08,-2.1254700151080037e-07
-3.5338966537036057e-07,-9.093759402286647e-07,-8.353985388300506e-07,-6.745381174630108e-07,-6.971875340182348e-07,-2.9759655067000523e-07,-3.596942546826542e-07,-8.298289739768124e-07,-7.543722561523904e-07,7.007100341338689e-07,2.389735228428676e-07,1.1375426749595064e-07,-3.057563664355651e-07,-3.5413253706426307e-07,-2.890748112445288e-07,-9.142181803380738e-07,-1.3293871956920327e-08,-2.4277579927257606e-07
-3.790923209845341e-07,-9.714033380166293e-07,-8.552358175133475e-07,-7.510691555597345e-07,-9.344459217689828e-07,-3.463788761622162e-07,-3.750020077322871e-07,-8.567935319212891e-07,-7.657598058989709e-07,6.671581795287196e-07,2.1503608337566716e-07,8.789461090374325e-08,-3.4297777196127745e-07,-3.775766789649238e-07,-2.9345173041172784e-07,-6.041181158391019e-07,-2.2196944202989175e-08,-2.3743012469307164e-07
-3.951966362402825e-07,-1.0081237823438945e-06,-8.603821385583352e-07,-8.018507286259421e-07,-1.15002057736209e-06,-3.625741783420767e-07,-3.6107132484403977e-07,-8.035916683684202e-07,-7.598291618879719e-07,6.594241441972767e-07,1.9014707181372476e-07,9.066080040982353e-08,-3.5101075422010453e-07,-4.054671385364372e-07,-2.7286714301536104e-07,-4.0615922583197495e-07,-1.2608219744155717e-08,-2.0296290567379715e-07
-4.09046028188574e-07,-1.0210916085382195e-06,-8.582604128342094e-07,-8.329559426922474e-07,-1.286337821924361e-06,-3.4577063881025625e-07,-3.2338649749974556e-07,-6.919202330133199e-07,-7.403076995310688e-07,6.667058378089828e-07,2.1384981729075983e-07,1.1390730200796926e-07,-3.351860891206317e-07,-4.153466948270001e-07,-2.3364317061998648e-07,-2.2438143890054534e-07,7.684353256891846e-09,-1.5242771217159612e-07
-4.2791324874416434e-07,-1.0200954524372623e-06,-8.565727170107144e-07,-8.54387378574677e-07,-1.3047860695336695e-06,-3.007985035641111e-07,-2.744379991308216e-07,-5.602098227243464e-07,-7.121493656110954e-07,6.775991847904009e-07,2.427628197454788e-07,1.472286851137549e-07,-3.024056364280939e-07,-3.9718153357308626e-07,-1.8143602860334274e-07,-7.833891086078174e-08,3.249738757147471e-08,-1.0025780549510934e-07
-4.551052667540855e-07,-1.0123822937037983e-06,-8.59207224776909e-07,-8.710044517072375e-07,-1.2095613282255246e-06,-2.3728540807396842e-07,-2.2684967313260462e-07,-4.5079753053322024e-07,-6.793898961463671e-07,6.85121878062399e-07,2.736512630616532e-07,1.823654226428243e-07,-2.581650945375243e-07,-3.3280522260043715e-07,-1.195693174195484e-07,-1.3268202201840107e-07,5.987668892231192e-08,-5.58983458424164e-08
-4.885716306942358e-07,-1.0015908340108199e-06,-8.650000458302672e-07,-8.778820799110045e-07,-1.0354396980880447e-06,-1.6800019021068867e-07,-1.888305698788622e-07,-3.970861395763668e-07,-6.444835697579255e-07,6.879102368210943e-07,3.0110028739501037e-07,2.147989298293362e-07,-2.0632194022049856e-07,-2.713855688436809e-07,-5.151601243176018e-08,-4.050764706964894e-07,9.120406799961543e-08,-1.9958616465591284e-08
-5.228587038007894e-07,-9.884268584225085e-07,-8.698708133090039e-07,-8.640031240885469e-07,-8.257876912957849e-07,-1.050663984118778e-07,-1.6267388855138243e-07,-4.152218642704008e-07,-6.092052206323032e-07,6.876924054088591e-07,3.232618851913362e-07,2.424720536467417e-07,-1.507645589772539e-07,-2.194459873987724e-07,1.6054115488459694e-08,-6.770016355287341e-07,1.2786079835082603e-07,1.4078079672146211e-08
-5.52895587720261e-07,-9.718487634554464e-07,-8.703713114163358e-07,-8.223754846874187e-07,-6.229994821040704e-07,-5.962082687231284e-08,-1.4695332156890836e-07,-5.036367961314235e-07,-5.759486507730911e-07,6.858265259046761e-07,3.39450296104966e-07,2.637043683250832e-07,-9.676764850189691e-08,-1.7112873214398674e-07,7.320183903676689e-08,-9.367699676647906e-07,1.6832216124740802e-07,5.4043024655266525e-08
-5.768542164742044e-07,-9.51589656806759e-07,-8.659078152364107e-07,-7.665051490872843e-07,-4.5765460241509156e-07,-3.7612144432029286e-08,-1.3766317840387067e-07,-6.509384025044877e-07,-5.479115658287105e-07,6.819291039254205e-07,3.488783655127895e-07,2.766455459807344e-07,-5.068594432799338e-08,-1.3208273023683492e-07,1.1033074830857169e-07,-1.0541916450223202e-06,2.0805148234877216e-07,1.039552445014481e-07
-5.959899749788534e-07,-9.29033141539927e-07,-8.580760712521989e-07,-7.040100309875836e-07,-3.464034230775332e-07,-3.8686648091783644e-08,-1.3089367081871076e-07,-8.250024223940048e-07,-5.277272999694759e-07,6.754223620036968e-07,3.515144031153686e-07,2.807685945206143e-07,-1.7955879364616678e-08,-1.0289002720478566e-07,1.2334772260764804e-07,-9.309518854269904e-07,2.4218840220986305e-07,1.622894909541274e-07
-6.120045109556115e-07,-9.061034041321566e-07,-8.480550448689659e-07,-6.555449900635025e-07,-2.934848650034915e-07,-5.567128090162793e-08,-1.2271814333879753e-07,-9.92334061161295e-07,-5.155643166806357e-07,6.679360416267897e-07,3.496804230451633e-07,2.7858883539881034e-07,-5.082131480081272e-10,-8.095371792674984e-08,1.1681445944247241e-07,-6.080001834268559e-07,2.687056521244862e-07,2.2176175462977133e-07
-6.245312176362148e-07,-8.826159139706162e-07,-8.347470482190068e-07,-6.3492524019176e-07,-2.9381754618533093e-07,-7.495168773285873e-08,-1.0959891603226249e-07,-1.1115338286383253e-06,-5.08369442164278e-07,6.637630652889512e-07,3.482732259210312e-07,2.7552353658508863e-07,4.434593144767333e-09,-6.184349984134874e-08,1.0255564131531146e-07,-1.4636051065084423e-07,2.8946123948743066e-07,2.689564234088333e-07
-6.310562006030263e-07,-8.567548177379333e-07,-8.154882382494374e-07,-6.358634588632482e-07,-3.3800977262911754e-07,-8.216932315565716e-08,-8.678100253086945e-08,-1.0757540503085043e-06,-5.009359606519496e-07,6.676548463827084e-07,3.529059376964292e-07,2.776772520534257e-07,2.7928449620862072e-09,-4.18262968204627e-08,9.398970276887165e-08,3.1508128330194113e-07,3.085879361083878e-07,2.864196740230643e-07
-6.291208360752152e-07,-8.255126309746067e-07,-7.886009847018694e-07,-6.495029222122714e-07,-4.151275587577856e-07,-6.80476120911759e-08,-5.1262021000267844e-08,-9.74576230198115e-07,-4.881038471212618e-07,6.818176182947849e-07,3.672170422736979e-07,2.8919386049089925e-07,3.194684751976807e-10,-1.963281144933129e-08,9.942903146965782e-08,6.369737970972882e-07,3.2999011750356115e-07,2.595604047907633e-07
-6.185564396636135e-07,-7.870010988675439e-07,-7.551675473551647e-07,-6.679786779086684e-07,-5.10747122903227e-07,-3.2606445555990673e-08,-4.420346785747275e-09,-8.665114157878909e-07,-4.666478733568293e-07,7.048213885410511e-07,3.914504477357486e-07,3.1112562772135504e-07,4.712980835550361e-10,4.226470311573379e-09,1.1889648210850215e-07,7.621198634967883e-07,3.5794813522117974e-07,1.849139951413892e-07
-6.013941805604108e-07,-7.404235071135674e-07,-7.178900459423615e-07,-6.924088462665401e-07,-6.02795086206018e-07,1.625931639849112e-08,4.909114157864072e-08,-6.386589874186832e-07,-4.356299612501596e-07,7.335360523645007e-07,4.2347120636910403e-07,3.424885634205411e-07,5.1907917251467255e-09,3.0077592947288576e-08,1.4648517513453186e-07,7.025236552661664e-07,3.936466015214258e-07,7.376905540270648e-08
-5.792878886514595e-07,-6.88134788485179e-07,-6.778280124554557e-07,-7.138630047247954e-07,-6.61701829598673e-07,6.72792666093853e-08,1.038163362827799e-07,-3.450924009677466e-07,-3.9546790985571214e-07,7.664413860439633e-07,4.61258458520189e-07,3.822979307482198e-07,1.7159660714083516e-08,6.104356190350437e-08,1.7581428229105315e-07,5.104865156048992e-07,4.370808921371566e-07,-5.0758967202202564e-08
-5.509356300229171e-07,-6.301795982549628e-07,-6.321820008036853e-07,-7.56862023707092e-07,-6.608125296953159e-07,1.1203848826174881e-07,1.5748449363258763e-07,-8.249612401280023e-08,-3.470844233049349e-07,8.053637352758431e-07,5.04687872785898e-07,4.3053499724730964e-07,4.074202254606656e-08,1.0239987041457474e-07,2.0458919388556534e-07,2.5299479341580235e-07,4.915932277948155e-07,-1.6048637515558726e-07
-5.122263955248988e-07,-5.630836555019021e-07,-5.754564734481638e-07,-8.138885184171631e-07,-5.843295607118383e-07,1.4919775319160874e-07,2.1258359467123515e-07,1.273929612063497e-07,-2.9194044793534146e-07,8.541272447956432e-07,5.552811295769424e-07,4.871115401271873e-07,8.048159437859101e-08,1.5869849449874338e-07,2.3594593231957722e-07,-2.2727504990700896e-08,5.587765195864537e-07,-2.2969154752837676e-07
-4.5929381285184737e-07,-4.856562981594073e-07,-5.033076175511355e-07,-8.615447443978183e-07,-4.350139009969504e-07,1.7761331160253374e-07,2.744104802600459e-07,2.960006422536513e-07,-2.3232760620759313e-07,9.152690930046097e-07,6.14383058614541e-07,5.49979038839204e-07,1.3831364123884423e-07,2.2927373799957155e-07,2.761501295776511e-07,-2.808492338679862e-07,6.371432294238624e-07,-2.4212857137822866e-07
-3.9209247576739305e-07,-3.9654335318669677e-07,-4.161543895943338e-07,-8.853431962682508e-07,-2.3822031125491704e-07,2.0096974493145305e-07,3.4803342514162376e-07,4.191132296046616e-07,-1.7120830617374282e-07,9.873959950815202e-07,6.813339770061762e-07,6.144218367721183e-07,2.1150091294627157e-07,3.087619677059843e-07,3.29805648560153e-07,-4.966825565139343e-07,7.239480829437443e-07,-1.9606098552688662e-07
-3.1574227815618446e-07,-2.9874336286562374e-07,-3.200275584889719e-07,-8.665052879679685e-07,-3.255083920766693e-08,2.1375540120993285e-07,4.334461425833865e-07,5.013433679590777e-07,-1.1179551188787524e-07,1.0648332942593065e-06,7.529261414757872e-07,6.741995029955933e-07,2.925409303651385e-07,3.8805343686492224e-07,3.953501768740487e-07,-6.47859425415401e-07,8.087878486334025e-07,-1.0445577256525694e-07
-2.383226368774351e-07,-1.9968572904714167e-07,-2.2467620703883008e-07,-8.036768907850945e-07,1.3838462725820338e-07,2.1973904986752807e-07,5.295373542603762e-07,5.503560286214403e-07,-5.748166501101213e-08,1.1389974617912101e-06,8.239894866561177e-07,7.231400895069615e-07,3.7094349040339755e-07,4.5344922647894326e-07,4.637672413286893e-07,-7.161629167424431e-07,8.66860774755033e-07,1.0557165800518976e-08
-1.7103939542629686e-07,-1.0819832338915218e-07,-1.411076303502804e-07,-7.08361390870968e-07,2.3696628647178e-07,2.264318381308271e-07,6.165338923224949e-07,5.738157204730791e-07,-1.110149193749319e-08,1.1999081951125873e-06,8.879696309127004e-07,7.556986707682327e-07,4.3590606257376297e-07,4.939562894268114e-07,5.21134135292422e-07,-6.927383811810559e-07,8.970372988760539e-07,1.2511848125502256e-07
-1.238151737504773e-07,-3.374662134130522e-08,-7.984391491679296e-08,-6.107677327831165e-07,2.4448984513930765e-07,2.3721227780938757e-07,6.824534168620369e-07,5.708334052714186e-07,2.1950315525566896e-08,1.2374728202208595e-06,9.37216173747374e-07,7.669401549368956e-07,4.788056980790143e-07,5.0563238864742e-07,5.532355194821978e-07,-5.978627366811763e-07,8.92937528428954e-07,2.1878584672125928e-07
-1.044839439333131e-07,1.5939443748429796e-08,-4.905236443829291e-08,-5.159455809439342e-07,1.670184599654671e-07,2.558103754846112e-07,7.16804541882799e-07,5.332560831336087e-07,3.576661025554269e-08,1.2453976535456887e-06,9.64085469677769e-07,7.535253579624713e-07,4.949544897082451e-07,4.903335162248914e-07,5.504520668319872e-07,-4.4596161995950214e-07,8.529608238584225e-07,2.779156977304561e-07
-1.1913971610245658e-07,3.292438156245988e-08,-5.349333364417397e-08,-4.421672439012148e-07,3.401030679188418e-08,2.77460181323157e-07,7.083683968964367e-07,4.5143381217687946e-07,2.5128205766744614e-08,1.2195833178710058e-06,9.636150433758165e-07,7.159790646127435e-07,4.847615692282233e-07,4.548701248068574e-07,5.137040040380747e-07,-2.595743064232633e-07,8.76329249777254e-07,2.991570906951656e-07
-1.6363519512224532e-07,1.5804731228453864e-08,-8.851073830166805e-08,-4.0292827899515674e-07,-1.1622612306066112e-07,2.918886772578212e-07,6.585121493392175e-07,3.215671566778311e-07,-8.392816784121569e-09,1.1626069002903217e-06,9.36703175596639e-07,6.620934078601697e-07,4.543111866288101e-07,4.0868743209477996e-07,4.526460557013672e-07,-6.568491285357847e-08,8.68803081087966e-07,2.9122656278719596e-07
-2.231562988679329e-07,-2.8083907544796122e-08,-1.3733690700499259e-07,-3.950934872216095e-07,-2.448658540234276e-07,2.878708108895211e-07,5.742500369611998e-07,1.5288683169551673e-07,-5.4680045724627874e-08,1.0888927360730415e-06,8.93262664920212e-07,6.036096507493172e-07,4.1578681256706116e-07,3.62700697157218e-07,3.856893427622828e-07,1.2802150391915066e-07,8.113099542021913e-07,2.7208427127045753e-07
-2.813368574547862e-07,-8.484262676383927e-08,-1.8264389937788256e-07,-4.1574578096613096e-07,-3.233915569040967e-07,2.5864494150236875e-07,4.7223809402213664e-07,-2.7315937897823783e-08,-1.038124377798297e-07,1.016883089436347e-06,8.470579234957134e-07,5.548095843569019e-07,3.8151048113782177e-07,3.2406906580707296e-07,3.3390415795576496e-07,3.3471051852947303e-07,7.566671772598203e-07,2.621908328912941e-07
-3.054270678527462e-07,-1.321100485421172e-07,-1.7460249891161487e-07,-4.430756228911657e-07,-3.4227518636736266e-07,2.0398819946107338e-07,3.717118823338436e-07,-1.852492447065844e-07,-1.2366919531288033e-07,9.651444127444215e-07,8.123504260764045e-07,5.27851220859517e-07,3.6100039217590043e-07,2.9812029436875567e-07,3.074468866389114e-07,5.40030287421603e-07,7.226879611376335e-07,2.765505604787228e-07
-2.5506812017987166e-07,-1.4989187910665226e-07,-1.2300635273067218e-07,-4.338884098159799e-07,-3.1224706980255087e-07,1.434402839821609e-07,2.9001217497933006e-07,-2.9572730651163287e-07,-9.28681767381992e-08,9.465149370355697e-07,7.986520134677824e-07,5.269878181225916e-07,3.575962562084067e-07,2.8389042295523736e-07,3.0498730005908164e-07,7.193338227917502e-07,7.084187694559092e-07,3.1784437541950755e-07
-2.1644788280440798e-07,-1.2745502438373002e-07,-7.951697489508928e-08,-4.2700668377493853e-07,-2.632238355466166e-07,8.555298355619883e-08,2.406075184353825e-07,-3.49000403868377e-07,-9.731995519159297e-08,9.620556787349644e-07,8.069576881761021e-07,5.485405184932338e-07,3.6470230936578005e-07,2.73719032744116e-07,3.0967543768313066e-07,8.512605474561943e-07,6.742403008609145e-07,3.7414364552266737e-07
-1.7214420557131968e-07,-6.786806265155224e-08,-2.190716315880725e-08,-3.435668944502504e-07,-2.1289348827828828e-07,3.8771889365807635e-08,2.200387098309261e-07,-3.504452733728952e-07,-7.846994110117444e-08,1.0017741708629004e-06,8.286580575743817e-07,5.80915732142372e-07,3.694737055999698e-07,2.592318318354427e-07,3.047463763597747e-07,9.088826253606749e-07,7.001035215914855e-07,4.2467120273750483e-07
-3.121703158375225e-08,1.3439752896215444e-08,7.825177639297309e-08,-2.2332223837983513e-07,-1.9361171895379482e-07,-5.785256545448399e-09,2.1659812207021658e-07,-3.107723835059082e-07,-1.7230656953180794e-08,1.0494008081517316e-06,8.495175010386369e-07,6.077416654974482e-07,3.6351838748038334e-07,2.3161205758993163e-07,2.769321593914924e-07,9.139256463932033e-07,7.631316671577262e-07,4.516013106956205e-07
1.2990949809101513e-07,9.769410677286445e-08,1.9662683911154966e-07,-6.703519904598935e-08,-2.3303526425840476e-07,-3.9943647673073046e-08,2.1811330270745235e-07,-2.3702891517572692e-07,6.644281347560816e-08,1.0915757086104086e-06,8.571068863616157e-07,6.173531901412413e-07,3.3969616458838827e-07,1.9926165269056262e-07,2.2496716137602858e-07,8.535812682214181e-07,8.249105141334567e-07,4.5006945469954507e-07
2.649752935029012e-07,1.7064048573008304e-07,2.806309505003103e-07,1.0658392509603512e-07,-3.039592768177586e-07,-6.769138338794096e-08,2.0498176361671015e-07,-1.2980511242314365e-07,1.3349725641143182e-07,1.120495271558305e-06,8.457110305267158e-07,6.069598423101037e-07,2.995595576272424e-07,1.608781043862932e-07,1.6104160818281623e-07,7.62498845278789e-07,8.705783763807378e-07,4.2971268032053895e-07
3.81027004310687e-07,2.2943170086328858e-07,3.373661829248906e-07,2.776373251672793e-07,-3.6424707839090765e-07,-6.913559517063511e-08,1.7641385433509858e-07,1.3783739954693924e-08,1.875250005312567e-07,1.135240136402766e-06,8.188101802988063e-07,5.8180357484594e-07,2.5422404301693045e-07,1.065158782314233e-07,1.0299403890004539e-07,6.859942443407737e-07,9.091165820751613e-07,4.0809858781328675e-07
4.7171642275944173e-07,2.8358364153132056e-07,3.8020054048753907e-07,4.241888139702496e-07,-3.645545630056101e-07,-4.835711626969027e-08,1.3456121456205545e-07,1.9655364198025166e-07,2.364894763568088e-07,1.1404578451626932e-06,7.852014704029729e-07,5.544085985734973e-07,2.1775015237468716e-07,5.6854303501836265e-08,7.272088861953644e-08,6.459389959145538e-07,9.40079826285631e-07,4.015846273657037e-07
5.465528465890537e-07,3.426229860344672e-07,4.132768017060051e-07,5.315848198329949e-07,-2.717979838577826e-07,-4.202617836257284e-08,1.0688996861337199e-07,4.009297705688907e-07,2.683111467584464e-07,1.1371960580377633e-06,7.556509457636867e-07,5.316042861374413e-07,1.9659492092271976e-07,4.0559110992753254e-08,7.678668655357535e-08,6.588624162200427e-07,9.636835553568892e-07,4.18462293381157e-07
6.021865623792958e-07,4.123712514013307e-07,4.3900508127856156e-07,5.893551710142718e-07,-8.865074501627204e-08,-3.615210559436077e-08,9.650849091609846e-08,6.137411413407647e-07,2.821027514136805e-07,1.1247876016168162e-06,7.34020972194243e-07,5.210458706069713e-07,1.9582824076169694e-07,5.737106033171401e-08,1.0815387903914104e-07,7.209234338837811e-07,9.768789781292493e-07,4.5642104589606534e-07
6.311364650477602e-07,4.751793615419164e-07,4.566660634241192e-07,6.00959930943404e-07,1.2050366849956385e-07,-8.207143407851525e-08,7.892380509725604e-08,8.114216246397543e-07,2.769832612337778e-07,1.0820384500221788e-06,7.210246862003156e-07,5.185073844800996e-07,2.3602052169765954e-07,1.1946219973922426e-07,1.1924825025786707e-07,7.930426458086251e-07,9.756513975931204e-07,5.04532585342603e-07
6.363607009892549e-07,5.268028200177582e-07,4.669163763057784e-07,5.818776498902037e-07,2.9351638207288115e-07,-2.0170525172920146e-07,5.156547487903536e-08,9.619094849476475e-07,2.5270549932589515e-07,1.0191251275960161e-06,7.172238825686212e-07,5.369146076641982e-07,2.8931058913268497e-07,2.2919120951824943e-07,1.7009359225944433e-07,7.833693794975008e-07,9.63321701093712e-07,5.483335047496641e-07
6.199258997586149e-07,5.684937436877452e-07,4.770149646492127e-07,5.305028699968844e-07,4.2031087743796256e-07,-2.2487853008651716e-07,-6.985704807479651e-09,1.0445129067106527e-06,2.1620964762762086e-07,9.62730459389315e-07,7.238903669779452e-07,6.039534262553909e-07,3.8388398564453275e-07,2.785899668640605e-07,2.1117586619152829e-07,7.457294743725135e-07,9.481320219553784e-07,5.755232546647204e-07
5.937161995953434e-07,6.015978037188464e-07,4.81567255216156e-07,4.944845264256652e-07,4.6533613039039664e-07,-2.30132917250075e-07,-1.2948933102699535e-07,1.0630551826952653e-06,1.757026851462186e-07,9.118238775987115e-07,7.294099624274017e-07,6.639428957003768e-07,5.190025343793205e-07,2.9504384293942935e-07,1.9576645077604163e-07,6.958013712016143e-07,9.429432729531426e-07,5.801708368144256e-07
5.722191422002895e-07,6.438280946778169e-07,5.082318099914324e-07,5.259943173047859e-07,4.3016672388388446e-07,-2.7224011111010315e-07,-2.0492162017098706e-07,1.0128333634373437e-06,1.436538475524222e-07,8.72234454898466e-07,7.430331498623782e-07,7.356069760411177e-07,5.624744224707478e-07,3.229253755529747e-07,1.7643158017332762e-07,6.407867501803792e-07,9.562913396863945e-07,5.640950169977195e-07
5.638685677936846e-07,6.515376312868689e-07,5.590949884920109e-07,5.141124630932216e-07,3.180281111767892e-07,-3.2515420833816323e-07,-2.6858131056902517e-07,8.992786564160925e-07,9.659699042466617e-08,8.249954410530793e-07,7.712963945439374e-07,8.30730375565444e-07,6.581962068034238e-07,3.761524670767775e-07,2.2150743301936008e-07,6.364487745934488e-07,9.870759008480435e-07,5.347256485184633e-07
5.650463137559556e-07,6.12772334128613e-07,6.035289114213401e-07,4.814231014218394e-07,1.666560395721298e-07,-3.874305803505931e-07,-3.1012774031877227e-07,7.673824303100275e-07,5.321349872118588e-08,7.553215224113818e-07,7.929129514609095e-07,9.043855124427132e-07,7.679752401660495e-07,4.6855904715245814e-07,2.619582638523848e-07,6.871864494226657e-07,1.0086172255082889e-06,5.002880727221001e-07
5.666928461544762e-07,4.987357128795801e-07,6.385675198893438e-07,5.280095208348479e-07,-2.6546988056493156e-08,-3.955397943078672e-07,-3.4174800820850666e-07,6.252539955105559e-07,-1.0613928823629277e-08,6.369321629036147e-07,8.00479875100543e-07,8.812353108818315e-07,7.817323597781423e-07,5.428077913390812e-07,2.0895292636152404e-07,7.94152788524522e-07,9.921847060842753e-07,4.6501613556071217e-07
5.570966906448975e-07,3.1567370146691415e-07,6.130726798494096e-07,5.177925558500956e-07,-2.8938655928046233e-07,-3.9921017732249895e-07,-3.637540304899378e-07,4.854846562398911e-07,-1.091588609160858e-07,4.943330142366143e-07,7.516900796988444e-07,8.29390728606991e-07,7.525592664097771e-07,5.52339730391284e-07,1.4465283674790593e-07,9.585583675233443e-07,9.275363361456275e-07,4.2716811419738787e-07
5.206848235002935e-07,2.4449515389799727e-07,5.278795224189753e-07,4.1242072751097106e-07,-3.6163041210304373e-07,-4.416114097152523e-07,-4.677537002663367e-07,3.706466815126238e-07,-1.3226729267395873e-07,4.064546664944254e-07,6.215142220276233e-07,7.740137248453738e-07,7.322970032756079e-07,5.688755504308866e-07,1.1144146495153787e-07,1.1947928865090458e-06,8.68034368176903e-07,3.8091734934982383e-07
4.4516424505307486e-07,2.623978573740208e-07,4.5125737230848916e-07,3.4714231206646217e-07,-3.120969013717044e-07,-5.011730464381115e-07,-5.974543006553852e-07,2.914103480514398e-07,-1.2233955526182969e-07,3.1293067796428656e-07,5.420232855959831e-07,7.365235117098052e-07,7.15068411163131e-07,5.692422446049316e-07,8.972012511211308e-08,1.4124713709799194e-06,8.472516154540799e-07,3.212239011041534e-07
3.3016302119738307e-07,2.577155541176852e-07,4.3174516525564383e-07,3.6684470301009275e-07,-1.9582958624520302e-07,-5.137325261126923e-07,-6.818274276394072e-07,2.2958641322779365e-07,-1.7006632550569246e-07,2.2626920785278637e-07,4.858041918609962e-07,7.213953679346149e-07,7.203099467638539e-07,5.906430722090226e-07,1.0994724582337612e-07,1.5676721047789288e-06,8.031767816896811e-07,2.490275434128283e-07
1.8453901901088257e-07,1.8689529586212614e-07,3.863713607085423e-07,4.346274235348263e-07,-1.5037138985538808e-07,-5.343677105228744e-07,-7.016703952609728e-07,1.9816006307291012e-07,-2.502621502769548e-07,7.104541319198026e-08,4.4094543216647875e-07,7.045227063670094e-07,7.058668568175284e-07,6.227846793824714e-07,9.763589434097994e-08,1.6383231033146025e-06,7.005140501458298e-07,1.7366635894139153e-07
2.742915129280569e-08,4.716884621652881e-08,2.643862323604031e-07,4.781157676855373e-07,-2.6084621517360103e-07,-5.351115204172148e-07,-6.737534636449958e-07,1.9361066388897936e-07,-3.146175653964265e-07,-7.420930248906908e-08,3.962091746106766e-07,6.492652198340541e-07,6.65031860477551e-07,5.730581668400078e-07,1.5107027734886258e-08,1.590866620370731e-06,5.792394913657862e-07,1.1135316522246473e-07
-6.62516967730327e-08,-1.2355441205205106e-08,1.3241458582736097e-07,4.69870633741766e-07,-5.257770826529604e-07,-5.230859761467142e-07,-6.846519443107289e-07,1.7502284308861066e-07,-3.524523814972756e-07,-1.2178194579285083e-07,2.5854305578498387e-07,5.293612725735121e-07,5.609623536915695e-07,5.2186427213453e-07,-8.062880526604247e-09,1.4457852905659467e-06,4.846304817239621e-07,8.052060238852935e-08
-7.260822061962648e-08,-9.339654110809029e-09,6.672981096700136e-08,3.90072526161922e-07,-7.488980619926968e-07,-5.172933372958972e-07,-6.965086857224654e-07,1.44957778549403e-07,-4.065753630629813e-07,-1.4845864369843202e-07,9.931191538986414e-08,4.2001706031544825e-07,4.5173936178618825e-07,4.296442920730771e-07,-1.9378553874233184e-08,1.2282897402991655e-06,4.345637829795555e-07,9.521928742038789e-08
-8.971389731140973e-08,-1.6227848265113857e-08,3.906296662802809e-08,2.962038580612035e-07,-1.0370287308641316e-06,-5.026036427800794e-07,-7.002607022447096e-07,1.0483211298167472e-07,-4.589603130499147e-07,-1.7985781423455452e-07,2.477489944884338e-08,3.3399651651706244e-07,3.528117888262852e-07,3.244485179655143e-07,-4.24473492800584e-08,9.688926884570957e-07,3.608873689990118e-07,1.5833625385679658e-07
-8.536011238642822e-08,-6.202052762326494e-08,2.7651007266269154e-08,2.0069212590921153e-07,-1.3161579930856689e-06,-5.400156900840484e-07,-7.388798259638862e-07,5.069518609454283e-08,-5.141581277091623e-07,-2.1045023841529612e-07,-1.567336174343012e-08,2.770923501423086e-07,2.7520123569853993e-07,2.3775276228728317e-07,-8.055175087510575e-08,6.823892950501304e-07,3.209950861680326e-07,2.5785316377924986e-07
-1.0446400656957243e-07,-1.42743328651074e-07,-4.444744246982342e-09,9.112595098450026e-08,-1.4780915589439282e-06,-5.304118324701916e-07,-7.944691253872801e-07,-1.6308656095613172e-08,-5.819671677422683e-07,-2.547918874039493e-07,-6.257484635611829e-08,2.578130578474456e-07,2.5084718288406093e-07,1.7262388860922079e-07,-1.3413514634855292e-07,3.9018134875463254e-07,3.3673411197020886e-07,3.6969750889325765e-07
-7.063092804889738e-08,-2.0894920093936357e-07,-3.0710218838721216e-08,1.391812834775174e-08,-1.4872822884204846e-06,-5.474836984445699e-07,-8.015497608500788e-07,-7.985578508185121e-08,-6.346183470236087e-07,-2.888700263110134e-07,-1.393343172591184e-07,2.4872553725962803e-07,2.3527540746047674e-07,1.3016254013501297e-07,-1.5297742371270856e-07,9.968077286219812e-08,3.844183140238981e-07,4.6756651817646594e-07
-4.085492510323333e-09,-2.2255334312049498e-07,-3.1712955766819804e-08,-3.0715823016333735e-08,-1.4593912801468815e-06,-5.981212112763583e-07,-7.718954308697306e-07,-1.472222097948234e-07,-6.664215855888405e-07,-2.8921582413272147e-07,-2.386295460325946e-07,2.4160776898271075e-07,2.213512058107612e-07,1.1239578911518335e-07,-1.670178612174045e-07,-1.6513453180278333e-07,4.101467332875545e-07,5.343662795269003e-07
4.0726657523063324e-08,-1.5649412011978235e-07,1.0839510154637775e-08,-5.217077274911629e-08,-1.3933544601999028e-06,-5.980241908630054e-07,-7.57598741709181e-07,-2.0750111032345608e-07,-6.600962135606715e-07,-2.6552183039790927e-07,-2.950369363490138e-07,2.419560414231575e-07,2.1610742679096628e-07,1.0839103661147484e-07,-1.2887099121477511e-07,-3.5815703910771234e-07,4.202329652199922e-07,5.67561908004282e-07
9.609725584217581e-08,-8.03062177804844e-08,5.335475065453312e-08,-4.2600073954076906e-08,-1.2810097846423858e-06,-5.811834794485505e-07,-7.679019049291056e-07,-2.2680706431038966e-07,-6.26334203871036e-07,-2.39753802406444e-07,-3.0922737278381546e-07,2.5794028839797544e-07,2.1204394999735918e-07,1.0834075652993332e-07,-6.753070322497516e-08,-4.4002479590498755e-07,4.2255446733250637e-07,5.753708407185695e-07
1.646471964953316e-07,5.469833871065439e-09,9.554872791059601e-08,-1.7385872774690053e-08,-1.1021824185764997e-06,-4.694776538005502e-07,-7.014284452098868e-07,-1.923031566837455e-07,-5.780127212936046e-07,-1.9051789811156217e-07,-2.905184003332382e-07,2.847717284946722e-07,2.390003354266705e-07,1.3578787909832582e-07,6.784837061032994e-09,-3.9006567981766557e-07,4.1442059553157047e-07,5.680091204500202e-07
2.0361182734930764e-07,9.863614898844555e-08,1.43981966252879e-07,3.194258185295385e-08,-8.757867991668258e-07,-3.9688413418788764e-07,-6.357278228914732e-07,-1.0016020521222158e-07,-5.243073651467398e-07,-1.3349100789140097e-07,-2.59687140498626e-07,3.1474520438442786e-07,2.82845466230647e-07,1.7700285387317756e-07,7.59791497500238e-08,-2.2409050512891256e-07,3.9560901974576674e-07,5.513425883953827e-07
2.3320716543303932e-07,1.6825487122345995e-07,1.6673090894282678e-07,8.542555693267513e-08,-6.313179132728593e-07,-3.8582680512788753e-07,-6.56256970057998e-07,3.494665009943198e-08,-4.893579691317921e-07,-6.835051265218398e-08,-2.2374695550069229e-07,3.4182925359825564e-07,3.197014336885676e-07,2.21271739700166e-07,9.351043354941795e-08,1.9506440776697817e-08,3.6728300180735885e-07,5.269033373847182e-07
2.590822133891703e-07,2.2995798497874768e-07,1.6954231971789535e-07,1.3296582841785603e-07,-4.1366082125655154e-07,-3.3504471150559376e-07,-7.129748373203524e-07,1.8083346712587763e-07,-4.704432317590635e-07,-1.842392293707807e-08,-2.2075718580687096e-07,3.655625688059189e-07,3.4513943089610064e-07,2.6247509515439314e-07,8.32826157343414e-08,3.057535070843998e-07,3.339039946034508e-07,4.961569027556132e-07
2.891711113786258e-07,2.927391777328164e-07,1.734316731365306e-07,1.7454442172150676e-07,-2.7934456905107785e-07,-3.04725287668786e-07,-7.449314026103855e-07,3.017281150067209e-07,-4.563085587024576e-07,2.5471306976230355e-08,-2.3613893516104934e-07,3.866230024244057e-07,3.5695799088663767e-07,3.01874580834704e-07,8.790726962775326e-08,6.166572268286191e-07,3.0290437042308524e-07,4.6409089824726585e-07
3.417735328340675e-07,3.503655130834021e-07,1.75910825593653e-07,2.093404030177927e-07,-2.561467085476257e-07,-2.9180929143995504e-07,-7.455248800552928e-07,3.836817164210911e-07,-4.290545180419459e-07,7.818091419288667e-08,-2.5176863579985825e-07,4.051277137326912e-07,3.570438189221081e-07,3.4083685315761e-07,1.0663510639065984e-07,9.415138129104424e-07,2.8142283757274733e-07,4.389092159732469e-07
