0,1,2,3,4,5,6,7,8,9,10,11,12,13,14,15,16,17
8.099978790136664e-08,9.36805386465256e-08,-6.973329126801298e-08,-2.2293559439149118e-09,-1.3086736148115872e-08,-2.8951048837226524e-08,6.748505495859331e-08,1.6863039422997188e-07,-1.8080099590747936e-06,-1.3633020566052948e-08,4.455061607551502e-08,5.544235185604721e-08,6.013735497383785e-08,-1.8742810457288987e-07,2.3613951417819957e-07,2.8309008012398434e-07,2.5943522289670495e-07,-5.648281577113474e-07
7.440108230175759e-08,8.131622987720243e-08,-5.0122392010454156e-08,9.756167566258488e-09,-4.088678180922956e-08,-1.3041055069656792e-08,6.609558230956593e-08,1.7287067552945668e-08,-2.23039531929517e-06,-9.957067832582055e-10,4.743240504799155e-08,6.460058036800053e-08,8.614955480704726e-08,-3.1479202838824107e-07,2.1458013142614869e-07,2.9776950394890554e-07,2.049645796168495e-07,-7.518479830362965e-07
6.784439649474783e-08,7.763539442749601e-08,-3.004429238613424e-08,1.148399009224418e-08,-5.481022178974473e-08,-7.070749874652349e-09,5.678603565819149e-08,-1.472503157156139e-07,-1.7858651746812265e-06,7.67569995861788e-09,4.803892415891123e-08,7.002519210488298e-08,1.0624093991415713e-07,-3.645747872084222e-07,1.9206190748908987e-07,3.0725759713607185e-07,1.6260105261896185e-07,-7.769477179592253e-07
5.211237285033117e-08,7.289944445364148e-08,-4.3152891524803156e-09,7.755722496665449e-09,-5.078193496986618e-08,-3.555423005641167e-09,4.462609302618249e-08,-2.833566734103314e-07,-7.520444612848059e-07,1.2191152704843487e-08,4.444838217402584e-08,6.736727201905057e-08,1.1281411896081454e-07,-3.3212138958802927e-07,1.631376848862478e-07,2.992172774787264e-07,1.392482727085697e-07,-5.652698831555633e-07
3.187328543578197e-08,6.277433505680968e-08,1.4605545336889073e-08,4.012276616428378e-09,-3.108211612599481e-08,-3.4802748814653296e-10,3.537447189505479e-08,-4.0148222190864705e-07,5.216756695224573e-07,1.2618511538385909e-08,3.5747438632460136e-08,5.2949412240534956e-08,1.0218286060236793e-07,-2.2287708370187702e-07,1.2509506926256368e-07,2.64375424510742e-07,1.3714253838437854e-07,-2.737792566574195e-07
1.21135793796519e-08,4.907670699027922e-08,2.44707805464519e-08,-3.856894762724362e-09,-2.183932423316898e-09,7.487466650860847e-09,3.452301975413039e-08,-5.012953434747401e-07,1.5894622232989775e-06,9.301793923217423e-09,2.2219647356944594e-08,2.9844934484855065e-08,7.576177255237846e-08,-5.730434770117277e-08,7.766706040565494e-08,1.980102932765912e-07,1.5189475582472973e-07,-1.2013703491143138e-07
-9.178486611882566e-09,2.887579270250828e-08,2.7011116718741337e-08,-1.3875222166645998e-08,2.7690214212169935e-08,1.8991879137707784e-08,3.784749030008343e-08,-5.439257808235556e-07,2.3038906488575133e-06,2.980167071932752e-09,5.310857213012611e-09,5.2462778589766595e-09,3.959352673970035e-08,1.3322393330425121e-07,2.3249270083705647e-08,1.0296821085212975e-07,1.7250376486195972e-07,6.926589135171196e-08
-2.851977369321628e-08,6.785449045743728e-09,2.6038432086708344e-08,-1.555988397747323e-08,5.39165209348921e-08,2.4616901830736192e-08,3.9499431267527895e-08,-4.826652990564474e-07,2.487542675942887e-06,-4.904513112936713e-09,-1.2388628840400064e-08,-1.8009055698137896e-08,2.2407229238218547e-09,3.0827411106792366e-07,-3.2453614456559636e-08,-8.389486858797996e-09,1.832204621402101e-07,3.174305699484543e-07
-3.9183321140260755e-08,-1.3031836321979029e-08,1.901684759266066e-08,-8.833845887383564e-09,7.057702587513347e-08,2.423071220801524e-08,3.5859349189639215e-08,-2.980177120520517e-07,2.0040167834104605e-06,-1.2215847967045296e-08,-2.7586374592718743e-08,-3.6120652451355606e-08,-2.839273617886533e-08,4.30353279592865e-07,-8.261626716243158e-08,-1.1676005184451336e-07,1.6738452541595793e-07,4.322056232935467e-07
-4.231954474965207e-08,-2.843139945867733e-08,1.2744870526559545e-08,5.873426118913658e-09,7.469246515206273e-08,2.2155823916094213e-08,2.0688944324114818e-08,-1.3835296002327547e-08,8.724089653301333e-07,-1.6795568092954357e-08,-3.743903659208852e-08,-4.464092272772398e-08,-4.821185243493027e-08,4.695288288051621e-07,-1.2188113980811372e-07,-2.026738345363918e-07,1.1264150781573169e-07,4.479988126529812e-07
-4.092435529505095e-08,-4.1924600152733015e-08,1.029983916195363e-08,2.39676615748404e-08,4.7270612032369016e-08,1.641336761118685e-08,-2.664200207547359e-09,3.014208344414943e-07,-4.023764023330952e-07,-1.7331024693051588e-08,-4.075377008956421e-08,-4.648845288738299e-08,-5.849990669924489e-08,4.126118069336494e-07,-1.460241552559486e-07,-2.5402323952982667e-07,1.6083554920070266e-08,4.1966819819905235e-07
-3.763756442871415e-08,-5.388496100875006e-08,9.395800471335589e-09,3.455162125536985e-08,1.414009143418703e-08,8.247851217430523e-09,-3.086235548148076e-08,5.584094380441594e-07,-1.372067185966334e-06,-1.3642884454325167e-08,-3.827290390944422e-08,-4.4049211176690355e-08,-6.466520499611527e-08,2.728337802862934e-07,-1.5491108314944325e-07,-2.696656409188948e-07,-1.1254444845886746e-07,3.172825996355449e-07
-3.3598604953670585e-08,-6.585633483720427e-08,1.1533407929067845e-08,3.063368956781541e-08,-1.141308298010376e-08,-6.442622876374465e-10,-6.192599140869524e-08,6.72793221098187e-07,-1.1766003440266945e-06,-6.355965082547688e-09,-3.201462768967496e-08,-4.2068778438631796e-08,-7.271113023674528e-08,8.909136741572689e-08,-1.510772029728885e-07,-2.5872778707772783e-07,-2.5211313904701605e-07,2.4038299771893987e-07
-3.0626557248322804e-08,-7.917090091934618e-08,1.1142502351783585e-08,9.487548129434906e-09,-2.7059052746056913e-08,-1.2429216320800468e-08,-9.016725914521927e-08,5.988500335541635e-07,-2.6975132164147654e-07,3.3989391253245662e-09,-2.452706511323678e-08,-4.115088984526028e-08,-8.591130037184567e-08,-9.120885916161243e-08,-1.368530846720681e-07,-2.337998046069528e-07,-3.7674690680476773e-07,2.2625136169521152e-07
-2.8791915059737892e-08,-8.945403915981625e-08,3.022603003834256e-09,-2.5680572549018658e-08,-2.8124744834782065e-08,-2.3757663640132804e-08,-1.1542437838953532e-07,3.5003152353190846e-07,1.9462539769046983e-07,1.4023402516120543e-08,-1.8490194723762566e-08,-3.86673921979187e-08,-1.0374305579503896e-07,-2.3058186690960977e-07,-1.1556004201601454e-07,-2.1038850269385947e-07,-4.642210862785059e-07,2.614060081265543e-07
-2.8564381183127566e-08,-1.0128981934170284e-07,-1.506648090890704e-08,-6.748632813080703e-08,-2.885832581360116e-08,-3.234655604813709e-08,-1.377412880506039e-07,4.40612999088414e-09,-1.7651219574930843e-07,2.3684863913728662e-08,-1.6275669107968957e-08,-3.428066550924827e-08,-1.2298566476134128e-07,-3.1502864017401696e-07,-9.055404823814161e-08,-1.9826003926018508e-07,-5.014946566149657e-07,3.209179708092855e-07
-2.981609085566955e-08,-1.1520399543280415e-07,-4.160477140869403e-08,-1.0789019183718275e-07,-3.80789908704258e-08,-3.9131554179417016e-08,-1.5673344101714584e-07,-3.335213076282248e-07,-2.0260830792798572e-07,3.091715795077868e-08,-1.9310621954679673e-08,-2.7152569270317254e-08,-1.396207581741301e-07,-3.4980012397285455e-07,-6.470591876228578e-08,-1.9554884003195834e-07,-4.867958774445099e-07,3.426586060966347e-07
-3.174293201678643e-08,-1.2725388296136866e-07,-6.930027533564036e-08,-1.3814029961746284e-07,-6.298635459203105e-08,-4.606806975069023e-08,-1.7236290772039776e-07,-5.600338641432366e-07,4.3185562725873227e-07,3.507800535271239e-08,-2.7832755473510522e-08,-1.8342489468242957e-08,-1.506878216328221e-07,-3.50443230893567e-07,-4.039672130712857e-08,-1.9226738485237042e-07,-4.300608350590667e-07,2.9264773312560927e-07
-3.424910005498922e-08,-1.399472575028313e-07,-9.016313068017072e-08,-1.5421711858334883e-07,-1.000264120842751e-07,-5.3992599186494394e-08,-1.8590329840814292e-07,-6.282189662158733e-07,1.4224962086511315e-06,3.6288453430509064e-08,-4.135700308754316e-08,-8.65886389822802e-09,-1.5574825713492163e-07,-3.3262961664383627e-07,-2.0908580256153752e-08,-1.7640370142892806e-07,-3.5148574379078127e-07,1.8124766229471384e-07
-3.793135228273547e-08,-1.5353820142163127e-07,-1.0314975121437098e-07,-1.5554588465679616e-07,-1.4863333790503634e-07,-6.336878543024986e-08,-1.977340357230605e-07,-5.898083911771721e-07,1.921097831263553e-06,3.515930097699867e-08,-5.91983067624945e-08,8.498972652084589e-10,-1.572419825635221e-07,-3.0517255730927326e-07,-7.272297146267773e-09,-1.4334260479864675e-07,-2.7610151876645745e-07,3.9349406271298996e-08
-4.3697866297675425e-08,-1.6992491663642288e-07,-1.0890277465309166e-07,-1.4732706477482484e-07,-1.9939147161923172e-07,-7.394325999072198e-08,-2.08090042042033e-07,-5.720953863190669e-07,2.347301583779522e-06,3.267439586707078e-08,-8.039603845308775e-08,9.432288614146202e-09,-1.5926686669463084e-07,-2.705095488243905e-07,-2.1681878895076923e-10,-1.0624515579538738e-07,-2.2498091466021282e-07,-1.0152280373412624e-07
-5.2963341771689964e-08,-1.9012859501544687e-07,-1.1108640738460337e-07,-1.397630790444774e-07,-2.356436964583702e-07,-8.378426934032789e-08,-2.1663789923022537e-07,-7.15405753974321e-07,2.4012350066149587e-06,3.001771607234818e-08,-1.0343746703636387e-07,1.5799998309372552e-08,-1.6559997034695512e-07,-2.2450799226216285e-07,6.252710774716692e-11,-8.198379599045045e-08,-2.0819213493570208e-07,-2.2579887030935205e-07
-6.490889549135204e-08,-2.1390077236657301e-07,-1.1824637995157014e-07,-1.362091860817725e-07,-2.477013261464156e-07,-9.225516603923906e-08,-2.2122383166192093e-07,-1.0829413156143857e-06,2.147676543321518e-06,2.8000024175680636e-08,-1.265173423751484e-07,1.893307093187933e-08,-1.782706364551944e-07,-1.6224696973220241e-07,-5.24058876729107e-09,-8.610353375053315e-08,-2.2398357419319532e-07,-3.2426915547576976e-07
-8.026429955819798e-08,-2.3811176997316898e-07,-1.3362761761450546e-07,-1.384141236387989e-07,-2.2647385618742902e-07,-9.919036005106863e-08,-2.2089809710601047e-07,-1.6051784275352046e-06,2.141275746740812e-06,2.6394855999619523e-08,-1.4814001722448153e-07,1.9510113394059877e-08,-1.969773997530422e-07,-8.459418546092704e-08,-1.4792082393776218e-08,-1.230916396868211e-07,-2.6299120433099245e-07,-3.869981000075684e-07
-9.959521650433642e-08,-2.636582779113923e-07,-1.5879150768350548e-07,-1.4829603946249127e-07,-1.731097597637222e-07,-1.0537505725836826e-07,-2.151349701180462e-07,-2.1104012560922568e-06,1.6671619142579995e-06,2.391198127366464e-08,-1.6728522004268144e-07,1.8810431788897658e-08,-2.1884530995385202e-07,-2.3465777195534715e-09,-2.6835997440854105e-08,-1.8083021790515937e-07,-3.1301019740782905e-07,-3.987277905871803e-07
-1.209982825174159e-07,-2.8887344299585845e-07,-1.8691629942083244e-07,-1.6069351542046724e-07,-9.941857786796673e-08,-1.1185173144576683e-07,-2.0503518245832665e-07,-2.4375498695774523e-06,7.522327206132221e-07,1.8963855619941204e-08,-1.8316961148926887e-07,1.89134503073256e-08,-2.3880611516606186e-07,6.657611274824517e-08,-3.6878797430021766e-08,-2.4078442907201944e-07,-3.621138278107273e-07,-3.4036349736719555e-07
-1.3447373615705437e-07,-3.0984335094611876e-07,-2.0984501374821576e-07,-1.6997329921869764e-07,-1.7996444483446907e-08,-1.1840035520382553e-07,-1.924261852221332e-07,-2.5398121769397178e-06,-3.1410345793356947e-07,1.0552558584273811e-08,-1.954496120212298e-07,2.186305848952849e-08,-2.5140596017647715e-07,1.0433200558288588e-07,-4.2459028579909294e-08,-2.867589351778394e-07,-4.0068302953035945e-07,-2.026017895647463e-07
-1.5092089325452037e-07,-3.2156037353589843e-07,-2.207718626788417e-07,-1.7445578059086444e-07,5.099446491300268e-08,-1.2395467117319214e-07,-1.7895678657627807e-07,-2.4820902344487677e-06,-1.6098229659643695e-06,-1.3550977670095715e-09,-2.0497051563084396e-07,2.8470395936664167e-08,-2.5355938706394956e-07,1.0183122171566501e-07,-4.291052356338575e-08,-3.1154087306798756e-07,-4.231047182116362e-07,4.517818497414767e-09
-1.6059273292591786e-07,-3.3029283006329546e-07,-2.1797714889729035e-07,-1.7390259515594166e-07,9.660207452741942e-08,-1.2727771936359344e-07,-1.6729258088979525e-07,-2.364817912042723e-06,-2.1205170811182923e-06,-1.5932946450387327e-08,-2.1398751559800903e-07,3.834685128898883e-08,-2.4623247712019994e-07,6.485685639058816e-08,-3.916150066651845e-08,-3.157054767837009e-07,-4.270208159924795e-07,2.469671592725929e-07
-1.6424416336726253e-07,-3.3552074966301334e-07,-2.0225803134523037e-07,-1.6854084438957554e-07,1.228256990256516e-07,-1.2772417937073505e-07,-1.5960391265767442e-07,-2.2361960492609986e-06,-2.1289137590638346e-06,-3.1825313164338135e-08,-2.252170881139862e-07,5.0337719306212995e-08,-2.3362981682466125e-07,1.1459816934569083e-08,-3.4862428823372725e-08,-3.064674645427161e-07,-4.1371584337585005e-07,4.7531010231591527e-07
-1.698773870773413e-07,-3.4275751413247486e-07,-1.8201425587595897e-07,-1.6337606017316654e-07,1.3386919982735116e-07,-1.2542244296520986e-07,-1.5975695222315364e-07,-2.0625977078869276e-06,-1.0500067260710044e-06,-4.76946087602358e-08,-2.405626065098306e-07,6.281450084483292e-08,-2.2084015510293795e-07,-3.683195937638471e-08,-3.221949550814298e-08,-2.861633773226909e-07,-3.8845301351600547e-07,6.378896228742107e-07
-1.7150511135739346e-07,-3.5697253279755725e-07,-1.6517946625756617e-07,-1.563975142798603e-07,1.2744084491653557e-07,-1.2036062041577478e-07,-1.688063426252326e-07,-1.8056457635791844e-06,5.015747800872512e-07,-6.242783165011206e-08,-2.6062530191052953e-07,7.385263524215398e-08,-2.1193457889968822e-07,-6.274583230039565e-08,-3.522362147882595e-08,-2.591136761132909e-07,-3.598732000950926e-07,6.989021840242614e-07
-1.7746123388869604e-07,-3.7646497160297036e-07,-1.5918298964927968e-07,-1.5794764239470807e-07,9.584811943258879e-08,-1.1483502231650904e-07,-1.855726050132493e-07,-1.4632508685629685e-06,2.069816129017247e-06,-7.786285057066531e-08,-2.849358715870751e-07,8.175918307316804e-08,-2.0921961507449893e-07,-5.567991039191539e-08,-4.309664376836948e-08,-2.310075093516989e-07,-3.3840788401919183e-07,6.512525752014929e-07
-1.861468859946883e-07,-4.0348458932722824e-07,-1.570988663461676e-07,-1.667453054867091e-07,4.5739917670516894e-08,-1.1176937161941407e-07,-2.0901255771373426e-07,-1.0808913717621791e-06,2.7471296268319287e-06,-9.534934662594869e-08,-3.1218660686231264e-07,8.58872123724608e-08,-2.1304047533389063e-07,-1.1406303179902496e-08,-5.771023082616771e-08,-2.042223247049029e-07,-3.3316794630897165e-07,5.185664330153803e-07
-1.9856650009055748e-07,-4.344338938749995e-07,-1.6093591409874166e-07,-1.78764141074063e-07,-1.580756530683614e-08,-1.1368987171486422e-07,-2.3735552311395025e-07,-7.574820470510462e-07,3.073346131338638e-06,-1.1487511422572442e-07,-3.404082777289419e-07,8.695419267274441e-08,-2.2189306041004396e-07,6.713663857807191e-08,-7.497988711399064e-08,-1.8460933406752407e-07,-3.491904932163701e-07,3.482670051125497e-07
-2.1015893769066974e-07,-4.656986086707046e-07,-1.7888155750909031e-07,-2.0004429664565823e-07,-7.938709393759148e-08,-1.2217963751507682e-07,-2.5378752295448867e-07,-5.753306406587437e-07,3.5386511398342842e-06,-1.3781580867460635e-07,-3.6758606609352736e-07,8.623193318619025e-08,-2.3328884797756045e-07,1.6864986703052274e-07,-7.933730833367682e-08,-1.7539872970954382e-07,-3.8534832088176573e-07,1.9485614615107297e-07
-2.1875833572681957e-07,-4.924397634832959e-07,-2.0190669427700906e-07,-2.2844697914630637e-07,-1.3579194670042493e-07,-1.3738468905898128e-07,-2.6737719576358976e-07,-5.591267941388737e-07,3.272778309925198e-06,-1.6423089762668898e-07,-3.9257263013196666e-07,8.42684277546727e-08,-2.4527390934972266e-07,2.7431403132597347e-07,-7.246040861272553e-08,-1.737362810550107e-07,-4.352839087863716e-07,9.87037240708566e-08
-2.2487733639129673e-07,-5.155233354529572e-07,-2.2736912595198674e-07,-2.6569894325288056e-07,-1.838503009668612e-07,-1.583829022697908e-07,-2.7763999314934146e-07,-6.754378880203379e-07,2.220605675509425e-06,-1.924841763600213e-07,-4.154324222814895e-07,8.04323150085523e-08,-2.5753584161630103e-07,3.6144857801408645e-07,-5.689015755496457e-08,-1.7587074833158996e-07,-4.884454965708943e-07,8.017282296937857e-08
-2.2464931470070323e-07,-5.34297526996045e-07,-2.5169199421362894e-07,-3.0482695354902777e-07,-2.1921840904892613e-07,-1.8299338359533622e-07,-2.814116499160337e-07,-8.28781848726021e-07,1.2777617258299833e-06,-2.206343287243719e-07,-4.3690463559010306e-07,7.357011596893002e-08,-2.7118797559979054e-07,4.0965653228456977e-07,-3.767369411384403e-08,-1.7830902878973538e-07,-5.33468796945335e-07,1.313354715662747e-07
-2.2068140384272562e-07,-5.500148852038029e-07,-2.7037078572029034e-07,-3.45405585739036e-07,-2.3640344247906295e-07,-2.081341166244115e-07,-2.7560409570788543e-07,-9.046319982551839e-07,6.641384481050971e-07,-2.4629129346479254e-07,-4.5771728561473215e-07,6.286269817616842e-08,-2.874569387792472e-07,4.0795223859389685e-07,-2.0153860866940926e-08,-1.720335807146246e-07,-5.628178342254853e-07,2.2653700282922836e-07
-2.1393902596346756e-07,-5.656142241005484e-07,-2.819891474076805e-07,-3.831165316638889e-07,-2.305076027366509e-07,-2.300650128527561e-07,-2.575285687343216e-07,-8.250632261033755e-07,4.7220291256447576e-07,-2.671980246133922e-07,-4.783963011666484e-07,4.8196559508737444e-08,-3.0634299874060214e-07,3.59817807963503e-07,-4.677649277606321e-09,-1.524740987809399e-07,-5.755065660908108e-07,3.301732852406878e-07
-2.0538411334772422e-07,-5.803244808319818e-07,-2.7944758866796623e-07,-4.165341080048082e-07,-2.033775249402445e-07,-2.4609865766327144e-07,-2.2487080602941273e-07,-5.777231178700909e-07,5.374191911443933e-07,-2.8313147269436687e-07,-4.992712898278512e-07,3.0276067868883596e-08,-3.26186191855458e-07,2.8275000965573277e-07,8.833079203691683e-09,-1.2193298272579611e-07,-5.772107062013342e-07,3.988872574445565e-07
-1.8942999861253867e-07,-5.936327797098685e-07,-2.6388046278768536e-07,-4.48883562058384e-07,-1.619550370401491e-07,-2.534615401764583e-07,-1.9238869367201478e-07,-1.7800932179443312e-07,3.2688066014571925e-07,-2.955546057119518e-07,-5.20181183737431e-07,1.0804516251306352e-08,-3.4432029497086933e-07,2.0119396118668192e-07,9.272522933264838e-09,-8.451418597736643e-08,-5.771035085364384e-07,3.9340458284610737e-07
-1.6644232443774008e-07,-6.112229247497329e-07,-2.337206249674669e-07,-4.654964365385571e-07,-1.1298770443094695e-07,-2.531066666819972e-07,-1.6832248888809836e-07,2.2467443869981943e-07,3.071781622213411e-07,-3.053709703324636e-07,-5.401584141917145e-07,-7.57570702274221e-09,-3.5828235521791984e-07,1.3577099538336855e-07,-6.424591691016683e-10,-5.1208602565029955e-08,-5.837018967817719e-07,2.907723655475484e-07
-1.4809369686110154e-07,-6.335076059952459e-07,-1.9226391481544795e-07,-4.653039374639962e-07,-7.141053795874015e-08,-2.472709982766193e-07,-1.4688553111569745e-07,4.3619813783351395e-07,7.42180604090681e-07,-3.168794965419824e-07,-5.577092198317832e-07,-2.1862849721111623e-08,-3.667283067327702e-07,9.445912210475495e-08,-1.1328467809129315e-08,-3.6111418326826054e-08,-6.017785270423697e-07,9.427201777159314e-08
-1.4227080727193218e-07,-6.46341563098762e-07,-1.581453979185086e-07,-4.769168493756065e-07,-4.968297200392217e-08,-2.3866080530953067e-07,-1.3246993839995075e-07,3.058460184509103e-07,9.488806837468762e-07,-3.315961219356923e-07,-5.715608342151781e-07,-2.9480647161064997e-08,-3.7055200089688586e-07,7.015899372565428e-08,-2.085632896630446e-08,-4.995874692068967e-08,-6.302442859646894e-07,-1.62996162747921e-07
-1.4959285760794016e-07,-6.602196748994049e-07,-1.357696063196822e-07,-5.012911912913373e-07,-6.402670282170986e-08,-2.331140411976264e-07,-1.0229360457367715e-07,-1.6585423017891428e-07,1.2375990539246399e-06,-3.508197023864554e-07,-5.811229134909504e-07,-2.8898038906653827e-08,-3.6816282636369823e-07,4.578944435571295e-08,-3.63189269755934e-08,-9.504011791866238e-08,-6.616021704669277e-07,-4.235853343999678e-07
-1.7397641963706307e-07,-6.748923242045399e-07,-1.2978731471996715e-07,-5.363309792486155e-07,-1.0448522409189989e-07,-2.336300332779099e-07,-5.993004269062723e-08,-8.077444871195536e-07,2.021413150541051e-06,-3.8079786272348705e-07,-5.864239538141803e-07,-2.0080666155095636e-08,-3.58770343199085e-07,4.659260152099224e-09,-3.2143743828837456e-08,-1.6032365965040074e-07,-6.843542357791585e-07,-6.301922362915715e-07
-1.939982937606625e-07,-6.835070726752848e-07,-1.4140450175148652e-07,-5.700164472379428e-07,-1.3930891095297328e-07,-2.4218533033515905e-07,-1.3190380942600051e-08,-1.2791719964447465e-06,2.68073931157901e-06,-4.095510619291817e-07,-5.880150734401511e-07,-4.756736058216061e-09,-3.4188113996313876e-07,-5.967582027372441e-08,-9.436060699581464e-09,-2.277548186631842e-07,-6.880750236042322e-07,-7.409659697778043e-07
-2.0559835038578575e-07,-6.867878633281564e-07,-1.7135522413494882e-07,-5.901422282572187e-07,-1.647277699594911e-07,-2.5934216773304324e-07,3.27527907225284e-08,-1.2459156268491475e-06,2.5002598940279335e-06,-4.3835815836485855e-07,-5.870845169795939e-07,1.3866646435106016e-08,-3.177968121841286e-07,-1.3987107826113617e-07,3.607338429069501e-08,-2.7779106019576317e-07,-6.687151653636625e-07,-7.388569826956214e-07
-2.2116441643426488e-07,-6.97199694845464e-07,-1.979731611210533e-07,-5.821531619763409e-07,-1.826303710710916e-07,-2.826086759407737e-07,7.472530165775124e-08,-1.3195975671640408e-06,1.6806288552800331e-06,-4.831438656127893e-07,-5.854234739099419e-07,3.20757044693213e-08,-2.9154067665346447e-07,-2.1838688803265172e-07,1.1443010179030974e-07,-2.986856980314946e-07,-6.309513157514126e-07,-6.296470120080393e-07
-2.4267494893082377e-07,-6.9927219726603e-07,-2.2769637480141147e-07,-5.841163916142489e-07,-1.9636202505898667e-07,-3.059165271635558e-07,1.3034494426822487e-07,-1.4067918890203145e-06,6.810592545802861e-07,-5.433067768757924e-07,-5.851255130691783e-07,4.6621256262360336e-08,-2.6856462029580185e-07,-2.7514643061390936e-07,1.9305672384880656e-07,-2.8248174692257823e-07,-5.858116420540126e-07,-4.3638857081494195e-07
-2.661851734487085e-07,-7.038156334234158e-07,-2.4829979692317096e-07,-6.047826463289739e-07,-2.141001720980557e-07,-3.212538162466277e-07,2.0870851058287721e-07,-1.3317729693317987e-06,-1.4289587359859448e-07,-5.920121766926232e-07,-5.884800494225851e-07,5.4656637159446664e-08,-2.5396352273262394e-07,-2.95830622805947e-07,2.6311084825735353e-07,-2.3031853765608753e-07,-5.441502910686604e-07,-2.0037823736001966e-07
-3.3124634173913616e-07,-7.602709134193159e-07,-2.701377173626399e-07,-6.384718701534289e-07,-2.5441805414565696e-07,-3.1663146662958526e-07,3.457377158594884e-07,-7.133467251191284e-07,-4.5915519721523e-07,-6.30796172046163e-07,-5.981575818604374e-07,5.276621028479903e-08,-2.4616222943741995e-07,-2.780075864809304e-07,3.058894511586274e-07,-1.5185996107289365e-07,-5.106058696265321e-07,2.754182615908491e-08
-3.8573239141049243e-07,-7.828851943955483e-07,-4.0809646281115373e-07,-7.559540288725161e-07,-2.748485203482897e-07,-2.830444298614923e-07,5.634330067441704e-07,1.5280298608262687e-07,-9.245949125110723e-08,-6.30269334949519e-07,-6.168761189054559e-07,3.674326565587046e-08,-2.5316336918326486e-07,-2.309325732968808e-07,3.8243373559369933e-07,-6.899700204360232e-08,-4.807835703771983e-07,2.0531817142513105e-07
-4.311571597548167e-07,-8.023848246380052e-07,-4.683198870111536e-07,-8.6093867790219e-07,-2.7864042028601513e-07,-2.1488690543919493e-07,6.954638775072382e-07,5.541439501768352e-07,8.770283444520621e-07,-5.654892002090054e-07,-6.458106802347713e-07,3.560268010282801e-09,-2.6785957954993013e-07,-1.7258633939117045e-07,4.3896118997556965e-07,-5.01811835041413e-08,-4.427086151675695e-07,3.1483672263481726e-07
-4.7559494857068245e-07,-8.135262765844921e-07,-4.986286379536383e-07,-9.110618904316572e-07,-2.855054592341587e-07,-1.0946429358554158e-07,7.987433309960698e-07,8.669710212017537e-07,2.1655065563863062e-06,-5.32673840182014e-07,-6.822729520660355e-07,-4.508618253715331e-08,-3.3640850021298145e-07,-1.2455323845741826e-07,5.11877392396349e-07,-1.0367336360976038e-07,-3.822717146104092e-07,3.593114860412889e-07
-5.105779472983383e-07,-8.057957210858282e-07,-5.41092852534717e-07,-9.782848133321012e-07,-2.854963634726788e-07,2.788488551584359e-08,8.859646512049006e-07,1.0173726321955876e-06,3.4026956058375187e-06,-5.451266982458917e-07,-7.183470183441747e-07,-1.0020424608754017e-07,-4.5327071323667744e-07,-1.0429985242894987e-07,7.019903925115246e-07,-2.6102624398720603e-07,-2.9030390914319176e-07,3.518608916455531e-07
-5.709746772430167e-07,-7.833200812372365e-07,-6.007012200254449e-07,-1.0160287419665523e-06,-2.8785801978825246e-07,1.769246815064464e-07,9.69057047478202e-07,4.3090548111348193e-07,4.3367780426731535e-06,-5.285572947960614e-07,-7.420913137431149e-07,-1.4659699268276753e-07,-5.156154760646893e-07,-1.1650496848587788e-07,8.160707074366236e-07,-5.035009916772361e-07,-1.6441309304983245e-07,3.069952859556422e-07
-6.46276452274752e-07,-7.7304565951315e-07,-7.746480826929965e-07,-1.092374735617396e-06,-2.7108833684477907e-07,3.251864730866748e-07,1.071415745713242e-06,-2.884093897631075e-07,4.7430695818509226e-06,-4.6025840485290866e-07,-7.415295654182774e-07,-1.683386573643131e-07,-5.310799627758898e-07,-1.4904861609885185e-07,8.909262397592451e-07,-5.28528904195604e-07,-1.6758738015808838e-08,2.4176342409252146e-07
-7.309379791552486e-07,-7.685739518718774e-07,-9.395131876795169e-07,-1.1813551124923947e-06,-2.3343203897194757e-07,4.6060834860945734e-07,1.1934705237510393e-06,-6.678925656044814e-07,4.589963866343891e-06,-3.7032406363232907e-07,-7.097633674211361e-07,-1.5620018468639952e-07,-5.208431556664725e-07,-1.787982558173002e-07,9.364605719848692e-07,-3.8383016850771323e-07,1.322817909227039e-07,1.811486078877046e-07
-8.021707296411058e-07,-8.197232032767084e-07,-1.0390415672890214e-06,-1.2490204693074893e-06,-2.0849970261145177e-07,5.357293258994595e-07,1.3003148806692262e-06,-6.649421904469384e-07,3.98795672291776e-06,-3.231836329960185e-07,-6.48334499134244e-07,-1.1243353935174291e-07,-4.7534703613533927e-07,-1.8281637550136851e-07,1.0757537895903776e-06,-2.9455074965682203e-07,2.630238610418863e-07,1.5391245917598328e-07
-8.335192140022844e-07,-8.594800231580638e-07,-1.0980075981635199e-06,-1.2608827795887012e-06,-2.4511811778707187e-07,5.009478012096105e-07,1.3682779171843753e-06,-4.3311970891990865e-07,3.1141011111143137e-06,-3.1713107005021846e-07,-5.665110634392307e-07,-4.9599480575682065e-08,-3.9833297902683025e-07,-1.4826183246690093e-07,1.1916633785065135e-06,-2.409919020262474e-07,3.2128277641428486e-07,1.7740964875587255e-07
-8.739799050988841e-07,-8.784538432711042e-07,-1.171002112768641e-06,-1.303093486714612e-06,-2.679008732949664e-07,4.305677255682895e-07,1.4394163282507851e-06,-1.3571326842906887e-07,2.278007624898923e-06,-3.184269657982255e-07,-4.7671336113843367e-07,1.5685436701824625e-08,-3.406841239052332e-07,-7.734363318767886e-08,1.2619374864799212e-06,-1.9517309032038985e-07,3.0834809638482534e-07,2.4427375128990645e-07
-9.202209161817038e-07,-9.077411254330678e-07,-1.2804854252067582e-06,-1.2981879382160576e-06,-2.7200312202230947e-07,3.367834750721634e-07,1.5147076405608771e-06,9.067576691948413e-08,1.7461478045012494e-06,-2.8561221310172364e-07,-3.8914785113229696e-07,6.984632647298814e-08,-2.9305674897978706e-07,1.2555631855378321e-08,1.2994697411782363e-06,-1.6465203223228094e-07,3.5699290442931147e-07,3.21053519054881e-07
-9.670102983001644e-07,-9.274049648099705e-07,-1.356229347699387e-06,-1.3460708712533855e-06,-2.528489675203946e-07,3.3188461205027726e-07,1.5896764857086993e-06,1.6366252325570455e-07,1.6300387275126748e-06,-2.543921562191132e-07,-3.090890544330642e-07,1.0638580160521891e-07,-2.6857146242802416e-07,9.366861341293832e-08,1.3253224755189076e-06,-1.9085589602017722e-07,3.1326180839673264e-07,3.6388236879089564e-07
-1.041350984530093e-06,-9.659774949238233e-07,-1.4204836236811566e-06,-1.4316470184636835e-06,-2.7620079995921975e-07,2.9718731131164726e-07,1.6524197204304757e-06,7.491271716008561e-08,1.9525982438690895e-06,-2.7908003376290203e-07,-2.377288654209729e-07,1.2583400082618208e-07,-2.571328138684062e-07,1.368377294992828e-07,1.3211977107250489e-06,-2.2415681778469562e-07,2.1766315333463975e-07,3.3710777197470627e-07
-1.1153397154433886e-06,-1.0241287699771505e-06,-1.400495894108444e-06,-1.46805890985032e-06,-2.9843273157540707e-07,2.428386671231374e-07,1.7402614133650439e-06,-1.161650647322036e-07,2.5622606448844887e-06,-3.2507460606798293e-07,-1.7490126081475139e-07,1.3289824635114092e-07,-2.501069180414317e-07,1.2223393906168946e-07,1.3904867288830121e-06,-2.6214811686158185e-07,1.3424733005973295e-07,2.2530395154059064e-07
-1.160883198280801e-06,-1.070153278883133e-06,-1.3699663642487378e-06,-1.4897219819970096e-06,-3.0202299146510145e-07,1.9746071606525079e-07,1.8410122010831235e-06,-3.8046335600914007e-07,3.151462517223657e-06,-3.7295281828694847e-07,-1.2155840281494894e-07,1.3259516792722277e-07,-2.4181796340110356e-07,4.76205634156968e-08,1.474615488046085e-06,-3.1422659512009435e-07,7.429450687842235e-08,3.7383710454927466e-08
-1.1754793661407541e-06,-1.0824770303396108e-06,-1.3490217164077868e-06,-1.4936280002002537e-06,-3.09348731937549e-07,1.2651553417077889e-07,1.8366296540914363e-06,-7.186579783282396e-07,3.392016704531277e-06,-4.2407960552100427e-07,-8.090700434169763e-08,1.2704703584080435e-07,-2.2998460067628154e-07,-7.10555687049325e-08,1.546245019183531e-06,-3.648515614090782e-07,2.2513366680573492e-08,-1.97755797590626e-07
-1.153785107871807e-06,-1.0576975835597895e-06,-1.328168211427529e-06,-1.4791600938519933e-06,-3.107554082633462e-07,-1.2191558949974812e-08,1.7941230512795674e-06,-1.1376273200069255e-06,3.072273829602562e-06,-4.7595490006674335e-07,-5.7897404434160146e-08,1.1442058716914406e-07,-2.1864640502832954e-07,-2.0799093192932335e-07,1.563471715636043e-06,-4.1672883631416024e-07,-2.5284831603675114e-08,-4.3351398281961625e-07
-1.167119456342117e-06,-1.0595607408391042e-06,-1.3595717914194595e-06,-1.4591251692024655e-06,-3.304457581993236e-07,-1.7723301137724245e-07,1.7336595593438648e-06,-1.596076622174336e-06,2.231323818456733e-06,-5.053396247935912e-07,-5.72349048350569e-08,9.039266109359785e-08,-2.1598934263385975e-07,-3.371513606236407e-07,1.5814065163582813e-06,-4.5745469215154884e-07,-7.56695444994204e-08,-6.148542922271954e-07
-1.2050006708287908e-06,-1.0770172676243487e-06,-1.428652365431343e-06,-1.450810578879682e-06,-3.672434498181648e-07,-3.4809767667760565e-07,1.7497446586730278e-06,-2.0087101483903944e-06,1.1725312376971872e-06,-5.299339826678149e-07,-8.103560198035897e-08,5.0743900773916324e-08,-2.307951759761293e-07,-4.388337211617405e-07,1.59303473488648e-06,-4.817458089923918e-07,-1.3207124860310743e-07,-6.898828141756292e-07
-1.234894485251562e-06,-1.114578326837473e-06,-1.4981090304404659e-06,-1.4704763079700637e-06,-4.2941552558172037e-07,-4.839640928188885e-07,1.785683621094307e-06,-2.1869688001674824e-06,2.699204820831631e-07,-5.567635317652435e-07,-1.278195588226667e-07,-6.884209360732156e-09,-2.690953428231172e-07,-5.025590970673308e-07,1.5617034352268427e-06,-4.91468968479785e-07,-1.916339869726827e-07,-6.227499108621529e-07
-1.2847335667535734e-06,-1.2003466553798624e-06,-1.5622970996599134e-06,-1.4992861589070109e-06,-4.934022368650593e-07,-5.503977240577746e-07,1.7493179276485736e-06,-2.165697346095569e-06,-2.620604551811124e-07,-5.778317099689195e-07,-1.933074828852748e-07,-8.256214446856832e-08,-3.324029842310294e-07,-5.292222875694444e-07,1.5309931456297792e-06,-5.022848671529831e-07,-2.4669075806954865e-07,-4.165066039256618e-07
-1.3332286024819016e-06,-1.274157821495598e-06,-1.6115731605262243e-06,-1.5282929699779475e-06,-5.44112420527637e-07,-5.761903336455088e-07,1.7152532160689443e-06,-1.9621264285236052e-06,-3.9390949790571093e-07,-6.023239825665072e-07,-2.7169336871647574e-07,-1.7400385688952664e-07,-4.1740764356246064e-07,-5.328452902375061e-07,1.471745026411884e-06,-5.374431011268757e-07,-2.9607777699327284e-07,-1.1454166632675384e-07
-1.372918736626268e-06,-1.3435185826109562e-06,-1.6429638206646268e-06,-1.5487817091872114e-06,-5.955346908699667e-07,-6.225593057145353e-07,1.7265470581406601e-06,-1.5051231776233878e-06,-2.972314344108425e-07,-6.219143676117983e-07,-3.561962308947686e-07,-2.7632620552883516e-07,-5.166796739912277e-07,-5.375444035117747e-07,1.399155436966945e-06,-6.181840087720287e-07,-3.3291663401015445e-07,2.0540976852598739e-07
-1.4191023163284803e-06,-1.4074010405242406e-06,-1.6593298092401226e-06,-1.554789531251865e-06,-6.405713472296562e-07,-6.827860627401423e-07,1.7810855115701538e-06,-1.0219286034565107e-06,-2.131644700604053e-07,-6.427632820445398e-07,-4.389978535521448e-07,-3.8212552424871054e-07,-6.202980507262113e-07,-5.684077730691351e-07,1.326296610371141e-06,-7.585610515796684e-07,-3.557115917835256e-07,4.752852757223397e-07
-1.451947281366434e-06,-1.4512525795155087e-06,-1.6608288620171845e-06,-1.5428689128830286e-06,-6.660457805935376e-07,-7.154141730368089e-07,1.8188497391041228e-06,-3.278388343534478e-07,-2.724130447398134e-07,-6.67658046376793e-07,-5.129838993819184e-07,-4.823454000597891e-07,-7.178735200556936e-07,-6.401237522535932e-07,1.2325745793893534e-06,-9.461205613667319e-07,-3.7129635478814526e-07,6.506954497765739e-07
-1.4693475238884818e-06,-1.4750033387090287e-06,-1.6499424990544015e-06,-1.5423332461881255e-06,-6.814903393712971e-07,-7.298708918846167e-07,1.8095721125004004e-06,4.179681495216364e-07,-4.991018334806956e-07,-6.945736827206737e-07,-5.721900521064703e-07,-5.680167805916437e-07,-8.002246406856084e-07,-7.506465887052615e-07,1.135912718130253e-06,-1.1508015597438193e-06,-3.878859979142179e-07,7.115079211363625e-07
-1.4754462797674626e-06,-1.4892941511690268e-06,-1.6342283558381152e-06,-1.5316825792207763e-06,-6.906847653645606e-07,-7.422378054480146e-07,1.7713947087246578e-06,9.331997023258618e-07,-7.745850966975811e-07,-7.230197812780108e-07,-6.134025533966447e-07,-6.326400883110721e-07,-8.608333943490758e-07,-8.838306573688029e-07,1.0479420800140592e-06,-1.3606994487477694e-06,-4.167276008998418e-07,6.575123430161125e-07
-1.483731451666776e-06,-1.4612169558605042e-06,-1.6259332093407783e-06,-1.512424143273564e-06,-6.959601101578559e-07,-7.502628338115212e-07,1.7476604754337024e-06,1.2262757513868715e-06,-9.555152757361072e-07,-7.482460773329177e-07,-6.370188941220311e-07,-6.743111675066007e-07,-8.974065433969336e-07,-1.0183071617623196e-06,1.001235358472679e-06,-1.5223323613857617e-06,-4.683571674750509e-07,4.962345927082791e-07
-1.485390085923178e-06,-1.443721742924225e-06,-1.6298504720520012e-06,-1.494621062217333e-06,-7.164271062122635e-07,-7.513498852298076e-07,1.7390369709467694e-06,1.0723671774235177e-06,-1.0299788613153383e-06,-7.674290994297001e-07,-6.46358804160751e-07,-6.963780392693642e-07,-9.128920553478893e-07,-1.1352035071077914e-06,9.938935955165142e-07,-1.6228945564379606e-06,-5.510619804778574e-07,2.3532423039233794e-07
-1.4779588823432718e-06,-1.4417103250849853e-06,-1.6337423597961705e-06,-1.4690082405288087e-06,-7.529862314678537e-07,-7.478202357902413e-07,1.7348653151755327e-06,6.196921671329916e-07,-1.0323002945203034e-06,-7.781319921376899e-07,-6.469910397535654e-07,-7.062561499478855e-07,-9.149549894986482e-07,-1.2209855849977752e-06,1.0116490386447598e-06,-1.663023310679028e-06,-6.601543037886201e-07,-1.0859009336037701e-07
-1.4751818027595731e-06,-1.3960849192147852e-06,-1.646811415457682e-06,-1.4535976692311522e-06,-8.037451658234046e-07,-7.411370310336716e-07,1.7368855982387681e-06,3.028641638433719e-08,-1.0116611489092832e-06,-7.815647141961404e-07,-6.45272313396367e-07,-7.130837887980262e-07,-9.139295232434955e-07,-1.268751203585152e-06,1.0466245421434935e-06,-1.6478059807637662e-06,-7.960888008946067e-07,-5.060380197076218e-07
-1.4711575156219614e-06,-1.329226605026901e-06,-1.6650119198262864e-06,-1.4529136650778978e-06,-8.672229056658891e-07,-7.3364079408334e-07,1.7273849296866797e-06,-6.189926781971696e-07,-9.959371690608217e-07,-7.766287084208132e-07,-6.470589494784747e-07,-7.255643931959277e-07,-9.204457317562552e-07,-1.2809554156888979e-06,1.0842781321248512e-06,-1.616104143953408e-06,-9.523379530248958e-07,-9.063390449159307e-07
-1.4561771715811732e-06,-1.3027537959712565e-06,-1.6808244062076523e-06,-1.4806843122926964e-06,-9.473780904214255e-07,-7.355021685019776e-07,1.700379794272839e-06,-1.1683964189086432e-06,-9.600694846936897e-07,-7.646843716852257e-07,-6.570067966397488e-07,-7.511584112347232e-07,-9.438218469987968e-07,-1.271463334721171e-06,1.0920427037631001e-06,-1.5953828629335373e-06,-1.114862841739407e-06,-1.25653925366952e-06
-1.4289512821449882e-06,-1.2802267446296602e-06,-1.6969077902291875e-06,-1.506166712428246e-06,-1.0144369088663733e-06,-7.501034808925294e-07,1.6575479730893851e-06,-1.4872897367333558e-06,-8.039404083326409e-07,-7.477234854190746e-07,-6.790421581912003e-07,-7.962734305645565e-07,-9.911179086694623e-07,-1.2617137217986865e-06,1.0689851147047865e-06,-1.6958735753882563e-06,-1.2719600403871654e-06,-1.5188500754201637e-06
-1.396695496627508e-06,-1.3198526068595175e-06,-1.7100120276302165e-06,-1.5201840504666565e-06,-1.0592146913965637e-06,-7.79307702126859e-07,1.576301271925149e-06,-1.549146180020181e-06,-4.3238085279499366e-07,-7.272165023546617e-07,-7.16012511597374e-07,-8.657699342008252e-07,-1.0658777632774384e-06,-1.2711549271337544e-06,1.01772640215966e-06,-1.920797923547233e-06,-1.4120160409407622e-06,-1.6875481945593942e-06
-1.3669099351952798e-06,-1.3502601425785646e-06,-1.717666247399272e-06,-1.5324516028075376e-06,-1.0813328202885663e-06,-8.256185688764466e-07,1.4525527580312325e-06,-1.3871785042321575e-06,2.2064236659965804e-07,-7.062388385286527e-07,-7.681594823490571e-07,-9.60863687834694e-07,-1.1663388959046218e-06,-1.307713344403888e-06,8.985009106599198e-07,-2.0427770487205022e-06,-1.530645955886242e-06,-1.7913434486654053e-06
-1.3476335069176749e-06,-1.3553339497361474e-06,-1.7214180256718955e-06,-1.5365570655546768e-06,-1.0854360684463468e-06,-8.876031748744203e-07,1.303822235121059e-06,-1.054652104719979e-06,1.0697023724497989e-06,-6.875659424583182e-07,-8.314950827230006e-07,-1.0765300296198115e-06,-1.2842475184190383e-06,-1.364538822838564e-06,7.416187470007756e-07,-2.359424051219702e-06,-1.6327998029039779e-06,-1.859947098481464e-06
-1.3331078247837371e-06,-1.3558056072036889e-06,-1.7206644956642538e-06,-1.5452012627146832e-06,-1.0851763343896963e-06,-9.585874691394299e-07,1.1444662508496261e-06,-6.826915816412664e-07,1.915727808372143e-06,-6.733174962481386e-07,-8.973532693834606e-07,-1.2007322703322482e-06,-1.4057783916392638e-06,-1.425294335751223e-06,5.737569754064598e-07,-2.782140031149045e-06,-1.7236841381940338e-06,-1.9072358081832975e-06
-1.3150530293440674e-06,-1.4280420525586568e-06,-1.7098742687371107e-06,-1.5573362679466096e-06,-1.071899189165845e-06,-1.0262317590794078e-06,9.93271796229971e-07,-3.411385005472984e-07,2.535397835010485e-06,-6.645137842468135e-07,-9.54325000377816e-07,-1.3171338940372317e-06,-1.5149775005345286e-06,-1.473605676536594e-06,4.055323929136646e-07,-3.112909849044146e-06,-1.8111742221107076e-06,-1.928556094121586e-06
-1.2908784779458645e-06,-1.4957388130567942e-06,-1.6855754813371931e-06,-1.5574996854035599e-06,-1.0585870533225932e-06,-1.0745572262612448e-06,8.70439217896148e-07,-4.608067712088152e-08,2.729925878992606e-06,-6.59946342450826e-07,-9.920088067092912e-07,-1.4104869540085074e-06,-1.598403021657636e-06,-1.4998068169496779e-06,3.213179966252717e-07,-3.193090394086786e-06,-1.89589633984327e-06,-1.9239030758113273e-06
-1.261971727375057e-06,-1.534532243474641e-06,-1.6467862812437722e-06,-1.544489079523666e-06,-1.0454737768890087e-06,-1.0911541686563997e-06,8.272531424824587e-07,1.5982876832810785e-07,2.4495461827956744e-06,-6.564907179156419e-07,-1.0042568638372342e-06,-1.471522876562982e-06,-1.6486748025555785e-06,-1.5018789601136817e-06,2.468072826445534e-07,-3.2345728903712703e-06,-1.9696608195693097e-06,-1.9096053876315288e-06
-1.228572697409748e-06,-1.559185084369254e-06,-1.5942166053184934e-06,-1.532223450042864e-06,-1.0419658093627856e-06,-1.0799209057863904e-06,8.206200015118981e-07,2.048055112022032e-07,1.8198104262138587e-06,-6.508546152884965e-07,-9.907591770641066e-07,-1.4985224142649398e-06,-1.6652007961018782e-06,-1.4825044020130065e-06,1.3173892634823484e-07,-3.377126268024553e-06,-2.0221015291579323e-06,-1.9111022868195296e-06
-1.1918736119680639e-06,-1.536670478416016e-06,-1.5319697009591578e-06,-1.5264855910248537e-06,-1.0541314531764906e-06,-1.0407811737992307e-06,8.212116655728882e-07,5.323308639434882e-08,1.0625735709747929e-06,-6.410837784009644e-07,-9.556225595273756e-07,-1.4955513334912707e-06,-1.6522159088974404e-06,-1.4450736379222947e-06,9.153642284277203e-08,-3.564834207711483e-06,-2.0430130827581356e-06,-1.9393980590051557e-06
-1.149102625591272e-06,-1.4915508224041636e-06,-1.4639263208654024e-06,-1.5206961236519474e-06,-1.0759721150736922e-06,-9.782407853870096e-07,8.922211295222659e-07,-2.636610186805558e-07,4.418880747022387e-07,-6.265923218960401e-07,-9.047674267221398e-07,-1.4695943015407957e-06,-1.616131394861479e-06,-1.390818803023855e-06,1.1897751214642447e-07,-3.669954175309771e-06,-2.0275694261665476e-06,-1.9710210543680928e-06
-1.0987781551797559e-06,-1.4304784254546266e-06,-1.3943990997621738e-06,-1.5109721653451115e-06,-1.1033589901648095e-06,-8.98466531924345e-07,1.0159007399982719e-06,-6.427375698815339e-07,2.427911858635316e-07,-6.076075886025584e-07,-8.442133256010377e-07,-1.4284947781035314e-06,-1.5641968269685029e-06,-1.3189818096278627e-06,1.539475992636245e-07,-3.6083192886130616e-06,-1.978164018654762e-06,-1.9557851775839266e-06
-1.0451536149701344e-06,-1.3567794309370524e-06,-1.333012798335748e-06,-1.4849296470057063e-06,-1.1270326905335403e-06,-8.076842067931345e-07,1.143179955226663e-06,-9.717558885239384e-07,6.677009745213224e-07,-5.850568255473705e-07,-7.793406133106214e-07,-1.379822791019726e-06,-1.5043371511248638e-06,-1.230280171665469e-06,1.9004493064204114e-07,-3.553191421697743e-06,-1.909548014059431e-06,-1.8472408694665688e-06
-9.880521260238005e-07,-1.291093927406059e-06,-1.275096916259094e-06,-1.4376556324751006e-06,-1.1317748851500732e-06,-7.141997649718341e-07,1.2640872679038117e-06,-1.1712130043575026e-06,1.7509298891309226e-06,-5.595163798546358e-07,-7.145852414530163e-07,-1.329842979617933e-06,-1.4445558799382142e-06,-1.1308013396974648e-06,2.3044585076778522e-07,-3.4393079460021744e-06,-1.8300256967796249e-06,-1.6252100110989992e-06
-9.302316227043596e-07,-1.228241416968174e-06,-1.2220122311352927e-06,-1.3766326031535619e-06,-1.1118608433844412e-06,-6.247268744767396e-07,1.374836344956697e-06,-1.235928113236983e-06,3.2778619620691067e-06,-5.314107631670928e-07,-6.530502535169866e-07,-1.2827107863079166e-06,-1.3914674168761515e-06,-1.0319993088763988e-06,2.680864657376589e-07,-3.2616426180408584e-06,-1.7476991203868018e-06,-1.3326618729091483e-06
-8.854103703428442e-07,-1.1706056702767861e-06,-1.1754307274945639e-06,-1.2970181899944699e-06,-1.069347021441492e-06,-5.467309514536701e-07,1.4700610967925931e-06,-1.2553052216681043e-06,5.0058542628333145e-06,-5.004416842382924e-07,-5.966204185747338e-07,-1.2406923636841538e-06,-1.3490372293842988e-06,-9.454529517291874e-07,3.2235792991065416e-07,-3.1432379507259607e-06,-1.67162163207417e-06,-1.0328083527348679e-06
-8.526872234847926e-07,-1.1218179837669681e-06,-1.1326314677074403e-06,-1.218998683045765e-06,-1.0061890259855939e-06,-4.799334563253238e-07,1.5460001078971034e-06,-1.3356107935678497e-06,6.526625704267302e-06,-4.6856184878855627e-07,-5.465097232749331e-07,-1.2052011276137e-06,-1.3182609841497104e-06,-8.77290153540689e-07,3.7685865296475203e-07,-3.0636356294648696e-06,-1.6069674345846853e-06,-7.862934278946882e-07
-8.268436172089453e-07,-1.0814341173045307e-06,-1.0947082013213091e-06,-1.1514222444662047e-06,-9.271867295636772e-07,-4.2624061594592636e-07,1.6171667650543041e-06,-1.4981493385643267e-06,7.47572902254844e-06,-4.362080394052225e-07,-5.036822495074798e-07,-1.177542381285424e-06,-1.2976107622415168e-06,-8.27308005660529e-07,4.138696622540652e-07,-3.0289334911464363e-06,-1.5588647762220776e-06,-6.438654184801466e-07
-8.039284264277274e-07,-1.065951940816399e-06,-1.0623873076123358e-06,-1.1068799664255901e-06,-8.376362061037672e-07,-3.7963741235227106e-07,1.683211603414741e-06,-1.693329618418708e-06,7.681992203558185e-06,-4.037361210766753e-07,-4.686333513465267e-07,-1.1574484646298232e-06,-1.2839228786397482e-06,-7.9320132634105e-07,4.511976985199625e-07,-3.0241480739414447e-06,-1.5280844985491352e-06,-6.110811177373083e-07
-7.840525967356454e-07,-1.0706767643037866e-06,-1.030876224768614e-06,-1.092247079991359e-06,-7.372890631718403e-07,-3.415383515629933e-07,1.7410148390989234e-06,-1.8183585929965615e-06,7.195232896243139e-06,-3.7371229376663606e-07,-4.411735644766526e-07,-1.1456968765330321e-06,-1.2736584183959908e-06,-7.751480711545924e-07,4.7847709528001e-07,-3.015905222307032e-06,-1.5100716692991993e-06,-6.636582191297846e-07
-7.71004584035468e-07,-1.0885894646830587e-06,-9.992008934681128e-07,-1.1055105051803752e-06,-6.321557219590888e-07,-3.1564832352964743e-07,1.7939440743931166e-06,-1.7560090642408168e-06,6.13897196768451e-06,-3.4529455196761924e-07,-4.2127623015455366e-07,-1.1425933309722194e-06,-1.264354082787654e-06,-7.760584141156438e-07,4.923612471080789e-07,-3.023809252453328e-06,-1.4986452155294864e-06,-7.800755236634911e-07
-7.69066370315104e-07,-1.120356196501465e-06,-9.722566465678984e-07,-1.1465602314280473e-06,-5.502940724902998e-07,-3.033719701064141e-07,1.8466995218231935e-06,-1.47573316596914e-06,4.7144004921501576e-06,-3.199809842562579e-07,-4.08732174772451e-07,-1.147259534788545e-06,-1.256173712819939e-06,-7.970907626053303e-07,5.038744844524623e-07,-3.050719932834901e-06,-1.4890952707046601e-06,-9.340838664472004e-07
-7.783737009632963e-07,-1.1631364426650619e-06,-9.556793176023032e-07,-1.2134979174593903e-06,-4.998010998624141e-07,-3.080803277725244e-07,1.8851894674226942e-06,-1.054841248999049e-06,3.389222971568376e-06,-3.0117941200402493e-07,-4.0630294756944053e-07,-1.1580482050315145e-06,-1.2487135437575665e-06,-8.32288023188751e-07,5.093127313442673e-07,-3.0940799248028947e-06,-1.479714530683844e-06,-1.1250033934912797e-06
-8.007147165409101e-07,-1.2134561862917882e-06,-9.559082630664197e-07,-1.3036254552228828e-06,-4.957039922893672e-07,-3.211875117134958e-07,1.916525289344355e-06,-6.401196851196997e-07,2.2097128875348353e-06,-2.917470881003523e-07,-4.098942829794168e-07,-1.171325377250779e-06,-1.2419524018944343e-06,-8.676663985422894e-07,5.083136625480421e-07,-3.1576558596013463e-06,-1.4710060927261203e-06,-1.3559643129099533e-06
-8.361254523887728e-07,-1.2752392084755872e-06,-9.783519831787335e-07,-1.3989132936991775e-06,-5.358203424129476e-07,-3.509780236841818e-07,1.9478079535328533e-06,-3.9162186558113713e-07,1.4036781073034467e-06,-2.872898210593026e-07,-4.166330500546648e-07,-1.1831634050304624e-06,-1.234862731536678e-06,-8.866234303902355e-07,5.114885357011056e-07,-3.2209137835296206e-06,-1.4642710111611778e-06,-1.6022041863804269e-06
-8.818146099132839e-07,-1.3436560463217477e-06,-1.0202758552682756e-06,-1.4994590225428736e-06,-6.124309515097151e-07,-3.851272867874007e-07,1.9811218975842318e-06,-4.1634966690484485e-07,1.152472110368804e-06,-2.8926227624147176e-07,-4.241423511096594e-07,-1.1889083156848343e-06,-1.2259543695169204e-06,-8.781749671121921e-07,5.246563689418769e-07,-3.284705884175444e-06,-1.4612061385918187e-06,-1.8544601565352224e-06
-9.366747453285857e-07,-1.4082157448035156e-06,-1.0765133375733722e-06,-1.601284234470907e-06,-7.14632180033131e-07,-4.094020838865339e-07,2.026334385259701e-06,-7.425304240603737e-07,1.3750272525127812e-06,-2.9752192163661595e-07,-4.294550496495538e-07,-1.1872079650554614e-06,-1.2161344588279414e-06,-8.416961903516266e-07,5.51304101006057e-07,-3.3533860007702795e-06,-1.4638659095915572e-06,-2.1087057723673396e-06
-9.961813026986353e-07,-1.4687156979991996e-06,-1.1428211214104418e-06,-1.7018545139688145e-06,-8.202899897461729e-07,-4.235090559345747e-07,2.090381132519913e-06,-1.298865865854282e-06,1.95478335522652e-06,-3.065163009135179e-07,-4.33737790697986e-07,-1.1802815180596394e-06,-1.2082368774646395e-06,-7.855058118872429e-07,5.794522705545807e-07,-3.4255243810852703e-06,-1.4742112979939974e-06,-2.3613704338129947e-06
-1.0550824855012133e-06,-1.5292401000991404e-06,-1.2095683206615631e-06,-1.8084108644972966e-06,-9.103097349769154e-07,-4.2722646357453565e-07,2.1551942342911906e-06,-1.9348958359893825e-06,2.648988098004864e-06,-3.188196513179624e-07,-4.386194343096673e-07,-1.1747774113397045e-06,-1.2057259770853657e-06,-7.227560482255056e-07,6.085870389727453e-07,-3.5098870404096553e-06,-1.4912525428727356e-06,-2.602110038690723e-06
-1.1023183670921153e-06,-1.590917096849366e-06,-1.2821942401298216e-06,-1.9096302291239795e-06,-9.693924082752334e-07,-4.224501452003188e-07,2.212575362163484e-06,-2.52168157982597e-06,3.2684190336845134e-06,-3.3059479718738935e-07,-4.456101060785059e-07,-1.1752614460727967e-06,-1.2107449124413274e-06,-6.702027497639091e-07,6.303686278838381e-07,-3.627237713738632e-06,-1.5144777322376446e-06,-2.80004695130984e-06
-1.139265807459151e-06,-1.6457071458933031e-06,-1.3536410053217984e-06,-1.9987311610031284e-06,-9.94535345700726e-07,-4.15929019573049e-07,2.2657126089755445e-06,-2.972736924252677e-06,3.4655000488033615e-06,-3.3729947138273165e-07,-4.549446423374028e-07,-1.185019761659192e-06,-1.2233642186760356e-06,-6.428135208828555e-07,6.500074112437886e-07,-3.7562558603837486e-06,-1.5416376226759415e-06,-2.906004677643087e-06
-1.1618122121487835e-06,-1.6976393677556765e-06,-1.4154653988275066e-06,-2.0717220114513126e-06,-9.895478615706708e-07,-3.90196585317636e-07,2.321194070754785e-06,-3.215801532198886e-06,3.2984323399083337e-06,-3.4680005725590655e-07,-4.6692910031143896e-07,-1.2013378473486447e-06,-1.240213719863679e-06,-6.553183512907547e-07,6.614346918824602e-07,-3.883132742193341e-06,-1.5691886979480134e-06,-2.9144722268441484e-06
-1.1698618442881948e-06,-1.7606201437058953e-06,-1.4661440104435395e-06,-2.132197455239573e-06,-9.6870217332986e-07,-3.5219744808085607e-07,2.382673586306181e-06,-3.2065039802763163e-06,2.835215292369233e-06,-3.444271017638642e-07,-4.791720636541396e-07,-1.2186761210848367e-06,-1.25602812388663e-06,-7.079064337645025e-07,6.756449409345755e-07,-4.013616557493532e-06,-1.594818871394557e-06,-2.813670849256237e-06
-1.1704232577355139e-06,-1.8270197224165452e-06,-1.4977995116253124e-06,-2.185410305993428e-06,-9.413056187034755e-07,-3.035260300565342e-07,2.4350658043049893e-06,-2.923236326519935e-06,2.2895619956611303e-06,-3.441180437657184e-07,-4.870600690086291e-07,-1.2295446836942503e-06,-1.2629462416849775e-06,-7.915884972084832e-07,7.369492736178988e-07,-4.123589906546777e-06,-1.6169431515273179e-06,-2.5745899278988933e-06
-1.166711191978705e-06,-1.8736907785362758e-06,-1.5075858691776358e-06,-2.2070518243066096e-06,-9.17675222173804e-07,-2.578119026341205e-07,2.481510170011506e-06,-2.3812953178795406e-06,2.0496761756611225e-06,-3.7151102521001963e-07,-4.857603609606963e-07,-1.2360400660849883e-06,-1.254231991480907e-06,-8.941957751463286e-07,8.122202171606575e-07,-4.212906448283465e-06,-1.6345752255540523e-06,-2.260075831870036e-06
-1.1614562187006591e-06,-1.90911381137565e-06,-1.5135340606178092e-06,-2.2014100505930125e-06,-9.084538543196266e-07,-2.1070490223707398e-07,2.5096685536122588e-06,-1.6599983304909582e-06,2.1985922143627193e-06,-3.950870791206171e-07,-4.711980929912336e-07,-1.2304041413105102e-06,-1.2260826372108913e-06,-9.949778447345545e-07,8.969503156916405e-07,-4.2849976578225875e-06,-1.6452669045903372e-06,-1.966271136534118e-06
-1.1636617577056613e-06,-1.9312008473717658e-06,-1.51389383540029e-06,-2.166044158656059e-06,-9.329508003737559e-07,-1.5275341854447474e-07,2.5284015553799036e-06,-9.674349403805755e-07,2.8539945106271816e-06,-4.2782335753121605e-07,-4.4223021062296804e-07,-1.2044468092352119e-06,-1.1802281791946054e-06,-1.076779300201075e-06,9.923236908046097e-07,-4.306460106057932e-06,-1.644419636638025e-06,-1.7956431984665623e-06
-1.1767797189094288e-06,-1.9276933796874003e-06,-1.5005614854741216e-06,-2.1014694337014624e-06,-9.784174780039325e-07,-9.034300901527858e-08,2.562062155203997e-06,-4.1987140047102487e-07,3.7499838960852e-06,-4.627565581538756e-07,-4.011530687651767e-07,-1.157165384078125e-06,-1.1151327390806354e-06,-1.1250204000581616e-06,1.0755228064048358e-06,-4.268235093919583e-06,-1.6271784059445885e-06,-1.9280403771792536e-06
-1.2012131007043377e-06,-1.922787032246378e-06,-1.4763910559835935e-06,-2.062394670749459e-06,-1.033169178270358e-06,-4.5743761471588845e-09,2.6071978766099867e-06,-3.246903547530239e-08,4.608077218850857e-06,-4.7539600620330204e-07,-3.4777048345579177e-07,-1.0907241780995745e-06,-1.0473446222861195e-06,-1.1237263828721942e-06,1.1268159663574158e-06,-4.228188404963692e-06,-1.5928826818676089e-06,-2.227757080371625e-06
-1.2347569020966267e-06,-1.9407864742684315e-06,-1.4758548168522315e-06,-2.0458318734919253e-06,-1.0784679056495962e-06,3.658198285577429e-08,2.643638039344108e-06,8.999966595627832e-08,5.1618905970340085e-06,-4.235813574839982e-07,-2.961993695237747e-07,-1.0436319427431165e-06,-9.84664666925143e-07,-1.0705880130848445e-06,1.1813161175960456e-06,-4.216670168762577e-06,-1.545882399565116e-06,-2.6369216766439064e-06
-1.2701604090783569e-06,-1.9730017302289506e-06,-1.49627039310851e-06,-2.067223617478172e-06,-1.1137611239453419e-06,7.615178431897346e-08,2.7445427038613242e-06,3.2765262041493934e-08,5.155731410585418e-06,-3.4794485208112877e-07,-2.549844407893698e-07,-1.0465375477081937e-06,-9.214436716947234e-07,-1.013017841438865e-06,1.239178657262067e-06,-4.293332622836203e-06,-1.4920170384240836e-06,-2.9940836194172106e-06
-1.2892738660567372e-06,-2.0440407114153505e-06,-1.6008066061786162e-06,-2.1540099510679314e-06,-1.1751916672340377e-06,1.8474813587831114e-07,2.8794735371750023e-06,-2.865469517865407e-07,4.5419851343976036e-06,-2.905250503189338e-07,-2.2957978989329397e-07,-1.1443370337888028e-06,-8.713082700995656e-07,-9.659396146726857e-07,1.2804108326412469e-06,-4.431726477538416e-06,-1.4355113399943496e-06,-3.1855073437874555e-06
-1.2687374899601866e-06,-2.1166465992221763e-06,-1.856545923390024e-06,-2.1740039937651395e-06,-1.2651646841054143e-06,2.3478886914807653e-07,2.994441569110698e-06,-1.0146731212796875e-06,3.476343288383193e-06,-2.3663499230730405e-07,-2.2504614885847935e-07,-1.2586702585810765e-06,-8.304129108309296e-07,-9.635010533161414e-07,1.4265583602505364e-06,-4.556028876899722e-06,-1.3788823842328126e-06,-3.1725855556288357e-06
-1.1970432942629917e-06,-2.1716347166613953e-06,-2.0513363165445484e-06,-2.19203528642211e-06,-1.3900690318233989e-06,2.8353961697519194e-07,3.0596563593621298e-06,-1.84003884760636e-06,2.4326708178188377e-06,-1.9397163787568436e-07,-2.3750935870069838e-07,-1.3567160400423328e-06,-8.068065898016427e-07,-1.0727403592998894e-06,1.49811016504153e-06,-4.617953702959936e-06,-1.3254676352066278e-06,-3.1288901258117946e-06
-1.1498825118168633e-06,-2.2118560731650327e-06,-2.2256003155385998e-06,-2.2285890894524895e-06,-1.5500798641502827e-06,3.094592777698596e-07,3.1257644093489523e-06,-2.5667486053514555e-06,1.657163539150337e-06,-1.6359697646636506e-07,-2.6094910690588845e-07,-1.4307301568712118e-06,-8.660128711835006e-07,-1.050998050331947e-06,1.4960416465430223e-06,-4.7210729568678184e-06,-1.2803614817952017e-06,-3.0805950508008364e-06
-1.0987584532356953e-06,-2.22209895684186e-06,-2.3793214554428414e-06,-2.2461867868203488e-06,-1.678068199240526e-06,3.1964918447750274e-07,3.1956816181551555e-06,-2.908037774088396e-06,1.4322814367001238e-06,-1.3588142968798326e-07,-2.88684926472308e-07,-1.4802701028520112e-06,-1.0147209075726827e-06,-1.05178517506706e-06,1.4876144643092876e-06,-4.786799335679205e-06,-1.2475834367391626e-06,-3.072292599154258e-06
-1.037310945192061e-06,-2.2416319252081676e-06,-2.4866950010248975e-06,-2.250403435608267e-06,-1.733447451872477e-06,3.625724038112157e-07,3.2701421439862753e-06,-3.017246888188443e-06,1.5999412460315984e-06,-8.401649640633132e-08,-3.1620216688991553e-07,-1.519224505176617e-06,-1.1840832988484602e-06,-1.212233127080043e-06,1.4527936967071174e-06,-4.813145937212789e-06,-1.2266665034797419e-06,-3.0738341225176778e-06
-9.693599021624338e-07,-2.2958507500175054e-06,-2.5950733563183576e-06,-2.208694806531829e-06,-1.8114808055285677e-06,4.386048213579835e-07,3.359270319761214e-06,-3.0345777804801546e-06,1.976668995887696e-06,-8.327703996314004e-08,-3.382750270228261e-07,-1.617537244499397e-06,-1.3331702233109982e-06,-1.447559863460315e-06,1.4944918915668994e-06,-4.827868439267008e-06,-1.2125169612525783e-06,-3.1591251729763395e-06
-8.797149349058957e-07,-2.348071829576187e-06,-2.775513468140649e-06,-2.1643694842716577e-06,-1.97648604205954e-06,5.068581903584635e-07,3.4338963260975882e-06,-2.9413858495040944e-06,2.3602487682907637e-06,-6.589801252874059e-08,-3.536687780130837e-07,-1.7101306281438195e-06,-1.4510444697653307e-06,-1.676811033568218e-06,1.5935482022205075e-06,-4.937437351827262e-06,-1.1980020949213308e-06,-3.3929060444493413e-06
-8.257791602089759e-07,-2.3958779354678717e-06,-2.9053030822584873e-06,-2.2008300179894913e-06,-2.1895907570749154e-06,5.469016334179307e-07,3.499228591434923e-06,-2.4481187167339642e-06,2.527476489072428e-06,-5.83868143000076e-08,-3.6291917874025995e-07,-1.7371246532973666e-06,-1.522578607321746e-06,-1.8845413366507446e-06,1.6145479974348725e-06,-5.043654062005648e-06,-1.176212992332856e-06,-3.525910936011026e-06
-7.995800634657542e-07,-2.4284508592249155e-06,-2.97125341748184e-06,-2.2266199894852194e-06,-2.299748510415624e-06,6.635733622447698e-07,3.5358030595911403e-06,-1.6330705836854858e-06,2.3790102047684386e-06,-6.286675178566843e-08,-3.6544336708922985e-07,-1.7395511180973859e-06,-1.526020894850334e-06,-2.0029114849569004e-06,1.6823433197316646e-06,-5.136231141668898e-06,-1.141106106562729e-06,-3.5133850542532547e-06
-8.065024805864731e-07,-2.4605593374210618e-06,-3.0433644549138503e-06,-2.2056164557121275e-06,-2.332946146875563e-06,7.10413416625503e-07,3.648691155489401e-06,-7.351005708694197e-07,1.9050477281460008e-06,-6.902188361132217e-08,-3.601092512299201e-07,-1.7637090245870127e-06,-1.4621959908410879e-06,-2.0452199367762183e-06,1.7128076169641683e-06,-5.280557241366476e-06,-1.0876165344600046e-06,-3.413800946212863e-06
-8.084283243561229e-07,-2.4688330509960042e-06,-3.104274130013326e-06,-2.19888668134952e-06,-2.3711444871576754e-06,7.205504244249507e-07,3.723991658665781e-06,-2.5628773243867535e-07,1.3143338242645023e-06,-6.873814800838941e-08,-3.409066361358007e-07,-1.7775586018473195e-06,-1.408150829062103e-06,-2.0259967123559094e-06,1.7948059137601235e-06,-5.2723326998717735e-06,-1.0128640714814267e-06,-3.4337465296778487e-06
-8.033010367086942e-07,-2.514229262669436e-06,-3.1624510798913564e-06,-2.1756294267406378e-06,-2.4383030930913602e-06,6.81286161206208e-07,3.7540323829965867e-06,-1.6858024787544613e-07,7.847427314009917e-07,-7.121345092228773e-08,-3.075262137763362e-07,-1.7996335025791112e-06,-1.370865145517679e-06,-1.964172699009414e-06,1.899332242998638e-06,-5.276217876726555e-06,-9.18543071287689e-07,-3.3972839664503455e-06
-8.035305622481306e-07,-2.594303617408641e-06,-3.2792608615759954e-06,-2.175231061272453e-06,-2.5192206136059416e-06,6.820766432175936e-07,3.8070683459316365e-06,-3.3828830908213896e-07,7.689254378283874e-07,-9.357973210857374e-08,-2.627010452424135e-07,-1.8547819895466334e-06,-1.3556433535921896e-06,-1.8963516336703848e-06,1.9689614556555312e-06,-5.329173787303509e-06,-8.125110488080054e-07,-3.3566991687870604e-06
-8.414155763224819e-07,-2.6298963754299993e-06,-3.4112455259279635e-06,-2.1770648758047635e-06,-2.5354351352290906e-06,7.036842217037866e-07,3.869144221547858e-06,-6.756399634208128e-07,1.07007611222725e-06,-1.199755635448929e-07,-2.032104940257693e-07,-1.861290761841358e-06,-1.2600150401809929e-06,-1.832360212924522e-06,2.0083312358589166e-06,-5.317064284208816e-06,-7.076225921612973e-07,-3.3417093080679854e-06
-8.832051667825843e-07,-2.64521838151714e-06,-3.462995072552426e-06,-2.193898316042668e-06,-2.4747641851811443e-06,7.305783362024283e-07,3.920783200263554e-06,-1.0663764823732583e-06,1.5519244443387836e-06,-1.6015593333910285e-07,-1.3652410146917812e-07,-1.8096890659830055e-06,-1.1344277914241778e-06,-1.7793071512903303e-06,1.9711196860622808e-06,-5.309923330490811e-06,-6.181300558854475e-07,-3.3729275221410844e-06
-9.060543945861615e-07,-2.642781665713727e-06,-3.4578286247763055e-06,-2.1848709008398716e-06,-2.3230662474055487e-06,7.456796461353788e-07,4.006148457669916e-06,-1.41306602873425e-06,2.2251549471911644e-06,-1.7612416483457472e-07,-7.207772164885285e-08,-1.7111639183397904e-06,-1.0052831811716862e-06,-1.749838704155747e-06,1.888308509939078e-06,-5.313210761238011e-06,-5.556283421068298e-07,-3.413155611362219e-06
-9.300964514829271e-07,-2.6576035901868634e-06,-3.3983563872889672e-06,-2.2124210853222007e-06,-2.1700295570069753e-06,6.675555887315156e-07,4.0074664138331105e-06,-1.4494233513196678e-06,3.0679082826639638e-06,-1.8763583353020216e-07,-1.8155366337146877e-08,-1.655706576893811e-06,-9.297226121241726e-07,-1.7546480420115778e-06,1.8739267609637347e-06,-5.1841978023584395e-06,-5.262025259489599e-07,-3.422309900200347e-06
-9.478366839288127e-07,-2.6936671401542815e-06,-3.374313790925797e-06,-2.286266888177111e-06,-2.07984955039252e-06,6.419768761948502e-07,3.992204814368179e-06,-1.6242708838970502e-06,3.968574309277664e-06,-2.2465626544268086e-07,1.5360696425723613e-08,-1.6252327902519638e-06,-9.375680811326293e-07,-1.7955244403438477e-06,1.8572712561983344e-06,-5.119120017003142e-06,-5.295561359515415e-07,-3.3663007672058013e-06
-9.79995962610184e-07,-2.7442012890840543e-06,-3.3242827869333665e-06,-2.3489952785791223e-06,-2.0526117559363517e-06,6.644489843112995e-07,4.066298291143879e-06,-2.1717751342627876e-06,4.777909623714669e-06,-2.7753371220526334e-07,2.2627874030120123e-08,-1.5245189122655423e-06,-8.931131388357268e-07,-1.8608524537964836e-06,1.7925884363866002e-06,-5.208710785512882e-06,-5.603316039394698e-07,-3.3525689286953173e-06
-1.0225664836975609e-06,-2.811775953091804e-06,-3.2482071149140255e-06,-2.4281981920835785e-06,-2.030115103153941e-06,6.797888596120081e-07,4.1365669947877845e-06,-2.325565473618794e-06,5.340944327304097e-06,-3.2191909596543366e-07,4.121607760637882e-09,-1.4489742832354222e-06,-9.035374215528027e-07,-1.9273246385860773e-06,1.8053709867954377e-06,-5.256556785080107e-06,-6.109151298887746e-07,-3.413835104971133e-06
-1.0707755789372575e-06,-2.856465231368264e-06,-3.1951945652548345e-06,-2.5099907144853987e-06,-2.1196658874704737e-06,6.845857961945023e-07,4.159221339971664e-06,-1.9930216267341e-06,5.286392349951771e-06,-3.385821081751969e-07,-3.557511122131145e-08,-1.4527099082648016e-06,-9.97560844543392e-07,-1.9781508375918857e-06,1.8833209630663584e-06,-5.170486129373062e-06,-6.73800602823033e-07,-3.3808729138346184e-06
-1.1297539809031428e-06,-2.850019063220879e-06,-3.188779503492383e-06,-2.527772926351007e-06,-2.2746075680671296e-06,6.686856810072445e-07,4.201364695448933e-06,-1.5910485768384916e-06,4.8447472478629025e-06,-3.6563630016457597e-07,-9.153275150423072e-08,-1.4927445729427502e-06,-1.1352536263222792e-06,-1.999103411691959e-06,1.9326280815248848e-06,-5.001678231882962e-06,-7.416031659639193e-07,-3.4015768268824383e-06
-1.1998658402373544e-06,-2.8519997969385062e-06,-3.1515466923030512e-06,-2.562236400482501e-06,-2.426101792639763e-06,6.392881353412106e-07,4.2421916742337335e-06,-1.1082179484179287e-06,4.193644532482592e-06,-4.7447744433397375e-07,-1.5601871375346453e-07,-1.5167249445418335e-06,-1.2319220538270488e-06,-1.9882472117400926e-06,1.9978907296513087e-06,-4.907490656573404e-06,-8.054228655426379e-07,-3.4213495433739003e-06
-1.2823131529167622e-06,-2.8119658381177125e-06,-3.0821134564737754e-06,-2.6083535224727283e-06,-2.5398621418285424e-06,6.066397280700421e-07,4.264338285102045e-06,-7.213341140975296e-07,3.414844841333128e-06,-5.508281282318095e-07,-2.2145622386106244e-07,-1.5216978819503494e-06,-1.2920739109585032e-06,-1.9554855237350546e-06,2.043505349160618e-06,-5.00615769389023e-06,-8.553009479112346e-07,-3.6329924001161487e-06
-1.3586808505787628e-06,-2.754629597508619e-06,-2.9860843504328066e-06,-2.5132383406268413e-06,-2.6232064356021835e-06,5.889507880316228e-07,4.277549803852893e-06,-5.432491243270748e-07,2.6584554983826456e-06,-6.133820043931291e-07,-2.8221404257618213e-07,-1.531888401793629e-06,-1.3275943745751527e-06,-1.9171805278731464e-06,2.0989917682807816e-06,-4.996703894008913e-06,-8.846928471026068e-07,-3.7878291152915024e-06
-1.4306177501352122e-06,-2.6837802444705335e-06,-2.898637175985476e-06,-2.383578135811242e-06,-2.673657028108994e-06,5.530621361059755e-07,4.267286350772045e-06,-4.435471987453682e-07,2.1765067535512517e-06,-6.57294747355582e-07,-3.3462651274748214e-07,-1.5394022522763688e-06,-1.3399633711983881e-06,-1.8956641765694388e-06,2.1401968701717996e-06,-4.907862657514152e-06,-8.95032555273455e-07,-3.5726833758624532e-06
-1.4724387343735409e-06,-2.623079547721056e-06,-2.8204623849914227e-06,-2.315661475633972e-06,-2.6942542356498237e-06,5.020489138811347e-07,4.226826742214094e-06,-4.1151929958215295e-07,2.2034562715589554e-06,-6.968110137263178e-07,-3.838669778254021e-07,-1.5464922850614999e-06,-1.3406929427115671e-06,-1.90786246661009e-06,2.179694351497137e-06,-4.958311374366474e-06,-8.954126824624126e-07,-3.4596503023845915e-06
-1.4861787953266503e-06,-2.569216631009817e-06,-2.7633917894830377e-06,-2.298840743689129e-06,-2.6889083210736468e-06,4.856495569223466e-07,4.207469268205548e-06,-4.583937974988812e-07,2.8451534518192893e-06,-7.422476095131476e-07,-4.247477824021953e-07,-1.553334382421897e-06,-1.343132991009111e-06,-1.9565101706927943e-06,2.257095355286526e-06,-5.042743989061304e-06,-8.982139099065281e-07,-3.5235407340666344e-06
-1.4839499243630177e-06,-2.5250344198506947e-06,-2.7346816003970217e-06,-2.3198336062188085e-06,-2.6580325305794106e-06,4.759672442565841e-07,4.2155267379051975e-06,-6.787070446735349e-07,4.1177156870652396e-06,-8.038696681609792e-07,-4.5813947028513e-07,-1.5567287431636222e-06,-1.357702591275459e-06,-2.0248005472853367e-06,2.3064778404701164e-06,-4.914068805002477e-06,-9.151879103465588e-07,-3.413112057796861e-06
-1.46629101472218e-06,-2.481668648565083e-06,-2.723878182007933e-06,-2.3252876478163002e-06,-2.6015681136782985e-06,4.0636388808269457e-07,4.203587968920557e-06,-1.0807748643407232e-06,5.593371516327256e-06,-8.85906813387321e-07,-4.887533210304172e-07,-1.5611123836163055e-06,-1.3896748566126474e-06,-2.0857030832009294e-06,2.3167515672432795e-06,-4.752176846384415e-06,-9.556937661512048e-07,-3.4611378553377302e-06
-1.4396932936489002e-06,-2.430714458883492e-06,-2.7284987176519707e-06,-2.3333458761552596e-06,-2.524149488440265e-06,3.22718861073415e-07,4.144277820664921e-06,-1.7206841879690995e-06,6.853569668413668e-06,-9.231744917128931e-07,-5.159904617566731e-07,-1.5669829475990652e-06,-1.4390374307651453e-06,-2.1138900760174897e-06,2.289692129241019e-06,-4.651201186916019e-06,-1.0253103723581553e-06,-3.465498421732495e-06
-1.4073315718366681e-06,-2.3621472950403945e-06,-2.7376372212803112e-06,-2.3431864479930254e-06,-2.437553823162234e-06,2.3801455722773366e-07,4.077003475188277e-06,-2.4892928599566014e-06,7.556201631340769e-06,-9.47766933703254e-07,-5.428670534797482e-07,-1.576540223369316e-06,-1.5015501961367602e-06,-2.0978111362302475e-06,2.22368150060545e-06,-4.594167103399168e-06,-1.1236397802226752e-06,-3.438318977741156e-06
-1.375188238005431e-06,-2.2943994790847235e-06,-2.7411986788693186e-06,-2.360662374281615e-06,-2.35914566034182e-06,1.725301738577832e-07,3.993930341047738e-06,-3.1159156863137097e-06,7.512220453415287e-06,-9.643697556417741e-07,-5.707997197102739e-07,-1.5875462101216248e-06,-1.5703601268598164e-06,-2.0431096361824397e-06,2.1344717792252234e-06,-4.604048502051666e-06,-1.2429920021269512e-06,-3.405626325537599e-06
-1.3446497523770259e-06,-2.2279005713473936e-06,-2.7271558555626547e-06,-2.375938830178365e-06,-2.3043603687091387e-06,1.2821810258097282e-07,3.96219771900159e-06,-3.5281541313943558e-06,6.744360905512063e-06,-9.771317396070011e-07,-5.991972521161397e-07,-1.6024077633959108e-06,-1.638006335628034e-06,-1.964606211660782e-06,2.0366279001853428e-06,-4.6020247229651464e-06,-1.3703224209073657e-06,-3.280816205405519e-06
-1.3245574286843926e-06,-2.1613145764111196e-06,-2.698296770556726e-06,-2.376077564363493e-06,-2.280473198091035e-06,5.8946857013183766e-08,3.957234173740831e-06,-3.552484111523559e-06,5.444778922944081e-06,-9.873246833249834e-07,-6.264946458673108e-07,-1.6216365635498345e-06,-1.6982660565970272e-06,-1.877427214685051e-06,1.9536851415843437e-06,-4.534415338195267e-06,-1.4917104468738346e-06,-3.250181823998954e-06
-1.3148457054330288e-06,-2.1049789548346873e-06,-2.662485057765783e-06,-2.359825805302553e-06,-2.2812641128627267e-06,-7.358066984538705e-08,3.911906281278426e-06,-3.090057691808155e-06,3.939263635580903e-06,-9.887645190225975e-07,-6.54054875177656e-07,-1.6418248984544162e-06,-1.7468791385496842e-06,-1.7916045089498426e-06,1.8538645429051172e-06,-4.57929725385805e-06,-1.596020517245006e-06,-3.2691296420713535e-06
-1.3142890326236702e-06,-2.061709880573894e-06,-2.6258772713005264e-06,-2.32776827947304e-06,-2.2919940651004867e-06,-2.2407781411302875e-07,3.825861113681424e-06,-2.8591841302548734e-06,2.501418353743186e-06,-1.0001451396501655e-06,-6.811704235958704e-07,-1.659664837372726e-06,-1.781257676047499e-06,-1.7090403293222157e-06,1.7778801572417367e-06,-4.5884143023830965e-06,-1.6759092650816721e-06,-3.286593866891911e-06
-1.3239206939283544e-06,-2.033662435289087e-06,-2.596204326427233e-06,-2.297843239023897e-06,-2.294956513388557e-06,-3.5007722565105474e-07,3.703039650539059e-06,-2.7023176196550106e-06,1.4313122165225135e-06,-1.0169938421345405e-06,-7.059001430078298e-07,-1.670897018858173e-06,-1.8004548562648478e-06,-1.6326811487499857e-06,1.734923166919611e-06,-4.551489864153128e-06,-1.727189365218117e-06,-3.337465265395132e-06
-1.340827014448882e-06,-2.0196604699816485e-06,-2.575819520846405e-06,-2.2715491373975376e-06,-2.2749711869045864e-06,-4.2419586060652114e-07,3.610298548575633e-06,-2.06855770426769e-06,7.473635103612399e-07,-1.0381909724368095e-06,-7.280106103755799e-07,-1.6739555122647765e-06,-1.8057515413289914e-06,-1.5612819055463658e-06,1.7132202231030277e-06,-4.509540915366951e-06,-1.748296746399569e-06,-3.356419810958827e-06
-1.3695925988982575e-06,-2.0249818875402666e-06,-2.5642350415791362e-06,-2.251666881708048e-06,-2.2288888138341055e-06,-4.4987736695186405e-07,3.5439212760190597e-06,-1.2645870064457115e-06,2.929506456191828e-07,-1.0600908356388286e-06,-7.482249550990305e-07,-1.6704249848698272e-06,-1.800777440441363e-06,-1.5004001348755103e-06,1.7160337359027057e-06,-4.401649597974685e-06,-1.7406991949705333e-06,-3.32961083660556e-06
-1.4065405463599421e-06,-2.0193294946457033e-06,-2.5591278062509475e-06,-2.2410120777330747e-06,-2.1743825907622467e-06,-4.4575762093994615e-07,3.519545809273384e-06,-5.980972124997415e-07,6.885067645483181e-09,-1.0682490780432113e-06,-7.686062453884205e-07,-1.663119514407771e-06,-1.7905028207426384e-06,-1.4551013434848236e-06,1.7326000639728288e-06,-4.258091027416577e-06,-1.7096438694652846e-06,-3.289984812397345e-06
-1.4404895636918488e-06,-2.0073105799164996e-06,-2.5548377805708154e-06,-2.2463049704572335e-06,-2.125133679425303e-06,-4.427448862573852e-07,3.5423035986293418e-06,-1.7652500406975866e-07,-1.77369275641194e-07,-1.0688884290866484e-06,-7.914579946651142e-07,-1.6549205336793072e-06,-1.7797350154033382e-06,-1.4374709836877633e-06,1.7586764949541314e-06,-4.082395088361815e-06,-1.6639593539132941e-06,-3.1972775592227564e-06
-1.4679768805924506e-06,-1.9865334614880635e-06,-2.5452416812433616e-06,-2.2691885877784546e-06,-2.0941694154890848e-06,-4.4078510487597696e-07,3.567900641547624e-06,9.1257079201101e-09,-2.0625347337112382e-07,-1.0788201303648672e-06,-8.1407354270846e-07,-1.6484020515964938e-06,-1.7720534810266204e-06,-1.4621140845577009e-06,1.7845517275019517e-06,-3.9053451637841875e-06,-1.6145081832919857e-06,-2.996901726647912e-06
-1.491648346995673e-06,-1.976003973201826e-06,-2.5252602468907485e-06,-2.305151051657718e-06,-2.0897015415164106e-06,-4.190882656142339e-07,3.6160313807883603e-06,-9.623455603827723e-08,5.358900711192592e-08,-1.0958938730946998e-06,-8.415486794668735e-07,-1.64571242989358e-06,-1.7693535680269747e-06,-1.5358584327004674e-06,1.8156497681570466e-06,-3.6635549763239385e-06,-1.5721632752769303e-06,-2.724578796373023e-06
-1.5085173001498485e-06,-1.9593678397577287e-06,-2.4913139037051663e-06,-2.3403390917385677e-06,-2.1040220665365512e-06,-4.141163350823592e-07,3.6931176030048982e-06,-3.4545176997838655e-07,7.307733289582692e-07,-1.1173373610293675e-06,-8.71210998849651e-07,-1.6479487537527756e-06,-1.7714753481994452e-06,-1.660648350311607e-06,1.8453191463664728e-06,-3.42422883196115e-06,-1.5464815405851866e-06,-2.4098974737352585e-06
-1.5159080250353117e-06,-1.9213800542293606e-06,-2.4437260272695492e-06,-2.386574039785402e-06,-2.111159112449751e-06,-4.185759579151765e-07,3.7667855728233387e-06,-5.382195597327012e-07,1.6991982921389552e-06,-1.1404075620844147e-06,-8.95537786204266e-07,-1.6543235496289048e-06,-1.775749309353193e-06,-1.8115742921403636e-06,1.8581934431736251e-06,-3.23193541873383e-06,-1.545200993668953e-06,-2.0905473678590186e-06
-1.5206065565879787e-06,-1.8776510460411577e-06,-2.3833389540919337e-06,-2.4281370351447125e-06,-2.0932205348131972e-06,-4.031703883263866e-07,3.80530709267692e-06,-5.675631407046469e-07,2.931336857111419e-06,-1.1594243793110899e-06,-9.070380415958683e-07,-1.661994934106575e-06,-1.7770307887187381e-06,-1.956061309182772e-06,1.8482976952034437e-06,-3.0362467689091955e-06,-1.5737531076223142e-06,-1.8139073608849221e-06
-1.4962684822250463e-06,-1.7922943680975275e-06,-2.310152332744806e-06,-2.4505933299340035e-06,-2.036087644337057e-06,-3.8714184692023664e-07,3.832581561569739e-06,-3.574061219326676e-07,4.438895699967063e-06,-1.1721614780408297e-06,-8.950733094973191e-07,-1.6667463723787048e-06,-1.7687141962042537e-06,-2.0295119157251364e-06,1.7928924217940455e-06,-2.8732653212460465e-06,-1.63467033302898e-06,-1.6165521151285673e-06
-1.4189571891792202e-06,-1.6925169755710662e-06,-2.2229178061831767e-06,-2.452069864645224e-06,-1.9317669705526205e-06,-3.6470779636728893e-07,3.864940482755636e-06,1.902787131478448e-08,5.928708052193667e-06,-1.178146824880459e-06,-8.544713267512922e-07,-1.6639523314955575e-06,-1.7445971585990317e-06,-2.007522309549762e-06,1.6966206184389967e-06,-2.7428084061471445e-06,-1.7273022427985054e-06,-1.4893344140112446e-06
-1.340508887306327e-06,-1.6483951425498416e-06,-2.1192087866352055e-06,-2.417480152196413e-06,-1.7917278798078292e-06,-3.346427266758462e-07,3.889809578488422e-06,4.1745452877502036e-07,7.2462269923995554e-06,-1.1742060556976584e-06,-7.81850878709604e-07,-1.6495020281722693e-06,-1.7013149511457077e-06,-1.9229735689361195e-06,1.5628400145598453e-06,-2.633170128270934e-06,-1.8473006192038327e-06,-1.4664193322853305e-06
-1.2780090349872243e-06,-1.6415481937990596e-06,-1.9986646455669903e-06,-2.344651564653131e-06,-1.6330961867687955e-06,-3.129107798986384e-07,3.889924016746459e-06,6.883564703670879e-07,8.267317684366634e-06,-1.1549262539199053e-06,-6.884604167692521e-07,-1.6208547745081792e-06,-1.6408007707377166e-06,-1.8318263282902157e-06,1.3983607198150883e-06,-2.5457470299243555e-06,-1.9851935242424766e-06,-1.5318184889404874e-06
-1.2510691809603916e-06,-1.571148853812436e-06,-1.863591834875888e-06,-2.234614070498609e-06,-1.4755232382887939e-06,-2.90238960152947e-07,3.864256334268369e-06,7.221670223216629e-07,8.836753782436539e-06,-1.1232769044604327e-06,-5.862875901247499e-07,-1.5779665974465924e-06,-1.5722675773985186e-06,-1.7248845638064453e-06,1.2489770471655933e-06,-2.495208148620277e-06,-2.1250933210983837e-06,-1.6259225589257696e-06
-1.241168786387244e-06,-1.4186202693267546e-06,-1.7260882612257635e-06,-2.1048884073028485e-06,-1.3370537742122896e-06,-2.543616038175879e-07,3.8226765179460605e-06,4.920068878202034e-07,8.883033330414312e-06,-1.0836618031454617e-06,-4.948018115259388e-07,-1.523470875063958e-06,-1.505891619578444e-06,-1.5119613878078277e-06,1.1230530669715344e-06,-2.44939052835617e-06,-2.2460126813904533e-06,-1.7158397556028419e-06
-1.2259813346031157e-06,-1.2795660938572517e-06,-1.602807662555031e-06,-1.96292166218417e-06,-1.229882038268031e-06,-2.0978559538353814e-07,3.7827513398135915e-06,6.178015483815963e-08,8.513569510689762e-06,-1.0414384225318538e-06,-4.769888135244696e-07,-1.462295918835918e-06,-1.4535578293659673e-06,-1.297434886623081e-06,1.0237500645636083e-06,-2.3825934326322535e-06,-2.3273633326339164e-06,-1.7654975645301415e-06
-1.2201239678170842e-06,-1.2264583635858392e-06,-1.510791722343568e-06,-1.836372080309836e-06,-1.155238779717915e-06,-1.653593282906306e-07,3.768797287983375e-06,-4.6577739504739055e-07,7.733234816832606e-06,-1.00161609719477e-06,-4.7130643838999837e-07,-1.4012465843244022e-06,-1.4212258779298827e-06,-1.1340709930036886e-06,9.731814217267614e-07,-2.322230792300746e-06,-2.356776154979262e-06,-1.776062096566893e-06
-1.2420582739311351e-06,-1.1813730488764793e-06,-1.4606509593159582e-06,-1.7912362949284968e-06,-1.1177437608025525e-06,-1.207207306102705e-07,3.7728234829941583e-06,-9.961686935695262e-07,6.542548714612103e-06,-9.683466129122784e-07,-4.474645031686833e-07,-1.3480392361046468e-06,-1.3915308147662365e-06,-9.721064562109475e-07,9.540432699831247e-07,-2.249658093904309e-06,-2.3351017975215978e-06,-1.7675562054573958e-06
-1.298156833292368e-06,-1.1344354203030886e-06,-1.4508862661506303e-06,-1.740629520987906e-06,-1.1082870726920883e-06,-8.164234655865166e-08,3.782600552295578e-06,-1.4573062191944479e-06,5.167561382647513e-06,-9.46193483659346e-07,-4.846028950778163e-07,-1.3091717483195664e-06,-1.4017825731802635e-06,-8.848716498565586e-07,9.594281348586134e-07,-2.1737728059397616e-06,-2.274817342696379e-06,-1.7614161667497721e-06
-1.3656775859596274e-06,-1.0675704175745972e-06,-1.4694747348911523e-06,-1.7103944178829687e-06,-1.116015668184648e-06,-5.110218501410412e-08,3.799541094668466e-06,-1.8016986219726408e-06,3.836464015406654e-06,-9.337064352838182e-07,-5.635533010786811e-07,-1.287609287778434e-06,-1.4343018704749146e-06,-8.656029656657318e-07,9.828485172103306e-07,-2.115176644474939e-06,-2.193981654961381e-06,-1.757783754600725e-06
-1.421061949240765e-06,-1.0278124497719277e-06,-1.4979214970115762e-06,-1.7101898527204752e-06,-1.1336397007821998e-06,-2.407319395098196e-08,3.826881768611055e-06,-1.984733336224497e-06,2.8243160042083043e-06,-9.278318735291054e-07,-6.347723832146438e-07,-1.2820675374406139e-06,-1.4717640912736271e-06,-8.795266913500417e-07,1.0097653508070476e-06,-2.0911589706949406e-06,-2.1107213786443674e-06,-1.7543361030050677e-06
-1.454008510168709e-06,-1.055782449596813e-06,-1.5245721314647812e-06,-1.756950901827774e-06,-1.1484025172033622e-06,-2.63570872961197e-09,3.85825941287951e-06,-1.959044721633091e-06,2.3616820328684496e-06,-9.264707769472246e-07,-6.886076990340384e-07,-1.2884360797617811e-06,-1.4936361009482945e-06,-9.187566434115666e-07,1.0290359967147911e-06,-2.1027887981661174e-06,-2.040398344256229e-06,-1.7496810532820278e-06
-1.4532535544817095e-06,-1.1419642486053636e-06,-1.5382648837005989e-06,-1.795065709063445e-06,-1.1508342279202918e-06,8.318732194660206e-09,3.892768971165861e-06,-1.7001848142977948e-06,2.4834353485393077e-06,-9.268487169376398e-07,-7.354448039925341e-07,-1.302085761986041e-06,-1.5170702547082971e-06,-9.480251006014448e-07,1.0368398388326017e-06,-2.143596025948348e-06,-1.9909576162674905e-06,-1.7391493902292662e-06
-1.4410794540514668e-06,-1.234201750579246e-06,-1.5358129451268705e-06,-1.8194453616972233e-06,-1.1380850943456221e-06,1.2577471429797761e-08,3.932164174885309e-06,-1.235984359310307e-06,3.0263395891964287e-06,-9.282494837347671e-07,-7.743230793085254e-07,-1.3191937269420056e-06,-1.5415335742382052e-06,-9.575466984565174e-07,1.0347209503464373e-06,-2.195514886781009e-06,-1.9639940707733996e-06,-1.7209610269251112e-06
-1.4222983572540836e-06,-1.319947564839091e-06,-1.5217709456672586e-06,-1.8418223658738934e-06,-1.109132449223869e-06,1.3501197144675301e-08,3.9715608640107325e-06,-6.45565727088451e-07,3.776141612325679e-06,-9.334445000591609e-07,-8.08618015223917e-07,-1.3364119923310305e-06,-1.5630995989663438e-06,-9.536193325395055e-07,1.0200635173858712e-06,-2.2602461697677838e-06,-1.953268881953176e-06,-1.6932646275496978e-06
-1.3989577904792367e-06,-1.4073295406385697e-06,-1.5019193963949812e-06,-1.86110658793137e-06,-1.0678961256072345e-06,1.5738513752567134e-08,4.003518705081659e-06,-6.292975501468555e-08,4.537957631679631e-06,-9.41282318071803e-07,-8.424667321150809e-07,-1.3500738486097943e-06,-1.584757956135746e-06,-9.456090810134344e-07,1.0066323361089473e-06,-2.3330741912825725e-06,-1.947856547183971e-06,-1.6489448977617834e-06
-1.3856546282829538e-06,-1.4539784682523792e-06,-1.483120556216292e-06,-1.8792376207053858e-06,-1.0286823811291096e-06,2.3830093339982285e-08,4.027424592019154e-06,3.8550381207359807e-07,5.169488579827565e-06,-9.512450193110389e-07,-8.762357618777343e-07,-1.3564148964469e-06,-1.6069998739817384e-06,-9.448204307673111e-07,9.92926809520538e-07,-2.3941928555292473e-06,-1.9400473825681687e-06,-1.5875657877770472e-06
-1.3821264086240002e-06,-1.4788977626606896e-06,-1.4701276371891275e-06,-1.8952183876978223e-06,-1.004155051384596e-06,3.968744513136232e-08,4.045909641129486e-06,6.160554829365232e-07,5.569005794961398e-06,-9.634130986160863e-07,-9.089298067718552e-07,-1.352741713291586e-06,-1.6289282295973454e-06,-9.576694874034614e-07,9.8993646150983e-07,-2.426594883881917e-06,-1.9298559486216813e-06,-1.5076932242593543e-06
-1.3846342112430556e-06,-1.4954350505161825e-06,-1.4650514116975138e-06,-1.906152700412056e-06,-1.0014538030151548e-06,6.750982107653476e-08,4.0672069346960414e-06,5.934791846575129e-07,5.7424094451201784e-06,-9.75785338701459e-07,-9.386269273005422e-07,-1.3384001586235955e-06,-1.6489121482603405e-06,-9.8234419371769e-07,1.005381283348837e-06,-2.4113443783001317e-06,-1.925496929430512e-06,-1.430263168959238e-06
-1.3932526190722333e-06,-1.4980386078012168e-06,-1.4674853532661257e-06,-1.9123298098136064e-06,-1.0215691457017732e-06,1.1504185843328612e-07,4.077536684920262e-06,3.3906004369699913e-07,5.686636827456306e-06,-9.913832781447006e-07,-9.640153177183949e-07,-1.3148850027398156e-06,-1.665308711800078e-06,-1.011615025477958e-06,1.0344826430657126e-06,-2.35730040819613e-06,-1.937492644384246e-06,-1.3947837891242787e-06
-1.4050342389493139e-06,-1.4998092646393495e-06,-1.4719379495139455e-06,-1.911050063430408e-06,-1.059031446925493e-06,1.7773724565369843e-07,4.087198340545014e-06,-6.706909327503411e-08,5.4796545510520004e-06,-1.0103265590735227e-06,-9.838210975356676e-07,-1.285257928438107e-06,-1.6769612027230856e-06,-1.04180442196882e-06,1.0740825298556253e-06,-2.2875948247809125e-06,-1.9707118373805788e-06,-1.4344326689994545e-06
-1.4197147015006744e-06,-1.5005446539008e-06,-1.475442415024625e-06,-1.9072150544295502e-06,-1.1059618298852648e-06,2.4308089253122474e-07,4.0868445288630225e-06,-5.025174948514525e-07,5.3109900267366625e-06,-1.0271805881921568e-06,-9.986466447458253e-07,-1.253237081167154e-06,-1.6833543173322104e-06,-1.0723752403158675e-06,1.1248553188700383e-06,-2.217976899373213e-06,-2.01875867454803e-06,-1.5634134954475892e-06
-1.4372351898973662e-06,-1.497288205879259e-06,-1.4746786469600918e-06,-1.910428924694358e-06,-1.1558781484116937e-06,3.0625986039113516e-07,4.077435209475437e-06,-8.387163529305491e-07,5.368975718696894e-06,-1.0451189204159018e-06,-1.0128069719412824e-06,-1.2221985157388149e-06,-1.6845928022650822e-06,-1.1099159693066822e-06,1.1749394433689925e-06,-2.1424813118319578e-06,-2.0683398640326014e-06,-1.7605520617147418e-06
-1.455493180993179e-06,-1.487304117672167e-06,-1.4650711239997535e-06,-1.922607223866905e-06,-1.1982532422154774e-06,3.617554278405925e-07,4.064771924212793e-06,-9.839039749723534e-07,5.809473523900855e-06,-1.0655422829193309e-06,-1.0253833296211523e-06,-1.1950745608835454e-06,-1.681505701117875e-06,-1.157910091710645e-06,1.2194931830266424e-06,-2.083478578923286e-06,-2.104289047248507e-06,-1.9772305932025262e-06
-1.471132886236329e-06,-1.486737161420422e-06,-1.4448120443942402e-06,-1.941757310692375e-06,-1.218257443464681e-06,4.0723732614500534e-07,4.029866249892265e-06,-9.204819974027914e-07,6.675595109224059e-06,-1.086923120691459e-06,-1.0356517567896109e-06,-1.1705005496671638e-06,-1.6756604370688691e-06,-1.2104075007627584e-06,1.2580698294765585e-06,-2.040735393526697e-06,-2.1198318449130358e-06,-2.169788774905474e-06
-1.4805297618499121e-06,-1.486029512451905e-06,-1.4157900508543725e-06,-1.9682009613427956e-06,-1.2138207900555249e-06,4.438738409025986e-07,3.9831981234600095e-06,-6.993830435834217e-07,7.849499979769042e-06,-1.1086287522968115e-06,-1.0424215136480594e-06,-1.1483590135778054e-06,-1.6687141665266518e-06,-1.2549235964903157e-06,1.287430424495554e-06,-2.004188087418442e-06,-2.1186021007573033e-06,-2.2975817907605374e-06
-1.4808639298860486e-06,-1.4825258223598919e-06,-1.3820486796007587e-06,-1.9997890167519152e-06,-1.1871694911797436e-06,4.7011776201197314e-07,3.93369956344376e-06,-4.145939706676178e-07,8.610620236097559e-06,-1.123721125128296e-06,-1.0442940120235968e-06,-1.12830597629262e-06,-1.661170481674366e-06,-1.2748397765152236e-06,1.3124126338927157e-06,-1.9580456862435716e-06,-2.108775720216522e-06,-2.331888201827947e-06
-1.4706202067675264e-06,-1.4809449036580754e-06,-1.3477953928910323e-06,-2.0231151721907397e-06,-1.144759001214609e-06,4.845351348609133e-07,3.88850857214608e-06,-1.70563335379234e-07,8.724620851326302e-06,-1.1292236419254816e-06,-1.0405435392134967e-06,-1.1089639456262926e-06,-1.6515057921510002e-06,-1.2573430407474982e-06,1.3389483077895546e-06,-1.9068771833646092e-06,-2.0971045941273964e-06,-2.260473183689891e-06
-1.4493130811156608e-06,-1.479141800925842e-06,-1.3281532506598072e-06,-2.043743913105071e-06,-1.0901130494450567e-06,4.892477244288917e-07,3.8578667274271766e-06,-3.919273786701604e-08,7.702046731357694e-06,-1.1232543595018522e-06,-1.0304633912993387e-06,-1.0909647800663718e-06,-1.6366686391706833e-06,-1.1998711054634696e-06,1.3535566308699465e-06,-1.8533977848382119e-06,-2.0846110295867588e-06,-2.0837088138016194e-06
-1.418010253846726e-06,-1.4790356093269569e-06,-1.3221417329806738e-06,-2.05620341524499e-06,-1.0441165573505117e-06,4.902173755993716e-07,3.861391666787355e-06,-3.4260964179578284e-08,6.011410317717014e-06,-1.1046852476921984e-06,-1.0140134289882202e-06,-1.073511862237637e-06,-1.6139474330674204e-06,-1.112879181622168e-06,1.3690030283372997e-06,-1.8061045381427116e-06,-2.0659234371888504e-06,-1.827663553537714e-06
-1.3792238019842914e-06,-1.4719967046357884e-06,-1.3216734072217848e-06,-2.0555538746662948e-06,-1.0075498231399013e-06,4.90997126833107e-07,3.8909679426819145e-06,-1.2051627241353758e-07,4.631827385920617e-06,-1.0720829215164079e-06,-9.911376973601999e-07,-1.0564246924081625e-06,-1.5828853127858384e-06,-1.013406216979872e-06,1.3887658836206422e-06,-1.792206046347995e-06,-2.032494698803745e-06,-1.5430938491919336e-06
-1.336717037006747e-06,-1.4620775454786576e-06,-1.3221424012083038e-06,-2.044684388673271e-06,-9.806642902593836e-07,4.978657957652209e-07,3.941695832488962e-06,-2.261076108217142e-07,2.5981180454280658e-06,-1.029969116733177e-06,-9.610178217117126e-07,-1.0399754044985544e-06,-1.5457248907076577e-06,-9.189560125787608e-07,1.4194949693353374e-06,-1.7909213113206024e-06,-1.978250002637846e-06,-1.2853693244192708e-06
-1.2946043762739119e-06,-1.4487174287301431e-06,-1.318140326870234e-06,-2.027003201730758e-06,-9.69148361134723e-07,5.132061785362234e-07,4.012129123392593e-06,-2.915622478572772e-07,7.749052253308847e-08,-9.871123906487553e-07,-9.240115772564103e-07,-1.0245373652680408e-06,-1.5063255848457484e-06,-8.440209569657591e-07,1.4640317768465679e-06,-1.7942465870851774e-06,-1.9010328123342556e-06,-1.114475616596101e-06
-1.2562301166203258e-06,-1.437301938571963e-06,-1.3111604554239816e-06,-2.0133132254247937e-06,-9.682752669478502e-07,5.36160514831779e-07,4.080724685861431e-06,-2.934034553538723e-07,-5.539952021823953e-07,-9.431949795970966e-07,-8.83636603330122e-07,-1.0102756506506721e-06,-1.4687772304302809e-06,-7.985771377684243e-07,1.513618956863772e-06,-1.8054909238655395e-06,-1.8100122061043469e-06,-1.0627413873979565e-06
-1.2237487950387373e-06,-1.4318206289876286e-06,-1.3075331845814014e-06,-2.0052478022656552e-06,-9.80093559597352e-07,5.674923194837642e-07,4.130279577547182e-06,-2.3246814660765674e-07,-4.038370080073648e-08,-9.026642450344995e-07,-8.414079880386086e-07,-9.977599476401806e-07,-1.4363817415537216e-06,-7.87631828935627e-07,1.5531311801208534e-06,-1.8330492167323928e-06,-1.7228538588434207e-06,-1.1308622704170064e-06
-1.1979658080453708e-06,-1.4296575622026868e-06,-1.3114445147576936e-06,-2.003452187246031e-06,-1.001607272358629e-06,6.005763475211467e-07,4.20686682234084e-06,-1.2807566801752885e-07,-7.608096574251658e-08,-8.526082664392224e-07,-7.99724899294591e-07,-9.87915296182276e-07,-1.4105937699941777e-06,-8.088192228724258e-07,1.5733015099355188e-06,-1.8848256367347553e-06,-1.649512567128868e-06,-1.2984518179329409e-06
-1.1783860340898287e-06,-1.4328084047892285e-06,-1.3247940010719194e-06,-2.0242248731768685e-06,-1.033541901143901e-06,6.439073504215522e-07,4.274577536514767e-06,1.0969394565366881e-08,-1.499710920100818e-07,-7.950291886222503e-07,-7.658203198735838e-07,-9.778613260916791e-07,-1.3901861846991924e-06,-8.526218546078739e-07,1.6166442633121954e-06,-1.970248177937537e-06,-1.597838648966656e-06,-1.5190735495002918e-06
-1.1644305673399707e-06,-1.4405189579900814e-06,-1.3631319791868038e-06,-2.070638807592927e-06,-1.0843928622915884e-06,7.062767096671377e-07,4.325430749145969e-06,1.719228323448138e-07,4.531707102585314e-07,-7.45419253796757e-07,-7.374127864789439e-07,-9.662560303703526e-07,-1.3721924904026293e-06,-9.030147394921455e-07,1.6510569830838724e-06,-2.0872173012679534e-06,-1.5725941831292925e-06,-1.7705009074699756e-06
-1.1520289624899895e-06,-1.4567860087777857e-06,-1.415127496301917e-06,-2.121993106120308e-06,-1.1448943398596511e-06,7.572926715524021e-07,4.362242141694879e-06,3.261363665087167e-07,2.010810907968235e-06,-7.055568558615397e-07,-7.032403166514764e-07,-9.502413623863093e-07,-1.3512159844912916e-06,-9.428201097366245e-07,1.675818053757245e-06,-2.234714575195319e-06,-1.5734171423622084e-06,-2.0627073576248135e-06
-1.1406528951709086e-06,-1.4820367913082144e-06,-1.4758884643380924e-06,-2.161727106912018e-06,-1.190894427204314e-06,7.925261149278568e-07,4.366076347344181e-06,4.175799951594732e-07,3.623274789920393e-06,-6.807173044709639e-07,-6.639203461278085e-07,-9.178312812828986e-07,-1.3224833951497927e-06,-9.60103904022463e-07,1.694419207405832e-06,-2.3542853525061258e-06,-1.597258684616523e-06,-2.3385640329356782e-06
-1.1319930353694738e-06,-1.4982509302403083e-06,-1.5408553914251409e-06,-2.1811063402242e-06,-1.2303865426322095e-06,8.107561528298295e-07,4.347938580385822e-06,3.7962224963926324e-07,4.680952320658305e-06,-6.605278057158687e-07,-6.11405095977696e-07,-8.847340377936745e-07,-1.2817710187912667e-06,-9.515345546601926e-07,1.6921463408256526e-06,-2.4363876565156844e-06,-1.6345577161576738e-06,-2.535579197196972e-06
-1.1257874046271232e-06,-1.5001567139638647e-06,-1.5955334474769836e-06,-2.1653949707310426e-06,-1.2729377766813676e-06,8.240222120533888e-07,4.334054277393558e-06,1.7601550811745893e-07,5.224327569258913e-06,-6.403803853032717e-07,-5.448545112496153e-07,-8.371321264552873e-07,-1.2266783496699893e-06,-9.223953731416937e-07,1.6963970181714864e-06,-2.5254759975821453e-06,-1.668955955538605e-06,-2.6024819382081287e-06
-1.1237612476746735e-06,-1.5074955389761607e-06,-1.6345026745034867e-06,-2.1398471826865758e-06,-1.3081361573656864e-06,8.393636291379967e-07,4.3546085485017026e-06,-1.1592411756573135e-07,5.459656369575722e-06,-6.046611801491499e-07,-4.755724828326103e-07,-7.642686941264296e-07,-1.1550954800127672e-06,-8.823421390372896e-07,1.7207807358911742e-06,-2.587125988176638e-06,-1.6477810574595068e-06,-2.4538153944384275e-06
-1.120047377718344e-06,-1.5220447902293302e-06,-1.683594803600795e-06,-2.125484907346498e-06,-1.34521088838703e-06,8.693127013006827e-07,4.406835038435443e-06,-3.724368462803092e-07,5.254477035540029e-06,-5.409049384988424e-07,-3.98594558895463e-07,-6.701371545208519e-07,-1.0632497607021972e-06,-8.408967131219009e-07,1.8289429359887805e-06,-2.6410596681055236e-06,-1.587186310507124e-06,-2.2533095866709716e-06
-1.1080980225079371e-06,-1.5435993258205129e-06,-1.74060416247789e-06,-2.156294611937349e-06,-1.3963008851715066e-06,9.59968097176982e-07,4.526115075193295e-06,-4.520682856139511e-07,4.855471058809735e-06,-4.829340704586672e-07,-2.982113724151332e-07,-5.750946090914398e-07,-9.520668240550904e-07,-8.057405713300183e-07,1.979078271995565e-06,-2.618140283209251e-06,-1.4846922911029978e-06,-2.1284050069174747e-06
-1.075665511872217e-06,-1.6171210825006625e-06,-1.8170614883540987e-06,-2.2512862893076505e-06,-1.4180248608166484e-06,1.0298486767048824e-06,4.622267438447633e-06,-2.4424361597208546e-07,4.454827548158724e-06,-4.2893327547433923e-07,-1.73134094995385e-07,-5.189200582374653e-07,-8.174573631806588e-07,-7.845772174733485e-07,2.0186724213636813e-06,-2.5697615965522134e-06,-1.3252008894519804e-06,-2.1991910558290973e-06
-1.0166846976894418e-06,-1.663320415247511e-06,-1.9824008515990963e-06,-2.3486047393815585e-06,-1.4995990233459778e-06,1.090762573591759e-06,4.682311493837852e-06,2.591722830817058e-07,4.133250584884717e-06,-3.775496719758068e-07,-1.1409727491601971e-08,-5.460297204386286e-07,-6.710785516738393e-07,-7.86286179166624e-07,2.0561351797727316e-06,-2.4731162962539548e-06,-1.1772630952652158e-06,-2.6013435395105013e-06
-9.199538498026687e-07,-1.7004957790897e-06,-2.0793771840342966e-06,-2.423670437336807e-06,-1.583245651458396e-06,1.14919581205706e-06,4.765534199869926e-06,9.794221754151677e-07,4.036683075830127e-06,-3.3251856037465017e-07,1.513250301013882e-07,-6.257751560745448e-07,-5.418962410998951e-07,-8.191751945374531e-07,2.091508366739273e-06,-2.5438650592908414e-06,-9.812919316570425e-07,-2.818788952046181e-06
-8.496939464114233e-07,-1.7296770613098843e-06,-2.112009431921966e-06,-2.505361041474382e-06,-1.5997187919365033e-06,1.1779438464367626e-06,4.793934947427437e-06,1.7576991914932733e-06,4.037422901890634e-06,-2.8306810799465546e-07,2.698529030211208e-07,-6.67157361658456e-07,-5.025078663199881e-07,-8.870426774120508e-07,2.1190447333649957e-06,-2.804255346429637e-06,-7.810669968904677e-07,-2.875284945247415e-06
-8.030378717965812e-07,-1.7453360985082968e-06,-2.1401636444788253e-06,-2.546672517220596e-06,-1.5349406216815746e-06,1.1943140240186379e-06,4.838364461469852e-06,2.402219363445625e-06,4.210704171204472e-06,-2.2953468300795757e-07,3.6146995410409904e-07,-7.056501526240798e-07,-4.829135234267855e-07,-9.857806220177379e-07,2.121725268077738e-06,-3.0557396522009205e-06,-6.170769289181666e-07,-2.7716359635402833e-06
-6.581421769842324e-07,-1.7427092893179624e-06,-2.165619725644322e-06,-2.5679660163395537e-06,-1.451127274262956e-06,1.2020623256772692e-06,4.859557944511827e-06,2.7480568680706453e-06,4.627064637897873e-06,-1.8142764076076377e-07,4.2922264971610505e-07,-7.326604980975149e-07,-4.863961317246881e-07,-1.1037459468577722e-06,2.1503737499019645e-06,-3.215303398667813e-06,-4.79949175725384e-07,-2.6550451261375933e-06
-5.33742584038761e-07,-1.7571601314001513e-06,-2.2063625976890815e-06,-2.566952131151294e-06,-1.5012549828281728e-06,1.2596039279803836e-06,4.856885415587452e-06,2.72782726680653e-06,5.213182238670947e-06,-1.4439186472435936e-07,4.872176614607624e-07,-8.153287421674915e-07,-5.53009304483923e-07,-1.2254697558583434e-06,2.161230432228293e-06,-3.246243284524062e-06,-4.150714030326299e-07,-2.7037159413527953e-06
-5.325609850500771e-07,-1.774646567661859e-06,-2.2071432254107678e-06,-2.5489263734749713e-06,-1.5322098573834954e-06,1.3352083368114102e-06,4.903104907511709e-06,2.3797249422702496e-06,5.957350682218491e-06,-1.2922489369294088e-07,5.266569451242353e-07,-9.282064863704126e-07,-6.414335439211548e-07,-1.335836094585692e-06,2.1635079108486192e-06,-3.214317743494577e-06,-4.1139413513087675e-07,-2.8658670995201504e-06
-5.064891863787592e-07,-1.8442343849714427e-06,-2.2473173806588112e-06,-2.5310615199645038e-06,-1.545857954523679e-06,1.3417782766812584e-06,4.923079720225161e-06,1.825587873864322e-06,6.741830776432965e-06,-1.1218619083697776e-07,5.346527140000107e-07,-1.0218824893259817e-06,-7.03589245394718e-07,-1.4245491185465302e-06,2.1808963062643527e-06,-3.2929879682666363e-06,-4.269181527736671e-07,-2.946342335549514e-06
-4.933382618720767e-07,-1.901054608848151e-06,-2.285723276838753e-06,-2.5361461350524376e-06,-1.572987574391194e-06,1.3549431764346967e-06,4.962283109668885e-06,1.2301767028095632e-06,7.355294286926169e-06,-1.0010850121638222e-07,4.881693063575234e-07,-1.071433384250886e-06,-7.122286023428637e-07,-1.486387549138875e-06,2.1910155917930047e-06,-3.3900937452423e-06,-4.08955554150587e-07,-2.981161771560246e-06
-4.6146828475970606e-07,-1.9396460751193258e-06,-2.3781963074588587e-06,-2.5459979616026694e-06,-1.650634349556767e-06,1.3725857464796836e-06,4.991777573201397e-06,7.456526550723152e-07,7.611216570744747e-06,-4.966477092407316e-08,4.3053683195190916e-07,-1.086169277336029e-06,-6.845132191286198e-07,-1.5203933777185265e-06,2.224303693609483e-06,-3.4246991446929393e-06,-3.736756863768341e-07,-2.9802968795821974e-06
-4.564046064699476e-07,-1.960427708237184e-06,-2.5617659058561246e-06,-2.561365290066917e-06,-1.6989635510428766e-06,1.3513629677682554e-06,4.951148105972511e-06,4.754679222532809e-07,7.283639618718485e-06,-9.301785906865423e-09,3.681243966778854e-07,-1.0925903665078042e-06,-6.548184759176018e-07,-1.5283984851432612e-06,2.2048084510846363e-06,-3.563974560464231e-06,-2.967635958382029e-07,-2.897290526237984e-06
-5.044375439840961e-07,-2.037368458743667e-06,-2.6812375242138623e-06,-2.6336294586147786e-06,-1.6977869499353002e-06,1.3434488200543992e-06,4.934130481436374e-06,4.677598687634885e-07,6.23725830766176e-06,-3.5900310772626407e-09,3.118840124617112e-07,-1.0928336026091976e-06,-6.317238213514471e-07,-1.5129649047634506e-06,2.2254501056297418e-06,-3.7408673630805816e-06,-2.4998126067683685e-07,-2.8479067577417304e-06
-5.446989570681341e-07,-2.089327305551226e-06,-2.764797749285506e-06,-2.662984111361503e-06,-1.7061435314902814e-06,1.4007769396923627e-06,4.918467981145773e-06,6.141887711075723e-07,4.874526295667711e-06,3.1509252377356707e-09,2.6782935080545433e-07,-1.0918593701892884e-06,-6.164008939808662e-07,-1.4775618590464927e-06,2.2651002825456477e-06,-4.015988132883702e-06,-2.7586951590301974e-07,-2.8001934341599516e-06
-5.875019515745713e-07,-2.1311999683317315e-06,-2.7590483462693747e-06,-2.662690869224849e-06,-1.751144096584083e-06,1.4418129997041666e-06,4.946486285146141e-06,7.924820029708092e-07,3.4203926051009143e-06,5.950781062859795e-09,2.3044501161020096e-07,-1.093007389640209e-06,-6.097625827258806e-07,-1.427267062956637e-06,2.277398164771021e-06,-4.315815501812955e-06,-3.800428161596298e-07,-2.723387668404664e-06
-6.322304217938011e-07,-2.1396249375700057e-06,-2.74719654946503e-06,-2.6576683899396797e-06,-1.7963718050601067e-06,1.4372665898616358e-06,5.003880073995417e-06,9.024963571958864e-07,2.810528865015007e-06,1.7954800837865953e-08,2.0563716825714902e-07,-1.0721740276361046e-06,-6.070848928653828e-07,-1.3687848480842144e-06,2.341308604262525e-06,-4.523571281865025e-06,-5.088296526459372e-07,-2.616525221714845e-06
-6.537364768919441e-07,-2.09620596008578e-06,-2.7175522925241306e-06,-2.6551672568690925e-06,-1.867919896011741e-06,1.4097069431958121e-06,4.996878931678511e-06,8.83890271738612e-07,2.732866346955793e-06,2.4489722669579677e-08,1.7158262011755915e-07,-1.0379286919629014e-06,-6.102074987192648e-07,-1.3075215327009608e-06,2.3566208319076452e-06,-4.7056136868662904e-06,-5.877670716014503e-07,-2.3476587948779588e-06
-6.660625189037477e-07,-2.054549307898803e-06,-2.6623680938087952e-06,-2.6648312616237204e-06,-1.9466738764120193e-06,1.3549630858978752e-06,4.952754676102671e-06,7.617201497363918e-07,2.352544740740394e-06,2.484095507185833e-08,1.4071515368080162e-07,-1.0081034176853874e-06,-6.223416687710903e-07,-1.2462194746331094e-06,2.3312400577716688e-06,-4.824473316561087e-06,-6.12364202269762e-07,-2.36107096805983e-06
-6.739982616897225e-07,-2.023608315101585e-06,-2.6528809152773173e-06,-2.6832298365509808e-06,-2.003469846630655e-06,1.2838387780726735e-06,4.905596865948579e-06,5.742757090213126e-07,2.1107687365569338e-06,2.5214416302667296e-08,1.1615080095549915e-07,-1.0055265613473708e-06,-6.450614910174053e-07,-1.1870392926308126e-06,2.3025860515480605e-06,-4.9900459982684805e-06,-5.799707799276009e-07,-2.5874295081719154e-06
-6.917735810919749e-07,-2.0223331882530848e-06,-2.667916073793539e-06,-2.6837645342078783e-06,-2.0511343398372886e-06,1.233328873085046e-06,4.875389596382263e-06,3.69200109061144e-07,3.5319084459773922e-06,1.2969891731293695e-08,9.27492019220375e-08,-1.029091437735377e-06,-6.779292591791783e-07,-1.1357471167909354e-06,2.241047371079236e-06,-5.132175785020918e-06,-5.425987964295649e-07,-2.9271996699471582e-06
-7.251477744347942e-07,-2.0422189494887657e-06,-2.6968505584978288e-06,-2.7100632920709457e-06,-2.0953123501050768e-06,1.2100017145438641e-06,4.877474806393188e-06,1.574306984706593e-07,5.079970240372665e-06,-5.6320231622103145e-09,8.217913168393907e-08,-1.064110167666232e-06,-7.178726418884429e-07,-1.1043137252835052e-06,2.206929037017485e-06,-5.313512956076962e-06,-5.222682816366341e-07,-3.211228813387889e-06
-7.649423594081761e-07,-2.0800908878681523e-06,-2.735041264633944e-06,-2.7520621030759955e-06,-2.1367418377878027e-06,1.2472822660615566e-06,4.895151756908844e-06,-7.607212649416855e-08,6.986637703196639e-06,-2.65766727757301e-08,7.283213928125785e-08,-1.101713542450139e-06,-7.60642331877738e-07,-1.1073112918552474e-06,2.220586955506517e-06,-5.274351806537399e-06,-5.180040436775949e-07,-3.2525347960551675e-06
-8.03917556722182e-07,-2.099740295477644e-06,-2.7621280982731587e-06,-2.7939901128306975e-06,-2.204413520454066e-06,1.3108785945534226e-06,4.9096424053125805e-06,-3.5715860531784247e-07,8.634808261282975e-06,-4.40053019808851e-08,6.870718594422145e-08,-1.1303561313648836e-06,-8.027402585669066e-07,-1.1538802942071423e-06,2.265870400174848e-06,-5.1620394145355145e-06,-5.079459236839921e-07,-3.1828328402239284e-06
-8.330349095329466e-07,-2.053304585728577e-06,-2.7738551347000227e-06,-2.8505177547412223e-06,-2.279643545173907e-06,1.3681877610558062e-06,4.8460868998586865e-06,-6.862196332323396e-07,9.789306632078431e-06,-5.7790852148983524e-08,6.735508973253385e-08,-1.1556713879665585e-06,-8.429993753258955e-07,-1.2413560687826546e-06,2.3053873309213147e-06,-5.084738780945716e-06,-5.068097042658748e-07,-3.1961835561116627e-06
-8.480285191363165e-07,-2.0362467112539377e-06,-2.7800498992219344e-06,-2.8999659225151146e-06,-2.3466761991422355e-06,1.382604767087176e-06,4.826374533781546e-06,-1.001322073333894e-06,8.880245428105027e-06,-7.494919783417516e-08,7.017824095576919e-08,-1.1801757688040733e-06,-8.844755456493739e-07,-1.3551991583114018e-06,2.313935521194807e-06,-4.904183274313447e-06,-5.284259856610503e-07,-3.277052971829508e-06
-8.473039002373494e-07,-2.054681084722062e-06,-2.774074155226297e-06,-2.944413178388155e-06,-2.403860600686318e-06,1.308169162754325e-06,4.802405511090537e-06,-1.2238083596256914e-06,7.84468601641856e-06,-9.765298079460006e-08,7.015414701369285e-08,-1.2099634352941145e-06,-9.353481777285179e-07,-1.4757229137381447e-06,2.307096504600966e-06,-4.669766963204684e-06,-5.985320786252507e-07,-3.421847619694003e-06
-8.339974270916564e-07,-2.1227140940587283e-06,-2.7592764439157186e-06,-2.9857925646874214e-06,-2.446130393691987e-06,1.2543341213257947e-06,4.755879793889305e-06,-1.30894476549531e-06,6.765346148433447e-06,-1.0562205722201704e-07,3.110744386864982e-08,-1.2576515496088822e-06,-1.0072099036972863e-06,-1.58648254769989e-06,2.213517573497079e-06,-4.541270720782042e-06,-7.125281909888753e-07,-3.452669498345547e-06
-8.156318296783148e-07,-2.1791209410057332e-06,-2.7443829047741692e-06,-3.0332916462730214e-06,-2.4811817478428173e-06,1.2322564516632329e-06,4.737187702590379e-06,-1.285435706203215e-06,5.899466797778357e-06,-1.3044989591605427e-07,-5.929805198015739e-08,-1.332949209064171e-06,-1.1102306979243703e-06,-1.6784678630492699e-06,2.157768170473567e-06,-4.446699864453691e-06,-8.554327187593945e-07,-3.2873973472638167e-06
-7.918982236547779e-07,-2.1860062957733457e-06,-2.745965981575855e-06,-3.0630704560312732e-06,-2.5096444459896316e-06,1.2123859837017966e-06,4.709558169189333e-06,-1.2541952172911842e-06,5.083673219992426e-06,-2.000671899395879e-07,-1.6176309955851442e-07,-1.4389390864048189e-06,-1.2471393980497959e-06,-1.7487135039982144e-06,2.20260115715171e-06,-4.319428786495006e-06,-1.020001009013337e-06,-3.171671749528864e-06
-7.976295753766777e-07,-2.157364095895676e-06,-2.7595328147436253e-06,-3.0815839571406494e-06,-2.5361743694353297e-06,1.205025950701454e-06,4.653171829835005e-06,-1.2617707631707498e-06,4.1585205506126635e-06,-3.2052089713425307e-07,-2.978257790035651e-07,-1.567114175626765e-06,-1.4099086163067078e-06,-1.7972258299184297e-06,2.2706549135530693e-06,-4.290135893393504e-06,-1.1881906810067672e-06,-3.1989655924000383e-06
-8.116200312635158e-07,-2.1375531180474856e-06,-2.7795049118927663e-06,-3.091940755675012e-06,-2.563002802212077e-06,1.1627109926947478e-06,4.566085530937126e-06,-1.3207746131084457e-06,3.1970244396563843e-06,-4.5611641217955494e-07,-4.941342823299224e-07,-1.699256889803196e-06,-1.581550410900091e-06,-1.8263165735202344e-06,2.299394562382996e-06,-4.3210399150748835e-06,-1.3490637796411471e-06,-3.3553173927600218e-06
-8.753932864488939e-07,-2.1139720534202746e-06,-2.7884234007659156e-06,-3.0828612577743687e-06,-2.581330510662624e-06,1.0642486066807865e-06,4.502977411966118e-06,-1.4037204042711512e-06,2.8649458625974683e-06,-5.79824168641429e-07,-6.845570618052142e-07,-1.8150958482402179e-06,-1.7422094718367963e-06,-1.8404114352246413e-06,2.2598759323715032e-06,-4.369076413900956e-06,-1.466351971036032e-06,-3.4646989465061753e-06
-9.201921369467283e-07,-2.106018809935445e-06,-2.7710409814035453e-06,-3.062645781559761e-06,-2.5801586636485807e-06,9.376965478146059e-07,4.401430293692798e-06,-1.4605219651319218e-06,2.981275772629895e-06,-6.775243836005275e-07,-7.640634517864898e-07,-1.9006103939122784e-06,-1.8767345500963927e-06,-1.8437414857300832e-06,2.1636308459835026e-06,-4.52220470989152e-06,-1.5315931387276989e-06,-3.5597467602690848e-06
-9.54400176991384e-07,-2.0973705822979496e-06,-2.7400357425682578e-06,-3.02247343562974e-06,-2.555166108960022e-06,8.491164243746901e-07,4.339964512360562e-06,-1.4745563920525351e-06,3.4495625488177528e-06,-7.571797469836223e-07,-7.798412403933941e-07,-1.9531093747227045e-06,-1.9797700302996553e-06,-1.8374634243673538e-06,2.063560553824777e-06,-4.632350585680055e-06,-1.6606157251058133e-06,-3.506167584040831e-06
-9.925787363813586e-07,-2.0672948696727403e-06,-2.702318669049936e-06,-2.9661696819312696e-06,-2.5241968221973494e-06,7.921496252946091e-07,4.273372344537382e-06,-1.4619837473988536e-06,4.132321509953501e-06,-8.36801753555389e-07,-8.467735394767329e-07,-1.97998583340418e-06,-2.055315788844189e-06,-1.8209196167340068e-06,1.973389191380265e-06,-4.706960828142321e-06,-1.697577195980934e-06,-3.4903295753114613e-06
-1.010803711494086e-06,-2.019226331269308e-06,-2.672204386509229e-06,-2.9120665324660474e-06,-2.4888753474770062e-06,7.739788027207422e-07,4.228266082297977e-06,-1.4636206310562674e-06,4.56764897243105e-06,-8.709814308101158e-07,-8.864530372039786e-07,-1.991903087369981e-06,-2.111024499906663e-06,-1.7968759988018531e-06,1.8678509839844055e-06,-4.7714990198823795e-06,-1.6762357695733543e-06,-3.499420915163022e-06
-9.904606426490617e-07,-1.977042686043856e-06,-2.657274084503257e-06,-2.900762596897004e-06,-2.435925266085321e-06,8.111194907728774e-07,4.180488950040108e-06,-1.4982441167548468e-06,4.589015755624423e-06,-9.121659782012855e-07,-9.288078591825772e-07,-1.995217093433669e-06,-2.1513310492938517e-06,-1.774592822549141e-06,1.794116116185003e-06,-4.7949915834351745e-06,-1.6636200302830308e-06,-3.4292508888138844e-06
-9.55708330848228e-07,-1.947007776519778e-06,-2.6542447020012702e-06,-2.9221280816422687e-06,-2.395754046218738e-06,8.262406283084923e-07,4.050000065180038e-06,-1.5597435321855995e-06,4.223614229036795e-06,-9.507942666958134e-07,-9.568520982334787e-07,-1.9885113010181963e-06,-2.174468686022581e-06,-1.7668444066532959e-06,1.7266201837358215e-06,-4.7090319802793274e-06,-1.6734383054903752e-06,-3.3805364916601262e-06
-9.297851200462867e-07,-1.9174064558528426e-06,-2.652228847363194e-06,-2.956509755018236e-06,-2.3430674351612007e-06,7.867431400237257e-07,3.963185083523568e-06,-1.6272647206294357e-06,3.5535282327340547e-06,-9.801767246267586e-07,-1.0072149457388924e-06,-1.9654235224081524e-06,-2.1750981102969277e-06,-1.7833751225480338e-06,1.668749879664369e-06,-4.637037793367019e-06,-1.6906663451116669e-06,-3.3186686020045065e-06
-9.146880640491849e-07,-1.8910187176353859e-06,-2.6350497481875236e-06,-2.972476624166375e-06,-2.2969242520092617e-06,6.622197449055895e-07,3.9155079700287525e-06,-1.6937089531019404e-06,2.8551011792631474e-06,-1.0017308032867208e-06,-1.0291791949345003e-06,-1.9213046366853077e-06,-2.1500978767616324e-06,-1.8260577046454762e-06,1.6174967018761086e-06,-4.751677033196033e-06,-1.706728863442655e-06,-3.1554508822790804e-06
-9.019221610848883e-07,-1.860625618890445e-06,-2.6032968348461167e-06,-2.9590563005394156e-06,-2.267497667914983e-06,5.093465216921791e-07,3.905523795387505e-06,-1.7731932399763357e-06,2.436771032181021e-06,-1.0178458595363616e-06,-1.000428155752667e-06,-1.8589343038682707e-06,-2.1031561209024426e-06,-1.8884648881443375e-06,1.5583364812336124e-06,-4.7708990520822e-06,-1.7142383278973031e-06,-3.0460573205127164e-06
-8.961740810887171e-07,-1.8219283155284844e-06,-2.5505215642181896e-06,-2.9242002074635145e-06,-2.2415046457540443e-06,3.8435426092730517e-07,3.869572435457325e-06,-1.8681141494458323e-06,2.3550060590498216e-06,-1.0299227192594382e-06,-9.56997798008308e-07,-1.789674568328953e-06,-2.0456104485051884e-06,-1.9591480191299825e-06,1.521848968456492e-06,-4.5914618202795675e-06,-1.692801316930925e-06,-3.1488217816728317e-06
-8.986079386768559e-07,-1.7827241780375682e-06,-2.498728390961028e-06,-2.884232065923099e-06,-2.223789726944548e-06,3.1879003284812125e-07,3.81372564220794e-06,-1.9523916127558217e-06,2.6576980314038345e-06,-1.0382850853205724e-06,-8.9768645543591e-07,-1.7295141150063548e-06,-1.9934832412974464e-06,-2.027302578853681e-06,1.4901097462583132e-06,-4.526552903566644e-06,-1.6581888453159375e-06,-3.3497861877765036e-06
-9.061232254174597e-07,-1.7489394881201084e-06,-2.470811293744705e-06,-2.8513975634129888e-06,-2.2151426557789057e-06,3.0700018081962614e-07,3.7272933545862553e-06,-1.974610770078034e-06,3.26989522467487e-06,-1.0431758015173243e-06,-8.644780734835989e-07,-1.692287185570325e-06,-1.962118247905618e-06,-2.086071657909329e-06,1.4606616916579027e-06,-4.338061354548237e-06,-1.6273916252287204e-06,-3.5646079883845524e-06
-9.159233846583281e-07,-1.714199574465225e-06,-2.4510882286011344e-06,-2.8204316471275914e-06,-2.225646221603371e-06,3.0933773109722447e-07,3.599686531209843e-06,-1.8825479876522868e-06,3.99351694364473e-06,-1.0452097981186656e-06,-8.674278287163901e-07,-1.683857245906843e-06,-1.960330510283937e-06,-2.13094248019364e-06,1.4222554456603024e-06,-4.212844120604866e-06,-1.6125084025187797e-06,-3.480974877647745e-06
-9.242981411883627e-07,-1.678089192562061e-06,-2.4462068070311554e-06,-2.7955009110079873e-06,-2.252206184416281e-06,2.894291580283151e-07,3.4619456961805735e-06,-1.658691771643771e-06,4.628955669421117e-06,-1.038289068324251e-06,-8.78986173502683e-07,-1.6997984853062368e-06,-1.9865255544334946e-06,-2.1570602256740554e-06,1.371940840576524e-06,-4.107682918978286e-06,-1.6291209596725246e-06,-3.317035096219428e-06
-9.26506073209733e-07,-1.6306988636919039e-06,-2.4474123577901584e-06,-2.7734520758734203e-06,-2.2847170056027606e-06,2.3386488278875738e-07,3.3707876847413916e-06,-1.315829727455459e-06,4.991155412824183e-06,-1.0302774056178155e-06,-9.034555139211761e-07,-1.7274672452155314e-06,-2.0290422779134097e-06,-2.1602736321369415e-06,1.3157260951479367e-06,-3.899557057726392e-06,-1.6756997415722717e-06,-3.1824264153982385e-06
-9.181523887701512e-07,-1.5649148804071366e-06,-2.4412095767606394e-06,-2.7464196495597093e-06,-2.316820741342986e-06,1.8650947278599976e-07,3.3030559482158804e-06,-8.94061264298344e-07,4.963177396979476e-06,-1.028146887530604e-06,-9.312115866281571e-07,-1.751116840570413e-06,-2.070396301693338e-06,-2.139443555931409e-06,1.2617587197814144e-06,-3.700088701845649e-06,-1.7357832184492746e-06,-3.062124600729592e-06
-8.972737456004651e-07,-1.482611884170577e-06,-2.4245793142556872e-06,-2.7153110102179966e-06,-2.3520671009370077e-06,1.274270048622796e-07,3.2246435476867062e-06,-4.572767136997739e-07,4.490301571245136e-06,-1.0344391943223709e-06,-9.59797237727814e-07,-1.7570650544633316e-06,-2.093286519659948e-06,-2.095037025263628e-06,1.2195372331054283e-06,-3.5934525495827342e-06,-1.7948357931183192e-06,-3.0037168589796814e-06
-8.653014959393435e-07,-1.3982822609354287e-06,-2.3925723951771863e-06,-2.6818428926900558e-06,-2.3931960348061365e-06,5.756562292480212e-08,3.1407093108442343e-06,-7.487534506591223e-08,3.6432637606639046e-06,-1.0485037492906256e-06,-9.849459525164793e-07,-1.7371210707555047e-06,-2.0855940998052804e-06,-2.026525879293631e-06,1.1856840260811623e-06,-3.566635186443284e-06,-1.8435579747293054e-06,-2.9679140643971485e-06
-8.263159643582134e-07,-1.3147532389663345e-06,-2.3426284585157612e-06,-2.6413769585494723e-06,-2.4222925694379856e-06,-1.0198547912100796e-09,3.085586669502452e-06,2.000535290865891e-07,2.554891777933143e-06,-1.072633340060941e-06,-9.989699877627072e-07,-1.6902057187464166e-06,-2.0432153439253022e-06,-1.935166160916908e-06,1.1641745731369476e-06,-3.498184294205296e-06,-1.8676681754499803e-06,-2.87857150372457e-06
-7.856166341650544e-07,-1.232467535917599e-06,-2.2739909192358643e-06,-2.592299701344697e-06,-2.4325035493248215e-06,-3.861145487105674e-08,3.036284600435967e-06,3.41064145375116e-07,1.4883414737577324e-06,-1.0969430428738162e-06,-9.974845828021258e-07,-1.6223915696577587e-06,-1.9707597753067667e-06,-1.8308180009219636e-06,1.1414252084952392e-06,-3.464038527095121e-06,-1.8638049367955259e-06,-2.7290449719127655e-06
-7.484553455878904e-07,-1.1562521008606248e-06,-2.1932298563022556e-06,-2.5302417571416397e-06,-2.428236222800668e-06,-5.894307931089881e-08,3.020478993786096e-06,3.609570466815933e-07,6.938574593168261e-07,-1.112493656065549e-06,-9.796859939147674e-07,-1.5447553621669261e-06,-1.880050772108007e-06,-1.7335913324527835e-06,1.1172301475067424e-06,-3.3756298119623833e-06,-1.8346406460227164e-06,-2.459711875343931e-06
-7.188000094637585e-07,-1.086944823440822e-06,-2.1001364264798342e-06,-2.456277493463057e-06,-2.38379580434688e-06,-5.434624692065969e-08,3.009445539575878e-06,2.868968357321539e-07,2.529669993576188e-07,-1.113133237455882e-06,-9.527450889051826e-07,-1.4694231196758948e-06,-1.7864616413377009e-06,-1.665966139519995e-06,1.088758691849703e-06,-3.2168474955698197e-06,-1.7839647346736506e-06,-2.216110129788711e-06
-6.981119510990199e-07,-1.0289895602579756e-06,-1.9963554963249794e-06,-2.3678993541024933e-06,-2.3233092714103143e-06,-4.559755801310309e-08,2.9954426591003366e-06,1.2682918078199942e-07,1.6970427844094237e-07,-1.1011624271116583e-06,-9.202556578463141e-07,-1.4055312988836868e-06,-1.7039620788948765e-06,-1.6407997972822206e-06,1.0461889723731136e-06,-3.068711857361203e-06,-1.7191619197912232e-06,-2.0291477011147593e-06
-6.849053540246104e-07,-9.830408772170754e-07,-1.8877966835295562e-06,-2.285994614383423e-06,-2.238973472959423e-06,-3.87168850979539e-08,2.993001654720315e-06,-1.2069134354857465e-07,2.764043534509574e-07,-1.0776079390869578e-06,-8.853516278561538e-07,-1.3572671322913212e-06,-1.6410473779450235e-06,-1.6552256927070793e-06,9.850905442695366e-07,-2.949082035203611e-06,-1.6488437713269999e-06,-1.8864485841479876e-06
-6.757197701516512e-07,-9.467995931435521e-07,-1.7768204727092362e-06,-2.213959162355073e-06,-2.1309342335431728e-06,-2.3611823390800018e-08,2.9932030314233387e-06,-4.388696928460076e-07,4.493932645203497e-07,-1.0401993209545565e-06,-8.50977864323437e-07,-1.3245257128373042e-06,-1.5995367522640719e-06,-1.6949013009661907e-06,9.280812485257656e-07,-2.875803470059904e-06,-1.5786035155237291e-06,-1.825002291685647e-06
-6.6694171510179e-07,-9.175936449295529e-07,-1.6823701601501098e-06,-2.1493748331465793e-06,-2.018644856392762e-06,-9.14530519416543e-09,3.0052617677202242e-06,-7.85597584451192e-07,4.726058382187087e-07,-9.978844806520763e-07,-8.182594804633545e-07,-1.3046777512150234e-06,-1.5758992689296423e-06,-1.7445376154220782e-06,8.730610449602536e-07,-2.8791206241369923e-06,-1.5160205881640191e-06,-1.813573791101486e-06
-6.561739217467544e-07,-8.870914179357709e-07,-1.603528245705711e-06,-2.0965754412902034e-06,-1.9063328321387412e-06,2.4570712127830933e-08,2.975597755707131e-06,-1.0851920410273903e-06,3.02453319634303e-07,-9.544469939447103e-07,-7.899455949148114e-07,-1.294044947839427e-06,-1.5640752427490797e-06,-1.7951307275550134e-06,8.139302991662466e-07,-2.9502044735408498e-06,-1.4580818221501035e-06,-1.8535205854789323e-06
-6.425717737520994e-07,-8.59221296413315e-07,-1.5364108072536944e-06,-2.0511066950813948e-06,-1.8060085554754707e-06,4.893026665577488e-08,2.9451201964776245e-06,-1.2719432633216722e-06,-7.126445450422058e-09,-9.156325944240103e-07,-7.670825633167512e-07,-1.288986869128564e-06,-1.5583428790191698e-06,-1.8431295146199304e-06,7.664115390779895e-07,-3.0242223052167148e-06,-1.403132706752459e-06,-1.949104371835708e-06
-6.266608067630139e-07,-8.352182063451469e-07,-1.4874365665220402e-06,-2.012326064105417e-06,-1.7212386383709514e-06,5.4909884709216726e-08,2.9321559393532657e-06,-1.3210479976532145e-06,-4.273432094981795e-07,-8.860147993378077e-07,-7.488277950934499e-07,-1.2868168113236236e-06,-1.5548576673278661e-06,-1.8854604367310568e-06,7.158206388942453e-07,-3.1439081498210925e-06,-1.3544691158113597e-06,-2.107919858697123e-06
-6.100912950905328e-07,-8.137488110384962e-07,-1.4507072943248159e-06,-1.979283048214333e-06,-1.6561223905555175e-06,5.934406205868082e-08,2.902535617082486e-06,-1.3222847436371452e-06,-8.548931600853443e-07,-8.693578083567649e-07,-7.369698154967257e-07,-1.2863822376134347e-06,-1.5515269952926233e-06,-1.916556557685974e-06,6.675497162684722e-07,-3.2615481361123654e-06,-1.316961528394985e-06,-2.2706900926665177e-06
-5.950761182371783e-07,-7.98897795577032e-07,-1.4240764072665506e-06,-1.953627988451703e-06,-1.6130809769686826e-06,5.539590819370861e-08,2.8763452697097222e-06,-1.4276715412306571e-06,-1.2587814751847425e-06,-8.622471489919637e-07,-7.292546226177192e-07,-1.2878711744941065e-06,-1.5471444654937251e-06,-1.929100772380841e-06,6.233967226800819e-07,-3.340312013289755e-06,-1.3006963861777673e-06,-2.3976072866585436e-06
-5.834195944105136e-07,-7.894231972323207e-07,-1.4102245952432313e-06,-1.9350663791137616e-06,-1.5846012608235847e-06,4.7231994732640897e-08,2.846114385490319e-06,-1.7413643846456032e-06,-1.5717838060606415e-06,-8.616861099929486e-07,-7.246471059591294e-07,-1.2919730784377297e-06,-1.541273376096499e-06,-1.9165757393227125e-06,5.945538051325857e-07,-3.386548612129427e-06,-1.3106129109206704e-06,-2.473226900778069e-06
