0,1,2,3,4,5,6,7,8,9,10,11,12,13,14,15,16,17
-4.9376015789339925e-08,8.802492694149027e-08,4.303581865662716e-08,2.1755767594366e-07,-1.3408431009414293e-07,-1.627441423750848e-07,1.1092727736872466e-07,4.9131717541202753e-08,-9.020549868479343e-08,-1.7925712718885292e-08,-5.057486386050665e-07,-3.9310964616057965e-07,-3.520091848546257e-07,-6.893044311819073e-08,2.732858927127293e-07,1.3922766623714886e-07,3.948219167543552e-07,-1.0509412621031228e-07
-3.588990032619122e-08,7.061915498541654e-08,3.6162942646275556e-08,2.1752971953860814e-07,-1.6729134500383234e-07,-1.5021540515092776e-07,4.993773617623949e-08,3.8244890483276985e-08,-1.2490750661375992e-07,-1.1018528371930324e-08,-4.510488297839834e-07,-3.892632854532221e-07,-3.489505363357678e-07,-1.9726190123707517e-07,-1.7998920314547847e-07,1.399487751677348e-07,4.0521025845396175e-07,-1.0327431960183517e-07
-3.2139632818444696e-08,5.127113700517281e-08,2.9610945649318833e-08,2.0788403396218729e-07,-2.0337754627970233e-07,-1.3674577281445915e-07,-1.7944390035555886e-08,3.224287024767172e-08,-1.6158710871039083e-07,5.000337492660736e-10,-3.9104216626767407e-07,-3.6942995911747114e-07,-3.373146546375017e-07,-2.6420961731265944e-07,-4.426622079473533e-07,1.0988149693248587e-07,4.10613963707858e-07,-8.438218384735656e-08
-3.974341939177505e-08,2.881190294554588e-08,2.025329358740858e-08,1.8423176201712588e-07,-2.3756956939460242e-07,-1.222661345930992e-07,-8.50158792226229e-08,2.5319150406434325e-08,-1.9260119905028353e-07,9.600052278277597e-09,-2.9693263128700786e-07,-3.3857076059259965e-07,-3.1230127595823496e-07,-2.673515337727381e-07,-4.583279189822288e-07,6.145116484771719e-08,3.9396790510216927e-07,-5.467828081415226e-08
-5.724696143044536e-08,6.023640864455159e-09,8.143149658853441e-09,1.4350574129129887e-07,-2.6328094868635483e-07,-1.0588951761566441e-07,-1.415358405667687e-07,1.2400876247344096e-08,-2.0890128851343348e-07,1.097102259678061e-08,-2.013868936735861e-07,-2.859583628519664e-07,-2.761934936034648e-07,-2.1301118528941118e-07,-2.518650925648189e-07,3.4130995349839124e-09,3.434201557007691e-07,-2.2407306692389528e-08
-7.935221426653e-08,-1.5391493082726595e-08,-3.826576790062248e-09,8.519716159414456e-08,-2.7289631651523753e-07,-8.671065999134584e-08,-1.7593142298977736e-07,-9.67772527713953e-09,-2.020029083193217e-07,2.289583607119731e-09,-9.023383414593945e-08,-2.055413118365144e-07,-2.007162955488771e-07,-1.1338934516467521e-07,7.572954376182814e-08,-6.115319452254297e-08,2.477167140781829e-07,4.042588692282985e-09
-9.73353442600096e-08,-3.127391538852984e-08,-1.1766904012412286e-08,1.2393371172735554e-08,-2.591355163595653e-07,-6.466193635413556e-08,-1.8211203570598937e-07,-4.084764320955567e-08,-1.662682832168079e-07,-1.4537094247531896e-08,5.512626104932165e-08,-9.065643825549329e-08,-8.176735838611793e-08,1.2842165520284025e-08,3.8326811619509224e-07,-1.4535667143790753e-07,1.0590486999110224e-07,1.7912251951091308e-08
-9.68591728741912e-08,-3.901389820560489e-08,-1.3183616127244735e-08,-6.714414669367642e-08,-2.171082201455258e-07,-4.053712304208511e-08,-1.546273394789375e-07,-7.732928465341192e-08,-1.0119222660130257e-07,-3.525567576169781e-08,2.220152241340109e-07,5.6205741597693083e-08,6.846409445658437e-08,1.387161067899563e-07,5.465239334467937e-07,-2.7231865368805305e-07,-7.371238689444092e-08,1.503941781769682e-08
-8.491550635954436e-08,-3.6851405856905524e-08,-6.461688732533894e-09,-1.4146205695042167e-07,-1.462840617973317e-07,-1.5159120830304598e-08,-9.644831532905186e-08,-1.118013147086426e-07,-1.342311901611121e-08,-5.3779206087052144e-08,3.675071452738202e-07,2.321647189265435e-07,2.166850664028492e-07,2.3258188920862237e-07,5.098589298332752e-07,-4.3832979649526396e-07,-2.683541836240987e-07,-5.588768329728873e-09
-5.183959808132897e-08,-2.685015590787325e-08,5.835431780942249e-09,-1.9715350422807209e-07,-5.146821098986892e-08,1.0934907886102625e-08,-1.993950227447206e-08,-1.3484722455547945e-07,8.29976351603267e-08,-6.363593581191356e-08,4.5734365247757116e-07,3.6003484336953117e-07,3.505032609093004e-07,2.692859416447553e-07,3.0165069938470706e-07,-6.128137433833555e-07,-4.0309740105310346e-07,-3.983905443539169e-08
1.8499635219979287e-08,-1.5771326721337586e-08,1.8066856250466696e-08,-2.2293471776784612e-07,5.879871324239072e-08,3.8525427856756935e-08,5.821282817345514e-08,-1.3672212205588312e-07,1.6979436999032867e-07,-5.9430524581825864e-08,3.97786430419695e-07,4.0840247426748745e-07,3.8269703631118265e-07,2.4218538480773645e-07,9.863801662299437e-09,-6.606313919957683e-07,-4.60770336548899e-07,-7.521748409023742e-08
9.13445382138049e-08,7.981292325038915e-10,2.3769503684550433e-08,-2.1277501351030876e-07,1.751834280583476e-07,7.023208729282756e-08,1.2118991506426542e-07,-1.089814865948083e-07,2.2974768846028565e-07,-3.8353229967952125e-08,2.4606004055976824e-07,3.3742402638415894e-07,2.9076696337636283e-07,1.6652439928652076e-07,-2.5608993909864827e-07,-4.6967228911916874e-07,-3.543507292137022e-07,-9.085418092045786e-08
1.6145415756478235e-07,1.4221043295179571e-08,1.6555971381186882e-08,-1.6811799235619575e-07,2.890704389396215e-07,1.0937988942248083e-07,1.5606652995730947e-07,-4.729354626457276e-08,2.5145708790243824e-07,-1.5356829522042696e-09,1.4425878819935963e-07,2.977791550793577e-07,2.5417261792296206e-07,7.35436769709229e-08,-3.9634092533397036e-07,4.1840605350243446e-08,-1.9874885711673934e-07,-6.32113135307762e-08
1.7564386176396674e-07,-1.481809574279964e-08,-8.350194719071476e-09,-9.813272319419376e-08,3.9296627833026625e-07,1.5830179378161445e-07,1.5706205104224413e-07,4.710275518770043e-08,2.3257949732548515e-07,4.54606143836426e-08,6.666963039109066e-08,3.197755719291709e-07,2.1949840913116043e-07,-7.186818164137143e-10,-3.453146259017756e-07,4.808592160607947e-07,-1.6760615415899314e-07,2.5815772237699962e-08
1.1795843615725905e-07,-3.50399405247173e-08,-5.1423335222224064e-08,-1.7511935776917764e-08,4.81944199498007e-07,2.168153712432388e-07,1.3007425644782786e-07,1.6569195508985208e-07,1.8110068139283901e-07,9.364223382668275e-08,4.710869235647183e-09,1.5855295291096103e-07,1.3532526414376612e-07,-2.5955208340706387e-08,-9.114146230107126e-08,7.294613272016959e-07,-2.3497200160260915e-07,1.8261604229725003e-07
5.979713667800782e-08,-4.475970383926949e-08,-1.064215976920807e-07,5.6932624957873095e-08,5.545329871975312e-07,2.807403352840866e-07,9.00841313731097e-08,2.9736613211601087e-07,1.1341217849450151e-07,1.3300805005922319e-07,-2.5085047977027783e-08,-9.78097201970577e-08,-8.85991332957998e-09,1.5148351823070518e-08,3.2155045827861977e-07,9.541923893092559e-07,-1.40043733575812e-07,3.991209454766178e-07
4.356282513322815e-08,-5.097231286553943e-08,-1.616509631954471e-07,1.0999639853344485e-07,6.086164422460974e-07,3.406558786584503e-07,5.271593375118275e-08,4.2822774126975874e-07,4.899469736510538e-08,1.5446051394252975e-07,-1.8398143610632133e-07,-2.4559123784042165e-07,-3.161954799873545e-07,1.2441594587481463e-07,8.133888744739168e-07,1.5108557369833415e-06,9.513969801740923e-08,6.541787380842331e-07
4.014615538436563e-08,-6.450854212828529e-08,-2.0225705912964044e-07,1.3192396115438901e-07,6.484115666858723e-07,3.834693426372651e-07,3.4590046790663085e-08,5.446839243104942e-07,7.978663164189995e-10,1.5265298966099632e-07,-4.254624729222117e-07,-3.9971317382143555e-07,-6.489148427524842e-07,2.905793996657939e-07,1.3044874105938065e-06,2.145627298630868e-06,4.05661114736399e-07,9.179557476142549e-07
-1.519257806270098e-08,-5.842713169185572e-08,-2.1812968805781422e-07,1.205242114392798e-07,6.807027196042717e-07,3.9648187293009207e-07,4.282730873713584e-08,6.367523564856315e-07,-2.2604305501446472e-08,1.2782166339901084e-07,-5.564343016524465e-07,-5.674962714633447e-07,-9.874123605909603e-07,4.930317980274775e-07,1.735933215672077e-06,2.545240757382411e-06,7.447125170243251e-07,1.1573481089021705e-06
-1.254726209650341e-07,-7.869725567149824e-09,-2.083616581415945e-07,7.967496896948696e-08,7.084610033433304e-07,3.715832525697943e-07,7.422030786045245e-08,6.975442932297372e-07,-2.2348410472148276e-08,8.489203247976044e-08,-6.767232601740839e-07,-6.129385626005186e-07,-1.2413408197982494e-06,7.045779877388383e-07,2.0727646023223676e-06,2.737736287742354e-06,1.0821557118120487e-06,1.3420812339860182e-06
-2.6315722244393623e-07,4.158393899202089e-08,-1.8244546042190477e-07,1.5820437283697952e-08,7.328038137665148e-07,3.0794876802270136e-07,1.168515593819142e-07,7.240598801232786e-07,-8.380392139956755e-09,3.099616151498888e-08,-8.55195303329402e-07,-6.26658462386285e-07,-1.3932812593185563e-06,8.937905736468785e-07,2.3088050609371432e-06,2.824592799140192e-06,1.3135832764571262e-06,1.4521058270345923e-06
-4.038969674862182e-07,7.583825620450305e-08,-1.5667820837257724e-07,-6.470020847431839e-08,7.497357911009917e-07,2.121336213446226e-07,1.551790812483024e-07,7.171466140279405e-07,1.0364382861080547e-08,-2.789383527842572e-08,-1.0225227629336892e-06,-6.143384201675582e-07,-1.3088512795789509e-06,1.028554848393617e-06,2.4777244477934978e-06,2.9677971533957663e-06,1.427529844967883e-06,1.4839908684355054e-06
-5.141198767683741e-07,9.127558873788742e-08,-1.4793678336414578e-07,-1.5685237795271526e-07,7.53939607449882e-07,9.565932365764732e-08,1.6906562375339832e-07,6.812727239808096e-07,2.0618543559064103e-08,-9.3841020231243e-08,-1.0711063698670915e-06,-5.877194640933633e-07,-1.2503945061769055e-06,1.0819452764463676e-06,2.644910557855981e-06,3.0654923056328747e-06,1.4482998391548759e-06,1.4524342704677226e-06
-5.55354827153946e-07,7.436667263306615e-08,-1.6868783124346403e-07,-2.568191222062841e-07,7.424543103247943e-07,-2.914988950579417e-08,1.4111007842073192e-07,6.224470491630256e-07,1.2552968588814195e-08,-1.6426268186566254e-07,-1.1139737871358833e-06,-6.066172108088036e-07,-1.2005625165982358e-06,1.0402313551389462e-06,2.8692820013404103e-06,3.1056063733666667e-06,1.3899006282626626e-06,1.3854888457423625e-06
-5.988240682774933e-07,2.4661434094157788e-08,-2.242830430253138e-07,-3.609549439419436e-07,7.087137078210715e-07,-1.5250713889040397e-07,6.331007192327713e-08,5.476352998170178e-07,-1.8245452583526332e-08,-2.3729140763169208e-07,-1.233005141048487e-06,-6.732725614425981e-07,-1.1534606850005214e-06,9.092849191369484e-07,3.1634818844230555e-06,2.908124279582039e-06,1.2920137139151778e-06,1.3150310994253314e-06
-6.482613568319315e-07,-6.078909774522592e-08,-3.1298640768201424e-07,-4.6555320371511933e-07,6.472542890179266e-07,-2.6920125082607157e-07,-6.704497808644194e-08,4.630569630994296e-07,-7.37503070708864e-08,-3.1376804858305984e-07,-1.3211678160060862e-06,-7.952114186318782e-07,-1.1880033561074125e-06,7.145590561969409e-07,3.485283151874754e-06,2.4565320589206775e-06,1.1721182395465844e-06,1.2663022647843093e-06
-6.694910200091765e-07,-1.620912601200018e-07,-4.2812340425763964e-07,-5.683914332465178e-07,5.547386070956253e-07,-3.801117425383275e-07,-2.467740417355529e-07,3.7169938263918415e-07,-1.5510917734705684e-07,-3.8614741686267965e-07,-1.4223840038440046e-06,-9.769594058768762e-07,-1.3215237269847904e-06,4.939781423866337e-07,3.758027275616396e-06,2.0539383500362195e-06,1.0467303952219746e-06,1.2514370727548038e-06
-7.004622206517968e-07,-2.4139519574165915e-07,-5.60594114127986e-07,-6.696970304195036e-07,4.281220107849037e-07,-4.916271598449333e-07,-4.70596996069327e-07,2.731433810476977e-07,-2.6377684496903606e-07,-4.567221536355026e-07,-1.6100732456520056e-06,-1.2070857957993497e-06,-1.4801495457651406e-06,2.8664404249743686e-07,3.895254656084367e-06,1.8146118842197477e-06,9.355600575821732e-07,1.269135418390333e-06
-7.456726859210411e-07,-2.7558257799223416e-07,-6.995132069161701e-07,-7.703426957889519e-07,2.6641950943837326e-07,-6.125293493161683e-07,-7.321617608572537e-07,1.657962111891961e-07,-4.007381681254495e-07,-5.268740168631534e-07,-1.829173861143609e-06,-1.468717369662708e-06,-1.68402474620262e-06,1.2093702962143254e-07,3.820442011919502e-06,1.720051206966162e-06,8.523997089581872e-07,1.308460471094006e-06
-8.017510722705909e-07,-3.1043776897235134e-07,-8.318477506820077e-07,-8.688213132297655e-07,7.076277677375818e-08,-7.507456090682818e-07,-1.0223716331187706e-06,4.994884640193126e-08,-5.66242894714598e-07,-5.931631119390006e-07,-2.08052154138135e-06,-1.7442801461471997e-06,-1.919206498489143e-06,7.092318487086492e-09,3.4927731630804935e-06,1.9166973479696295e-06,8.056257269225702e-07,1.354644190649353e-06
-8.741622103194154e-07,-3.8006791383099897e-07,-9.439540885363555e-07,-9.594664330354616e-07,-1.5619029527455523e-07,-9.092565953557256e-07,-1.3276046812762083e-06,-6.948926164234622e-08,-7.561471342180965e-07,-6.396771592414702e-07,-2.340021524323185e-06,-2.019632999091448e-06,-2.1586610547487667e-06,-6.078351530603029e-08,2.9392094571954648e-06,2.260258396607509e-06,7.97590726057662e-07,1.395787984854967e-06
-9.614577397512201e-07,-4.877021220345864e-07,-1.023657637315445e-06,-1.0326765063397447e-06,-4.0880302353539255e-07,-1.0838469008059218e-06,-1.6290963443327646e-06,-1.8378783179918226e-07,-9.622456487758018e-07,-6.622803412541493e-07,-2.5742577547228057e-06,-2.283908678600044e-06,-2.4089252037539897e-06,-9.58387663560608e-08,2.268037375062689e-06,2.605087596742925e-06,8.255819440325138e-07,1.428164435017591e-06
-1.0438958570949945e-06,-6.183778911272029e-07,-1.0619974113522312e-06,-1.0776732267447109e-06,-6.427064047560975e-07,-1.2635840894897382e-06,-1.8743580647911946e-06,-2.8002694549403724e-07,-1.1723175614842736e-06,-6.571867212706907e-07,-2.7811742043795027e-06,-2.5281710308142574e-06,-2.6417069300276137e-06,-1.1093988233753385e-07,1.64308231477387e-06,2.895093459422014e-06,8.829207806131197e-07,1.457167103623234e-06
-1.113270600747217e-06,-7.455077527677127e-07,-1.0562701815495504e-06,-1.0874094401146458e-06,-8.467574144976695e-07,-1.4341354649954567e-06,-2.052053774969964e-06,-3.4622365837801293e-07,-1.342270936081789e-06,-6.199906063253346e-07,-2.9664617732453834e-06,-2.7430488897862283e-06,-2.82746980829646e-06,-1.1609463897395974e-07,1.2315949754241654e-06,3.075834858184825e-06,9.598904319424654e-07,1.4934678651837794e-06
-1.1708139272025233e-06,-8.39237368731334e-07,-1.0108841247883869e-06,-1.062566900498907e-06,-1.023323016419498e-06,-1.582377449649164e-06,-2.1611104496916274e-06,-3.7576364464963394e-07,-1.4619378608268605e-06,-5.64251556758725e-07,-3.1092996379205447e-06,-2.9176949847526333e-06,-2.9150576059326533e-06,-1.1733867099059774e-07,1.1519255810050198e-06,3.1905846278302353e-06,1.0464590647231826e-06,1.5470262312413673e-06
-1.2053766229811261e-06,-8.948274926705159e-07,-9.364738385537872e-07,-1.01199620169999e-06,-1.1520784126612468e-06,-1.6996742678642747e-06,-2.198896091307976e-06,-3.687303773346599e-07,-1.525344459678895e-06,-4.875905044965344e-07,-3.2042981288513443e-06,-3.0419509249027763e-06,-2.9558109317820406e-06,-1.1474447884762844e-07,1.4308811953941075e-06,3.2879361346152728e-06,1.1351647437519373e-06,1.6219270107504882e-06
-1.2197336049500335e-06,-9.268818435827765e-07,-8.483128412920936e-07,-9.502092270574322e-07,-1.2277310193018128e-06,-1.7836887520479042e-06,-2.181317240250131e-06,-3.329605513679731e-07,-1.5244657137508532e-06,-3.929333491818481e-07,-3.2565578110995313e-06,-3.109908383413398e-06,-2.9480380688883724e-06,-1.0210166864351556e-07,1.97944165625597e-06,3.3949272504986583e-06,1.222070263439537e-06,1.7149261519833917e-06
-1.2196047641355694e-06,-9.15907159159216e-07,-7.633503556266534e-07,-8.932893212497068e-07,-1.2347283664124788e-06,-1.8382568008759632e-06,-2.1511162504111302e-06,-2.818186143631611e-07,-1.497938459992451e-06,-2.821075661575972e-07,-3.2689724902659e-06,-3.1229863784487063e-06,-2.8924413637354082e-06,-7.009395349444623e-08,2.6054329233023516e-06,3.5487345497835668e-06,1.305696694912442e-06,1.8190667415579106e-06
-1.2090281344866608e-06,-8.783791951264308e-07,-6.961656971383616e-07,-8.540357100121661e-07,-1.1747343448195116e-06,-1.8709404128942455e-06,-2.1079048790848466e-06,-2.297977484452204e-07,-1.4431983023793306e-06,-1.7179899662908822e-07,-3.2572940938402726e-06,-3.0890136864786086e-06,-2.821779699072311e-06,-1.0235979111830573e-08,3.06865529940701e-06,3.769305269736397e-06,1.384497721404373e-06,1.929132696904707e-06
-1.1928794291672448e-06,-8.418930450053762e-07,-6.563341784221909e-07,-8.381339214022763e-07,-1.0870579834592664e-06,-1.8890406181835489e-06,-2.0515466226161158e-06,-1.8739927784081403e-07,-1.359750396353316e-06,-6.936618351095999e-08,-3.23449746948405e-06,-3.0185003819216883e-06,-2.7753317083005745e-06,8.267360124465766e-08,3.1616865420332035e-06,4.059120735740476e-06,1.4558533602371859e-06,2.04407553441115e-06
-1.1753498848754756e-06,-8.032103729882224e-07,-6.4390114883341e-07,-8.429973883602737e-07,-1.033578975160674e-06,-1.8965610550818713e-06,-2.0503641891741986e-06,-1.5850268092313658e-07,-1.2578274410433365e-06,1.8720712658792302e-08,-3.2069893356496276e-06,-2.921419310791115e-06,-2.7494553839680483e-06,2.0902142449350589e-07,2.7894985870152777e-06,4.4172309146571535e-06,1.5183387571511029e-06,2.165547440054743e-06
-1.1729991396474862e-06,-7.672779163759748e-07,-6.50800505032825e-07,-8.593195761434216e-07,-9.997419420328999e-07,-1.8926745577016309e-06,-2.0751522546614072e-06,-1.3911280572641825e-07,-1.1913085362325893e-06,1.0125993212343368e-07,-3.175725045760218e-06,-2.8030225780924757e-06,-2.7423204611884347e-06,3.634546343807996e-07,2.0176781726921117e-06,4.81325353606504e-06,1.5749993317110327e-06,2.2942916867342928e-06
-1.1794581896659343e-06,-7.298638693311072e-07,-6.643540521336448e-07,-8.750573206537079e-07,-9.489046681638036e-07,-1.8723850945331323e-06,-2.0992652455439197e-06,-1.1910792987692267e-07,-1.1485000660818417e-06,1.724117213378593e-07,-3.1304310136463245e-06,-2.6626617987023356e-06,-2.783781625602593e-06,5.3533526893528e-07,1.0606626250258958e-06,5.1133967810412235e-06,1.6332499070348547e-06,2.4255174875050014e-06
-1.1873051065284327e-06,-6.806683105989186e-07,-6.718012159844651e-07,-8.809090800884656e-07,-8.850941729834608e-07,-1.82946185004584e-06,-2.1152548949295623e-06,-8.687600464139838e-08,-1.1108721714477412e-06,2.2943335837631478e-07,-3.062047284064398e-06,-2.4957279652133958e-06,-2.7991398088628432e-06,7.112833971245396e-07,1.978733797822003e-07,5.298353448158857e-06,1.7000717869472143e-06,2.5460170840520184e-06
-1.193722926097851e-06,-6.565357859618526e-07,-6.649883986374821e-07,-8.742977131857411e-07,-7.9825241641956e-07,-1.75971318041377e-06,-2.0951189261864505e-06,-3.356179235613225e-08,-1.073446522246383e-06,2.8295650222944805e-07,-2.9559329029346645e-06,-2.294167024665028e-06,-2.738318569769846e-06,8.785735366186041e-07,-3.495931918554904e-07,5.332985573469935e-06,1.7769388056627122e-06,2.6369792011802484e-06
-1.1913676813951492e-06,-6.498948237220687e-07,-6.410849912908012e-07,-8.594949615520046e-07,-7.139915762113701e-07,-1.662944284355024e-06,-1.976450272322022e-06,4.4968625636080504e-08,-9.550321005617126e-07,2.998651972823517e-07,-2.798528650177455e-06,-2.0545232267066315e-06,-2.6113358003397726e-06,1.0270677254522982e-06,-5.030761463523422e-07,5.088961450883691e-06,1.8589620426502685e-06,2.682105170821627e-06
-1.1791912234582007e-06,-6.458910687286508e-07,-6.010066775560653e-07,-8.444513821074825e-07,-6.322419694541242e-07,-1.544281188743244e-06,-1.7957161602540698e-06,1.4526747761597476e-07,-7.783415578754394e-07,3.114353202051718e-07,-2.5822174702670107e-06,-1.7778609466213808e-06,-2.4215544429295475e-06,1.1466218105077152e-06,-3.169367689517708e-07,5.141258107864572e-06,1.93806652619418e-06,2.6757858157835306e-06
-1.1391253801192737e-06,-6.154604963992419e-07,-5.467591935583629e-07,-8.358243159956401e-07,-4.914320047249155e-07,-1.413908719149853e-06,-1.5934983788249257e-06,2.605654377481792e-07,-5.745152891706583e-07,2.833219015256781e-07,-2.321030173052458e-06,-1.4849684027407457e-06,-2.187363254150648e-06,1.2253504771024584e-06,9.545987362416285e-08,5.121281420108021e-06,2.0110618417306177e-06,2.626559447477684e-06
-1.0766941911503958e-06,-5.59380579130436e-07,-4.79857551566904e-07,-8.339344036589724e-07,-2.8328467339519867e-07,-1.2850782618009057e-06,-1.3448627355711573e-06,3.8179966922977575e-07,-3.5655574633424734e-07,2.4394581238650194e-07,-2.0422867461790313e-06,-1.1996639042457307e-06,-2.0029908898974128e-06,1.2517755336595008e-06,6.293034637451741e-07,4.67250763886994e-06,2.080421084759931e-06,2.5546901571112972e-06
-9.938205043964251e-07,-4.926843098712942e-07,-3.995837377649289e-07,-8.307191128186199e-07,-6.51626444882112e-08,-1.1706619067914322e-06,-1.1044608892941208e-06,5.013798097904339e-07,-1.1875315582998859e-07,2.1337895230020503e-07,-1.775407666914345e-06,-9.524555578194983e-07,-1.9106225396755415e-06,1.2202156063872311e-06,1.206972228908455e-06,3.980772097352647e-06,2.1518625172753534e-06,2.487506898925922e-06
-8.939109246543356e-07,-4.112338650727373e-07,-3.0686165968225933e-07,-8.124725823676848e-07,9.455016366408513e-08,-1.0796395155563078e-06,-8.967059215454879e-07,6.157811041577488e-07,1.1371022459331437e-07,1.92414841697326e-07,-1.6290856412560959e-06,-8.339253601900223e-07,-1.8700345061890538e-06,1.1371821841170122e-06,1.7574712983128243e-06,3.2535732765353673e-06,2.223025130606963e-06,2.447189112477058e-06
-7.890299461730329e-07,-3.3789809144661706e-07,-2.0439412962358893e-07,-7.654374283927404e-07,1.8963707042206218e-07,-1.014707338960243e-06,-7.181781666282786e-07,7.244178435470105e-07,3.207512617332189e-07,2.059065319425251e-07,-1.5903534968103875e-06,-7.562755516379236e-07,-1.815283492379523e-06,1.0232402455502156e-06,2.1985888870554976e-06,2.746997141507677e-06,2.2997466148812904e-06,2.436977787372191e-06
-6.844711830518519e-07,-2.5638750359272775e-07,-9.560200019559441e-08,-6.813396419485412e-07,3.644297017868323e-07,-9.720743115481433e-07,-5.754805855630206e-07,8.291794882830377e-07,5.007582072800086e-07,2.3163758521364765e-07,-1.4946060922177109e-06,-6.711134276888893e-07,-1.6738296172110992e-06,9.10117560588926e-07,2.4505586139964174e-06,2.424122733009367e-06,2.3941666320420467e-06,2.508313706566659e-06
-5.867722201526121e-07,-1.743771296281678e-07,1.5615643402048583e-08,-5.611197982613142e-07,5.372488498015882e-07,-9.44079084735707e-07,-4.989951718398582e-07,9.31655534311858e-07,6.032026788814903e-07,2.8429687331155223e-07,-1.3908713482929941e-06,-6.932680399224602e-07,-1.5801497125295265e-06,8.285863617475387e-07,2.4722955175720778e-06,2.1598397220648556e-06,2.493396032809215e-06,2.6017104842018203e-06
-5.015675407321293e-07,-1.028741065086471e-07,1.2545764970587666e-07,-4.1493869687625264e-07,6.796953664193113e-07,-9.226592446514693e-07,-4.5122078233803154e-07,1.0318337030040316e-06,6.572558704740705e-07,3.3971047987583684e-07,-1.4199118692116425e-06,-7.914310207396018e-07,-1.640111446460739e-06,8.007670486793166e-07,2.2903372806344874e-06,2.276776849173319e-06,2.5936964277986645e-06,2.7298916997938964e-06
-4.3653881023149277e-07,-5.692721106641983e-08,2.3120088952173275e-07,-2.577356384068478e-07,7.169686924420036e-07,-9.01573817977137e-07,-4.011823908598297e-07,1.1281763539533368e-06,6.930884917907273e-07,4.535155633607185e-07,-1.5048018564426178e-06,-8.859476216280626e-07,-1.6469774098377518e-06,8.377402171167061e-07,1.995339956797386e-06,2.6687275150266577e-06,2.6975723386327375e-06,2.8677286833339818e-06
-3.894074242888999e-07,-2.9046147178315587e-08,3.316256897613822e-07,-1.0349662780026385e-07,7.476259608848697e-07,-8.770723046761559e-07,-3.525883611838154e-07,1.219656975538926e-06,7.184706228469315e-07,5.807851380906832e-07,-1.5800578221421218e-06,-9.580264976653948e-07,-1.6695986202751203e-06,9.402232684257302e-07,1.706039938837086e-06,3.0365849136817972e-06,2.7905667871161e-06,3.0003549984235966e-06
-3.440988825030121e-07,-4.445405720168676e-09,4.2595762084419066e-07,3.789816405592127e-08,7.259935420181161e-07,-8.483432300450754e-07,-2.843033694004286e-07,1.305561428702672e-06,7.411261078055423e-07,6.621442423184243e-07,-1.6364811560825761e-06,-1.014020849270736e-06,-1.7037424109939938e-06,1.0986260619043033e-06,1.52536844739324e-06,3.296662734259874e-06,2.867866365386147e-06,3.1201014835625438e-06
-3.009573983506299e-07,1.8163431860068967e-08,5.131628895105059e-07,1.610634618214626e-07,6.590667429124357e-07,-8.171848388157061e-07,-2.0072206622920809e-07,1.3844909814277004e-06,7.614086601813567e-07,7.495577309002227e-07,-1.7289853279124465e-06,-1.0464136421222353e-06,-1.7786472899610954e-06,1.2932078062289241e-06,1.5091745557765674e-06,3.4473076718314408e-06,2.931725212825791e-06,3.2255899052645726e-06
-2.5861662332612124e-07,4.723707435077283e-08,5.917191415194657e-07,2.644582653520067e-07,6.176815585346966e-07,-7.86773535673991e-07,-1.1533715539486426e-07,1.4548049642023473e-06,7.775263569208466e-07,8.429674620416895e-07,-1.794876795374435e-06,-1.0576112548331905e-06,-1.837081119198901e-06,1.4956479019720696e-06,1.6491661836314013e-06,3.4643777420607363e-06,2.983671157711374e-06,3.3183974126286532e-06
-2.149403609614493e-07,8.729578169065702e-08,6.608466989136467e-07,3.494071777497014e-07,5.849643789358458e-07,-7.604144040780286e-07,-3.4730494337336925e-08,1.5148869029479358e-06,7.877942663605034e-07,9.139157254322368e-07,-1.8385158953191559e-06,-1.0560088375761977e-06,-1.8565276882420524e-06,1.6757487431574317e-06,1.8718533671525514e-06,3.3799061251506407e-06,3.0308749658196676e-06,3.400664478280066e-06
-1.7275172749424468e-07,1.3234777585194277e-07,7.211504487730327e-07,4.1946134192816184e-07,5.511669795428437e-07,-7.401757783015947e-07,4.275519444995867e-08,1.5638242809640967e-06,8.053360680337472e-07,9.725234152893578e-07,-1.8804733904892582e-06,-1.0510228274128088e-06,-1.873775475324191e-06,1.8090121999234195e-06,2.0669659102567938e-06,3.255186899243331e-06,3.085215094811408e-06,3.4760099414181224e-06
-1.3055823372152127e-07,1.7941072092363036e-07,7.752024864403101e-07,4.80456481292308e-07,5.174210222586619e-07,-7.260123889619606e-07,1.0615411799238101e-07,1.6032340323184176e-06,8.258682149092306e-07,1.017426561480509e-06,-1.9062401135361407e-06,-1.0512405553543878e-06,-1.8819394119333283e-06,1.882846563179419e-06,2.145279920839412e-06,3.1624937921538395e-06,3.149583582478993e-06,3.5510510457304896e-06
-1.0007338849395105e-07,2.3232726866398056e-07,8.273427098044483e-07,5.394319892335325e-07,4.865051851901058e-07,-7.159234407438144e-07,1.5216662466525796e-07,1.636456204432269e-06,8.463735592411077e-07,1.0359079566602323e-06,-1.934797089956388e-06,-1.0623678523378734e-06,-1.9052852952265228e-06,1.8983259396967522e-06,2.089459140835924e-06,3.168201172198281e-06,3.2184609595430948e-06,3.633657586319536e-06
-7.623500730003526e-08,2.854437805331296e-07,8.809228259506151e-07,6.011948154984164e-07,4.5795850145757145e-07,-7.077311344885655e-07,1.855891209280379e-07,1.6662532229646288e-06,8.689006911635543e-07,1.0449459095308295e-06,-1.9684909044190576e-06,-1.085265028948841e-06,-1.943812610637941e-06,1.867085478216975e-06,1.9578762351690765e-06,3.3185738315179292e-06,3.288932719934611e-06,3.7288333466522554e-06
-5.8026080155877745e-08,3.359680799236222e-07,9.357485700128577e-07,6.652743578370674e-07,4.306350915309055e-07,-7.010251762438468e-07,2.067254230388339e-07,1.693050985284466e-06,8.91023096151307e-07,1.0491463876210476e-06,-2.0010017427442266e-06,-1.1174044369652416e-06,-1.9854126913119657e-06,1.8081002583527028e-06,1.8453189083187314e-06,3.627588847118069e-06,3.3602362003048858e-06,3.8359234770918975e-06
-4.5930767214370134e-08,3.735329304938275e-07,9.891205865824287e-07,7.262063828248136e-07,4.0148590599750486e-07,-6.976124824201866e-07,2.1060092791572652e-07,1.7150971197286405e-06,9.127511806134398e-07,1.0470111774436137e-06,-2.0373688548889675e-06,-1.1539989949246398e-06,-2.0171947777920033e-06,1.7443513097154172e-06,1.838225360427921e-06,4.068371674702065e-06,3.4400932156217687e-06,3.949049744006912e-06
-3.671257300631154e-08,4.0041987539070443e-07,1.0366735357752583e-06,7.761736750402637e-07,3.639606439889986e-07,-7.00950718123488e-07,2.0063911477874713e-07,1.7294984841545332e-06,9.329374086377196e-07,1.0412789836361397e-06,-2.0849018704893914e-06,-1.1910226025871998e-06,-2.048881712728135e-06,1.6976755765903068e-06,1.9902502139938817e-06,4.574688221425191e-06,3.5366062797313415e-06,4.059956266921219e-06
-3.3611622916078946e-08,4.1737121873328146e-07,1.0730570594965478e-06,8.078997325663205e-07,3.1740327197294855e-07,-7.148775173774872e-07,1.786982249975988e-07,1.7326813850219812e-06,9.485726142459026e-07,1.0185193798967302e-06,-2.1565747183255192e-06,-1.22660297215457e-06,-2.0917519073447955e-06,1.6798339379591646e-06,2.3129525484567324e-06,5.0581837071212125e-06,3.6483982358805968e-06,4.161285329125043e-06
-3.908712868667545e-08,4.2193777837936707e-07,1.0928572035758026e-06,8.169748302228331e-07,2.6287613332587505e-07,-7.417406609676833e-07,1.45679822051706e-07,1.7210270467541875e-06,9.567445443596317e-07,9.67510781490959e-07,-2.2073797321603713e-06,-1.2608701924065605e-06,-2.1415411965676346e-06,1.6879502209590361e-06,2.7631087898262348e-06,5.434697054266051e-06,3.768008609248165e-06,4.247469722476037e-06
-5.460601571818582e-08,4.175610044920107e-07,1.09158412461551e-06,8.025813206979422e-07,2.0301390785662703e-07,-7.813294351335989e-07,1.1202217449773016e-07,1.6910143045831504e-06,9.576755781651152e-07,8.670317862923552e-07,-2.2339442885422837e-06,-1.2935095149957266e-06,-2.198141038461625e-06,1.7064647455696364e-06,3.22777620574081e-06,5.643633642633111e-06,3.872727420779943e-06,4.312150809032894e-06
-7.692840284061849e-08,4.055260423336475e-07,1.065932856793523e-06,7.660492433384023e-07,1.4252104698032355e-07,-8.317260700998208e-07,7.97230300312717e-08,1.6391016716363887e-06,9.544333957059787e-07,7.713774126893445e-07,-2.243410655543232e-06,-1.3226663593841528e-06,-2.264155599337696e-06,1.7149720532041932e-06,3.539576880603865e-06,5.6543399210001615e-06,3.932049894521821e-06,4.345305729344453e-06
-1.1140933957796573e-07,3.852984594975103e-07,1.0137791689424143e-06,7.093953615995419e-07,8.631760901809988e-08,-8.900958867565013e-07,4.563683429436285e-08,1.5627763104608394e-06,9.520263841612809e-07,7.278702927751893e-07,-2.2248567808786154e-06,-1.3439955964470533e-06,-2.3298198177167312e-06,1.6973873517412186e-06,3.5456356268072824e-06,5.466874394413007e-06,3.925405396777265e-06,4.33466643325736e-06
-1.5800561404552693e-07,3.5849378294396553e-07,9.370462947754497e-07,6.357776142013148e-07,3.909789062949831e-08,-9.533779784943267e-07,9.882843674891119e-09,1.4634213803522671e-06,9.56306078245193e-07,7.793071806931808e-07,-2.183649544650902e-06,-1.350108038420831e-06,-2.3930543025490015e-06,1.6475514585636462e-06,3.1985663923622733e-06,5.111674241922099e-06,3.84504120652269e-06,4.2706540159991925e-06
-2.0348851533394276e-07,3.308573363312735e-07,8.42906193473957e-07,5.500833914195691e-07,4.637848093025601e-09,-1.0148112687049485e-06,-2.4188619987960178e-08,1.3477364764161596e-06,9.725029650271316e-07,8.212067450414724e-07,-2.085381583901495e-06,-1.3328445020698083e-06,-2.4470087148411716e-06,1.5691458185620732e-06,2.6034747452540268e-06,4.644655807409559e-06,3.7004597406015446e-06,4.149705608284723e-06
-2.4446004651723597e-07,3.0451936583514945e-07,7.415393995203922e-07,4.578136769477025e-07,-1.6434308455457456e-08,-1.0690096530574284e-06,-5.4507179758839394e-08,1.2254649266219371e-06,1.002768556780216e-06,7.961885510981015e-07,-1.9362336436260064e-06,-1.2874171338920518e-06,-2.468171082470552e-06,1.4723848385559756e-06,1.9775534125684395e-06,4.1357531450515005e-06,3.517329294534802e-06,3.974170817487756e-06
-2.7710850388854047e-07,2.8164259064789386e-07,6.429781021386822e-07,3.63931422831203e-07,-2.772925416163267e-08,-1.1101454298767635e-06,-7.833928863532207e-08,1.1061484750435695e-06,1.0459251524181198e-06,6.809201548911154e-07,-1.7002939016381951e-06,-1.213872592870497e-06,-2.4070785349610877e-06,1.3702671695430405e-06,1.5327690430285664e-06,3.6542167771186743e-06,3.327371863316054e-06,3.75112607042624e-06
-2.985911241144296e-07,2.886754373986567e-07,5.558804016224791e-07,2.7332785544872584e-07,-3.5162072743685085e-08,-1.1298430371376123e-06,-9.01698418805845e-08,9.98343820422031e-07,1.1005122615326713e-06,5.492927864474581e-07,-1.4658290871903306e-06,-1.113554856446604e-06,-2.2865333247529185e-06,1.2758759447013178e-06,1.3450871839625407e-06,3.255417794189637e-06,3.157390086055814e-06,3.4917427550640655e-06
-3.105957313243231e-07,3.246731319501862e-07,4.873127441631028e-07,1.9119453330905785e-07,-4.3208786535272166e-08,-1.1188542390781846e-06,-8.349804771899641e-08,9.090608532644533e-07,1.1664697904018973e-06,4.1819790398367513e-07,-1.27632818517626e-06,-9.85884594411088e-07,-2.0726941444676435e-06,1.199243279091893e-06,1.2986100808285487e-06,2.9720404692451197e-06,3.0230735643465806e-06,3.210664036698077e-06
-3.0864494409694835e-07,3.6815083940076035e-07,4.416772922473329e-07,1.2199567643608135e-07,-5.306663942679118e-08,-1.0684147264362004e-06,-4.890086733726853e-08,8.414044506832337e-07,1.2461229057775568e-06,3.366496380240971e-07,-1.063789619463899e-06,-8.276188255997587e-07,-1.8145261113278396e-06,1.1441338963036822e-06,1.1480819125508271e-06,2.8096859191666006e-06,2.924038571621327e-06,2.9256588360670375e-06
-2.805695396464918e-07,4.3411999055145835e-07,4.2044920416019956e-07,6.876101946599378e-08,-6.271287233929265e-08,-9.741703572404924e-07,2.1798646781206128e-08,7.949016099719945e-07,1.3426255484151988e-06,2.8345941840605593e-07,-9.71478155734338e-07,-6.36263381751844e-07,-1.52646066761526e-06,1.1078561270030173e-06,6.53005725535313e-07,2.745527073649452e-06,2.845730405759885e-06,2.657144031816126e-06
-2.2678567600033698e-07,4.900327437155449e-07,4.220197912524473e-07,3.335907239963258e-08,-6.811839917688186e-08,-8.383421167847173e-07,1.3204327232925425e-07,7.661390307249513e-07,1.4569054918351098e-06,1.9160773738574347e-07,-8.944796781380375e-07,-4.1414137048612324e-07,-1.1975014109933263e-06,1.0828964626448804e-06,-3.328778750063239e-07,2.731646471495617e-06,2.7686613869499735e-06,2.4255007404651965e-06
-1.5995941027707095e-07,5.449589485433555e-07,4.410268802949395e-07,1.5789520045150843e-08,-6.630731068101441e-08,-6.713182206402911e-07,2.8165831416274517e-07,7.489210154609398e-07,1.5839369854950327e-06,1.0517055704730228e-07,-7.036097616723892e-07,-1.741182056185648e-07,-9.130058356281021e-07,1.0575169922121568e-06,-1.7199253015488507e-06,2.7085863837580268e-06,2.6922111613886276e-06,2.2460294554740047e-06
-7.815583971425556e-08,6.440729646524881e-07,4.665819642318124e-07,1.2538339700616885e-08,-5.8992548821312903e-08,-4.923716007618126e-07,4.582321005270309e-07,7.346439947139072e-07,1.714916010974869e-06,6.844890139069484e-08,-4.460161058359039e-07,6.205970678409105e-08,-6.586341851501306e-07,1.0163738413857337e-06,-3.2893375047295614e-06,2.6296358016824646e-06,2.6016700199597296e-06,2.1246358104707094e-06
1.465402301975172e-08,7.308637198930709e-07,4.841900598741795e-07,1.6906968447305788e-08,-5.349979509211361e-08,-3.240240937288922e-07,6.41425337556629e-07,7.138880794388015e-07,1.8327807116070116e-06,8.287580368500961e-08,-3.401226813861271e-07,2.6607778757459155e-07,-4.833183326254504e-07,9.443400902047928e-07,-4.653297446298488e-06,2.483257042370735e-06,2.4765939949296857e-06,2.0567129643424166e-06
1.1066160448104664e-07,7.750295344135356e-07,4.810381625861369e-07,2.1730526921460858e-08,-6.003853212029093e-08,-1.872362084715563e-07,8.103696899937216e-07,6.795413135592053e-07,1.9219147735456754e-06,8.808352963995507e-08,-2.645131438751336e-07,4.1721009408048114e-07,-4.332493623304815e-07,8.340310133134888e-07,-4.932332113100359e-06,2.2970881956128576e-06,2.348044669124924e-06,2.0287366316608087e-06
2.048336866703822e-07,8.111176392586788e-07,4.498526153448111e-07,2.161075673590967e-08,-8.744577825689455e-08,-9.537236310865282e-08,9.475372733024209e-07,6.279491918541901e-07,1.991751037043802e-06,8.344090599796481e-08,-1.920663980604302e-07,5.201986004210783e-07,-3.6546786384503663e-07,6.900549557674894e-07,-4.649186677267616e-06,2.1200983240506302e-06,2.2229576147668777e-06,2.0220214295816516e-06
2.867734779894118e-07,8.106205928162172e-07,3.8982491724307456e-07,1.3704574876947602e-08,-1.3968737584618375e-07,-5.0125195377203544e-08,1.0473585258422713e-06,5.597268617583925e-07,1.9945081264451893e-06,8.288550313128462e-08,-1.3076533281532883e-07,5.198577659525298e-07,-2.7049069521711425e-07,5.264698114828186e-07,-4.1456671053306245e-06,1.9952402442231896e-06,2.0908651141429657e-06,2.018743475153997e-06
3.4095791110787414e-07,8.537802784140292e-07,3.060741624358501e-07,-1.7295945541114965e-09,-2.1421601679474923e-07,-4.6925430471640495e-08,1.1153684827609257e-06,4.79412866721233e-07,1.9504842943548863e-06,7.503310215442287e-08,-4.0564066531613726e-08,4.920194763272833e-07,-2.51831083356127e-07,3.6646783844525787e-07,-2.8278780744111404e-06,1.938883909751553e-06,1.970653832275644e-06,2.007628521628691e-06
3.680119806970569e-07,9.07596800712418e-07,2.076446038065489e-07,-2.1686344695523268e-08,-3.034820305200773e-07,-7.415007883694916e-08,1.1615348726919826e-06,3.9370042651983375e-07,1.8837048715419995e-06,6.229831891796498e-08,9.804265295622448e-08,4.1777257047323537e-07,-3.499846190492299e-07,2.2979964318030397e-07,-1.1860837711452071e-06,1.935939354710358e-06,1.8624169577212597e-06,1.985325756438848e-06
3.8052261255058795e-07,9.097011456550477e-07,1.0386691245355518e-07,-4.264872892434939e-08,-3.989750122825627e-07,-1.1934481187325496e-07,1.1925497816398926e-06,3.0837785320773134e-07,1.8232117483151134e-06,4.6632147454457046e-08,1.6546842178158213e-07,3.2223122808052324e-07,-4.647494280470506e-07,1.2879393597961442e-07,6.639589274442834e-08,1.9504936803150477e-06,1.7564337367072168e-06,1.9535100682022174e-06
3.783831121792171e-07,8.720095838002348e-07,2.008735493891008e-09,-6.273955209743474e-08,-4.952141026791752e-07,-1.7211155070607675e-07,1.2082122385992274e-06,2.259188275709844e-07,1.7548827081935278e-06,2.4765984857161787e-08,1.9293392027156924e-07,2.193082085312419e-07,-5.736698848261029e-07,6.847416967015422e-08,7.786084507912408e-07,1.9470222341948177e-06,1.6543822968009327e-06,1.915272107369742e-06
3.6426485446950664e-07,8.093733795655605e-07,-9.251759658761195e-08,-8.190835953365622e-08,-5.90337228570562e-07,-2.2833581183888226e-07,1.2027927991952364e-06,1.459523226845314e-07,1.6830061413156074e-06,-8.968780480666185e-09,1.9417525542087998e-07,1.1878401044086609e-07,-6.972168962980627e-07,4.498298426399433e-08,1.08915456946647e-06,1.9123719920992174e-06,1.55800799747064e-06,1.872728395765427e-06
3.4072838799636886e-07,7.388225264596159e-07,-1.761602477021449e-07,-1.0128398926281287e-07,-6.848202251581671e-07,-2.897010424144223e-07,1.1706232057300366e-06,6.643909037875005e-08,1.6143813080110118e-06,-5.0464016304270275e-08,1.1356791421417221e-07,2.57041487290468e-08,-7.492296859991904e-07,4.9391215325498676e-08,1.0747257804645696e-06,1.8635942198144894e-06,1.463234303703622e-06,1.8256975981562447e-06
3.0675440096866973e-07,6.601097892358055e-07,-2.478626208774811e-07,-1.2258408381436725e-07,-7.799837183408335e-07,-3.521993865902658e-07,1.1106720305548612e-06,-1.494355949027349e-08,1.54593906268388e-06,-9.578823168252488e-08,-9.169325439458119e-09,-5.3190824815941795e-08,-7.976865116864172e-07,7.096653370692912e-08,8.585647036980164e-07,1.832747463451059e-06,1.37276057344963e-06,1.7722844027983903e-06
2.647514547172794e-07,6.085006096132095e-07,-3.082789906100039e-07,-1.4686358224198345e-07,-8.755573838036692e-07,-4.1659464506772284e-07,1.028935460024678e-06,-9.881233162332507e-08,1.4763695755345043e-06,-1.4152847390615536e-07,-1.3440499673020238e-07,-1.1774089008407442e-07,-8.390480032667671e-07,1.0015214656030844e-07,5.551096939005689e-07,1.83756328927044e-06,1.2978729936407013e-06,1.7112898035290976e-06
2.19855590286347e-07,5.810485590643631e-07,-3.5788596583310477e-07,-1.735032565899232e-07,-9.679229592300351e-07,-4.807260054717191e-07,9.389042855120889e-07,-1.829840850412897e-07,1.4069862131065713e-06,-1.8139796313056128e-07,-2.24913224270103e-07,-1.6886291470217403e-07,-8.551850592729977e-07,1.26501304023343e-07,2.6611581063026626e-07,1.8598324435298437e-06,1.2370878867104405e-06,1.643742848743532e-06
1.7417510509541182e-07,5.656079635086186e-07,-3.96486326651896e-07,-2.0102879779789558e-07,-1.0509553356494448e-06,-5.426967074102883e-07,8.577258080213022e-07,-2.630419118085274e-07,1.3431153674997044e-06,-2.1477526649343484e-07,-3.107295753408133e-07,-1.9916669614515046e-07,-8.709498874846393e-07,1.4398784962671818e-07,6.810819828074898e-08,1.8497540244975412e-06,1.1859397667370078e-06,1.5723389447410437e-06
1.2733930594911253e-07,5.59344474513459e-07,-4.241482051754424e-07,-2.282585268797465e-07,-1.118672295615218e-06,-5.993425239321444e-07,8.050233744497434e-07,-3.340177496440613e-07,1.2895928393194096e-06,-2.410943626278664e-07,-3.7511763261286584e-07,-2.1098005377608794e-07,-8.725260126159781e-07,1.5122221770482072e-07,-1.3668895966577623e-08,1.7553877404179919e-06,1.138136662850189e-06,1.5009126109353655e-06
8.242743923305604e-08,5.527306209374155e-07,-4.409543105134456e-07,-2.537743561567817e-07,-1.166818537159819e-06,-6.254456816396637e-07,7.898813163215515e-07,-3.9215224955752887e-07,1.2492669145486432e-06,-2.6402971663022713e-07,-4.061816035703775e-07,-2.0740064549968292e-07,-8.563606025228956e-07,1.451083542173364e-07,-2.1812608869214668e-08,1.554448100178274e-06,1.0861886751178237e-06,1.4347062055851127e-06
4.1428194037657054e-08,5.479287595777593e-07,-4.470232770610699e-07,-2.7545445776173823e-07,-1.193364299912191e-06,-6.19866175611237e-07,8.11528441580163e-07,-4.35029882015449e-07,1.2252856004654054e-06,-2.861796121006529e-07,-4.305038258353452e-07,-1.895945178451453e-07,-8.287884643197594e-07,1.3605492660861735e-07,-5.204411554075386e-08,1.2638897228289626e-06,1.031818312577385e-06,1.3789270918889615e-06
5.660335990684716e-09,5.451571107051459e-07,-4.440496098733284e-07,-2.9203400043311305e-07,-1.1989519009383938e-06,-5.863571728972703e-07,8.646761017460672e-07,-4.645097635961812e-07,1.2170651266080139e-06,-2.9481141930745013e-07,-4.040482354784797e-07,-1.695778521171614e-07,-7.968984231910094e-07,1.214537717800132e-07,-2.0594450037431415e-07,9.265753048483447e-07,9.685349078449471e-07,1.3352064863970515e-06
-2.413785378388558e-08,5.417470719782861e-07,-4.3623543826619436e-07,-3.047219157691603e-07,-1.1864616809389092e-06,-5.310435592719229e-07,9.338438559074162e-07,-4.871240958138754e-07,1.2204707094218194e-06,-3.0395998382413243e-07,-3.557624743735878e-07,-1.5634189569349004e-07,-7.661359507235504e-07,8.888157077939045e-08,-5.299879222978326e-07,5.93468626319457e-07,8.975599394826102e-07,1.2993026037533867e-06
-4.929939965919724e-08,5.353602904053996e-07,-4.287270624185821e-07,-3.1670899995019553e-07,-1.1594013433524466e-06,-4.714570269317478e-07,1.0034029210353866e-06,-5.112545628651054e-07,1.2350737302865678e-06,-3.21511715470306e-07,-3.1063684867446257e-07,-1.5609371605958686e-07,-7.406770944571014e-07,4.374632092056165e-08,-9.70986424867195e-07,3.1179295144350896e-07,8.245906403556141e-07,1.262177971690873e-06
-7.102933405348911e-08,5.268358575586272e-07,-4.258567688480469e-07,-3.318328411440433e-07,-1.120001283730403e-06,-4.1673737643469553e-07,1.0665063392250144e-06,-5.442378152114687e-07,1.257645669192298e-06,-3.4641744416831354e-07,-2.465851401343249e-07,-1.6256483441089055e-07,-7.18864229353244e-07,-2.7774388645908493e-08,-1.3779953287787036e-06,1.1623988526825649e-07,7.454093172159811e-07,1.2134575861837115e-06
-9.00863176937002e-08,5.186366807183959e-07,-4.3089351305791175e-07,-3.5366640158131965e-07,-1.0682442568682507e-06,-3.277735811543632e-07,1.1192651540743348e-06,-5.892672132385768e-07,1.2750642033033574e-06,-3.6481359950999576e-07,-1.2965878976746734e-07,-1.147978138166889e-07,-6.925023682224123e-07,-1.1409089869020079e-07,-1.5636162188520774e-06,2.3016583718316282e-08,6.512047145563489e-07,1.145803697589822e-06
-1.0659587037881438e-07,5.157685008392963e-07,-4.458346222020495e-07,-3.8424951860258264e-07,-1.0014547969394125e-06,-2.106625024726829e-07,1.15516996284796e-06,-6.441013534272576e-07,1.3011522207435696e-06,-3.7353219625295e-07,3.2280593802456676e-08,-2.0060148610620853e-09,-6.469951702916084e-07,-1.815117085204237e-07,-1.4026277053414504e-06,3.013229512687927e-08,5.367969312245729e-07,1.0586422427855833e-06
-1.1918977040394388e-07,5.247403364676517e-07,-4.71156624056422e-07,-4.229110194617e-07,-9.146192441486342e-07,-5.144697665234972e-08,1.1944259066302545e-06,-7.027232284395085e-07,1.3488614556407888e-06,-3.443373858894404e-07,2.957402946266132e-07,2.31625306902745e-07,-5.64299073055358e-07,-1.800246224407568e-07,-9.13478078839677e-07,1.2175477163476626e-07,3.923289068962359e-07,9.592020382588118e-07
-1.2591871111779342e-07,5.524527492730632e-07,-5.065511383010192e-07,-4.6668059448084227e-07,-8.033352219220382e-07,1.7164502835607226e-07,1.2625120388694548e-06,-7.521515499940154e-07,1.425219239744824e-06,-2.4996469479166164e-07,4.95050350615811e-07,5.841850811779093e-07,-4.380990654456287e-07,-1.5376585744577537e-07,-2.681180219217582e-07,2.7324722632204043e-07,2.0545161227542293e-07,8.604000651739044e-07
-1.2586579014636404e-07,5.880644944026995e-07,-5.511128527888733e-07,-5.112500052588864e-07,-6.654202746452554e-07,3.7004059921584046e-07,1.4286626063592562e-06,-7.814170839597348e-07,1.6191361928419047e-06,-2.140011494811705e-07,6.070041198492749e-07,8.131185936612873e-07,-2.711243993329812e-07,-1.2131398376661735e-07,2.84691975418142e-07,4.5673873508664863e-07,-3.246633688894252e-08,7.766980791538136e-07
-1.204095048989151e-07,6.423135366737963e-07,-6.014751345878301e-07,-5.50785495290249e-07,-5.110304950030318e-07,5.197597452700423e-07,1.6698235142792384e-06,-7.885703973384092e-07,1.8964511800754523e-06,-1.8935851404737895e-07,6.639148991256305e-07,9.53384351262659e-07,-7.905092172879177e-08,-1.5560646553818376e-07,5.38385015344681e-07,6.44626719399425e-07,-2.83750241392817e-07,7.162600364499159e-07
-1.1258936944790347e-07,7.140082368942608e-07,-6.506199076846045e-07,-5.782342497132289e-07,-3.551457446741164e-07,6.642691729126958e-07,1.9950256432397268e-06,-7.56127435597382e-07,2.1197583191979513e-06,-1.4931093098169416e-07,7.227976025980517e-07,1.221123421203186e-06,1.1580369060317868e-07,-4.2814212949381673e-07,4.1741502947572203e-07,8.082131863154154e-07,-5.546262746361687e-07,6.817008367759591e-07
-1.0891966904239629e-07,7.8149571103667e-07,-6.903559740282454e-07,-5.880576513956746e-07,-2.1490631895510736e-07,7.798167824893802e-07,2.270455793223975e-06,-6.697146446238752e-07,2.253939587643854e-06,-1.1723921310710145e-07,9.826236193636301e-07,1.629358486132661e-06,2.903754343768032e-07,-6.34122341690832e-07,-8.533810176477079e-09,9.173305834691983e-07,-8.364783827070742e-07,6.642450469870823e-07
-1.1659464120682423e-07,8.309862887701545e-07,-7.153541129652053e-07,-5.793744401952043e-07,-1.1723740371630491e-07,8.936810824863529e-07,2.563540221679058e-06,-5.574088561186823e-07,2.2741302416317395e-06,-3.539051213923232e-08,1.189193998216543e-06,1.9866513585127598e-06,4.3989904175135775e-07,-6.218048549363954e-07,-5.845447724082805e-07,9.495206138762895e-07,-1.0476016994603443e-06,6.486267704339097e-07
-1.3978098152885064e-07,8.335777354248909e-07,-7.250695999350729e-07,-5.567000110621382e-07,-7.629568173357301e-08,1.0265000539532982e-06,2.772703609333362e-06,-4.4122924083267223e-07,2.274242750074096e-06,3.7989952631412e-08,1.2566236574403842e-06,2.188171771614263e-06,5.971546274976104e-07,-6.634332796430135e-07,-1.1469079005333043e-06,9.057559541639571e-07,-1.166238899633753e-06,6.226471458169961e-07
-1.776063559761175e-07,7.957014706904279e-07,-7.233447884555599e-07,-5.283229854279705e-07,-5.098168106777085e-08,1.155330310014731e-06,2.8079099375218915e-06,-3.168766698548296e-07,2.302170567192469e-06,1.0007148547705712e-07,1.2668027931247057e-06,2.2878744927975602e-06,6.880723611194233e-07,-8.594816582853292e-07,-1.5910393799738818e-06,8.163199544341249e-07,-1.111962266243239e-06,5.807105209262184e-07
-2.2247842769809663e-07,7.448124171491921e-07,-7.165261847984277e-07,-5.031889942497171e-07,-6.93536638510541e-08,1.2337937724781656e-06,2.8838262558307855e-06,-2.0000174737047702e-07,2.3294499053323784e-06,1.177122214268627e-07,1.3249386480941202e-06,2.2563979889555006e-06,6.707117063344239e-07,-1.0472207962687305e-06,-1.8806333924741475e-06,7.355121174206485e-07,-1.0212004713892387e-06,5.27157627075673e-07
-2.6552179623906347e-07,7.214888645187537e-07,-7.104232534560374e-07,-4.869636971160447e-07,-1.59188851061187e-07,1.3079175978434038e-06,2.992815525536559e-06,-1.0541610309218791e-07,2.346499887895059e-06,1.553623241863401e-07,1.3676060251443778e-06,2.2640911637550476e-06,5.749141679364838e-07,-1.1248993561267053e-06,-2.0147698630889577e-06,7.127239599225784e-07,-9.660745508187924e-07,4.750311453717972e-07
-2.970693769606943e-07,7.27751325138917e-07,-7.081260435053716e-07,-4.797424306129991e-07,-2.5262840420652933e-07,1.3856424586084915e-06,3.111095817281126e-06,-3.0863428707385134e-08,2.289719931606469e-06,1.8047739900163157e-07,1.4300069592762463e-06,2.3859773256397554e-06,4.884710997803639e-07,-1.1168802149303592e-06,-2.0062557439633977e-06,7.646417798034458e-07,-9.88519160098824e-07,4.4098297660797046e-07
-3.091959279142496e-07,7.238882928763652e-07,-7.105745727898193e-07,-4.776003653835181e-07,-3.31724478559298e-07,1.424627897645341e-06,3.154270364151857e-06,2.7655594317448416e-08,2.144666802248062e-06,1.9971173921455936e-07,1.5534936059364036e-06,2.42490114051696e-06,4.6466758459781596e-07,-1.105412330556267e-06,-1.8786336774529055e-06,8.67147726357568e-07,-1.1026512832104968e-06,4.3558330477447463e-07
-2.9860926602475103e-07,7.151373446922653e-07,-7.181375523923542e-07,-4.759142967365644e-07,-3.9402575378880974e-07,1.5086813171044946e-06,3.138739459542407e-06,7.616296718240744e-08,2.0308284236460337e-06,2.1084272675179028e-07,1.5272420425418123e-06,2.3874954460706275e-06,4.423027064475385e-07,-1.1373475176888593e-06,-1.6690378750904749e-06,9.705528872379637e-07,-1.2217438468615146e-06,4.589215823008498e-07
-2.672444150303855e-07,6.611000290355136e-07,-7.303699629118422e-07,-4.7101720401275474e-07,-4.2812122224124185e-07,1.5502040187319055e-06,3.0993641188242486e-06,1.1528434579021808e-07,1.9400632921879783e-06,1.9599842776367296e-07,1.4257964785247326e-06,2.2559576472442283e-06,4.6136898088945253e-07,-1.2368163867287042e-06,-1.4173855997644476e-06,1.0340781438240517e-06,-1.2554169118016562e-06,5.003243714822922e-07
-2.2196546992554443e-07,5.903356594242992e-07,-7.451690939115853e-07,-4.6062793676191545e-07,-4.308943492764606e-07,1.5758710405662373e-06,3.062662573020977e-06,1.492816764653248e-07,1.854146965607921e-06,1.6131612034082708e-07,1.310905985725179e-06,2.077278389600431e-06,5.188061670263238e-07,-1.2061275980086928e-06,-1.148981720550576e-06,1.0413057142370094e-06,-1.0957727832478584e-06,5.462649571382043e-07
-1.7343712784833447e-07,5.218816223208459e-07,-7.5945268536191e-07,-4.448943361441719e-07,-4.0589568644204704e-07,1.5943755601952828e-06,3.034686698304699e-06,1.682023950392123e-07,1.843089590566974e-06,1.0791878373834693e-07,1.2238355263015956e-06,1.8860336031934965e-06,5.579199141272615e-07,-1.2005706527476868e-06,-8.54871269131347e-07,9.996426843941689e-07,-9.091659546153011e-07,5.806693909505126e-07
-1.328600327592789e-07,4.4951541030459955e-07,-7.702662887020184e-07,-4.2678927595195215e-07,-3.6341432712979644e-07,1.6054467955966076e-06,3.0507556096262363e-06,1.6573772143379195e-07,1.8533159191288684e-06,5.743767168863724e-08,1.1299027142151558e-06,1.7323495932663107e-06,5.859282788469827e-07,-1.1606798108593573e-06,-5.053023260407141e-07,9.257312246855865e-07,-7.446757001526326e-07,5.919066076117225e-07
-1.0961444359699868e-07,3.8742227228872954e-07,-7.749884527471964e-07,-4.1049223240670204e-07,-3.174627891729646e-07,1.6355656283619311e-06,3.0904941193689284e-06,1.43098433482501e-07,1.8602141992467536e-06,7.838932354427424e-09,1.034502725294442e-06,1.6470681463941153e-06,5.984009305547009e-07,-1.0578862772089285e-06,-7.689305983481304e-08,8.371862165924682e-07,-6.076671023524032e-07,5.750591889405359e-07
-1.0613418312558872e-07,3.4660989483801834e-07,-7.720816540147416e-07,-3.9966737778135956e-07,-2.8189707755058744e-07,1.6468520972399484e-06,3.1183886201223364e-06,9.654169216454574e-08,1.8587078775264125e-06,-3.067246397321188e-08,9.539692819241699e-07,1.540117070041122e-06,5.923477122955071e-07,-9.355767813166769e-07,4.062252528667903e-07,7.51418743573313e-07,-5.231412236030369e-07,5.290768354537556e-07
-1.1959892056477895e-07,3.148414117340381e-07,-7.624603297134582e-07,-3.9710534485656147e-07,-2.666450434312809e-07,1.6373527649771401e-06,3.114356082483657e-06,2.6677697795906206e-08,1.8233896053039555e-06,-6.238178653134231e-08,8.537007070503585e-07,1.4153559137911107e-06,5.766122405907383e-07,-8.137778546140984e-07,8.520411148303588e-07,6.786952704149316e-07,-4.5842166493288074e-07,4.5600065136042447e-07
-1.4350238184936773e-07,2.866897169837215e-07,-7.473726197544209e-07,-4.043825554821378e-07,-2.752045845933811e-07,1.6240881158285787e-06,3.0589723763826078e-06,-6.380020186826186e-08,1.7619179542217407e-06,-1.0313709312646e-07,7.220800948409784e-07,1.334724214386032e-06,5.47029058163726e-07,-7.301821017950873e-07,1.1341483287400877e-06,6.167367419033893e-07,-3.948458329074129e-07,3.617629672113435e-07
-1.687456964091532e-07,2.46989413375068e-07,-7.309620734639111e-07,-4.200777476962509e-07,-3.0351977919301933e-07,1.56056131392457e-06,2.9575150960274373e-06,-1.6059827084303225e-07,1.6787721537652676e-06,-1.6075690110494463e-07,5.530084592311088e-07,1.1831811196550616e-06,5.02925378223678e-07,-6.716836792567593e-07,1.151959583012971e-06,5.520381017953464e-07,-3.289587155594555e-07,2.5520010105941963e-07
-1.8776565862847724e-07,2.1293528409374118e-07,-7.160659863759016e-07,-4.4161717021507396e-07,-3.4090123195957563e-07,1.4574824066309031e-06,2.8325541660232406e-06,-2.606411951576388e-07,1.5792746066888028e-06,-2.3178700124912318e-07,3.514062587288659e-07,1.0282931022971473e-06,4.484175610924852e-07,-6.166382244111782e-07,8.721079185933e-07,4.718373260512714e-07,-2.9985026344655215e-07,1.4690014011094745e-07
-1.9642827324915723e-07,1.8071502677139788e-07,-7.042730734983789e-07,-4.645628100581096e-07,-3.7655263552262573e-07,1.3464731963936576e-06,2.696222021561159e-06,-3.5100000397991803e-07,1.4745710220892383e-06,-2.8186874232926935e-07,1.4232072197625183e-07,8.861284978807763e-07,3.872825354351266e-07,-5.508942122242555e-07,3.315491898403324e-07,3.760559344261027e-07,-2.8898361074398414e-07,4.153594951945842e-08
-1.9246220467815635e-07,1.4390590789099703e-07,-6.968891607159698e-07,-4.825419022916407e-07,-4.024423158108349e-07,1.2016622019290082e-06,2.5610327466095627e-06,-4.262536842850669e-07,1.3733379747937545e-06,-3.2129040803989963e-07,2.946193483337081e-10,7.247511793522604e-07,3.225406315815871e-07,-5.269156902205418e-07,-4.0251742576019683e-07,2.822074852237448e-07,-2.8245703790375403e-07,-5.858722315212869e-08
-1.7542717217944233e-07,1.1163718338570038e-07,-6.938792364817348e-07,-4.894239500287266e-07,-4.152986162303232e-07,1.068430358438661e-06,2.4396210383923132e-06,-4.844020187875349e-07,1.2821037957220501e-06,-3.468768621895816e-07,-1.0792474139475475e-07,5.826588221796173e-07,2.568322140340466e-07,-5.429906994464932e-07,-1.247054845086562e-06,2.0966186111261484e-07,-2.7848719417981735e-07,-1.5252364322446196e-07
-1.4844343000103187e-07,7.537864114565609e-08,-6.954471849277259e-07,-4.812974938264752e-07,-4.2063396020466496e-07,9.684654795813411e-07,2.33099941801371e-06,-5.261687716059685e-07,1.2000483776763126e-06,-3.539661310285951e-07,-1.9562945712008905e-07,4.688636978932679e-07,1.8976254226135904e-07,-5.770970187103073e-07,-2.0828419536606753e-06,1.7800132963360593e-07,-2.816594304771305e-07,-2.398083497625555e-07
-1.1715802125662805e-07,3.6089081457341486e-08,-7.031979461388655e-07,-4.6008383445504697e-07,-4.2956971064181646e-07,8.911963688149468e-07,2.2306294893338974e-06,-5.588259433346513e-07,1.1213710626488897e-06,-3.5286758688741237e-07,-2.538354866698164e-07,3.6883181443165717e-07,1.209109955668776e-07,-6.160098788478832e-07,-2.744591798280535e-06,2.0066639912077549e-07,-2.98114521220442e-07,-3.158758330957676e-07
-8.886993224995544e-08,-2.4482220386132537e-09,-7.170353327613449e-07,-4.315103123670244e-07,-4.539024829616951e-07,8.381419175756147e-07,2.137557083345293e-06,-5.853249381339751e-07,1.040683165682127e-06,-3.4257169691323126e-07,-2.8287505310458486e-07,2.7006990338521253e-07,5.169755099722245e-08,-6.295706313129237e-07,-3.0648016864303066e-06,2.782077205893585e-07,-3.2405343393761566e-07,-3.741338758293161e-07
-7.070043183892355e-08,-3.812332080093305e-08,-7.340393990649145e-07,-4.03984562117728e-07,-5.008047630148492e-07,8.267015300311103e-07,2.051788285697004e-06,-6.154726933830054e-07,9.547872843204755e-07,-3.223821636193379e-07,-2.873567929890585e-07,1.9848036711891445e-07,-8.17269355461772e-09,-6.055516524490838e-07,-2.9649243379733944e-06,3.9912719097907763e-07,-3.570161074655573e-07,-4.0890372480436745e-07
-6.711530186493852e-08,-7.403300309401393e-08,-7.47833925320456e-07,-3.832269326372548e-07,-5.663395922094629e-07,8.084726878193862e-07,1.9697905485768246e-06,-6.461160935801765e-07,8.623163215412008e-07,-2.978167663510522e-07,-3.1159433288540544e-07,1.3809575855040197e-07,-5.613217312194226e-08,-5.563558081837909e-07,-2.5128401744835658e-06,5.435788738156229e-07,-3.745278363267361e-07,-4.248021016074476e-07
-7.707936021704934e-08,-1.0789061777158035e-07,-7.512210846466925e-07,-3.711379902254453e-07,-6.405248137869914e-07,7.744706126887515e-07,1.8945976435315226e-06,-6.752138387609704e-07,7.674779685223275e-07,-2.786486760719411e-07,-3.5471977702836515e-07,5.7534724547449725e-08,-8.986954985150428e-08,-5.085527949932165e-07,-1.896975437730714e-06,6.91038363476506e-07,-3.774073404428512e-07,-4.2409331668173255e-07
-9.707385479738333e-08,-1.3818099999943014e-07,-7.450271127276243e-07,-3.7212971675692814e-07,-7.078031536611305e-07,7.428971701918334e-07,1.8307274501775535e-06,-6.978506950533173e-07,6.789502559153411e-07,-2.593212116007597e-07,-4.206108677312886e-07,2.478250200530985e-09,-1.1154986235875524e-07,-4.744323959087671e-07,-1.3391439332540845e-06,8.246165535445644e-07,-3.776510213685725e-07,-4.1614153022068343e-07
-1.2056580430244307e-07,-1.6688760501956996e-07,-7.314974697581213e-07,-3.854328295680286e-07,-7.514390073972375e-07,7.015797450279745e-07,1.7795390613062384e-06,-7.139803995102884e-07,6.066508459073234e-07,-2.4071218168691864e-07,-4.884820927657273e-07,-3.3775058284258164e-08,-1.2340144311961238e-07,-4.766358588116913e-07,-9.834237836542444e-07,9.258779570317414e-07,-3.6120661105462026e-07,-4.1545550324961906e-07
-1.402779778818828e-07,-1.9463579369341978e-07,-7.178300984350505e-07,-4.105113463041848e-07,-7.609599817475396e-07,6.646469326701029e-07,1.7409515068464392e-06,-7.27938962254576e-07,5.603068393962168e-07,-2.2826070509768084e-07,-5.427002627724127e-07,-6.552427130739408e-08,-1.380867531947293e-07,-5.308086775018907e-07,-8.594921148882756e-07,9.810928870382608e-07,-3.601389930511511e-07,-4.108452991295006e-07
-1.5600075600960637e-07,-2.2381078377428407e-07,-7.133946509631655e-07,-4.472664783545813e-07,-7.329979639240233e-07,6.391045095233819e-07,1.7128409031325494e-06,-7.417228669084135e-07,5.446209122957012e-07,-2.2548782283541253e-07,-6.162392313231977e-07,-9.362738580085987e-08,-1.595966108275474e-07,-6.095881113640041e-07,-8.996477371063474e-07,9.756600528052176e-07,-3.738658570776287e-07,-4.2416213300267246e-07
-1.6078885474826274e-07,-2.5552893598155603e-07,-7.235560583330889e-07,-4.893857216424905e-07,-6.716039714967232e-07,6.269863859493002e-07,1.683844198203893e-06,-7.572426006604849e-07,5.533956480211857e-07,-2.3379460019450882e-07,-6.555093083217827e-07,-1.3816309549060743e-07,-1.882190636004236e-07,-6.956856155641264e-07,-9.999482903292245e-07,9.056576983526621e-07,-3.91318561542127e-07,-4.5988580796587687e-07
-1.521445095426922e-07,-2.8874746713506333e-07,-7.472799276648792e-07,-5.347112022567651e-07,-5.904454290910902e-07,6.017762385758522e-07,1.6550309779263174e-06,-7.703798532610527e-07,5.681929176405799e-07,-2.515728540568265e-07,-6.774072905105982e-07,-2.070490198603e-07,-2.1384301962726607e-07,-7.720185451054079e-07,-1.0393521846024057e-06,7.795408068966825e-07,-4.206816402083135e-07,-5.083693250433891e-07
-1.334377706522117e-07,-3.213975190688823e-07,-7.817554489532514e-07,-5.788484848782185e-07,-4.965660146639772e-07,5.702969187034333e-07,1.611207477741124e-06,-7.777253326308191e-07,5.877100070376912e-07,-2.7376719330310834e-07,-7.138857762205941e-07,-2.9035060163047067e-07,-2.3882709086862356e-07,-8.147816916144435e-07,-9.868585022799572e-07,6.128624404657054e-07,-4.416106495926896e-07,-5.643133249539438e-07
-1.0783024126312055e-07,-3.5081691552199315e-07,-8.196351608949807e-07,-6.162451494732664e-07,-4.0563177054083046e-07,5.346177439421629e-07,1.5755440748608203e-06,-7.753378281926124e-07,6.021168931196636e-07,-2.956696246183252e-07,-7.528683852620932e-07,-3.779234747788556e-07,-2.695194194563414e-07,-8.334630525125395e-07,-8.489578348039024e-07,4.459962621063156e-07,-4.3751165917269254e-07,-6.079116963278411e-07
-8.793556178823192e-08,-3.747315400400676e-07,-8.491106629984138e-07,-6.428102759197064e-07,-3.325461757024026e-07,5.097023627061402e-07,1.5491405740124206e-06,-7.598901597821715e-07,6.00202320111975e-07,-3.146975365589766e-07,-8.111495708824608e-07,-4.75691189556363e-07,-3.135353016845286e-07,-8.257194164620374e-07,-6.334368495100319e-07,2.9254396004631054e-07,-4.1222307189940837e-07,-6.280891293575263e-07
-7.866731611108621e-08,-3.921686761950886e-07,-8.612892629859045e-07,-6.569492541962195e-07,-2.847042676252014e-07,4.86036766587167e-07,1.5236502547901349e-06,-7.338201173710047e-07,5.922042258188208e-07,-3.297007744021242e-07,-8.765083066767711e-07,-5.817231067902618e-07,-3.719069509068916e-07,-7.952517887090999e-07,-4.0903451027832794e-07,1.4958436565877516e-07,-3.5944435764476505e-07,-6.195306644176705e-07
-8.387716113240454e-08,-4.0299790625577586e-07,-8.480028642739242e-07,-6.608619668767548e-07,-2.6853821581167025e-07,4.546205788815676e-07,1.4937122655963911e-06,-6.97472040597167e-07,5.634318687814377e-07,-3.3848899862750946e-07,-9.46303179039135e-07,-6.784802835584666e-07,-4.3453913759124987e-07,-7.380232766339608e-07,-2.6009912053830775e-07,1.0580019894185255e-08,-2.8293421658899844e-07,-5.868462174843467e-07
-1.0693090613145729e-07,-4.065442768252104e-07,-8.081625915941851e-07,-6.60165758123625e-07,-2.691638998797129e-07,4.308184081646303e-07,1.4463600259421943e-06,-6.53923805372991e-07,5.18586842390756e-07,-3.391715788504751e-07,-9.71292618296808e-07,-7.514741813797167e-07,-4.932063153210474e-07,-6.721905186167741e-07,-2.62855115741772e-07,-1.393319090749422e-07,-2.0169409804894717e-07,-5.337455162308298e-07
-1.440653999846977e-07,-4.008904675967919e-07,-7.464867785779808e-07,-6.635531527620629e-07,-2.724651782975176e-07,4.047314728056152e-07,1.4365494431323468e-06,-6.102080878301575e-07,5.125497095781265e-07,-3.327020651505362e-07,-9.287300000788137e-07,-8.064068781165159e-07,-5.336201596682418e-07,-5.873471917241854e-07,-4.5238302689576614e-07,-3.0853910335132784e-07,-1.9079524821953025e-07,-4.710002250781628e-07
-1.9527479623731707e-07,-3.832218915960453e-07,-6.746921233882707e-07,-6.80287827218689e-07,-2.5327796668018306e-07,3.726840305332272e-07,1.4233060813912707e-06,-5.718212298617165e-07,5.67267152203135e-07,-3.1678431535221323e-07,-8.088635735437108e-07,-7.441968009697988e-07,-5.564457763166894e-07,-4.884409690149766e-07,-7.990347302950157e-07,-5.137528452291707e-07,-2.4709332922296806e-07,-4.072626646559535e-07
-2.563060538262538e-07,-3.508444401193987e-07,-6.086184961275551e-07,-7.216754847615932e-07,-1.5014805466314227e-07,3.582341842013768e-07,1.4798193648338338e-06,-5.456166838862292e-07,6.76092197178843e-07,-2.8969978094740376e-07,-6.985130494581658e-07,-6.552561156091662e-07,-5.561878645559389e-07,-3.3393938332403417e-07,-1.203630622908663e-06,-7.262659835118198e-07,-4.121548224179884e-07,-3.322562340210956e-07
-3.261292646390441e-07,-3.0162488915887175e-07,-5.805414055912013e-07,-8.000708395404123e-07,-7.052294013167556e-08,3.714323517019527e-07,1.5212782297281517e-06,-5.355991382089961e-07,7.543490172327728e-07,-2.5363974518049014e-07,-6.575562999962158e-07,-5.547306372784574e-07,-5.315623980053767e-07,-1.4803427594520336e-07,-1.6192748577751227e-06,-9.190198401655308e-07,-4.865862871510521e-07,-2.654619692236502e-07
-3.9557866344901785e-07,-2.396528261372667e-07,-5.89807926521019e-07,-8.905675539349962e-07,1.097156788682832e-08,4.0844288565883737e-07,1.4756881762218174e-06,-5.431260899799059e-07,7.656842242836195e-07,-2.1803469015581147e-07,-6.374420795725315e-07,-3.974933508889335e-07,-4.920335819555785e-07,-3.807428732134959e-09,-1.9088815780092372e-06,-1.0721414810459574e-06,-4.0405437362568656e-07,-2.0841678633497898e-07
-4.529658475986536e-07,-1.7376628075066522e-07,-5.963539194981156e-07,-9.882234762392527e-07,1.9384802701614063e-07,4.7017105563536026e-07,1.622320612479055e-06,-5.647547798796483e-07,7.378962253619591e-07,-1.8824316802046294e-07,-5.249456858339533e-07,-2.256120158563742e-07,-4.612004026670692e-07,1.35825252858948e-07,-2.0347549981227313e-06,-1.1047546939077316e-06,-4.75750382753739e-07,-1.6201165917343925e-07
-4.932374958023153e-07,-1.1673528867852874e-07,-6.637537815294391e-07,-1.084992339375286e-06,3.750698834829432e-07,4.9874265338461e-07,1.6595489510325516e-06,-5.960424541321401e-07,7.406356708342761e-07,-1.606350788591347e-07,-5.358732596295903e-07,-2.614228584061563e-07,-4.665526940961503e-07,1.7542034646061551e-07,-1.967228030664027e-06,-1.0328387999466338e-06,-5.733238970880093e-07,-1.6854008880346718e-07
-5.044590023711109e-07,-1.1022197970814794e-07,-7.180212173762052e-07,-1.1418476023388842e-06,4.0167708477635397e-07,4.342720498526802e-07,1.4438760549721346e-06,-6.334064799728464e-07,6.158052133866432e-07,-1.3578937131169713e-07,-6.53066306407522e-07,-5.38118643559053e-07,-5.204311079710258e-07,1.8455612116390507e-07,-1.6329672699969864e-06,-8.812477053325814e-07,-4.5702573387818607e-07,-1.5650281959881e-07
-5.113997220816962e-07,-1.2072258049242583e-07,-7.802853537683814e-07,-1.1434050475019015e-06,3.000855132537977e-07,2.0980267380230023e-07,1.2116395234820298e-06,-6.698141728849769e-07,4.5089632451832466e-07,-1.2477778152361055e-07,-8.441898925230591e-07,-7.727071776228082e-07,-6.747368374065288e-07,2.178496683822824e-07,-1.0334572815618097e-06,-6.557074744222175e-07,-2.862913745071084e-07,-9.519224091889159e-08
-5.381751927092711e-07,-1.4536428028218255e-07,-7.733902739925249e-07,-1.1055376891488646e-06,1.4437562000815737e-07,-9.519852686391548e-09,9.69424335059725e-07,-7.007132034726006e-07,3.5115009112895603e-07,-1.4409926116528386e-07,-1.0187258548578708e-06,-9.404740147588561e-07,-8.590467068098452e-07,4.211579183023948e-07,-2.9606803339236074e-07,-3.712205557093834e-07,-1.654554786139926e-07,1.0515033620934537e-07
-6.351332590734328e-07,-1.6702805856664363e-07,-6.629091348707444e-07,-1.0417316024726666e-06,1.1890200711356659e-08,-1.7848692823688312e-07,7.14514244139593e-07,-7.229207543477425e-07,2.2793135663818006e-07,-2.0368039520599152e-07,-1.172312709252185e-06,-1.115380933223477e-06,-9.928015301684311e-07,5.934644076112211e-07,4.944980466152214e-07,-3.354130254358941e-08,-5.804588886535981e-08,3.4423800407123105e-07
-7.502170174035117e-07,-2.454157819698569e-07,-5.271194732405432e-07,-1.02628045443873e-06,-1.4045047319143721e-07,-3.434257861035736e-07,4.7115340295526606e-07,-7.421360243580441e-07,1.0028956838574112e-07,-2.688870220310983e-07,-1.3190452480896568e-06,-1.2686721882186609e-06,-1.0705586855680687e-06,7.74285134825783e-07,1.226731152977822e-06,3.143822590512383e-07,7.614007254256038e-08,5.14591102354853e-07
-8.469354494488483e-07,-3.389172252657183e-07,-4.4981902446815563e-07,-1.0061426836674295e-06,-2.5196308505421255e-07,-5.068299457452005e-07,2.500685092775827e-07,-7.508728929095779e-07,2.5165288842811533e-08,-3.066449068214302e-07,-1.4386820937699445e-06,-1.415062894628992e-06,-1.1558622724897093e-06,9.541550637834395e-07,1.6051315035337048e-06,5.921387197669858e-07,1.9989246916065312e-07,6.350477679576306e-07
-9.154743460680702e-07,-4.1193595466977686e-07,-3.7899732979426104e-07,-1.0317245453898429e-06,-3.781725881899993e-07,-6.430616220416744e-07,-1.4619620327161644e-08,-7.357283905003322e-07,-9.789389540468027e-08,-2.46069254405015e-07,-1.5051359387371325e-06,-1.5378623475491946e-06,-1.2391781845474715e-06,9.182365360383996e-07,1.7573077051433766e-06,7.245108446907054e-07,3.355877858258123e-07,7.483499627239965e-07
-9.821860773725442e-07,-4.635684387056278e-07,-3.546463784531922e-07,-1.0483040388524663e-06,-5.695717971396488e-07,-7.52558553858319e-07,-3.687559759661372e-07,-6.919612551721335e-07,-2.580898976723147e-07,-1.578829202500811e-07,-1.5869624640099408e-06,-1.6020880540921038e-06,-1.3235597030029125e-06,9.437211138529124e-07,1.8231092148665362e-06,7.580771576738252e-07,4.5151001715617785e-07,8.383762471905655e-07
-1.0419181768372696e-06,-5.003369230319072e-07,-3.276227849577337e-07,-9.900146138036594e-07,-7.760175074510611e-07,-9.538265586503475e-07,-6.583233361653451e-07,-6.075921325829388e-07,-4.033413703344234e-07,-1.1407671509200924e-07,-1.6141855614925429e-06,-1.71800956738976e-06,-1.4007208833528536e-06,1.0858217269970205e-06,1.8626738729656894e-06,7.163472764719006e-07,5.016363670405855e-07,9.473642833068438e-07
-1.1027121323257263e-06,-5.288233250512499e-07,-2.679541050031648e-07,-8.752826434590895e-07,-9.692224906530976e-07,-1.1540483608461937e-06,-8.087821993020607e-07,-4.92109724751592e-07,-5.800381945987422e-07,-8.498564692084451e-08,-1.7204171522609097e-06,-1.83858643748036e-06,-1.486241825478117e-06,1.3630705683115329e-06,1.934536630529128e-06,6.176799219346267e-07,5.560970880088767e-07,1.0071834989510854e-06
-1.1630077657390295e-06,-5.583799805161533e-07,-1.1338560993304135e-07,-7.545861678577686e-07,-1.1941513872068936e-06,-1.4367671486977796e-06,-1.0513392249951424e-06,-3.7254894887542065e-07,-7.253317094497518e-07,-8.769056665064111e-08,-1.9074732350535456e-06,-1.8945451374950666e-06,-1.5714167500704718e-06,1.5368789016431463e-06,1.964347306839819e-06,5.456114836697035e-07,5.873581511276258e-07,1.0731752667684971e-06
-1.208809134216075e-06,-5.944456745737852e-07,1.526621258539768e-08,-6.372634168886858e-07,-1.402180432030534e-06,-1.6758201685058942e-06,-1.2078360959230282e-06,-2.583217776610798e-07,-8.860340610352678e-07,-1.403698959960148e-07,-2.050987261674415e-06,-1.8933014333282021e-06,-1.685221640453146e-06,1.5904342190260316e-06,1.7513400165838176e-06,4.504481853623244e-07,6.711271351777065e-07,1.2245444238377965e-06
-1.2505277192716795e-06,-6.371583390320297e-07,8.260311493314462e-08,-5.907040279406789e-07,-1.5352856581169172e-06,-1.8128724700822396e-06,-1.327329799477291e-06,-1.521341072851736e-07,-1.0689389351669772e-06,-6.44471799318858e-08,-2.187905439141522e-06,-1.8877817912864188e-06,-1.7726449939343432e-06,1.5414886455410607e-06,1.3431900513733962e-06,3.5294205343146516e-07,7.602408073368905e-07,1.4030528719810505e-06
-1.2777005301009459e-06,-6.828445398151883e-07,1.1211043760933307e-07,-5.819646858244126e-07,-1.6001983575372002e-06,-1.964819015983846e-06,-1.4993576108401478e-06,-6.384278707725467e-08,-1.147230320853266e-06,-1.935200916959993e-08,-2.289529379362322e-06,-1.8776434693759887e-06,-1.7765033460268047e-06,1.525731802588585e-06,1.0595714547636212e-06,4.3622289777973745e-07,7.648675244727621e-07,1.491245012394082e-06
-1.314638394117657e-06,-7.264754043718692e-07,4.101393390914296e-09,-5.929409258212144e-07,-1.6022177552293967e-06,-2.1018194751510043e-06,-1.5745719558342285e-06,-2.4665365551922265e-08,-1.1566049352069364e-06,-6.151592308539036e-08,-2.2938667090910726e-06,-1.90155845821176e-06,-1.7555356608557203e-06,1.587726039060896e-06,8.427686941870322e-07,6.844795757084132e-07,7.506266710320688e-07,1.586346764704989e-06
-1.3362414912908568e-06,-7.639294192942683e-07,-1.0833955353334149e-07,-6.305288210341679e-07,-1.5576963346442551e-06,-2.202023167290976e-06,-1.7121909105677475e-06,-3.620204097111219e-08,-1.2271383600197898e-06,-1.1771458883483703e-07,-2.300117821527091e-06,-1.977595021155946e-06,-1.7548724637430652e-06,1.7046413459369316e-06,7.323205461713664e-07,9.329613188085055e-07,7.757126607700438e-07,1.5825299816950275e-06
-1.3479648735183105e-06,-7.931452714205706e-07,-1.3614576380861248e-07,-7.117960228692004e-07,-1.6034567896168537e-06,-2.3245488727989234e-06,-1.9243031953147864e-06,-1.1323301367836853e-07,-1.2421379922210353e-06,-1.604937064230266e-07,-2.2828040585001243e-06,-2.04411167482082e-06,-1.7485620772649638e-06,1.7750101304426751e-06,6.082929066024457e-07,1.1518009503712306e-06,7.81443593895229e-07,1.5554604513582568e-06
-1.3743789232554889e-06,-8.140668755540983e-07,-1.5764398214289898e-07,-8.683439804590416e-07,-1.6130281584992346e-06,-2.479248192281977e-06,-2.1599649350135098e-06,-2.746224168290049e-07,-1.2916715672405035e-06,-2.2448182625168016e-07,-2.343320906717832e-06,-2.0735745231501086e-06,-1.779060836249302e-06,1.7603827048543035e-06,4.159655170932734e-07,1.1474092135958761e-06,8.110286031259582e-07,1.5768538522189402e-06
-1.3913482838644037e-06,-8.284218715915322e-07,-1.614913285570958e-07,-9.422744266044229e-07,-1.642203400771665e-06,-2.621540921216881e-06,-2.278720697631745e-06,-3.6101489660706486e-07,-1.2997122382216081e-06,-2.8249064463000753e-07,-2.4940121314813157e-06,-2.145300846518088e-06,-1.8084390425975477e-06,1.7071565061237713e-06,2.1270565439634685e-07,7.147075483950913e-07,8.186749879149009e-07,1.5605674130283642e-06
-1.3963342731159978e-06,-8.397028864686898e-07,-1.7498400420284604e-07,-1.0018374836028674e-06,-1.6882933789302314e-06,-2.702478358085959e-06,-2.301794064489244e-06,-3.8940352948722153e-07,-1.2895145286951674e-06,-3.483036472957904e-07,-2.5243538518797796e-06,-2.248961730598807e-06,-1.8488410664726326e-06,1.6231362106956635e-06,-9.835991003635813e-08,4.996576325178515e-07,8.585502070600711e-07,1.5618008111049642e-06
-1.4247825516868684e-06,-8.524204015910308e-07,-1.7757855292227768e-07,-1.0149132933911277e-06,-1.668682433989244e-06,-2.738785615631787e-06,-2.259815072049165e-06,-3.7632857507561326e-07,-1.3035796207439027e-06,-4.1813699948192255e-07,-2.5632037034021237e-06,-2.3251169490877763e-06,-1.864302715539961e-06,1.5611127520524265e-06,-3.8627132469392075e-07,4.6386509451702365e-07,9.513609729841102e-07,1.6596268181320959e-06
-1.4658789681390734e-06,-8.70753084408548e-07,-1.685283276418001e-07,-1.0281298048210977e-06,-1.6027410177940542e-06,-2.768762653292243e-06,-2.166529834425526e-06,-4.003636987428596e-07,-1.350178244408633e-06,-4.631100533844292e-07,-2.6884314978663213e-06,-2.339646528762248e-06,-1.8967988964626685e-06,1.5528223624388336e-06,-2.978051468465095e-07,4.656016303276621e-07,1.0622754854678672e-06,1.7233188020121665e-06
-1.457103525269186e-06,-8.976676450641142e-07,-2.7553490276228796e-07,-1.0323706340037107e-06,-1.422503528787592e-06,-2.789301505583713e-06,-2.1138137295074864e-06,-4.310636799807128e-07,-1.3448160484318123e-06,-5.070829272139086e-07,-2.7275312683517614e-06,-2.169707021679042e-06,-1.9295572996715276e-06,1.6428362704221153e-06,4.672350729654486e-08,7.529440675653418e-07,1.138486793915649e-06,1.7511856811985779e-06
-1.5025832150149235e-06,-9.343092352687144e-07,-4.698632102553901e-07,-1.1020417408567778e-06,-1.1523372207190948e-06,-2.7840584047223192e-06,-2.071104399831738e-06,-4.690160027972887e-07,-1.2864228397193932e-06,-5.631459183419412e-07,-2.727527544372789e-06,-2.036980982796605e-06,-1.8969814306801014e-06,1.7713980111737982e-06,6.90563693102633e-07,9.941413199957918e-07,1.0986433903304864e-06,1.8055303452095506e-06
-1.5556869556586227e-06,-9.791483518814678e-07,-6.554697747997679e-07,-1.248281458609547e-06,-8.866040282512318e-07,-2.672998862576603e-06,-1.9600787003170727e-06,-5.531762116879914e-07,-1.2089000444019617e-06,-6.823870859953587e-07,-2.711032457901739e-06,-1.928513449862991e-06,-1.834854933335092e-06,1.8720255464761403e-06,1.1395437964583921e-06,1.1140826809535888e-06,1.043053364095883e-06,1.8179197780585054e-06
-1.5830369884751627e-06,-1.0280776762304616e-06,-7.839974637522351e-07,-1.3903191049041851e-06,-6.748223940436502e-07,-2.5521905848184863e-06,-1.8336269567229084e-06,-6.54808466504991e-07,-1.0389554699083764e-06,-7.716953776789666e-07,-2.6395822238791216e-06,-1.8630376414962828e-06,-1.7915024799752321e-06,1.9044883480179777e-06,1.4691572635169992e-06,1.2002220758816225e-06,9.667629708913823e-07,1.800138597456223e-06
-1.5783166081830187e-06,-1.0764859188844245e-06,-9.188953680141678e-07,-1.5769479408780567e-06,-5.260389144101014e-07,-2.4302174992686667e-06,-1.6958018207058416e-06,-7.749332843494609e-07,-8.677223831126217e-07,-8.381508315356416e-07,-2.5967372943464e-06,-1.8995666189972934e-06,-1.7201314179741925e-06,1.8340680748087491e-06,1.50453597831531e-06,1.2679548493430263e-06,8.400660062402969e-07,1.7793834674234374e-06
-1.5426149467340771e-06,-1.1216883692665147e-06,-1.0289454545774337e-06,-1.7885162824299627e-06,-4.793203833584271e-07,-2.28393051323488e-06,-1.545189322637689e-06,-8.826925417845295e-07,-7.373718087671966e-07,-8.806387855373449e-07,-2.4877278158372147e-06,-2.037008307462615e-06,-1.6265871086130431e-06,1.8123059988630359e-06,1.3870156133244289e-06,1.2385847588826878e-06,7.144889517831259e-07,1.7016341543334406e-06
-1.4993364622253382e-06,-1.1637910133726408e-06,-1.247382608327526e-06,-1.9815303573165116e-06,-3.4463053692860997e-07,-2.149329956872489e-06,-1.4233628216605041e-06,-9.81592447683766e-07,-6.27463852359263e-07,-8.805578090198861e-07,-2.3480040176933344e-06,-2.3060505633385304e-06,-1.6663559067105596e-06,1.942488811452397e-06,1.098812949648487e-06,1.0785544921207033e-06,5.905169666051462e-07,1.5861763746297247e-06
-1.4159582225607493e-06,-1.2053758218920527e-06,-1.4173797430507537e-06,-2.1313979622640423e-06,-2.323889255560956e-07,-2.0160372754043626e-06,-1.3283703313281625e-06,-1.0946119394989986e-06,-5.490579719271568e-07,-9.146385625030143e-07,-2.3196630145309125e-06,-2.3606278960414007e-06,-1.6447600409773805e-06,2.044961137898073e-06,4.933744729751005e-07,7.323166805130372e-07,5.011465105416096e-07,1.4370643059399192e-06
-1.3460841254138019e-06,-1.2507697965167484e-06,-1.548078473211439e-06,-2.208986866946244e-06,-1.1047969338782522e-07,-1.910910899911709e-06,-1.2650957720645734e-06,-1.2280337252902974e-06,-5.368662833894244e-07,-9.576499844764349e-07,-2.3461038291174213e-06,-2.303289772776005e-06,-1.6016131803175895e-06,2.1099480273083786e-06,-1.3385935339987715e-07,3.7120536753622673e-07,4.611980978679208e-07,1.2457054099853175e-06
-1.342872323648617e-06,-1.3042568427989036e-06,-1.63229090834618e-06,-2.2695312976738117e-06,-1.1470145414035031e-08,-1.8545560958130687e-06,-1.2399971431931706e-06,-1.3900048077418535e-06,-4.548600194844874e-07,-9.986097141117939e-07,-2.3088567630092212e-06,-2.1454000476100243e-06,-1.5473256610759414e-06,1.981349403497688e-06,-7.29727850222668e-07,-1.027072079498893e-08,3.9537278718460974e-07,1.0368736565525862e-06
-1.3386437408625345e-06,-1.3672988765313291e-06,-1.7070824544028192e-06,-2.3104315702178237e-06,-5.3626229862985427e-08,-1.8904171796784229e-06,-1.305240536894323e-06,-1.5396472349148001e-06,-4.1650100366328206e-07,-1.069268186435655e-06,-2.2444515977535984e-06,-1.921602737041042e-06,-1.422775436136392e-06,1.8479732820246095e-06,-1.2787231363183374e-06,-4.86605030704994e-07,3.574469841659019e-07,7.952667351064155e-07
-1.3121802652447608e-06,-1.4370741056600989e-06,-1.7538419977776862e-06,-2.3381442995264695e-06,-1.729064674854528e-07,-1.9685637052865915e-06,-1.4291318020121248e-06,-1.678023176275513e-06,-4.69305380532437e-07,-1.1061577410593169e-06,-2.148595021393448e-06,-1.8582740169789844e-06,-1.334916758699983e-06,1.80513341303437e-06,-1.7893365855471238e-06,-9.676414887378644e-07,2.960761071491147e-07,5.494268455298982e-07
-1.3295045161737028e-06,-1.5076288472655543e-06,-1.7634169784751799e-06,-2.390545692482786e-06,-3.1206362673058797e-07,-2.046166802192842e-06,-1.5775887809036068e-06,-1.798139360073415e-06,-5.589422491310982e-07,-1.099600553388813e-06,-1.971784857335669e-06,-1.9303293167982036e-06,-1.3326590598598672e-06,1.711807724261958e-06,-2.35375467854488e-06,-1.4726815909222273e-06,2.408172271491964e-07,3.2697419250516546e-07
-1.3845582493640947e-06,-1.5719514202891162e-06,-1.7876911409948202e-06,-2.4597263283317105e-06,-4.983124707364354e-07,-2.119403965259896e-06,-1.7341746933095612e-06,-1.8898669815611863e-06,-6.722906073151731e-07,-1.0995178561329255e-06,-1.993506701525829e-06,-2.0060007896975004e-06,-1.4917400979367612e-06,1.6022430428180587e-06,-2.9403770580367534e-06,-1.8945357734026264e-06,1.8149605836384e-07,8.971739611223077e-08
-1.4178759039423067e-06,-1.6233693348998236e-06,-1.8156313090258684e-06,-2.5388990628437724e-06,-6.593870383461195e-07,-2.1623117135056165e-06,-1.8699998552150624e-06,-1.9711926785975273e-06,-7.917851669401657e-07,-1.0950294541355227e-06,-2.1382345313743523e-06,-2.0646331265024004e-06,-1.6246211491238335e-06,1.507571382928149e-06,-3.589378929459909e-06,-2.1571133142554684e-06,1.1815216480569551e-07,-6.409352701133676e-08
-1.4574179930413773e-06,-1.656504446055446e-06,-1.831566817016423e-06,-2.621565378452601e-06,-7.377658623949884e-07,-2.176101796292521e-06,-1.9731899524880464e-06,-2.0310905667095335e-06,-8.2959882598602e-07,-1.1191708116406639e-06,-2.2419830595340606e-06,-2.09144468259365e-06,-1.6609867691923752e-06,1.290279138964021e-06,-4.129907216410951e-06,-2.2469655406257055e-06,9.414255987506401e-08,-1.535184060871213e-07
-1.5123884688394831e-06,-1.6680998940456364e-06,-1.852645509890757e-06,-2.656938795702772e-06,-7.681472547471163e-07,-2.1736792653166884e-06,-2.0371869224619544e-06,-2.061640333706614e-06,-8.123166630572315e-07,-1.165114412160621e-06,-2.3357576797052338e-06,-2.0840786166485986e-06,-1.7135619715957316e-06,1.045283485332548e-06,-4.490234992132476e-06,-2.189119955567929e-06,5.993151933281093e-08,-2.165782525377292e-07
-1.5269720194657942e-06,-1.6574586252361366e-06,-1.8675445792910388e-06,-2.6739631405790083e-06,-7.550456740375768e-07,-2.154796495027221e-06,-2.0594076699572644e-06,-2.0664701217095353e-06,-7.451230634280051e-07,-1.2098416534315434e-06,-2.313215036414122e-06,-2.104038092418613e-06,-1.631848956338582e-06,9.330634475394197e-07,-4.601688500286315e-06,-2.056484536625839e-06,2.5129212523756326e-08,-2.484516813471359e-07
-1.530653424167088e-06,-1.6265387515756488e-06,-1.8716605954452847e-06,-2.7050208249379802e-06,-6.960253885036278e-07,-2.12038290917197e-06,-2.02217662360004e-06,-2.0374686671128374e-06,-6.297305696317746e-07,-1.247314325812885e-06,-2.2252801267108375e-06,-2.1092749598645074e-06,-1.5381692850019298e-06,9.100116040751128e-07,-4.363080206394916e-06,-1.894964981315848e-06,-3.9531294999163154e-08,-2.7326345440676617e-07
-1.5260818883955483e-06,-1.5795821573359642e-06,-1.8746117800498337e-06,-2.736457105151588e-06,-6.315551773196922e-07,-2.0828806266022678e-06,-1.9400604299247603e-06,-1.9830365488609666e-06,-5.12904696234177e-07,-1.2801760697541434e-06,-2.1139847982265293e-06,-2.094297666598588e-06,-1.4659538612503298e-06,9.35256123233961e-07,-3.794042516377449e-06,-1.7656369533305116e-06,-1.5200829433689846e-07,-2.988764153626564e-07
-1.5033756708754292e-06,-1.5219721573918039e-06,-1.854538695922153e-06,-2.7248199025998346e-06,-5.642372242922454e-07,-2.0389971987269513e-06,-1.8321128151308151e-06,-1.9131063714419304e-06,-3.935899462428887e-07,-1.3166338076465213e-06,-2.039346078038701e-06,-2.0557871954233616e-06,-1.3780088491489817e-06,9.698010309537017e-07,-2.9917271126890043e-06,-1.679918384686089e-06,-2.924381777733333e-07,-3.273536976413582e-07
-1.4747993065124605e-06,-1.4589263863793235e-06,-1.8186698812662845e-06,-2.7017030760162563e-06,-4.896267209612084e-07,-2.0029516543059507e-06,-1.7110217302951273e-06,-1.8320540816449173e-06,-2.753599167304678e-07,-1.3349573217382464e-06,-1.980363739814172e-06,-1.980853077504608e-06,-1.3042458161290153e-06,1.0108492268139734e-06,-2.125287679313349e-06,-1.6490924300841073e-06,-3.9278363723977736e-07,-3.3375127548889307e-07
-1.4397811403936121e-06,-1.3947268014724867e-06,-1.765738270893439e-06,-2.6369358646405646e-06,-4.075279203451574e-07,-1.974674341967449e-06,-1.5914934311138674e-06,-1.7420917512255893e-06,-1.6503253525094622e-07,-1.3332715944372148e-06,-1.8963443737622374e-06,-1.8848742133448274e-06,-1.2333682794388894e-06,1.0315416074056033e-06,-1.3559496619905447e-06,-1.6723677277174896e-06,-4.6350548422734076e-07,-3.4362972689698484e-07
-1.3888025238280216e-06,-1.3320416992936476e-06,-1.7025958045069205e-06,-2.5307261998751083e-06,-3.122939383697179e-07,-1.9458840017424025e-06,-1.4779992752607058e-06,-1.646314393588639e-06,-5.267529485887417e-08,-1.3243035847056446e-06,-1.8073916488364025e-06,-1.7742317372672123e-06,-1.1662605723804566e-06,1.0071743471585282e-06,-8.788798745297183e-07,-1.736963615022384e-06,-5.189996924002783e-07,-3.5273027962866623e-07
-1.3303926328474575e-06,-1.2712025937538972e-06,-1.6361345884802584e-06,-2.4312329076213365e-06,-2.057743179819633e-07,-1.9040859304748582e-06,-1.3673052340317802e-06,-1.546538488835056e-06,5.7996619151199835e-08,-1.3099976715613561e-06,-1.70682466389367e-06,-1.6727794017387064e-06,-1.0567107732498603e-06,9.736134100069067e-07,-7.645377582137575e-07,-1.842831625988024e-06,-5.436722907570643e-07,-3.490549658715359e-07
-1.2689840200251515e-06,-1.210328062399175e-06,-1.56209846283179e-06,-2.3189513357910605e-06,-9.186502038308005e-08,-1.8471179490432714e-06,-1.2543999359610826e-06,-1.443473447733564e-06,1.6146142703836533e-07,-1.2710866398829028e-06,-1.606061270657565e-06,-1.5568503480316258e-06,-9.79001552319317e-07,9.604222898923412e-07,-9.747870513654946e-07,-1.9600457713253763e-06,-5.394985280826364e-07,-3.4863199978149067e-07
-1.196120969518556e-06,-1.1463239042114665e-06,-1.4822158963060631e-06,-2.1915693282668984e-06,2.6809438874940816e-08,-1.7760399182305638e-06,-1.1359507137655942e-06,-1.3425850373612317e-06,2.564893889224992e-07,-1.2125663895305857e-06,-1.5398349814687343e-06,-1.4516465228997122e-06,-9.05103514696855e-07,9.830551001643097e-07,-1.4015256583652653e-06,-2.0333839873344958e-06,-5.105917814951168e-07,-3.110740668908036e-07
-1.1322680107321538e-06,-1.0758524146905602e-06,-1.3853987135317717e-06,-2.055365536550355e-06,1.4896882991220544e-07,-1.6938588138071241e-06,-1.0100167967548893e-06,-1.241552148938776e-06,3.479840881606531e-07,-1.1389594625092567e-06,-1.4838833799202e-06,-1.3640932549317575e-06,-8.169854283775979e-07,1.0632195902554058e-06,-1.820258325075336e-06,-2.0822086257048983e-06,-4.2399726582595243e-07,-2.468892146755858e-07
-1.071958953185568e-06,-9.963869175179536e-07,-1.2761227100834115e-06,-1.9171745146482527e-06,2.7479697660678776e-07,-1.609162500488246e-06,-8.782273264034913e-07,-1.1376492357666395e-06,4.3601871023481356e-07,-1.0511919415146637e-06,-1.41163718392438e-06,-1.2838432260324083e-06,-7.410456870892457e-07,1.2033939876614877e-06,-2.114922057738823e-06,-2.1305999070516256e-06,-2.929403229719408e-07,-1.7270472734043922e-07
-1.0033738967554646e-06,-9.076248905213009e-07,-1.153075463652299e-06,-1.7730727084815775e-06,4.0584295414941805e-07,-1.521033817684468e-06,-7.445650327594128e-07,-1.0317427839817515e-06,5.181637864442637e-07,-9.793220686171102e-07,-1.339369382517276e-06,-1.2008899200821096e-06,-6.587063273142507e-07,1.364067627120405e-06,-2.248811226731355e-06,-2.1922914942437714e-06,-1.8209914850821956e-07,-8.264596097228066e-08
-9.399761164484371e-07,-8.120894334274277e-07,-1.0210330624910738e-06,-1.6377421997677425e-06,5.354543045027704e-07,-1.433857100318966e-06,-6.178075066192601e-07,-9.219470206430023e-07,5.979838173271526e-07,-9.11879825487144e-07,-1.2753443647884048e-06,-1.1085312242817122e-06,-5.663405825541954e-07,1.5442524550180492e-06,-2.231981143868388e-06,-2.2795716659725672e-06,-7.006613838134637e-08,2.123730171698713e-09
-8.784136083702946e-07,-7.141235561717167e-07,-8.881479405476202e-07,-1.5174360729388893e-06,6.579225979543356e-07,-1.3526226801296889e-06,-5.082927368861373e-07,-8.140214210706104e-07,6.737880309140686e-07,-8.429516784521046e-07,-1.2222176948107244e-06,-1.0100995522129375e-06,-4.805485711568807e-07,1.7242621287844275e-06,-2.1412981934613596e-06,-2.3527565561474275e-06,3.1838548404579384e-08,7.794442430114142e-08
-8.230458233929751e-07,-6.185120272359269e-07,-7.590930851906494e-07,-1.4042690213141751e-06,7.733458839658318e-07,-1.2823798473815295e-06,-4.242477364013341e-07,-7.139262852839172e-07,7.462004433436595e-07,-7.770581991595796e-07,-1.1721237988431443e-06,-9.045075476891869e-07,-4.136835377507031e-07,1.8818697640284723e-06,-2.0246470836234902e-06,-2.3804759153969936e-06,1.1376411569924055e-07,1.4612232847339778e-07
-7.781765632958162e-07,-5.297365244851534e-07,-6.392732423688014e-07,-1.3026677536879242e-06,8.792529662569151e-07,-1.2245593025782737e-06,-3.7003569221633633e-07,-6.250473885504281e-07,8.148884523266051e-07,-7.155886659326813e-07,-1.1361576029444324e-06,-8.090527863710875e-07,-3.4616871406866957e-07,2.002818641296722e-06,-1.9049666243807341e-06,-2.3501413398336095e-06,1.8798884662433478e-07,2.044258274384775e-07
-7.400520492568809e-07,-4.5107963385116406e-07,-5.327536448894915e-07,-1.212114650603189e-06,9.74691188626868e-07,-1.1742511576568216e-06,-3.430987186248078e-07,-5.538244575023791e-07,8.753567780695609e-07,-6.629122768155405e-07,-1.0986227755713357e-06,-7.209802042453327e-07,-2.851613264595692e-07,2.075358758506192e-06,-1.8026518770394543e-06,-2.2766170085095206e-06,2.5949871767500587e-07,2.446511937418912e-07
-6.994416887583548e-07,-3.834067923029547e-07,-4.412580899919745e-07,-1.1279867974874703e-06,1.0595177261382278e-06,-1.1304297294506162e-06,-3.326581418923506e-07,-4.96959624630794e-07,9.300465203023962e-07,-6.105587239721084e-07,-1.0573903860160338e-06,-6.353857891748967e-07,-2.3078875124521756e-07,2.101656814425581e-06,-1.7447644774217616e-06,-2.1761693183832298e-06,3.263793160780653e-07,2.7068588715538603e-07
-6.579247038087251e-07,-3.249926699964921e-07,-3.6576953057728505e-07,-1.0526707267534036e-06,1.1324650838680673e-06,-1.0935865076760313e-06,-3.257887622334644e-07,-4.4946643774980956e-07,9.728099584777469e-07,-5.564011416506702e-07,-1.0192986664777812e-06,-5.514228017258058e-07,-1.741282248485712e-07,2.0917773116393557e-06,-1.736023697774606e-06,-2.059014609486461e-06,3.9460326689034766e-07,2.878178279463053e-07
-6.173320515366169e-07,-2.725944679655272e-07,-3.0115927985866627e-07,-9.596925606856266e-07,1.1922312812159996e-06,-1.0583692982538817e-06,-3.125854503241962e-07,-4.0818314731889586e-07,1.0005379056878996e-06,-4.921198846848168e-07,-9.80539474375186e-07,-4.7060936015032406e-07,-1.1967936682192911e-07,2.0746573429141674e-06,-1.7689354975436067e-06,-1.9289964156506385e-06,4.991750020293983e-07,2.962563528857558e-07
-5.743699616956329e-07,-2.2240336728512724e-07,-2.437596885301913e-07,-8.707737592852284e-07,1.2375624620967087e-06,-1.0243368106757354e-06,-2.8642831350085987e-07,-3.6995100572678327e-07,1.0138850123208391e-06,-4.2470345603927515e-07,-9.414465389751046e-07,-3.9302737967076114e-07,-6.826054093440689e-08,2.0668262932133628e-06,-1.828706134080597e-06,-1.7790659489821112e-06,6.10665974676724e-07,3.054924549381103e-07
-5.313925918977921e-07,-1.7079876404330714e-07,-1.927025755887888e-07,-7.875649975739631e-07,1.269912722145676e-06,-9.904153678317042e-07,-2.451863550239481e-07,-3.325619695864204e-07,1.0120713928542416e-06,-3.5733079120073733e-07,-8.977137614180975e-07,-3.2286971132791815e-07,-1.4526494809326428e-08,2.084779279825394e-06,-1.8915574112537169e-06,-1.609830966903199e-06,7.06479873283408e-07,3.212257017367132e-07
-4.871350657058149e-07,-1.1581610869723385e-07,-1.4824019034599343e-07,-7.057572581382862e-07,1.292663090591707e-06,-9.596672626571099e-07,-1.9145589370761453e-07,-2.9594126229025443e-07,1.0012410504365552e-06,-2.896394408842469e-07,-8.510769366514397e-07,-2.5086397565587093e-07,4.1832959787553855e-08,2.1359749674851067e-06,-1.970081290935492e-06,-1.4185140116449442e-06,7.70678604271388e-07,3.4627633860447416e-07
-4.429339654565087e-07,-5.826437423672494e-08,-1.1415306473501824e-07,-6.395364766268907e-07,1.307982549879744e-06,-9.279880822826949e-07,-1.308650259924655e-07,-2.6218148380887323e-07,9.868492612948343e-07,-2.408230452068988e-07,-7.952990073901405e-07,-1.782815273107818e-07,1.0704783719159746e-07,2.208304169903852e-06,-2.1333109191607888e-06,-1.2205331131547217e-06,7.941727565989203e-07,3.850778858521065e-07
-4.0508964155667895e-07,-7.735058655745913e-10,-9.136956644234905e-08,-5.872367702382938e-07,1.3176157275172801e-06,-8.953485913019938e-07,-6.809833678915556e-08,-2.3184072062810683e-07,9.737344678245447e-07,-2.0618547042898243e-07,-7.217716993110495e-07,-1.0321866890950817e-07,1.7590844861293731e-07,2.295275514932903e-06,-2.4991365299217317e-06,-1.053851678502266e-06,7.886303551723238e-07,4.259991376600112e-07
-3.708102489803403e-07,5.41720362146556e-08,-7.655164050208058e-08,-5.494330829122181e-07,1.3242529358598128e-06,-8.609983213641541e-07,-4.031963578276299e-09,-2.0505462802608174e-07,9.66307050223093e-07,-1.8258708270222777e-07,-6.375184327650046e-07,-1.9739169104495483e-08,2.547342415403568e-07,2.3800540752315558e-06,-3.2049278285816153e-06,-9.406647116938646e-07,7.486527962822839e-07,4.658838922495377e-07
-3.3909497742120593e-07,1.049564463783454e-07,-6.295769615663633e-08,-5.236341926852309e-07,1.3312195251597617e-06,-8.206653440714419e-07,6.369800820565311e-08,-1.800696305792129e-07,9.690308554280144e-07,-1.692747944011738e-07,-5.412482978917679e-07,7.161350487866735e-08,3.4404298030498794e-07,2.438143341665367e-06,-4.318557536063454e-06,-8.962599425263028e-07,7.049008773290578e-07,5.007268139515515e-07
-3.099788380297062e-07,1.5089459116831008e-07,-4.584101879511171e-08,-5.101041532799771e-07,1.3417473312580167e-06,-7.759124509718958e-07,1.387261088077149e-07,-1.5400662535310975e-07,9.835883290943903e-07,-1.5944377950075214e-07,-4.296094965787481e-07,1.6759275130155035e-07,4.391020965064281e-07,2.4480807453207386e-06,-5.704931064697553e-06,-9.178061324563544e-07,6.744162294745334e-07,5.243035324929408e-07
-2.7794710301502716e-07,1.916171042570123e-07,-2.2136134247296818e-08,-4.963687376063507e-07,1.3586216927171016e-06,-7.269119558678446e-07,2.2019261489131143e-07,-1.2485976338918436e-07,1.007301739342636e-06,-1.526610445908082e-07,-3.1122875434836305e-07,2.732113526698529e-07,5.37503709255735e-07,2.396410218588773e-06,-7.135976299800686e-06,-9.822146113889038e-07,6.661981137231045e-07,5.387689498445553e-07
-2.411263485275429e-07,2.2736331679367443e-07,8.929235341698324e-09,-4.7658309713797823e-07,1.3826579887957423e-06,-6.746962413956551e-07,3.0289855284554056e-07,-9.24827797635994e-08,1.0347566494638327e-06,-1.4713283971095085e-07,-1.9183474111938975e-07,3.844466334016347e-07,6.197245619028777e-07,2.282264016095511e-06,-8.28833873759604e-06,-1.070250895206308e-06,6.896931823244859e-07,5.473374180373137e-07
-1.9830186573269913e-07,2.572285208667642e-07,4.311067923697684e-08,-4.497218068400187e-07,1.4204227453315395e-06,-6.201783246617877e-07,3.77477754198786e-07,-6.042818571557649e-08,1.0571691812356434e-06,-1.417573335714983e-07,-8.062553264371602e-08,4.931683319523925e-07,6.849207891193277e-07,2.1221444072063447e-06,-8.457538971466364e-06,-1.1722089500959545e-06,7.289392818663271e-07,5.542434120586669e-07
-1.506992674420265e-07,2.806021652111951e-07,7.286853640180281e-08,-4.146326123797047e-07,1.4626474611407077e-06,-5.682276890394421e-07,4.322954724240526e-07,-3.4851448527742617e-08,1.0664082164884261e-06,-1.33079010433982e-07,3.9613261179592736e-09,5.857330098942811e-07,7.326920994311943e-07,1.9467880553717358e-06,-8.255987990272764e-06,-1.2915917386502515e-06,7.637837823072325e-07,5.622394677924212e-07
-1.0261735787181173e-07,2.9727634828758353e-07,9.072493934778726e-08,-3.7742072265424134e-07,1.5004555358446518e-06,-5.225965160517354e-07,4.591489523210731e-07,-2.108840728300999e-08,1.0594752470020992e-06,-1.2235271376918432e-07,6.927686793440796e-08,6.707610560422325e-07,7.685777839407106e-07,1.789300674383014e-06,-8.049514932526635e-06,-1.4217363230328755e-06,7.814106493686748e-07,5.735316964848163e-07
-5.98691962506306e-08,3.078532430746622e-07,9.27270741798326e-08,-3.446138117674261e-07,1.531260073128614e-06,-4.829723656961516e-07,4.5867978434413825e-07,-2.1171142455111686e-08,1.0393685084066174e-06,-1.1274206369751862e-07,1.2661908794335147e-07,7.59240903753051e-07,8.027869745924327e-07,1.676972353800735e-06,-7.195012922682317e-06,-1.546238117986897e-06,7.85085323504583e-07,5.83770526582479e-07
-2.4067524020471828e-08,3.139697615315538e-07,7.995593184399162e-08,-3.2240767615207103e-07,1.5517503704651662e-06,-4.484679830230005e-07,4.4010916343100586e-07,-3.302336842836267e-08,1.013582808331703e-06,-1.0456831923820417e-07,1.8170520014124434e-07,8.542094290033542e-07,8.421652746197565e-07,1.620893252511782e-06,-6.021008571224205e-06,-1.6387031423077438e-06,7.781139615251216e-07,5.871615963057773e-07
7.698942189339733e-09,3.1700029394395363e-07,5.8270172220797395e-08,-3.2048093279409324e-07,1.5654218590046414e-06,-4.1650324754646604e-07,4.195463065024089e-07,-5.074944350692454e-08,9.90426178411305e-07,-9.941713492036012e-08,2.40575067452277e-07,9.588617732370519e-07,8.913162534282553e-07,1.6121126396685966e-06,-5.097714783503069e-06,-1.6711507324567284e-06,7.617369802602593e-07,5.806199164029613e-07
3.612324585368851e-08,3.1814177407250056e-07,3.6147072852535626e-08,-3.3168940552988093e-07,1.5762714882908383e-06,-3.8494581080021993e-07,4.153616902314393e-07,-6.673405202087485e-08,9.755506059624275e-07,-9.732250650682419e-08,2.995256041030197e-07,1.0618048278157257e-06,9.488059764462651e-07,1.6281995212803291e-06,-4.510531134964801e-06,-1.636182761710267e-06,7.46758150941526e-07,5.629798943320377e-07
6.417939574042423e-08,3.1822355550226346e-07,2.0277683112940865e-08,-3.520606078224926e-07,1.5715302542940222e-06,-3.5448493142385013e-07,4.3704187158871846e-07,-7.551669324308116e-08,9.68997263416989e-07,-9.941071112826562e-08,3.5234641174417806e-07,1.149858075374632e-06,1.0098832433540061e-06,1.639984038764824e-06,-4.126331929489005e-06,-1.5533425073458814e-06,7.344746384219523e-07,5.365869370425124e-07
9.410006708843813e-08,3.163212830479414e-07,1.2199340475222678e-08,-3.775014930366582e-07,1.5505670929829016e-06,-3.278753761414433e-07,4.787753062440219e-07,-7.647808809362342e-08,9.641307319286833e-07,-1.0841031321203043e-07,3.9097511036342867e-07,1.2081111928217959e-06,1.060117410287392e-06,1.622451860333409e-06,-3.903257273704018e-06,-1.4599437021254677e-06,7.230719095180813e-07,5.060770438275028e-07
1.265439513798668e-07,3.1035089244069105e-07,8.612558248869566e-09,-3.9987975928602686e-07,1.5140270122758714e-06,-3.110166854974952e-07,5.216762928414921e-07,-7.33901874651605e-08,9.503652407044274e-07,-1.2252601686042695e-07,4.0754927344640863e-07,1.2270937337668834e-06,1.0852321454921628e-06,1.5643987922574079e-06,-3.761464275315181e-06,-1.381603130577126e-06,7.063855817698602e-07,4.768734665988458e-07
1.5593209583626332e-07,2.9823238954981854e-07,3.8165874610873324e-09,-4.1625109514647967e-07,1.4580581244153214e-06,-3.081149398372976e-07,5.412257895702514e-07,-7.245121359995711e-08,9.167202659236202e-07,-1.4382126224733873e-07,3.9261531498534234e-07,1.2004815328778371e-06,1.075737788990362e-06,1.470129335298726e-06,-3.6271545961731206e-06,-1.3118354717528546e-06,6.785690237372574e-07,4.535952394307497e-07
1.8304433318529716e-07,2.781863547267135e-07,-7.934850680329276e-09,-4.252161662100293e-07,1.3839908804845447e-06,-3.22092762512495e-07,5.161117773106292e-07,-8.022481553898133e-08,8.550804402447678e-07,-1.721817545520723e-07,3.43554253474497e-07,1.1273719398765749e-06,1.0258411778335297e-06,1.3552977792357022e-06,-3.4455107193168296e-06,-1.2140940295579997e-06,6.447165152753265e-07,4.3970496630825013e-07
2.0658962581147817e-07,2.496616926595794e-07,-2.9783186661333423e-08,-4.278861954222648e-07,1.2916575266454604e-06,-3.539547191519427e-07,4.3678530397182307e-07,-1.0113700700124021e-07,7.627140080213458e-07,-2.0476993536480235e-07,2.6306002804850695e-07,1.0174095752204351e-06,9.428382652696845e-07,1.2398572117446149e-06,-3.193210659160203e-06,-1.049509690441309e-06,6.078804667385068e-07,4.389591303069741e-07
2.2239229690507994e-07,2.1409243665185525e-07,-6.005074038384012e-08,-4.2486501735484465e-07,1.182373598185808e-06,-4.0118778241824397e-07,3.083873043005598e-07,-1.3564221571575788e-07,6.426966349153652e-07,-2.3839429973248475e-07,1.5905372165514656e-07,8.805401320875287e-07,8.376065642134538e-07,1.1402470857075386e-06,-2.880967254559027e-06,-8.102054540506229e-07,5.813468664188923e-07,4.5556317356406926e-07
2.3699100144447814e-07,1.7447673884003077e-07,-9.321792155398407e-08,-4.189547235852309e-07,1.0605435026159464e-06,-4.6005331600852693e-07,1.4694041162753908e-07,-1.8105226640797894e-07,5.02107296007521e-07,-2.683117947398148e-07,4.2759430921849505e-08,7.321453077360892e-07,7.174584703359448e-07,1.0615986662600573e-06,-2.569239369129422e-06,-5.315644508701433e-07,5.767244712996919e-07,4.918420869585582e-07
2.398231426059561e-07,1.3332768664142466e-07,-1.234414025051093e-07,-4.1137852236216414e-07,9.339252720732237e-07,-5.271443406382792e-07,-2.893658560182006e-08,-2.3383339442619167e-07,3.490539598348661e-07,-2.9156046974407864e-07,-7.801117333595668e-08,5.871204782615654e-07,5.975661843074592e-07,9.967926698682728e-07,-2.3053591368051637e-06,-2.7970708141095604e-07,6.001802060065056e-07,5.463106610043319e-07
2.355789045288485e-07,9.211116197024757e-08,-1.4665572435374072e-07,-4.038318817692941e-07,8.018728179547822e-07,-5.993252234311047e-07,-2.0317257728236356e-07,-2.9047056140065183e-07,1.910385151195173e-07,-3.0703603429001237e-07,-2.015671698056569e-07,4.551328178111026e-07,4.844332885679658e-07,9.338194160105494e-07,-2.141940510755265e-06,-1.2566967302640108e-07,6.468822853064681e-07,6.141476130383249e-07
2.240127627225198e-07,5.1147927654549126e-08,-1.6040436871662852e-07,-3.992920311272017e-07,6.668820513067417e-07,-6.748681914425514e-07,-3.632166227817155e-07,-3.470351911370387e-07,3.5050392361397544e-08,-3.159392483608393e-07,-3.180313839409724e-07,3.4762181019687183e-07,3.8253212245328766e-07,8.653990226870295e-07,-2.132177678118182e-06,-1.1808957767036365e-07,7.039332513557822e-07,6.884030814227718e-07
1.9614493604485624e-07,1.0593715344101989e-08,-1.6366565391918413e-07,-3.9949974790067145e-07,5.322002083966684e-07,-7.534631949804797e-07,-5.006440989801268e-07,-3.99264408845586e-07,-1.128481595198791e-07,-3.1978035400501145e-07,-4.2602747800112483e-07,2.6423950129080365e-07,2.96331887309234e-07,7.93206512782172e-07,-2.3509031512315444e-06,-2.691961553890389e-07,7.564510922494422e-07,7.607882129484164e-07
1.5678808857297138e-07,-2.8913705795379328e-08,-1.5641855944592866e-07,-4.056411653893723e-07,3.984719546588655e-07,-8.326039487215299e-07,-6.111695837553402e-07,-4.4263209397778377e-07,-2.480835755059438e-07,-3.2110777665012195e-07,-5.244518976397123e-07,2.0097242201444962e-07,2.2628767929372863e-07,7.267201914093436e-07,-2.8882521574014194e-06,-5.470578911077564e-07,7.913860788939732e-07,8.235612344939219e-07
1.0990791162452957e-07,-6.561015847009027e-08,-1.3771120364934563e-07,-4.162297809379915e-07,2.6951573007170527e-07,-9.081395218917494e-07,-6.92464346076546e-07,-4.7172831566400033e-07,-3.6766595686154924e-07,-3.2176107069013376e-07,-6.082334442974192e-07,1.5469285321970731e-07,1.7312240349122557e-07,6.809903673997618e-07,-3.742970441854802e-06,-8.793161355616017e-07,8.093586999340679e-07,8.726407577533797e-07
6.037588321457394e-08,-9.584484228276237e-08,-1.0450276269398262e-07,-4.2600726292548007e-07,1.4959593188861514e-07,-9.745654890101064e-07,-7.441474736825471e-07,-4.810089857381191e-07,-4.696830307417582e-07,-3.2115663276829256e-07,-6.753736396524956e-07,1.2187368195411335e-07,1.3809799535780718e-07,6.728272551544024e-07,-4.811944993702496e-06,-1.1749126820247308e-06,8.203282405497131e-07,9.09287511066966e-07
1.3911141826281123e-08,-1.1567533574787381e-07,-5.378507495287499e-08,-4.2815949313956165e-07,4.261538825240215e-08,-1.026897864209216e-06,-7.707814580609713e-07,-4.6787280010194773e-07,-5.547778066992658e-07,-3.1794483078097496e-07,-7.237422825086132e-07,9.823334762355804e-08,1.2015965310940468e-07,7.135702254706489e-07,-5.674686310778695e-06,-1.3482301332382183e-06,8.385527311227322e-07,9.390768857168774e-07
-2.4157869876921218e-08,-1.2353287113722554e-07,1.418776545066723e-08,-4.171515852591603e-07,-4.570131890851871e-08,-1.063634691718067e-06,-7.821715227539292e-07,-4.349069640339238e-07,-6.270767635843622e-07,-3.107052006507548e-07,-7.595906243495634e-07,7.615124493538448e-08,1.1237534620624851e-07,8.01175798588069e-07,-5.871421436901566e-06,-1.33517011117945e-06,8.7716592461343e-07,9.697275488905368e-07
-5.641797713804439e-08,-1.2109743980649521e-07,9.454133057261958e-08,-3.9013832493071047e-07,-1.1701754933378281e-07,-1.0854972622319257e-06,-7.900379052221367e-07,-3.8905030372445907e-07,-6.928079812461192e-07,-2.980493670397716e-07,-7.918348926849851e-07,4.591105634600283e-08,9.791005547967115e-08,9.17227229784039e-07,-5.0086289974194124e-06,-1.1017373262998158e-06,9.453426882006542e-07,1.0089446380605022e-06
-8.588468631348949e-08,-1.1294717130899259e-07,1.777839164215393e-07,-3.473059012016874e-07,-1.7580172182789294e-07,-1.0963111253420567e-06,-8.049247503358822e-07,-3.3946455098329655e-07,-7.582878532505327e-07,-2.787499681020849e-07,-8.361219006744997e-07,-4.029736638705894e-09,6.252080077401934e-08,1.0319901780251837e-06,-4.056487452514245e-06,-6.500112510333464e-07,1.039550050830979e-06,1.0622490449018711e-06
-1.1308227198828875e-07,-1.0592946461296015e-07,2.504500578708013e-07,-2.921889392041676e-07,-2.3337817010815337e-07,-1.0989274719040893e-06,-8.348573952880078e-07,-2.956318998101842e-07,-8.331870408073189e-07,-2.521028039885119e-07,-9.09280641178886e-07,-8.162434799175997e-08,-5.803246948796155e-09,1.1161665990704101e-06,-3.391915817814435e-06,-1.991021250379275e-08,1.1509792368235322e-06,1.1318514810635112e-06
-1.452166976229339e-07,-1.0725050047750543e-07,2.9802705581390743e-07,-2.3105391383409227e-07,-2.9807678573470284e-07,-1.0960658078324868e-06,-8.838038105076576e-07,-2.6497479900740096e-07,-9.201256952301287e-07,-2.1800376734202044e-07,-1.0247669646652876e-06,-1.8817074952832186e-07,-1.1430709889874381e-07,1.1538844077839442e-06,-2.724015009861124e-06,7.187672516148768e-07,1.2677286877469638e-06,1.21775151275452e-06
-1.8683179590816245e-07,-1.2390440441959292e-07,3.100690532642676e-07,-1.7111928898219545e-07,-3.7203479151913113e-07,-1.0905342645584172e-06,-9.499758794718942e-07,-2.5048694000021814e-07,-1.0168477310922321e-06,-1.7740237064398968e-07,-1.1978684169920467e-06,-3.1738152843784243e-07,-2.5465453005806357e-07,1.1499921327501985e-06,-1.4633207284090217e-06,1.462428805998274e-06,1.3784850135997128e-06,1.3198482615216788e-06
-2.3776894350141568e-07,-1.6296970146045903e-07,2.8430044757860334e-07,-1.1907987104058276e-07,-4.512516149095238e-07,-1.0848313045801094e-06,-1.02464424761518e-06,-2.500873207413549e-07,-1.1156089414105756e-06,-1.3361295791986785e-07,-1.4009167407820297e-06,-4.549540196985006e-07,-4.065547837214708e-07,1.127701580827257e-06,-2.6421191335716427e-07,2.104189769610869e-06,1.479318570443762e-06,1.4391034832564517e-06
-2.9723553909113825e-07,-2.2362740328641472e-07,2.2815319567253308e-07,-8.000959401525485e-08,-5.226352327214859e-07,-1.0828067769250515e-06,-1.0961204083128763e-06,-2.5748885278834445e-07,-1.2070967808907727e-06,-9.274815620659956e-08,-1.6202974975767317e-06,-5.870890930278189e-07,-5.570100303600365e-07,1.1179264621530593e-06,5.246959092411326e-07,2.561248180482233e-06,1.573733583741943e-06,1.5771683567814386e-06
-3.5634792893511584e-07,-3.0098013448184925e-07,1.5782905405684447e-07,-5.599321813215624e-08,-5.819174745883796e-07,-1.088675536973479e-06,-1.1516426924636364e-06,-2.639094370254555e-07,-1.2826594423318769e-06,-6.203360773388633e-08,-1.8407842727209647e-06,-6.983364423386354e-07,-6.782328911375408e-07,1.1456273028342546e-06,8.276263249641203e-07,2.804840035001344e-06,1.6704161393807268e-06,1.7342749330822315e-06
-4.1003803694804073e-07,-3.780571602980485e-07,9.378453486308927e-08,-4.5960910316613387e-08,-6.280109665175848e-07,-1.1066918114608981e-06,-1.182099007365266e-06,-2.6149568515976764e-07,-1.3354188964838065e-06,-4.748009000894372e-08,-2.035162804502011e-06,-7.761641761591035e-07,-7.53757762415854e-07,1.2200033920884681e-06,7.915680312280375e-07,2.8267353590908667e-06,1.7786376995471543e-06,1.906012290186677e-06
-4.5494908046269596e-07,-4.462640334901071e-07,5.323549151164334e-08,-4.7575734941603266e-08,-6.572644821864641e-07,-1.1395440613851818e-06,-1.1876990489113134e-06,-2.4756107950564015e-07,-1.364901427531548e-06,-5.248087640572042e-08,-2.1856344520771917e-06,-8.09657805262966e-07,-7.744755756863881e-07,1.3336076137858727e-06,4.0276565871969475e-07,2.6965271612052167e-06,1.9002616400087162e-06,2.0817394890363533e-06
-4.892479889740452e-07,-5.006089714238166e-07,4.4125671070514836e-08,-5.8930465285558634e-08,-6.752567412172281e-07,-1.1882783197724542e-06,-1.1784675289601239e-06,-2.259305481903391e-07,-1.3744591021029393e-06,-7.683101685508644e-08,-2.2794925128882207e-06,-7.976519152491893e-07,-7.497487110328372e-07,1.4694124172989555e-06,-7.325685551925082e-08,2.454567253352827e-06,2.0246285526809665e-06,2.24661031180133e-06
-5.166437560496237e-07,-5.36561278854708e-07,6.456628824384404e-08,-7.833108465986831e-08,-6.913474645300734e-07,-1.251215127607156e-06,-1.1665745466888641e-06,-2.0425281319820937e-07,-1.371433270296819e-06,-1.166672320945956e-07,-2.312694983456937e-06,-7.441353097545538e-07,-6.970090491130856e-07,1.6096981805700915e-06,-3.7007064359621446e-07,2.1338874016997754e-06,2.134513028291293e-06,2.3855763271363883e-06
-5.395852469094174e-07,-5.552444848064926e-07,1.0557193310747327e-07,-1.0360731627776769e-07,-7.073900561769911e-07,-1.3230032387035078e-06,-1.1621677186142199e-06,-1.9028621441359568e-07,-1.3633485012860136e-06,-1.6613237829453513e-07,-2.291613724158832e-06,-6.573978948286292e-07,-6.324212847963347e-07,1.741764839502562e-06,-4.152279655885846e-07,1.8028478958655884e-06,2.2138541264351766e-06,2.486999309019334e-06
-5.593256386516486e-07,-5.574839705010406e-07,1.5485830887330336e-07,-1.3209846489281943e-07,-7.300518873917958e-07,-1.396643776994791e-06,-1.1711502110817465e-06,-1.8920597047350744e-07,-1.356165616096361e-06,-2.1926171575252262e-07,-2.234904673050643e-06,-5.587019409060141e-07,-5.74494866384913e-07,1.8592116243890953e-06,-1.9998604601375786e-07,1.5330585321451113e-06,2.2545186708011876e-06,2.5457779197888387e-06
-5.74872408555533e-07,-5.474549355366693e-07,2.0161021938490698e-07,-1.6032723162772147e-07,-7.698058543481438e-07,-1.4651774402805097e-06,-1.1935984786823902e-06,-2.0173798315211245e-07,-1.3564825609669668e-06,-2.7167139082592664e-07,-2.1611121873178176e-06,-4.669473239680546e-07,-5.334279801412529e-07,1.959019602042134e-06,1.2099508197955377e-07,1.401285832479757e-06,2.259839552697858e-06,2.565879648789695e-06
-5.850836572141489e-07,-5.347927208410606e-07,2.402216833946204e-07,-1.8350502234067345e-07,-8.143770773787867e-07,-1.5232348224818508e-06,-1.227023557090847e-06,-2.239813216024717e-07,-1.3661095744814272e-06,-3.158177443330535e-07,-2.0782126483804427e-06,-4.019197383692868e-07,-5.413714732337537e-07,2.0358134966134864e-06,4.2207715990545085e-07,1.4631851210173105e-06,2.2418200560232402e-06,2.560443846257317e-06
-5.883106477939148e-07,-5.251409231888094e-07,2.7066706302768883e-07,-1.9623158569021584e-07,-8.656935409078942e-07,-1.5690797042170372e-06,-1.2693795008648361e-06,-2.496721562758575e-07,-1.3872622852230641e-06,-3.502605170665432e-07,-1.9999392381166944e-06,-3.770622534886991e-07,-5.64773687507552e-07,2.0775976706215443e-06,6.302524979394164e-07,1.7307134362992953e-06,2.21439390060964e-06,2.548486383329764e-06
-5.861410250169507e-07,-5.192444505286618e-07,2.965001148567636e-07,-1.9375766610798623e-07,-9.418848454294815e-07,-1.6043817558005357e-06,-1.324373036215121e-06,-2.729413094655047e-07,-1.432986143529469e-06,-3.7187823641833583e-07,-1.940148173215992e-06,-4.032096526561418e-07,-6.119322126743038e-07,2.067898969182143e-06,7.141430082530897e-07,2.133014502197058e-06,2.190640968579664e-06,2.549120434861724e-06
-5.788279654504326e-07,-5.196621337945965e-07,3.22528412076318e-07,-1.7298905551123338e-07,-1.0048789285980545e-06,-1.633450824146928e-06,-1.3834316559162981e-06,-2.8990348105976124e-07,-1.4727640724511622e-06,-3.769863452131008e-07,-1.9068865074795623e-06,-4.796011659812704e-07,-6.953898370940554e-07,1.9943212568433083e-06,6.719129910322e-07,2.57141724896307e-06,2.178641125563215e-06,2.5747412469331313e-06
-5.668721137475722e-07,-5.307035374872352e-07,3.5178702167426363e-07,-1.3404669893979444e-07,-1.062390573441417e-06,-1.6607195546424923e-06,-1.4443583334035848e-06,-2.997922917354793e-07,-1.5131798268168526e-06,-3.675094206767336e-07,-1.9037754634355957e-06,-5.972632676506608e-07,-8.019376017471052e-07,1.8579108179921549e-06,4.6715523608502446e-07,2.9068786724501275e-06,2.1809383211528456e-06,2.625776125853506e-06
-5.546413401245669e-07,-5.490055902318473e-07,3.826951094790654e-07,-8.203948023045684e-08,-1.1261824235938379e-06,-1.6891022777344578e-06,-1.5081483516644558e-06,-3.0536501315525066e-07,-1.5654852968231294e-06,-3.4816339231436107e-07,-1.8759671005657746e-06,-7.339135074904471e-07,-9.011447786647913e-07,1.6769890046445287e-06,2.1705031045131643e-07,3.0730566000791683e-06,2.195308306282934e-06,2.690670004668865e-06
-5.458999283748109e-07,-5.655880715496079e-07,4.094372662113029e-07,-2.668746834083982e-08,-1.1992616084650568e-06,-1.7188203607140646e-06,-1.5728783516639274e-06,-3.110283000292391e-07,-1.6332772233971555e-06,-3.2294540424145783e-07,-1.847135983387554e-06,-8.169001967878396e-07,-9.814386778238014e-07,1.482460250273937e-06,1.6059497998908677e-07,3.058189029252955e-06,2.2156828486078353e-06,2.7515846912690453e-06
-5.489307471646412e-07,-5.785404049646364e-07,4.2546827320466983e-07,2.0397905128327313e-08,-1.2467006636118714e-06,-1.7460321182703891e-06,-1.6369762881215572e-06,-3.1992727938769265e-07,-1.67532986834471e-06,-2.925483944968085e-07,-1.7676670464690705e-06,-8.166328258360482e-07,-9.284871505008313e-07,1.3072025280036742e-06,3.382178749104143e-07,2.929200073475641e-06,2.234044428935028e-06,2.7911293560214973e-06
-5.574718117573174e-07,-5.760021163748689e-07,4.26367965311627e-07,4.826277145886753e-08,-1.2447336284985387e-06,-1.7632685240564165e-06,-1.6937002663119829e-06,-3.3275834173329356e-07,-1.6740042427643574e-06,-2.8556873856130693e-07,-1.5898004087403384e-06,-6.501868333831218e-07,-7.077969870554798e-07,1.176856011635468e-06,5.933681474123738e-07,2.703563310460183e-06,2.2408718253786968e-06,2.795461223522955e-06
-5.728718943371165e-07,-5.808762530506761e-07,4.105560898796363e-07,4.806805414092332e-08,-1.1673542004043978e-06,-1.7594931891347723e-06,-1.7330012302242102e-06,-3.480219864774039e-07,-1.575856592455189e-06,-2.6604108347968e-07,-1.4679105300872641e-06,-4.1402520104233277e-07,-5.051955478039229e-07,1.1068437923876941e-06,8.549747852392999e-07,2.385279626590604e-06,2.227152085828734e-06,2.754089420664907e-06
-5.739800130797752e-07,-5.872539607185008e-07,3.7947628292409724e-07,1.4502559862695747e-08,-8.893686012550318e-07,-1.7236573927120935e-06,-1.6962014955125206e-06,-3.6219880119203623e-07,-1.3413972839962759e-06,-2.7776395287651034e-07,-1.3613317809548732e-06,-2.196708771515663e-07,-3.484732932439246e-07,1.1028132695093497e-06,7.252893880501593e-07,1.977329746020443e-06,2.1867364019811085e-06,2.659598617847772e-06
-5.481317635795119e-07,-5.864493974945134e-07,3.3750787179173103e-07,-5.3496862764395667e-08,-7.281210648331298e-07,-1.6465369067271033e-06,-1.620845566108434e-06,-3.707555115694901e-07,-1.2333899838045819e-06,-3.432577311884396e-07,-1.266361478617239e-06,-7.414473335697104e-08,-1.9065461946018702e-07,1.1598160519853125e-06,6.227783396009609e-07,1.4791398457701287e-06,2.116990594785972e-06,2.50888791771315e-06
-4.947182379211334e-07,-5.67337978328292e-07,2.908401999348898e-07,-1.5329116209941165e-07,-6.060952260828323e-07,-1.5225463258877583e-06,-1.4897762402607755e-06,-3.704122034820976e-07,-1.1609039056741369e-06,-3.809779484182728e-07,-1.174480012951977e-06,9.519927561321127e-08,-6.427589384148379e-08,1.260723840709126e-06,1.0752327779961168e-06,1.0176471785331397e-06,2.0171065992589393e-06,2.305442460816901e-06
-3.9217809263797026e-07,-4.737990051323206e-07,2.469607753877771e-07,-2.7647988069748747e-07,-5.065835661520627e-07,-1.3567315712990917e-06,-1.2803402307584577e-06,-3.6006838272522064e-07,-1.0826810710568442e-06,-4.76729665369088e-07,-1.0765842812443892e-06,4.577201887399459e-07,6.430453856894632e-08,1.3771782484677418e-06,1.3217963801363657e-06,1.0520322190129026e-06,1.8887350404504941e-06,2.061305394641602e-06
-3.24765485760372e-07,-3.679107369531509e-07,2.1503798997827118e-07,-4.106651774426036e-07,-4.124584546761214e-07,-1.1572777659624476e-06,-1.0891637686667678e-06,-3.394009099518719e-07,-9.463060976921646e-07,-6.065802190900163e-07,-9.405326029351339e-07,8.677296990704654e-07,2.805824134628195e-07,1.4744266180723536e-06,1.1013468939995585e-06,1.0491117538666657e-06,1.7388213900541208e-06,1.7964120529456737e-06
-2.749534069232568e-07,-2.7224342077999164e-07,2.0372551937796832e-07,-5.407659902092895e-07,-1.812776948523317e-07,-9.468495347368614e-07,-8.235355325207125e-07,-3.082261505662054e-07,-7.038011859489699e-07,-7.041552592334887e-07,-7.855290623671288e-07,1.1222221448416156e-06,4.466506474920891e-07,1.5196596877897727e-06,5.76114277120492e-07,8.228354307712181e-07,1.5799453155381802e-06,1.5336327935112732e-06
-1.5669888465853582e-07,-1.7911189819477626e-07,2.15933207143641e-07,-6.461809462801753e-07,7.934622991596132e-08,-7.468661261716351e-07,-5.200642973534722e-07,-2.6817851059235873e-07,-4.920074651499251e-07,-8.303570687865443e-07,-6.086662268595606e-07,1.2687508278458048e-06,5.409741560295555e-07,1.4919274453336653e-06,-1.668351387020377e-07,5.790263392188825e-07,1.4277454552013447e-06,1.2917369075655438e-06
-2.672475064842028e-08,-9.020055465669832e-08,2.4495624998355326e-07,-7.109990276726767e-07,1.872844990890243e-07,-5.668048160807642e-07,-2.466993556111476e-07,-2.2395444279884994e-07,-3.442200078499393e-07,-8.902435990500748e-07,-4.822755665197694e-07,1.3424040110490694e-06,6.488257150054644e-07,1.388645174035867e-06,-1.000766221790248e-06,3.01769787106635e-07,1.2974065283849083e-06,1.08084270076967e-06
5.4845060081121846e-08,-2.645809644773655e-08,2.7608087713841193e-07,-7.595662743527281e-07,2.8781102997746184e-07,-4.812142520419319e-07,-4.1118215714289494e-08,-1.8245101681116822e-07,-2.521911610410829e-07,-9.173985814171241e-07,-3.2705897670091496e-07,1.4250821883196905e-06,7.753706111561909e-07,1.2238414052999392e-06,-1.7055409064533172e-06,2.9320750249068312e-08,1.1993202505454317e-06,9.024049397822549e-07
8.921780966671884e-08,3.5643754664906364e-08,2.914438362336652e-07,-7.409257771162698e-07,3.851809958921761e-07,-4.3160979173537994e-07,6.700091019755278e-08,-1.51339602610314e-07,-1.4200765015762247e-07,-9.471094929202678e-07,-2.010889297285336e-07,1.5098702934190245e-06,8.807328603243465e-07,1.0198904773347932e-06,-2.151789462115359e-06,5.604360846283953e-08,1.1339924889059182e-06,7.527671888271886e-07
1.0002860336327871e-07,9.758927946480112e-08,2.753095456855271e-07,-6.593271731800323e-07,4.7630581950100827e-07,-4.06634629543461e-07,1.7359548297432748e-07,-1.374399813282531e-07,-1.241582706072819e-08,-9.080051338694046e-07,-7.86502316064726e-08,1.5261737546646047e-06,9.915434488182607e-07,7.99980053798386e-07,-2.8951722107890883e-06,2.3650565312859236e-07,1.090230464458019e-06,6.285590259187609e-07
