0,1,2,3,4,5,6,7,8,9,10,11,12,13,14,15,16,17
5.5345596909095146e-08,8.29784404628093e-09,4.384512504939225e-08,1.4554821806365598e-08,1.7110750440854067e-07,1.0254223227632707e-07,2.0980784525406495e-07,8.288175802871567e-08,2.7173222883245286e-08,-2.7217445479420242e-08,-3.446921235049963e-08,1.0683999118128938e-07,1.236556467068993e-07,-1.6220815082312505e-08,3.356456517890718e-08,1.8480185983245613e-07,6.792656018436309e-08,6.263226747310696e-08
3.174543226861776e-08,-2.2542099314582696e-08,1.6930080481611213e-08,-2.0517690667227413e-08,1.5110501891965233e-07,8.877771515725773e-08,1.9590853010921323e-07,7.001057431543951e-08,1.6646949013644566e-08,-3.217736685019043e-08,-3.689968204965731e-08,1.1645060262593125e-07,9.557111116986082e-08,1.021635954459578e-08,3.1317833873587926e-08,1.6280756616492147e-07,8.003268412254354e-08,6.416448235871646e-08
1.7792450185950092e-08,-4.4668005307702696e-08,-4.0583333978317737e-10,-5.1595423855777496e-08,1.3255215213898956e-07,7.800727921408114e-08,1.9252029599910272e-07,5.679694772982632e-08,1.466330542164265e-08,-3.1391601213766045e-08,-3.099000908624849e-08,1.3169774877000343e-07,7.186432800061578e-08,4.05686038811272e-08,3.033613301844771e-08,1.4734161661701012e-07,9.477910882876239e-08,6.72938048249905e-08
7.714596950792105e-09,-5.8950858155943686e-08,-1.1048624537709744e-08,-7.457947234476318e-08,1.1098247913603296e-07,6.482447983770867e-08,1.8729756356462786e-07,3.9394156848897874e-08,1.2642875079503028e-08,-2.8587930496426524e-08,-2.293708346910564e-08,1.3756415901976188e-07,4.915406891387107e-08,5.457115539188048e-08,2.1722772594341958e-08,1.2954927782214976e-07,9.447177782924421e-08,6.37808364305312e-08
-3.9293013599197196e-09,-6.729937500193754e-08,-1.7975224533483657e-08,-8.49890031247712e-08,8.240360935134208e-08,4.5528397734144175e-08,1.6841155987778893e-07,1.6886032296458084e-08,7.263207668852963e-09,-2.661169074917942e-08,-1.8015196685586842e-08,1.2267255138650996e-07,2.4279428123255516e-08,4.1678869237121646e-08,2.9779590003941603e-09,1.0259298068001603e-07,7.137099147404144e-08,4.919132874691067e-08
-1.8502229298990612e-08,-6.919726500529334e-08,-2.1749113267292342e-08,-7.941071096102106e-08,4.599027217910521e-08,1.969763043093532e-08,1.2840371056215935e-07,-1.1302469894666015e-08,-1.698349901615289e-09,-2.5402130799195087e-08,-1.7301487833737703e-08,8.524257986340132e-08,-2.3314890813633874e-09,6.839408755741745e-09,-2.0712070497223477e-08,6.554235410174047e-08,3.1222374347512386e-08,2.5037339826275505e-08
-3.232252478559115e-08,-6.213922429732325e-08,-2.035851858265144e-08,-5.6610006767530465e-08,4.890914547748063e-09,-8.921868124696395e-09,6.904013150813722e-08,-3.981173658997839e-08,-1.0077823003653715e-08,-2.210239362361309e-08,-1.7587134138034018e-08,3.352354026969269e-08,-2.74738229532627e-08,-3.439614839556221e-08,-3.9685843922985004e-08,2.3612212553674033e-08,-1.1221157616683216e-08,-2.396858233238522e-09
-3.928461458326284e-08,-4.315786867987305e-08,-1.1554027497687196e-08,-1.8326231976801683e-08,-3.457628332621494e-08,-3.397005512169986e-08,-2.4694782243130723e-10,-5.989009817648453e-08,-1.3954093194903353e-08,-1.3239559763505638e-08,-1.3866161767797066e-08,-1.8756808315975442e-08,-4.6206880396116175e-08,-6.415734978125515e-08,-4.53753875542726e-08,-1.507539228636719e-08,-4.132018788711226e-08,-2.5615585248063034e-08
-3.503643899436154e-08,-1.2473643414149836e-08,4.2014828771939646e-09,2.911833130716233e-08,-6.669023654162154e-08,-5.003173426430065e-08,-6.631626299064349e-08,-6.579090980731348e-08,-8.864258024132156e-09,2.358054241479423e-09,-3.1018456507156616e-09,-5.984655671743232e-08,-5.504340691671635e-08,-7.213622102002027e-08,-3.544348468956745e-08,-4.42506072201649e-08,-5.290418523063854e-08,-3.995239488521448e-08
-2.0842242085140364e-08,2.4639660298862365e-08,2.20736918786267e-08,7.527354231156354e-08,-8.675348154381747e-08,-5.5188813304526875e-08,-1.1846531100965015e-07,-5.5223086124601735e-08,3.672255966200431e-09,2.1822702271307956e-08,1.3084858170515067e-08,-8.47535258192317e-08,-5.450100202792477e-08,-6.042014743499717e-08,-1.5562141043769183e-08,-6.295989717242803e-08,-5.09811770118271e-08,-4.571621162407162e-08
-3.1743015382979935e-09,5.840486926208491e-08,3.4095566162757914e-08,1.0787854599091322e-07,-9.611376555136633e-08,-5.194648207677359e-08,-1.525588299446341e-07,-3.2411637023136565e-08,1.5738503414278127e-08,3.906221039604873e-08,2.9021792299069195e-08,-9.645106997365165e-08,-4.822830368570905e-08,-3.962941304637154e-08,3.6641514666714696e-09,-7.55546685652424e-08,-4.6196411869687724e-08,-4.6938278458911885e-08
9.67503541170233e-09,7.843328003204665e-08,3.310810866138953e-08,1.1665207980304624e-07,-9.861252897063058e-08,-4.5563464600838e-08,-1.7022366828397094e-07,-6.314947260284073e-09,2.1369080082201778e-08,4.780595411929934e-08,3.8380174648309435e-08,-1.0155848705798971e-07,-4.0395395658148507e-08,-2.025881343493758e-08,1.3241195156479145e-08,-8.832282306769308e-08,-4.777807395216643e-08,-4.754605946575189e-08
1.2636348209060781e-08,7.941242744541194e-08,1.7080078455768242e-08,9.687078336393552e-08,-9.77815707289259e-08,-4.092327437547826e-08,-1.755233993632736e-07,8.141936948149041e-09,1.5869962854490666e-08,4.4981332909670105e-08,3.827084581893213e-08,-1.0419018219172306e-07,-3.402419697266467e-08,-5.024810262278517e-09,1.1926032077473214e-08,-1.0519009508047843e-07,-5.5885468487637216e-08,-4.7859068443259555e-08
7.466533235387885e-09,6.38396143601028e-08,-8.785601503089388e-09,4.995061886061e-08,-9.240441330817364e-08,-3.9118822135229535e-08,-1.7173298902792816e-07,8.64624562204739e-09,-5.0229697495942456e-09,3.240910526513508e-08,3.109286661250386e-08,-1.0224125795976022e-07,-2.8559386820284158e-08,1.3097411556771125e-08,4.142181169407019e-09,-1.2531870741944916e-07,-6.12605482511452e-08,-4.3877616444524506e-08
2.7428109597558395e-09,4.183871472921355e-08,-3.36339441937338e-08,-1.5920543807785144e-08,-7.761788168141002e-08,-3.8145922893443693e-08,-1.5891763865730202e-07,2.0423218436509953e-10,-3.2261440238628856e-08,1.592099319142383e-08,2.3341733724194544e-08,-9.297649828135031e-08,-2.079165200615134e-08,4.5620459487247264e-08,-7.36183100425407e-10,-1.4392471245307493e-07,-5.1781578078061826e-08,-2.982985160429399e-08
7.972848515203177e-09,2.5561929002803052e-08,-4.5823246111309174e-08,-8.834963993791894e-08,-4.848178902924884e-08,-3.5567297753467195e-08,-1.3740458977526043e-07,-1.2216999097432723e-08,-6.316042827153368e-08,2.369766580932007e-09,2.197554175785839e-08,-7.321678679947555e-08,-6.9690463961641345e-09,9.965145060324976e-08,4.622287272533415e-09,-1.5565096450706976e-07,-2.047470840150855e-08,-2.368135253201969e-09
2.858069301474005e-08,2.5697624585488505e-08,-3.83687505222454e-08,-1.551054837902696e-07,-2.4357497124039942e-09,-2.9025279479361677e-08,-1.0880073577893985e-07,-1.8153216745018635e-08,-9.134393954405299e-08,-3.875698398518583e-09,3.0430958889506775e-08,-4.4615041477142853e-08,1.4145606584101797e-08,1.7194208394908086e-07,1.9972832603622375e-08,-1.5833000181567422e-07,2.7771381022539888e-08,3.618123681579848e-08
6.257866476651838e-08,4.381798036731966e-08,-1.2275603462276608e-08,-2.0741253997482245e-07,5.6308828212244635e-08,-2.0548198690021974e-08,-8.364923607058121e-08,-9.567578395947246e-09,-1.1290646344487044e-07,-2.9030337405243016e-09,4.679198053897995e-08,-1.5862259432936962e-08,4.0344543277296635e-08,2.474593417951822e-07,3.874083617378823e-08,-1.5456180412169583e-07,8.015219179599688e-08,7.792851570836648e-08
1.0161062567463963e-07,6.763061334660853e-08,2.4432528954162815e-08,-2.418760495102299e-07,1.1856732015987239e-07,-1.582187814612487e-08,-7.180654636238581e-08,9.411941893465258e-09,-1.1879841485116583e-07,1.5515528195004282e-09,6.524221951706874e-08,1.6242764077741004e-09,6.495122143109667e-08,3.0831773186911205e-07,5.195907363475791e-08,-1.5014171729881054e-07,1.2316934960148612e-07,1.1314260777639426e-07
1.3616016616468988e-07,8.975438476951325e-08,6.145679412478312e-08,-2.576361186450931e-07,1.7236199943278861e-07,-2.1283283449296233e-08,-6.825839677247489e-08,3.272183602292191e-08,-1.1823784528380066e-07,5.050975853475829e-09,7.994325739876421e-08,-7.933922031828787e-10,8.233836354273347e-08,3.4250490400189556e-07,5.587258472004856e-08,-1.5035687080128057e-07,1.4855307924027407e-07,1.3516043360665125e-07
1.6080223586343856e-07,1.0503899232570496e-07,9.151694799760731e-08,-2.585882890361694e-07,2.1106604336267864e-07,-3.840561670547028e-08,-7.708787773153369e-08,6.405610982467114e-08,-1.1412424558369492e-07,5.3853114988865255e-09,8.867964946115737e-08,-2.365411852399274e-08,8.904288773152269e-08,3.511127388579946e-07,5.2932141648194076e-08,-1.566001709938165e-07,1.5936399794346327e-07,1.4350472657141917e-07
1.7666146655180974e-07,1.127441559439327e-07,1.1307772416186885e-07,-2.487731236129166e-07,2.3423951065697663e-07,-6.292343526863591e-08,-9.387304596874217e-08,9.02537655576379e-08,-1.0077375424719474e-07,3.525294364483321e-09,9.445715746755501e-08,-5.9290011989891443e-08,9.044046387206303e-08,3.4670119589371933e-07,5.184350819750143e-08,-1.6555945506170756e-07,1.669570945166165e-07,1.4358958402755917e-07
1.895553492379415e-07,1.1884624224622095e-07,1.2937546706865078e-07,-2.3101634005053472e-07,2.464084627354311e-07,-8.710128650827373e-08,-1.0773143150029633e-07,1.2042017404399093e-07,-7.773135299936137e-08,2.183418347346812e-09,1.016250244843383e-07,-9.516144897938433e-08,9.988621910087853e-08,3.4219219461787283e-07,6.193473068243988e-08,-1.713732839359375e-07,1.8257744789641114e-07,1.4332439607943732e-07
2.0555443734188628e-07,1.2780991560655877e-07,1.4493894941716936e-07,-2.0873684517569315e-07,2.547325287104284e-07,-1.0315803391723468e-07,-1.1283596451874788e-07,1.626871604034392e-07,-3.831514959493574e-08,3.1065825285109472e-09,1.1320919825190248e-07,-1.2179815383087787e-07,1.145946000895527e-07,3.582114733560389e-07,8.669233940339395e-08,-1.6959872695324365e-07,2.1202956954612825e-07,1.4850271049631548e-07
2.2605952065511702e-07,1.4460132879332154e-07,1.6187555710624453e-07,-1.8547894402442446e-07,2.6433536130722314e-07,-1.093499073614349e-07,-1.0466740396095544e-07,2.1323218322667585e-07,1.6814294475382804e-08,5.0332490032422166e-09,1.2794235383490956e-07,-1.3718125262738717e-07,1.3594128857839147e-07,3.887892037681273e-07,1.2161687395564916e-07,-1.603645261342546e-07,2.513366004809551e-07,1.5978785432116085e-07
2.469949031891649e-07,1.5924588853714013e-07,1.7839068039534395e-07,-1.658492126863508e-07,2.762389078408428e-07,-1.067661187622121e-07,-8.299928735811224e-08,2.706151445306694e-07,8.105446594989859e-08,3.948600251779249e-09,1.4010918012367726e-07,-1.461961581920129e-07,1.6201599907745874e-07,4.2362818058629403e-07,1.5606531263658706e-07,-1.4697403873364566e-07,2.894684674000907e-07,1.7336152533821616e-07
2.618895674000231e-07,1.7329468034390837e-07,1.888812439384476e-07,-1.5336481296878676e-07,2.902119947000185e-07,-1.0322288410009558e-07,-5.112555702506475e-08,3.2460951226473636e-07,1.479576552502252e-07,-4.324764451694578e-09,1.4266395922343368e-07,-1.5609956447008397e-07,1.8441064769100192e-07,4.5197588043351965e-07,1.7906325552156405e-07,-1.3558857867094585e-07,3.164724644800393e-07,1.844268782836243e-07
2.660195135182764e-07,1.744064074154528e-07,1.9044673667620192e-07,-1.5267476009704614e-07,3.0403986487421635e-07,-1.0565282988702626e-07,-1.574283414566819e-08,3.76171418308672e-07,2.0549456274576958e-07,-2.1011694415329012e-08,1.338561828430929e-07,-1.6982616024747237e-07,2.0625357210714932e-07,4.6675666844492916e-07,1.8727459430714047e-07,-1.3009853840673752e-07,3.326975310056702e-07,1.910188256537014e-07
2.601228047164147e-07,1.5882713599389786e-07,1.8314568066049741e-07,-1.6365652316292e-07,3.1717334009882383e-07,-1.1425017229898619e-07,2.668472090157641e-08,4.330979660614339e-07,2.5276958070200017e-07,-4.29404860708207e-08,1.1798202422188458e-07,-1.8365097814444117e-07,2.25519421906282e-07,4.7005439769295894e-07,1.7717091757124827e-07,-1.2805230300848354e-07,3.4305485374662616e-07,1.9514452101324397e-07
2.5540901050818826e-07,1.3489904381717974e-07,1.7089021689589598e-07,-1.8265424331914282e-07,3.309174497272409e-07,-1.259064460339256e-07,8.449987695599169e-08,4.971172001482335e-07,2.9316107644036645e-07,-6.369886918317373e-08,1.0256437373197876e-07,-1.9110549767368767e-07,2.421369319107602e-07,4.738234501907187e-07,1.6595971107869285e-07,-1.206507080854556e-07,3.58199121669722e-07,2.0074180169723946e-07
2.580979065007727e-07,1.0697013188059036e-07,1.5807001227910387e-07,-2.05332764585338e-07,3.4828357092564324e-07,-1.3346348458825603e-07,1.703789703430421e-07,5.714312311108712e-07,3.184998682509483e-07,-7.671167936012702e-08,9.54495512443525e-08,-1.858620355298478e-07,2.5120242817348573e-07,4.897961360187797e-07,1.612201849545052e-07,-1.0240358003796649e-07,3.851182980698931e-07,2.1021954763396725e-07
2.7147467804301457e-07,8.403008837649076e-08,1.453212413724393e-07,-2.265935595677558e-07,3.691483453580864e-07,-1.295725423150699e-07,2.75472750982355e-07,6.511990107465594e-07,3.320452023190356e-07,-7.852433252874855e-08,1.01463348357139e-07,-1.690810186206424e-07,2.6063025315729586e-07,5.132594949971864e-07,1.614144412320503e-07,-7.20457353903032e-08,4.1958987461790676e-07,2.218685841087412e-07
2.953218905260075e-07,5.155769152100373e-08,1.3040874219524899e-07,-2.433305194958406e-07,3.887071879774326e-07,-1.1079775417413856e-07,3.9515855950943284e-07,7.061831721630276e-07,3.5886230106904823e-07,-7.03530945412808e-08,1.1760829081517877e-07,-1.4983903343079366e-07,2.7321339460280113e-07,5.292054866360837e-07,1.7176185860482116e-07,-3.421779529130881e-08,4.613160595797477e-07,2.3046339728351066e-07
3.154916681925693e-07,2.177676491808251e-08,1.0764010087634022e-07,-2.518298141184289e-07,4.039424203344444e-07,-8.031596084709897e-08,5.440671775900726e-07,7.558678154472685e-07,3.9568938546824575e-07,-5.6902611793745855e-08,1.375151294701803e-07,-1.389100983405899e-07,2.783277613821862e-07,5.31173145635402e-07,1.880999411615417e-07,5.0481399693056815e-09,4.971515111403981e-07,2.3020055378682532e-07
3.2554576866618813e-07,-4.8703645787814114e-09,7.527338414490908e-08,-2.537596214927306e-07,4.114978805094734e-07,-4.123883918912483e-08,7.143531734582653e-07,8.013450921221771e-07,4.251342426564683e-07,-4.3137272125344185e-08,1.5573399587277567e-07,-1.4136027105497156e-07,2.891994805862742e-07,5.146679275529178e-07,2.137898945427256e-07,4.3927554813715004e-08,5.097145684213821e-07,2.1898868672059076e-07
3.251402084521181e-07,-3.782675619077101e-08,2.850687424653852e-08,-2.6113657213941847e-07,4.2398206434404084e-07,1.5847664695324088e-08,8.738176151820392e-07,8.350571431871891e-07,4.656679971588066e-07,-3.143305342200144e-08,1.6981789449059127e-07,-1.5048680482743514e-07,3.042561263647121e-07,4.868262105552178e-07,2.4391509714078146e-07,8.619948369769984e-08,5.117991900090938e-07,2.0021223655179954e-07
3.162450019679858e-07,-7.25566696131308e-08,-2.6858700370680345e-08,-2.745685314149647e-07,4.4050370460145305e-07,8.211246624636939e-08,1.0064650806329593e-06,8.491331396128777e-07,5.110121488307369e-07,-2.0619959702941074e-08,1.8080494768630133e-07,-1.50991371186402e-07,3.311500424769844e-07,4.7432924260151625e-07,3.019561916039177e-07,1.3873829542075024e-07,5.212632589266806e-07,1.8210236375111998e-07
3.059219050223716e-07,-1.047853560310781e-07,-8.902292935258355e-08,-2.934132367155286e-07,4.57441167749971e-07,1.5518860636807113e-07,1.0926076493909235e-06,8.499483099238123e-07,5.581940485933585e-07,-7.605181063062009e-09,1.9385480016823096e-07,-1.2567723113283913e-07,3.7747435550668047e-07,4.910584491107453e-07,3.808425251669673e-07,2.071588926456309e-07,5.54109682170282e-07,1.7369809777248532e-07
3.0231834726131936e-07,-1.2462790833290696e-07,-1.5191120704646034e-07,-3.153380387392729e-07,4.717476846216532e-07,2.3315681575534355e-07,1.117195653737844e-06,8.375970920735202e-07,6.084129643492778e-07,9.625328298294114e-09,2.118305130274153e-07,-6.539338331891007e-08,4.308283030693369e-07,5.516643526674517e-07,4.832078069301926e-07,2.916641198901054e-07,6.199851884388316e-07,1.8067234460722682e-07
3.069559306737688e-07,-1.3715701753740434e-07,-1.6141543692300567e-07,-3.2588881521082386e-07,4.788525165783343e-07,3.004978803184962e-07,1.0809833312432603e-06,8.448856614598788e-07,6.662488692053574e-07,2.994611088636042e-08,2.2964425377933652e-07,2.513014893070314e-08,4.829214014093989e-07,6.179655948144927e-07,6.28959229353018e-07,3.834344159355138e-07,7.108732354728187e-07,2.034412125787857e-07
3.213003898094514e-07,-1.1521300539586377e-07,-1.4665500550979078e-07,-3.264806978263221e-07,5.035692220851493e-07,3.5659812611345613e-07,1.0410377467922638e-06,9.064371061989085e-07,7.055680667504267e-07,4.9685496976144284e-08,2.39415260868038e-07,1.3381843522199635e-07,5.190122500677519e-07,6.909689246323969e-07,7.61129616668714e-07,4.85740265345146e-07,7.926937500852168e-07,2.3783491334362897e-07
3.5213714090921515e-07,-9.755304715155843e-08,-1.232162119850609e-07,-3.4719088020419687e-07,5.456554078429674e-07,3.9644053988003623e-07,1.0320122232891735e-06,9.963180510488088e-07,7.308065376182548e-07,6.568259972977441e-08,2.3232080983815263e-07,2.4046511275838707e-07,5.6523469706119e-07,7.317840999597338e-07,8.531687425886407e-07,5.716444929451181e-07,8.602808762405636e-07,2.785729565249307e-07
3.963330322961256e-07,-1.435081341442428e-07,-5.856881142214878e-08,-4.00893685518792e-07,6.322053892596991e-07,4.3474695898447985e-07,1.1095385019624115e-06,1.168594110565944e-06,7.97435829485075e-07,7.824829903207078e-08,2.136854693701229e-07,3.3453378531988325e-07,5.860215482077173e-07,7.373034407000998e-07,8.405001073700866e-07,6.179907191436355e-07,9.351790678970953e-07,3.226074927953115e-07
4.5094026700505674e-07,-1.7998242172654703e-07,-1.6387421625655558e-08,-4.846830473051434e-07,7.84375736423285e-07,4.932838172380733e-07,1.252260049061853e-06,1.2812493825031974e-06,8.806265197018938e-07,9.157856132466529e-08,1.8676274218138587e-07,4.192401980812202e-07,6.018198097960342e-07,7.753175901478457e-07,7.870179874473096e-07,6.375755800579384e-07,1.0067716757276404e-06,3.7016574688395756e-07
5.126277328101676e-07,-2.0740323245869033e-07,-4.733534148328681e-08,-6.371369637858225e-07,9.089889977133954e-07,6.12871369134654e-07,1.4049838195611243e-06,1.3660422517870274e-06,9.445332070523568e-07,1.110973353029114e-07,1.580026846938441e-07,5.055481780760595e-07,6.95306170606239e-07,9.147025195609288e-07,7.182333772570027e-07,6.943096904009778e-07,1.0890812167267925e-06,4.2369117239681315e-07
5.662797820027806e-07,-2.2837952638749554e-07,-1.0716842401734268e-07,-7.203321166362228e-07,1.0284961865197804e-06,7.038564318423434e-07,1.5781320710656503e-06,1.4553209465838355e-06,9.744725789527357e-07,1.3946681682071646e-07,1.3887483820869367e-07,6.041444340583901e-07,7.506917191756823e-07,9.955280571499916e-07,6.582330853782076e-07,8.121464491704001e-07,1.172255340742683e-06,4.829200238095312e-07
5.94842556488297e-07,-2.3027105274621606e-07,-1.6095972012946877e-07,-7.549753589219811e-07,1.132186359581285e-06,7.521881055340171e-07,1.7357300138648934e-06,1.5178492935943616e-06,1.0326385205275987e-06,1.7381286516709444e-07,1.3277533061175361e-07,7.28598608164833e-07,8.010305946773744e-07,1.02026047655213e-06,6.1505460145805e-07,9.544093729309784e-07,1.239943525364442e-06,5.43661085504814e-07
6.060944940949437e-07,-2.1310316123734348e-07,-1.7543293584321204e-07,-7.488075670620336e-07,1.2171501631028405e-06,8.037203681260828e-07,1.8339656853877694e-06,1.5682201982639637e-06,1.09713164579171e-06,2.0624892211858032e-07,1.438250435389927e-07,8.67433307378189e-07,8.538449208769658e-07,1.0520447342003924e-06,6.013161966483207e-07,1.0682859901534284e-06,1.2886317719435924e-06,5.981299207932103e-07
5.921195583257004e-07,-2.010803527052312e-07,-1.732232664163199e-07,-7.171106008860758e-07,1.285391290083104e-06,8.213801308155774e-07,1.9120182456283024e-06,1.6060943142716245e-06,1.1736135836092123e-06,2.2795476248840157e-07,1.7509198398730481e-07,1.0008994692373625e-06,8.863975223211352e-07,1.079187467438536e-06,5.98560812554087e-07,1.1959601918982007e-06,1.2928800345701738e-06,6.357484280620249e-07
5.694440061998737e-07,-2.0497856673507053e-07,-1.9368295318370055e-07,-7.951015262979071e-07,1.4202934020524747e-06,8.455406198770982e-07,1.994855437943491e-06,1.6809171906311896e-06,1.2986602246640887e-06,2.3447014031252293e-07,2.2282140128575218e-07,1.1260882443357857e-06,9.12694287148131e-07,1.1555425389349873e-06,5.62327950762357e-07,1.340994586576926e-06,1.2495004527486238e-06,6.523257952197383e-07
6.091632512781849e-07,-1.3921772024699323e-07,-1.5592084913891072e-07,-7.547598087967634e-07,1.5675198561454214e-06,9.263584331417201e-07,2.0581894316610723e-06,1.7703070352906882e-06,1.4020352909319698e-06,2.287717510070745e-07,2.748423352988259e-07,1.2470710717236762e-06,9.656161100615008e-07,1.2149179340182066e-06,4.967595696243518e-07,1.4270098290690197e-06,1.2377453495315459e-06,6.489820917450186e-07
6.699222082311756e-07,-8.81292599239578e-08,-1.0982518774561733e-07,-6.306324624119226e-07,1.6371253958009729e-06,9.609203316979657e-07,2.1189089998785022e-06,1.7831532720565965e-06,1.471837452809364e-06,2.2004636879536113e-07,3.424930569607029e-07,1.3669383708157696e-06,9.971195684146734e-07,1.226167642466848e-06,4.356807200890237e-07,1.4407105762410684e-06,1.2389278638243588e-06,6.279645183729537e-07
7.30439278130852e-07,-6.450934045150038e-08,-5.255058252717324e-08,-5.598337658957371e-07,1.671007032420284e-06,9.751714949608792e-07,2.187265187499957e-06,1.8233502201376685e-06,1.5631619218363095e-06,2.183786302695873e-07,3.7739078046724793e-07,1.4439634784863688e-06,1.0276999346891766e-06,1.2419622842136807e-06,4.165375111378955e-07,1.4156328603864933e-06,1.2366434235034527e-06,5.951608386337761e-07
7.670432530513343e-07,-2.952216572648492e-08,6.7230773937701735e-09,-5.019792639512684e-07,1.6960857417373456e-06,9.80807216049036e-07,2.261498942855033e-06,1.9025952936094101e-06,1.638633913212401e-06,2.2837445987113472e-07,3.9809839343877063e-07,1.4406162482772499e-06,1.0570097437946233e-06,1.2589602469314107e-06,3.966805143388241e-07,1.412243174416675e-06,1.2418973770625665e-06,5.537652082393124e-07
7.839962101430161e-07,5.6189015797328315e-09,8.671919481253471e-08,-4.241843312328712e-07,1.7099661264580063e-06,9.679213540605892e-07,2.3477075200729017e-06,1.970401427192937e-06,1.72862220108343e-06,2.4616881916236774e-07,4.2703625234021904e-07,1.3636222378204548e-06,1.0728674958130668e-06,1.233883219337286e-06,3.9664207721990474e-07,1.4464465174280683e-06,1.2301377639822867e-06,5.083996969718283e-07
8.032052955583658e-07,3.85811766956653e-08,1.6884204648674556e-07,-3.7717282012880676e-07,1.717592867628334e-06,9.820329868996886e-07,2.4107458153167996e-06,2.016299081830887e-06,1.7959876010454961e-06,2.6188711299054355e-07,5.036923308512599e-07,1.2337009001639547e-06,1.0941844228300293e-06,1.2394338416915734e-06,3.674154215771887e-07,1.451715068897232e-06,1.1919242173877044e-06,4.995960508802601e-07
8.597921698863112e-07,6.526720222381333e-08,2.379930863683403e-07,-3.213707140486887e-07,1.7569441746741133e-06,1.0165971745020689e-06,2.410498644952935e-06,2.065565131747555e-06,1.8439377866146146e-06,2.6647345907918686e-07,5.548614737169551e-07,1.0917402978861352e-06,1.115318499974259e-06,1.2401778225921072e-06,3.99164513602448e-07,1.421399727788658e-06,1.1251500466470577e-06,5.383841526782652e-07
8.979147100551596e-07,1.0309403199414615e-07,2.768633442615542e-07,-2.281796022849909e-07,1.8275234931696949e-06,1.0063075148895777e-06,2.3895059867695875e-06,2.119785652882574e-06,1.8785702762301328e-06,2.5675738179855514e-07,5.691629426870722e-07,9.735508254496723e-07,1.1383535649708297e-06,1.2100308485567543e-06,4.3545815299037266e-07,1.3902860578414224e-06,1.052013062581854e-06,6.022510563886514e-07
9.035835475072562e-07,1.7481463766517646e-07,3.4042600635281607e-07,-2.1346685559058702e-07,1.846507777925119e-06,9.221904391452151e-07,2.432310970177932e-06,2.129541291948569e-06,1.9106331461134738e-06,2.3589314188284083e-07,5.876571095555086e-07,8.634739503224169e-07,1.1636940362902241e-06,1.222930468980631e-06,4.74122880469956e-07,1.3627153467928517e-06,1.0116878107868659e-06,6.829794550018355e-07
9.305003148550673e-07,2.396169683447831e-07,4.097726992875604e-07,-1.5889093757387456e-07,1.8319603739112526e-06,8.629175314282864e-07,2.4374829087834697e-06,2.109757059484585e-06,1.9561882502431056e-06,2.098362735801139e-07,6.513278034589935e-07,7.779322505756867e-07,1.1688897890251792e-06,1.2517252402911865e-06,5.303382069059885e-07,1.3737531387075405e-06,9.840355149140545e-07,7.586678474049035e-07
9.461187698784418e-07,3.103369598639216e-07,4.5764800191852224e-07,-7.056204446434012e-08,1.7610604821981252e-06,8.080273227161469e-07,2.3618781500756815e-06,2.1510614953573067e-06,1.956655117004008e-06,1.8371039777988577e-07,7.088910666037539e-07,7.240338877030938e-07,1.1970810034995904e-06,1.2158806785137167e-06,5.703638568150187e-07,1.400928405366446e-06,9.727445883188645e-07,8.219724382260776e-07
9.429718927048067e-07,3.9104400090828443e-07,5.119650989178911e-07,8.134540935846402e-09,1.7039912841642582e-06,8.201231942121257e-07,2.254810857954185e-06,2.2052092195989092e-06,1.9801457571055714e-06,1.6007636540103366e-07,7.501505700210694e-07,6.970407959818256e-07,1.2158911265992888e-06,1.1599271746123517e-06,6.232483045562293e-07,1.4035524297750357e-06,9.727684732966078e-07,8.717686022552839e-07
9.947150181118236e-07,4.555093134487727e-07,5.604245030571457e-07,8.480116376248906e-08,1.6225258651548502e-06,7.482484232521021e-07,2.112331408024646e-06,2.186915925686803e-06,2.0077682639245613e-06,1.3972074789393061e-07,7.514766152745081e-07,6.621864567819056e-07,1.1965982778108692e-06,1.1110429354037711e-06,6.634380031985904e-07,1.3952857681375878e-06,9.650170672812512e-07,9.050343185506797e-07
1.026234792876311e-06,5.310742389332182e-07,6.09886809270423e-07,2.1181512048864908e-07,1.5185451027215135e-06,6.684317080700954e-07,1.9615850790052395e-06,2.173326508628325e-06,2.008972774514628e-06,1.236721251824164e-07,7.155196514126072e-07,6.067171062350859e-07,1.1979729372587129e-06,1.0783049121102692e-06,6.739615373971028e-07,1.3717361272071425e-06,9.577147789350793e-07,9.344129940922145e-07
1.0153737125751248e-06,5.780687303482315e-07,6.354258969996941e-07,2.744681713380674e-07,1.4376319957154808e-06,5.920607459276494e-07,1.9298120836589082e-06,2.1719017877573365e-06,1.9878379344467824e-06,1.1374361734667558e-07,6.777601194371128e-07,5.326387962050649e-07,1.1807939876428312e-06,1.0779550733226917e-06,6.544549158164907e-07,1.4006890027323876e-06,9.57364696484058e-07,9.481234487285857e-07
1.003851706493047e-06,6.526987784115958e-07,6.485119562938522e-07,2.839175638342289e-07,1.3490421292761894e-06,4.936904769181022e-07,1.8953562865871591e-06,2.1645753426483954e-06,1.9522028658655595e-06,1.116270441020285e-07,6.396906491840701e-07,4.421039510830996e-07,1.1827230413777858e-06,1.1241678457647123e-06,5.968576607011674e-07,1.411077536394075e-06,9.64794916746619e-07,9.51174757319505e-07
1.021663641969513e-06,7.318873489003395e-07,6.55336221378658e-07,2.397637482082778e-07,1.2617242146085437e-06,4.254290407869907e-07,1.8605900145935999e-06,2.1773635391164997e-06,1.8969983087620163e-06,1.1689171515344286e-07,6.196342560007463e-07,3.4488408682256217e-07,1.177926085226538e-06,1.147141890049477e-06,5.379164640769204e-07,1.3690801611006483e-06,9.915868552727635e-07,9.464789982035023e-07
1.022477901789714e-06,7.61652521395533e-07,6.450519792550679e-07,2.21040157194442e-07,1.177177410790977e-06,3.820321615595559e-07,1.8320318412894148e-06,2.0975819955055436e-06,1.8465908139732733e-06,1.2555024720027488e-07,6.168751863395337e-07,2.3573016376326606e-07,1.1593085752539762e-06,1.1635806966338452e-06,5.058094872483231e-07,1.3230488177872771e-06,1.0285280232492484e-06,9.088959216693369e-07
1.0154032354358565e-06,8.028363906172433e-07,6.394845745232014e-07,2.0743408571237273e-07,1.0901509181314517e-06,3.3814803004192193e-07,1.7944440958653446e-06,2.0091607360583153e-06,1.8361049299632125e-06,1.305178410864563e-07,6.180502319338773e-07,1.2012864551662076e-07,1.1426557231870531e-06,1.138849183335956e-06,4.980313099990952e-07,1.2483300380234246e-06,1.0537541758621668e-06,8.489428160182103e-07
1.006115632169885e-06,8.544405027186924e-07,5.997131767204629e-07,2.1362980850361874e-07,1.0063438729867389e-06,3.106802281086721e-07,1.7909288235361788e-06,1.8809460441365354e-06,1.8589997989361402e-06,1.2440141278656122e-07,6.23150081243473e-07,-9.05218982911099e-09,1.0927342730303901e-06,1.0434030394937556e-06,5.157586958107227e-07,1.163350148252646e-06,1.0562642922053837e-06,8.442334290357949e-07
9.953079865847657e-07,9.197551063381307e-07,5.773565745311408e-07,2.912059661188852e-07,9.540874148455076e-07,2.78623347758998e-07,1.7527041107651196e-06,1.7434842346921717e-06,1.915218915654644e-06,1.0306476127842241e-07,6.241272009024995e-07,-1.4187442135205769e-07,1.0510780948416585e-06,9.652858875128656e-07,5.403844575044647e-07,1.112803990910028e-06,1.021095995598507e-06,8.587789361985588e-07
1.0021363053978666e-06,9.687437148511503e-07,5.66174345412294e-07,3.72462250596567e-07,9.211667741785833e-07,2.4155921633564974e-07,1.7005615106128766e-06,1.703566544218853e-06,1.984664290085405e-06,6.766420327331418e-08,6.214666927782992e-07,-2.671713142013325e-07,1.0107590973883564e-06,8.806337154448887e-07,5.480104360012277e-07,1.0629769164995037e-06,9.659897653761495e-07,8.270255622946019e-07
9.759284385654833e-07,1.000813212919297e-06,5.632099636268811e-07,4.440023681731509e-07,9.05268024268564e-07,1.907024759003813e-07,1.654238630059737e-06,1.7624685328172227e-06,2.0480938076246504e-06,2.3685122477529014e-08,5.968084896473262e-07,-3.7250987681529094e-07,9.675857582559874e-07,7.851162189216143e-07,5.36689459294369e-07,9.812555886489683e-07,9.138835669849036e-07,7.643265084156695e-07
9.510383785397949e-07,1.0231955639348572e-06,5.647828565977338e-07,5.031276603594905e-07,8.950503115315523e-07,1.6058012085117037e-07,1.6123391465008664e-06,1.774021396268321e-06,2.098857025699859e-06,-2.2312122091612894e-08,5.593583262427752e-07,-4.5168273948267375e-07,9.382133033458561e-07,7.014985694462561e-07,5.067371290274933e-07,8.838492912089722e-07,8.78169415598475e-07,7.039529186759698e-07
9.273006174182944e-07,1.041464282408703e-06,5.614273776512211e-07,5.282612825182519e-07,8.943027204957166e-07,1.4433316975689898e-07,1.5912408791456692e-06,1.7757729133241937e-06,2.1372145279403484e-06,-6.620139660092165e-08,5.19491318118709e-07,-5.08198241112073e-07,9.115003656411872e-07,6.332314066882058e-07,4.693314389060637e-07,8.111003924760473e-07,8.489510493571054e-07,6.569579625818241e-07
8.895256152066949e-07,1.0426596955009107e-06,5.744564297387904e-07,5.234287594020562e-07,9.124679145016033e-07,1.255282105081901e-07,1.5876516511656328e-06,1.7794487811514727e-06,2.163688413536528e-06,-1.0775805936961861e-07,4.86612927522443e-07,-5.478279546296332e-07,8.915660603391162e-07,5.892021222592116e-07,4.1844124718631655e-07,7.225828514948361e-07,8.206446816573951e-07,6.210802749854039e-07
8.539893102941801e-07,1.0336558307772055e-06,5.784380702112428e-07,5.03387586457456e-07,9.676425643294989e-07,1.3752112977439055e-07,1.6029182045949766e-06,1.7649475437034041e-06,2.1762118524127933e-06,-1.4933663325865612e-07,4.621448345172463e-07,-5.855554536913361e-07,8.738438764315013e-07,5.442348583746189e-07,3.5076281390966705e-07,6.336322353752777e-07,7.848892420485703e-07,5.926227750329513e-07
8.277144314718658e-07,1.0173978271258107e-06,5.708248892850541e-07,4.5518219908979323e-07,1.0546035021235798e-06,1.4711707493373125e-07,1.6276882241914688e-06,1.763986025783985e-06,2.1712023289789825e-06,-1.9286643147706352e-07,4.3933383987849356e-07,-6.479668801521486e-07,8.534585166433047e-07,4.921153652464865e-07,2.7017452305626664e-07,5.621920577724953e-07,7.361797253160426e-07,5.655644268435573e-07
7.99006283092319e-07,9.818907670100637e-07,5.635333527490877e-07,3.754969183628939e-07,1.1541396675652294e-06,1.47589883384172e-07,1.6645253690005289e-06,1.7897374359748582e-06,2.1654492113981635e-06,-2.377188064119059e-07,4.052390274653368e-07,-7.146671910061162e-07,8.285135528720859e-07,4.314900029649183e-07,1.823756740235899e-07,4.7342641658701776e-07,6.801846271665306e-07,5.31977028605076e-07
7.742751146727661e-07,9.391446719539106e-07,5.573402163142166e-07,2.880052268284508e-07,1.2629424568261528e-06,1.68768526921639e-07,1.7214635589959578e-06,1.8526907192826726e-06,2.1631764860880757e-06,-2.8106901188532786e-07,3.656672566622571e-07,-7.804586466354509e-07,8.045898333725926e-07,3.6364435128631376e-07,1.0003095212059787e-07,3.7393572366994247e-07,6.23171393045596e-07,4.911193495895033e-07
7.611666427749998e-07,9.085487532119082e-07,5.639741244433205e-07,2.0475936401533927e-07,1.3682250863416635e-06,2.0817883641861574e-07,1.7765929673219158e-06,1.948386657039934e-06,2.1668752194202143e-06,-3.2001855061735844e-07,3.423589409613371e-07,-8.429992084595788e-07,7.865734989656532e-07,2.995324992278383e-07,3.128216440976046e-08,2.6717078307120097e-07,5.698309727171265e-07,4.473536971436011e-07
7.565768091533395e-07,8.873569582874312e-07,5.831167160431482e-07,1.411673261309166e-07,1.4657201629626803e-06,2.301322012554324e-07,1.8395903795763065e-06,2.0563081692882974e-06,2.1774009400621283e-06,-3.5370075383856746e-07,3.313414170935006e-07,-8.937036599578289e-07,7.751590139917811e-07,2.411165783469603e-07,-2.2811046239113973e-08,1.4374539226816456e-07,5.192969311807271e-07,4.164747578298374e-07
7.583439153519987e-07,8.819919632522533e-07,6.107478917760114e-07,1.0956326661403017e-07,1.5457243597413663e-06,2.3704172913087756e-07,1.8789995635532429e-06,2.1431625970412427e-06,2.1868442252473825e-06,-3.834372491857897e-07,3.292592336322776e-07,-9.330248478173194e-07,7.699588192157373e-07,1.8604567827539084e-07,-6.518320730101808e-08,1.7630694618753024e-08,4.7044353913655425e-07,3.906002614691444e-07
7.619241986523702e-07,8.962804390538093e-07,6.359298681933558e-07,9.916001002612615e-08,1.6061463268327362e-06,2.249985187145155e-07,1.8621964112170542e-06,2.211658406070667e-06,2.1890588997482647e-06,-4.1082289790690605e-07,3.2829628375891194e-07,-9.588829472244768e-07,7.741623624852427e-07,1.3984832200661382e-07,-1.0086272119231813e-07,-8.688298217443051e-08,4.1999627207318664e-07,3.660891487099946e-07
7.611661025166639e-07,9.213785376532332e-07,6.565127615099463e-07,1.0341735878629032e-07,1.6279160122949413e-06,1.8370314423970011e-07,1.7868826758769088e-06,2.20954281604409e-06,2.1796826567614456e-06,-4.3551638641943403e-07,3.230314799307854e-07,-9.6938950241004e-07,7.847659671584554e-07,1.0543499983340963e-07,-1.3229864918983264e-07,-1.723298225145453e-07,3.7017928456680003e-07,3.5006952993589835e-07
7.555477560640973e-07,9.547423904655553e-07,6.742287923779191e-07,1.2151546917760605e-07,1.6227815045457943e-06,1.3426084213273414e-07,1.6649118111357526e-06,2.1518019461170773e-06,2.1612402026116803e-06,-4.549310249415147e-07,3.051202156109168e-07,-9.590026179244265e-07,8.016356909281905e-07,9.12813527383621e-08,-1.590315034366444e-07,-2.3875677869634003e-07,3.2728117691049597e-07,3.396861548272589e-07
7.525742260207244e-07,9.94730903827706e-07,6.908302646910761e-07,1.4290408505472104e-07,1.6137459098284667e-06,8.4429109032466e-08,1.5253717285086295e-06,2.0602183953061254e-06,2.133553148170881e-06,-4.663393218656464e-07,2.875719005147115e-07,-9.362535222567521e-07,8.248044398082527e-07,1.0825748044133287e-07,-1.809285487268181e-07,-2.804660814183735e-07,3.051552127253498e-07,3.365596616825408e-07
7.555837466597337e-07,1.033640059737279e-06,7.098263217122901e-07,1.555183015565221e-07,1.612252581278355e-06,3.578822995668127e-08,1.4024642427329315e-06,1.9342114945899047e-06,2.101160100677337e-06,-4.696450563189297e-07,2.728738744644657e-07,-9.080534062795702e-07,8.548162655452646e-07,1.4690573588268972e-07,-2.010627101475596e-07,-3.080169960950496e-07,2.967829600185557e-07,3.3906717305478534e-07
7.691236162378722e-07,1.051576995692871e-06,7.315433251472758e-07,1.527181333012366e-07,1.6322403419556488e-06,-1.3529144875476163e-09,1.3782204621690776e-06,1.843941154864674e-06,2.0678969756771112e-06,-4.6863331767221794e-07,2.512243100110905e-07,-8.844554637683754e-07,8.898336104771341e-07,1.9211026429784595e-07,-2.2583545835777454e-07,-3.3042960253949187e-07,2.8996791029424573e-07,3.3972245830314467e-07
7.912263420194684e-07,1.0397081039596674e-06,7.550339436757988e-07,9.968191744842633e-08,1.6831602669929787e-06,-1.7797927723949926e-08,1.5018204142998436e-06,1.7849759954155647e-06,2.0355169354485183e-06,-4.690999468147704e-07,2.2273820281432777e-07,-8.75316357802415e-07,9.250262733750842e-07,2.3382701342580229e-07,-2.6131338256474597e-07,-3.719518651712473e-07,2.767204191611856e-07,3.2881371933928845e-07
8.159037198326679e-07,9.980901210879642e-07,7.791748021210682e-07,-4.868962169329652e-09,1.7477021981339014e-06,-1.6510384855858353e-08,1.5832700919412783e-06,1.7899235778328158e-06,2.0033455514135203e-06,-4.752655988444305e-07,1.8574965828852304e-07,-8.839546977851805e-07,9.580373403722717e-07,2.64619759260373e-07,-3.084311015311864e-07,-4.370744669718415e-07,2.549898048925699e-07,3.0663348220119745e-07
8.347071636835448e-07,9.436099760738436e-07,8.053711773389721e-07,-1.1533366411253478e-07,1.8262248468265713e-06,5.258295644830133e-09,1.6256165213173933e-06,1.9642586229651886e-06,1.979456295351414e-06,-4.871883694310763e-07,1.4129490669147595e-07,-9.079011376247008e-07,9.86056569006023e-07,2.857222209172078e-07,-3.633331883435924e-07,-5.101905557828175e-07,2.3127799101207277e-07,2.7558466473114975e-07
8.55012639616152e-07,8.852610905675541e-07,8.359572873751184e-07,-2.565178741438223e-07,1.9155258999527826e-06,5.0936065100503025e-08,1.724586104923815e-06,2.0504110878452876e-06,1.967584053118383e-06,-5.010894474251617e-07,9.866138412551229e-08,-9.378956202593873e-07,1.010638860580562e-06,3.0631932863575906e-07,-4.2000360746015267e-07,-5.874642202304111e-07,2.1167198432159034e-07,2.3864600152946736e-07
8.735596266765305e-07,8.322623525531264e-07,8.730400105012927e-07,-4.243135861164713e-07,2.0189464241604565e-06,1.247263486813202e-07,1.8572057893129619e-06,2.0858396807707546e-06,1.970385199694753e-06,-5.119981426639266e-07,6.889648682903961e-08,-9.5927975664871e-07,1.0345782175247935e-06,3.3016709817362254e-07,-4.753648479703255e-07,-6.569908646813379e-07,2.024100465390926e-07,1.9911237962447548e-07
8.914302209418439e-07,7.96270760149151e-07,9.159135042172025e-07,-5.230814908644941e-07,2.102142852577231e-06,2.2164320742913366e-07,1.9420277925920127e-06,2.114698799975791e-06,1.9838703214636463e-06,-5.168538994205352e-07,5.882046647495659e-08,-9.709901933784594e-07,1.0585894112198594e-06,3.541716958166885e-07,-5.333738942968152e-07,-7.101837902888507e-07,1.9933100834870324e-07,1.5512175542175993e-07
8.976073775167669e-07,7.765247731121037e-07,9.63645149221695e-07,-5.652207624140069e-07,2.127543807497858e-06,3.2205469454352255e-07,1.8579337655061348e-06,2.2007801503176682e-06,1.9932774358498307e-06,-5.160236209500014e-07,6.469655042879163e-08,-9.710713455415965e-07,1.0817172405017275e-06,3.7601889836578644e-07,-6.017038791114175e-07,-7.470848298171376e-07,1.9276160842450803e-07,1.0263378521985019e-07
8.371669832562687e-07,7.735050509292786e-07,1.0126691239442765e-06,-5.07919385229715e-07,2.05895458782828e-06,3.8263755546055046e-07,1.7483232383358023e-06,2.3288699933723834e-06,1.989172696554442e-06,-5.120524237080721e-07,7.885917541673966e-08,-9.575622356988679e-07,1.1026210265489255e-06,3.85071789312644e-07,-6.866831931194861e-07,-7.667712596469374e-07,1.7518565345140162e-07,3.8905899040129796e-08
7.999095194641535e-07,7.843210043173974e-07,1.0533895983357286e-06,-4.4079796804860393e-07,1.9439526720580482e-06,3.511968597493233e-07,1.6395187021851328e-06,2.3586760001963534e-06,1.9620949623513513e-06,-5.068890253165816e-07,9.344405756051034e-08,-9.276436372204606e-07,1.1221313555625001e-06,3.775131799561673e-07,-7.875868613773567e-07,-7.664315145833845e-07,1.4568903677399904e-07,-3.400190386350867e-08
7.905831017466749e-07,8.024683928655773e-07,1.0512834558034324e-06,-3.968209385670696e-07,1.8545829218585748e-06,2.831197210323349e-07,1.4575685518749513e-06,2.2754326993815574e-06,1.9126097763202047e-06,-4.998103622493851e-07,1.0296213514088596e-07,-8.722390897707101e-07,1.1441579906435153e-06,3.6376152577189805e-07,-8.932088815173426e-07,-7.484105828878549e-07,1.1349013663252716e-07,-1.0832629747839995e-07
7.568806096859141e-07,8.221489226044168e-07,1.011664250498729e-06,-2.082724507434609e-07,1.7410562152718025e-06,2.3312804057719475e-07,1.3540423046852846e-06,2.206369060727728e-06,1.8470278051735035e-06,-4.875654545045427e-07,1.088178488161484e-07,-7.818711216961898e-07,1.1735678252335576e-06,3.5282354620827545e-07,-9.8729626546313e-07,-7.172120266308503e-07,9.39266241536516e-08,-1.7285360843752537e-07
7.220980089115104e-07,8.435226079300638e-07,9.814886701540275e-07,9.915498342145179e-08,1.678925241938718e-06,2.595923605035607e-07,1.3075373709119949e-06,2.1376273265950172e-06,1.7757212885935479e-06,-4.666916809845586e-07,1.1180730451423634e-07,-6.525379316383465e-07,1.2147837775309293e-06,3.6770658673164467e-07,-1.0548913883476043e-06,-6.71827204992654e-07,9.921479402741684e-08,-2.1795045329581463e-07
6.486320277050459e-07,8.658833967520653e-07,9.69001800278115e-07,3.0619964644275144e-07,1.6700887565358925e-06,1.9819368568227075e-07,1.219491410757152e-06,2.084183512165312e-06,1.7097703295703386e-06,-4.3648027869910717e-07,1.1810633089036572e-07,-4.93368215516211e-07,1.2668761172918234e-06,4.132115086713322e-07,-1.0888435194048024e-06,-6.154670947706242e-07,1.2895584462227257e-07,-2.4037373891590846e-07
5.957031344826177e-07,8.846242436565996e-07,9.590201725977691e-07,4.887528785883095e-07,1.5743093376989913e-06,7.675793902457094e-08,1.003875407375956e-06,2.0704373496004913e-06,1.6550148777764665e-06,-4.005406852169169e-07,1.241886714015626e-07,-3.236386544963505e-07,1.3216831802806245e-06,4.706272064887134e-07,-1.0928368478410598e-06,-5.554127424752259e-07,1.679900565487388e-07,-2.444798922607256e-07
5.491615260883953e-07,8.943394024030796e-07,9.589633571976945e-07,6.974696161875442e-07,1.4871845482332066e-06,-2.7940953984588252e-08,7.735408070074901e-07,2.051206311015425e-06,1.612833707821413e-06,-3.6552241812436793e-07,1.24415791280322e-07,-1.708538612322188e-07,1.36723965596519e-06,5.216907617510553e-07,-1.077774172870446e-06,-4.997091329204432e-07,1.9891673879884467e-07,-2.39095481279979e-07
4.924910941075028e-07,8.907831664275017e-07,9.646168043561782e-07,7.830114580473645e-07,1.3907998839077567e-06,-1.5964683178840212e-07,5.70489582203457e-07,1.9538110463920237e-06,1.578652319548705e-06,-3.374158198570898e-07,1.149074377307388e-07,-5.876816145248393e-08,1.3921931402660586e-06,5.454587142742099e-07,-1.0548653710162155e-06,-4.558469805328353e-07,2.105656618480035e-07,-2.3226840312649212e-07
4.6153661142339247e-07,8.725867443930058e-07,9.596623658529146e-07,8.22101700377341e-07,1.3028925664731621e-06,-3.0445181000188264e-07,3.588610842763957e-07,1.7877116757448238e-06,1.5446978277285801e-06,-3.1800597927023527e-07,9.249413558316214e-08,2.1122255694827066e-09,1.3914787169416694e-06,5.322097893305112e-07,-1.0297157856517138e-06,-4.215621412842684e-07,2.0180943586734424e-07,-2.2720249039828416e-07
4.366288912506495e-07,8.423656892537225e-07,9.489020754741476e-07,8.30614946175008e-07,1.206797350225799e-06,-4.195531646190262e-07,2.149916559863761e-07,1.6375113694339566e-06,1.5088540476266681e-06,-3.03955093429843e-07,6.121970457510387e-08,1.5179204588698756e-08,1.3675366584423217e-06,4.890142958459535e-07,-1.0007820602613905e-06,-3.9346473453332614e-07,1.812173141971193e-07,-2.2241102803328137e-07
4.014392661813625e-07,8.036179691353732e-07,9.358796752386391e-07,8.516437634257861e-07,1.1043312945183579e-06,-5.143164283859402e-07,5.915999883570219e-08,1.490362554063206e-06,1.4696468847343876e-06,-2.89119422874087e-07,2.6613638205602464e-08,-6.8243981746342865e-09,1.3289282468795496e-06,4.3034776190235253e-07,-9.633671016790597e-07,-3.6931861696315575e-07,1.5895193086924008e-07,-2.1429601899437048e-07
3.662766597113213e-07,7.641897723651684e-07,9.231393496600519e-07,8.640096276747943e-07,1.0370421998116992e-06,-5.816764411740787e-07,-9.88836609595647e-08,1.350385448547879e-06,1.4284853130897232e-06,-2.68550398922706e-07,-4.503400231081274e-09,-5.046556608949624e-08,1.2847641014394573e-06,3.646351108347686e-07,-9.141461200592555e-07,-3.427721602485376e-07,1.405709204359991e-07,-2.0095234926475614e-07
3.3950579409135244e-07,7.284508222997998e-07,9.122401137309119e-07,8.616184796394898e-07,9.610607778584178e-07,-6.28070761149224e-07,-2.43044864221352e-07,1.260956770155896e-06,1.3870803173820761e-06,-2.417734298423119e-07,-3.162131930365227e-08,-1.0776694437044769e-07,1.2414979183585983e-06,2.945391130848493e-07,-8.544318009746569e-07,-3.140857414268964e-07,1.2226928568457467e-07,-1.8458138604345006e-07
3.106135039937529e-07,6.956583576216969e-07,8.963148102289526e-07,8.848540317626612e-07,8.6973304626915e-07,-6.689638012700518e-07,-3.637675391253178e-07,1.154722443354016e-06,1.3389630603683048e-06,-2.1329580518613918e-07,-5.8798942077600206e-08,-1.765784608959471e-07,1.2026866939960843e-06,2.1812933599209754e-07,-7.895156872378757e-07,-2.886067034961498e-07,9.98338118749256e-08,-1.6941554632557954e-07
2.785862071650283e-07,6.640529256924527e-07,8.692015628805753e-07,9.020714106963326e-07,7.513727670357097e-07,-7.084887209649605e-07,-4.5126910424603657e-07,1.0310321941627543e-06,1.2796366258261652e-06,-1.9013192575178485e-07,-8.88764578297085e-08,-2.5525659052560484e-07,1.1700105595581425e-06,1.3163342673619684e-07,-7.247552332136123e-07,-2.708099647991752e-07,6.59748121308634e-08,-1.5823884423609594e-07
2.433283078041561e-07,6.318254362168173e-07,8.283850747496342e-07,9.073115868219131e-07,5.792793574293713e-07,-7.493274136143339e-07,-5.489262263309662e-07,8.882490726799249e-07,1.208702569447211e-06,-1.7815861086803353e-07,-1.231535357000141e-07,-3.3628240196172456e-07,1.146259705160801e-06,4.52949033712907e-08,-6.617427934306047e-07,-2.628585225460122e-07,2.1853815942004897e-08,-1.4928942369591968e-07
2.03773485320995e-07,6.01411064027909e-07,7.797787042784343e-07,8.976142996835436e-07,3.9646238100447657e-07,-7.899336292134942e-07,-6.290238777325687e-07,7.246459978545848e-07,1.1335371023425079e-06,-1.7934765033381688e-07,-1.5790356879910116e-07,-4.0442724706394246e-07,1.135355275314231e-06,-2.064792564451643e-08,-5.978630286077944e-07,-2.613626827086989e-07,-1.9691044523805454e-08,-1.3627239690811276e-07
1.7233079944975665e-07,5.785810511695958e-07,7.339638607859879e-07,8.538506602817285e-07,2.615788449254959e-07,-8.224822839675602e-07,-6.219537626338326e-07,5.683420285551998e-07,1.0673535370331379e-06,-1.91047740296338e-07,-1.86002155396156e-07,-4.4196182805208377e-07,1.1401616827781974e-06,-4.675508720794452e-08,-5.299917958789917e-07,-2.564860445118477e-07,-4.441260856917681e-08,-1.1175721650352895e-07
1.614379202589914e-07,5.685795700178554e-07,6.883223239501637e-07,7.557238641229304e-07,2.5525432746885713e-07,-8.376119505239506e-07,-5.161176350900365e-07,4.750910010519608e-07,1.024380850919012e-06,-2.0752159954944078e-07,-2.0189117728892905e-07,-4.382560503984688e-07,1.1595755483782982e-06,-2.2661558170739402e-08,-4.57876776161078e-07,-2.3889537576389635e-07,-4.2355039521686236e-08,-7.180181730310949e-08
1.7125841578972448e-07,5.711806526731453e-07,6.703510188515286e-07,6.378153089253132e-07,2.522263252007339e-07,-8.29950796206368e-07,-5.59588962588006e-07,4.0745593508987554e-07,1.0123392593809108e-06,-2.2291746948573463e-07,-2.027642405040801e-07,-3.9708152340728184e-07,1.1877617053355995e-06,3.999606574384968e-08,-3.8694750500733177e-07,-2.0795393084398545e-07,-1.5670335430268522e-08,-1.9543346099617417e-08
1.9158539881200463e-07,5.808524112340604e-07,6.857433465520609e-07,5.170225704461702e-07,2.0008869996019817e-07,-8.012962136455599e-07,-5.086906430763081e-07,3.836621489736421e-07,1.029113952014519e-06,-2.3374045406881815e-07,-1.8896955562870923e-07,-3.36103934632836e-07,1.214765639101479e-06,1.1657728184698433e-07,-3.267484492705473e-07,-1.699902608653657e-07,2.3261778494642838e-08,3.622944133602383e-08
2.1180651227594683e-07,5.887055048635179e-07,7.003858844614541e-07,4.071935459644495e-07,1.1252607314517955e-07,-7.593511345185525e-07,-4.1478866619962724e-07,4.506510708302572e-07,1.0674666573252818e-06,-2.3904245940750133e-07,-1.679478789638853e-07,-2.7870775334290794e-07,1.2301050583363947e-06,1.8191172841823087e-07,-2.856639154399381e-07,-1.3449141984239538e-07,5.869852393225643e-08,8.530041154641191e-08
2.2158678393372861e-07,5.861021083448246e-07,7.06569505995261e-07,3.255871562470666e-07,6.953684268529646e-08,-7.132789943965332e-07,-3.784878836327665e-07,5.240931279103362e-07,1.1193892704630363e-06,-2.3852293821765963e-07,-1.462252455692199e-07,-2.435566111800185e-07,1.2272800722899294e-06,2.1835749814457172e-07,-2.6624795951409574e-07,-1.0844591254009122e-07,8.268139254817354e-08,1.2077754972010967e-07
2.1987852642021228e-07,5.676845389948252e-07,7.095639777554587e-07,2.699602657392922e-07,3.590124426071924e-08,-6.692087065558835e-07,-3.687658975407251e-07,5.9400988503304e-07,1.1769334752650503e-06,-2.3101077031567437e-07,-1.25466614396594e-07,-2.3756093829760503e-07,1.2060356469122127e-06,2.2800330504431687e-07,-2.6394409013963257e-07,-9.164782813874877e-08,9.567424104261178e-08,1.416016274310829e-07
2.097098056083013e-07,5.381359531870619e-07,7.077309477649463e-07,2.392908092293132e-07,4.113671311645316e-08,-6.282483449889465e-07,-3.453551587401268e-07,6.701494311269889e-07,1.2378840731719703e-06,-2.14848553530656e-07,-1.0384474750053469e-07,-2.548658895693521e-07,1.1723049821342628e-06,2.2369513005559478e-07,-2.7038285624026667e-07,-7.850703005095735e-08,1.0231527412154345e-07,1.5138875011884963e-07
1.9680668239548522e-07,5.042170912868683e-07,6.983058455120331e-07,2.3008616682440013e-07,6.002308306691633e-08,-5.880041434182848e-07,-3.240366282487976e-07,7.430046782293625e-07,1.3013612357130084e-06,-1.9006303732896102e-07,-8.058544293895388e-08,-2.814936991427096e-07,1.1348768817506751e-06,2.2050761887370305e-07,-2.788867974367941e-07,-6.263867009477126e-08,1.0584072812408863e-07,1.5438134522228484e-07
1.862777987556887e-07,4.729157509408211e-07,6.827158672529864e-07,2.3938732753970374e-07,7.765971990454348e-08,-5.464061621870118e-07,-3.0264981046360435e-07,7.945864466983378e-07,1.360265918419024e-06,-1.6033004884882992e-07,-4.961105466659626e-08,-3.030646646397412e-07,1.10183282082113e-06,2.283317587005268e-07,-2.880008117313925e-07,-4.1096081584740184e-08,1.0274397686238013e-07,1.5239169145296802e-07
1.7811082276313488e-07,4.5026555436212166e-07,6.599644236736193e-07,2.5933007488261154e-07,7.452538413323972e-08,-5.046871971214957e-07,-2.2921210223154294e-07,8.299442003052974e-07,1.4058950096423546e-06,-1.327805300272066e-07,-1.4533338205892504e-08,-3.118069351228215e-07,1.0770779736180326e-06,2.476427334989677e-07,-3.0161751531623044e-07,-1.5841519247305635e-08,8.652326929282682e-08,1.4463739744928553e-07
1.6931204477325688e-07,4.38148565942923e-07,6.286858806237445e-07,2.8223384820127185e-07,7.119231648560455e-08,-4.67779968509042e-07,-1.2131301472788643e-07,8.504792686730787e-07,1.4299150902992516e-06,-1.1495024197315849e-07,1.6715667340613056e-08,-3.086627798024435e-07,1.0597015216045315e-06,2.7344989775618644e-07,-3.233292526985462e-07,8.173434334339855e-09,5.264207021404625e-08,1.3044945249354567e-07
1.57021767961057e-07,4.3702088121174474e-07,5.901797303184847e-07,3.00894290262904e-07,6.266726364770194e-08,-4.405554550018411e-07,7.072520921970011e-09,8.497882501178748e-07,1.428449158095319e-06,-1.1072019712300356e-07,4.05133044329182e-08,-2.9930920937274197e-07,1.046473638047198e-06,3.0070975660232747e-07,-3.5421274644743483e-07,2.713711267575658e-08,4.855180588222815e-09,1.1293972278645996e-07
1.4162375815622606e-07,4.4698819630848376e-07,5.505558309853792e-07,3.146378221916482e-07,5.0488136168722914e-08,-4.23761192497317e-07,1.5292059820597093e-07,8.251077534917414e-07,1.4049263399580991e-06,-1.1810882188266365e-07,5.4942970122572247e-08,-2.878049553969165e-07,1.0352127352577214e-06,3.295796145087848e-07,-3.8343759105412524e-07,4.0883214782048915e-08,-4.15297497120607e-08,1.0021623503179807e-07
1.279308465251121e-07,4.686117021437906e-07,5.201760421721579e-07,3.27316331233522e-07,5.3106816452908485e-08,-4.134285778895925e-07,2.6692590212522485e-07,7.862032264555536e-07,1.3695488415358265e-06,-1.3021701363044607e-07,6.361664971381134e-08,-2.7354122114184407e-07,1.0269572396914839e-06,3.6517381096653806e-07,-3.9841021321466526e-07,5.2821090195258064e-08,-6.825116554126791e-08,1.0265658552062856e-07
1.2452370757253716e-07,5.009490815313124e-07,5.097402098035326e-07,3.4272039119517045e-07,5.15521281369693e-08,-4.027373285455616e-07,3.56567967930759e-07,7.623840634742053e-07,1.3346811815573118e-06,-1.3886004396929107e-07,7.230482788693666e-08,-2.536665349537875e-07,1.0249622140221866e-06,4.119400072631927e-07,-3.881940949970186e-07,6.739561690764288e-08,-6.367820583855298e-08,1.2755632651188035e-07
1.3714580240508308e-07,5.415276694545426e-07,5.250061170092191e-07,3.6342407153841634e-07,6.530773309483977e-08,-3.859175904702791e-07,4.410429031099378e-07,7.554127344190105e-07,1.310295431604577e-06,-1.3876832510761808e-07,8.501250942839786e-08,-2.2816859620717224e-07,1.0314639148699845e-06,4.672899066270891e-07,-3.513100158780641e-07,8.676408235188295e-08,-2.95792562877484e-08,1.7428499868497892e-07
1.6459731244046308e-07,5.847958066739483e-07,5.630674611341803e-07,3.9075245838791456e-07,1.070173244122923e-07,-3.610888183943324e-07,5.21376070228276e-07,7.716719573867585e-07,1.3007675569752106e-06,-1.301178010983843e-07,9.975661152235535e-08,-2.0280293602157017e-07,1.044467266606861e-06,5.212304718004683e-07,-3.0033735714004535e-07,1.0905814187697146e-07,1.8450375715862477e-08,2.3308723906209704e-07
1.985983920225957e-07,6.227843122655897e-07,6.127855646892695e-07,4.1924234796731314e-07,1.740118208371147e-07,-3.3047709147274726e-07,5.900497650133002e-07,8.052141832004896e-07,1.3046099857636704e-06,-1.1779779914338494e-07,1.1258172335155708e-07,-1.8702814526242817e-07,1.0584297766370672e-06,5.574378240449081e-07,-2.537282790086907e-07,1.294074715943093e-07,6.003286484363878e-08,2.8953205441292206e-07
2.2773976044067466e-07,6.492377387778772e-07,6.59892418956878e-07,4.4353638527417866e-07,2.471239734476792e-07,-2.983414551083265e-07,6.463812663584437e-07,8.417526678762111e-07,1.3154875728127956e-06,-1.0781388469051456e-07,1.1782988721220794e-07,-1.8854111016401133e-07,1.0671348259133115e-06,5.676102016368135e-07,-2.2766235933160556e-07,1.4338079547618551e-07,8.225035159808556e-08,3.317820950117281e-07
2.4486154948122016e-07,6.62710763046244e-07,6.937874106164036e-07,4.5891414594845204e-07,3.1449165651779577e-07,-2.67842161912949e-07,6.893116161950231e-07,8.810891064268662e-07,1.3276441708045235e-06,-1.0327850382819653e-07,1.140872036379027e-07,-2.0831363129561273e-07,1.067563166012823e-06,5.572060790006296e-07,-2.2646638302593112e-07,1.5095295771233045e-07,8.659115558761025e-08,3.563806899748611e-07
2.5130513998382076e-07,6.676479012261936e-07,7.117166350599447e-07,4.669838781136861e-07,3.675362581585328e-07,-2.3888274695707157e-07,7.211864957556872e-07,9.241410883681601e-07,1.3422286037256063e-06,-1.0273832860448049e-07,1.060634375527699e-07,-2.3941311122525725e-07,1.0615698507486173e-06,5.426428360902439e-07,-2.427319341145708e-07,1.578377797280397e-07,8.676898906201749e-08,3.688037151798481e-07
2.537184840009676e-07,6.727192337409003e-07,7.181226344534073e-07,4.7205647055298944e-07,4.1142774462245677e-07,-2.0810384823032528e-07,7.874215559431987e-07,9.733545938255693e-07,1.3586612357987723e-06,-1.0170446556323891e-07,1.0115697254662158e-07,-2.7020100679634366e-07,1.0541075889505482e-06,5.432137842131869e-07,-2.651116396788365e-07,1.7286575249415535e-07,9.964019906219831e-08,3.792778215633177e-07
2.622459659764702e-07,6.840867953858026e-07,7.202131776557681e-07,4.7616997794524486e-07,4.5887096717262753e-07,-1.7097314625913277e-07,8.575679489755987e-07,1.0356166914114572e-06,1.3784456380143767e-06,-9.614110162560737e-08,1.0645075495454015e-07,-2.9009601365179193e-07,1.0499342574538483e-06,5.703811912017464e-07,-2.8461378840654096e-07,2.043689819922134e-07,1.349699129590523e-07,3.96173021222114e-07
2.830220124857429e-07,7.030432706403872e-07,7.22680550852213e-07,4.786004152592243e-07,5.139323178365144e-07,-1.2509032436812658e-07,9.297473569992814e-07,1.1150877546599297e-06,1.4025496072411024e-06,-8.55218039264518e-08,1.2566250359497026e-07,-2.9400388689466714e-07,1.0507580213332639e-06,6.221367513274357e-07,-2.954112606730574e-07,2.538719283014166e-07,1.8940822931134163e-07,4.2199951588898134e-07
3.136589156001345e-07,7.23237721611797e-07,7.252093652704407e-07,4.7275167728401617e-07,5.776319215480725e-07,-7.129163875502566e-08,1.0106822653375836e-06,1.208346076953952e-06,1.4270695620992445e-06,-7.339479845203251e-08,1.5455275172283983e-07,-2.77823788712395e-07,1.054403136201318e-06,6.859772478321901e-07,-3.0516929580600787e-07,3.166673858916968e-07,2.4939913069903873e-07,4.527162712464402e-07
3.4657262867667955e-07,7.347273666930558e-07,7.222785811523379e-07,4.508027591099822e-07,6.440747329654496e-07,-1.2071419612711315e-08,1.082540786381309e-06,1.3181042326466803e-06,1.447028177241752e-06,-6.504566718996857e-08,1.859897078410263e-07,-2.453043263707589e-07,1.057156662351965e-06,7.495419799490321e-07,-3.2275355003906793e-07,3.8483030782794653e-07,3.008032342191377e-07,4.814465713835848e-07
3.729542322685489e-07,7.278368804093339e-07,7.076633788262545e-07,4.062536904394526e-07,7.046128014611185e-07,5.098325962840245e-08,1.1510496729451082e-06,1.4456873685143327e-06,1.4582878118937625e-06,-6.401805697991127e-08,2.171162257663854e-07,-1.8966950222012676e-07,1.056323872368249e-06,8.090373461853538e-07,-3.4983013322936616e-07,4.543374917426492e-07,3.387001884139635e-07,5.022116716064839e-07
3.88117717656519e-07,6.98562994599596e-07,6.788110242284528e-07,3.3709598526841284e-07,7.629535655978544e-07,1.1927001815823507e-07,1.2150159870663317e-06,1.5855294206744628e-06,1.4586153792603482e-06,-6.989335072456578e-08,2.48668505338914e-07,-9.814634644604665e-08,1.0510066430179254e-06,8.715270331993377e-07,-3.831499275586917e-07,5.2626167730994e-07,3.682244844176099e-07,5.15502436429767e-07
3.9371498419553086e-07,6.508520485203077e-07,6.38327154584676e-07,2.4669603500494553e-07,8.234041375243693e-07,1.962721941265361e-07,1.2735999246707579e-06,1.7410018257593761e-06,1.445626230478562e-06,-7.863438642633324e-08,2.846415996438318e-07,3.9716826124772647e-08,1.0410164247100486e-06,9.485214468060548e-07,-4.153159526555756e-07,6.059485157827624e-07,4.012203819217647e-07,5.252601907576812e-07
3.957809327811636e-07,5.934396362376347e-07,5.939725256322636e-07,1.4563217839033668e-07,8.861623611930766e-07,2.835301228793981e-07,1.3224700677125089e-06,1.908575999107828e-06,1.4211387684717908e-06,-8.520084193248253e-08,3.296861102348584e-07,2.2227296894989767e-07,1.0252813134397092e-06,1.0448036383653037e-06,-4.3871221223256446e-07,6.960124863844069e-07,4.458921719817392e-07,5.346472639530803e-07
3.994183363010842e-07,5.368581139781986e-07,5.52994050785706e-07,4.665911141369878e-08,9.51147027410718e-07,3.7923708110833514e-07,1.3692568147423155e-06,2.074867668585844e-06,1.3873398370446389e-06,-8.678526929172764e-08,3.8374390886915814e-07,4.3127377175039834e-07,1.000727861262019e-06,1.1518817916775176e-06,-4.5267373387790717e-07,7.786119884144719e-07,4.996182539258084e-07,5.438254963869112e-07
4.055178756210112e-07,4.886214473070562e-07,5.201525524253019e-07,-3.8685018095996114e-08,1.01002428468298e-06,4.7386443727894646e-07,1.410275316526539e-06,2.228368223360437e-06,1.3459123459102185e-06,-8.442094291673668e-08,4.306067492728151e-07,6.356529233675245e-07,9.630002431351925e-07,1.2500385879970977e-06,-4.633038992045594e-07,8.459990223039279e-07,5.507019165905545e-07,5.485589567209917e-07
4.1111182540970495e-07,4.5219998530467197e-07,4.953935694451327e-07,-1.006575363460933e-07,1.0513712266912088e-06,5.537319102266806e-07,1.4364763492457338e-06,2.326635070935646e-06,1.3008717145047052e-06,-8.251826245975521e-08,4.6684727026975095e-07,7.149147869125014e-07,9.093641699534753e-07,1.3165851776910278e-06,-4.7539985991419175e-07,8.793681137594285e-07,5.8523869355706e-07,5.439923872223377e-07
4.1291238501637757e-07,4.2902795778365776e-07,4.789949965229101e-07,-1.349440786217158e-07,1.0685465630409376e-06,6.068618169169799e-07,1.4485745860623322e-06,2.388815816577743e-06,1.2577169806545219e-06,-8.56571825939047e-08,4.964307085089358e-07,7.586283764897437e-07,8.41676636165087e-07,1.3392720494408342e-06,-4.890726008867523e-07,8.483855490733821e-07,5.966109401961366e-07,5.29213550419223e-07
4.122303470551676e-07,4.223381191650554e-07,4.739870794622435e-07,-1.4113182128341956e-07,1.0606603091451156e-06,6.264755688780006e-07,1.4446193544070063e-06,2.4125890069784617e-06,1.2239562162910238e-06,-9.572657452711682e-08,4.838214282704877e-07,7.765022006911419e-07,7.680574821384461e-07,1.3209471477918546e-06,-4.981108320176435e-07,8.522974062874114e-07,5.897536926896595e-07,5.094597817246117e-07
4.1644289231668005e-07,4.381628689638543e-07,4.829984226975134e-07,-1.2039108369092617e-07,1.0306554419678285e-06,6.141420160166011e-07,1.4311855007072487e-06,2.3929714681777787e-06,1.2073144131449715e-06,-1.1100890195272333e-07,4.537750538420865e-07,8.15724820475838e-07,7.010550760064532e-07,1.2772982281727765e-06,-4.902970826548797e-07,8.775832996506697e-07,5.788306947544955e-07,4.938361070413825e-07
4.345206905491611e-07,4.845524832126853e-07,5.200087953521743e-07,-7.531146881679473e-08,9.876889886878824e-07,5.778680989515358e-07,1.4188064547094947e-06,2.3457661698391988e-06,1.2129488701604766e-06,-1.2764042857779875e-07,4.411750371667782e-07,7.95836315114245e-07,6.529061691029644e-07,1.2289716417887752e-06,-4.549796046713334e-07,8.617270815534132e-07,5.786712672625374e-07,4.914470162504053e-07
4.712209218147014e-07,5.620927820363414e-07,5.863783920103358e-07,-1.0573480462888807e-08,9.402246929060127e-07,5.285985374778475e-07,1.4070441527444885e-06,2.273645357238134e-06,1.2423538169422394e-06,-1.423546924334309e-07,4.2301287588513643e-07,7.29415223012347e-07,6.300882848707389e-07,1.1910914965576522e-06,-3.9123748293863715e-07,8.286842384399889e-07,5.968400068258026e-07,5.062526493393036e-07
5.243430266418047e-07,6.582968749097548e-07,6.538927446044246e-07,6.62626146578934e-08,8.971170373128072e-07,4.7628875819379794e-07,1.406058801895432e-06,2.1832060971791696e-06,1.2887829346986935e-06,-1.5445936236489836e-07,4.0062889942903895e-07,6.703513998394953e-07,6.302048627508032e-07,1.167658649204038e-06,-3.09943910276446e-07,7.972224056197439e-07,6.297194515370884e-07,5.349507109450339e-07
5.827144497731548e-07,7.579537373384405e-07,6.803645534618614e-07,1.4352845946715033e-07,8.644207280807219e-07,4.2896136654598513e-07,1.412596891936853e-06,2.080832979992719e-06,1.3383256253172397e-06,-1.6571854223851716e-07,3.7266663001706456e-07,6.34209983368558e-07,6.423851323057709e-07,1.1530760832979982e-06,-2.2962203642491184e-07,8.135282432288335e-07,6.655854814446722e-07,5.668722119515776e-07
6.310735007906163e-07,8.128408799335434e-07,6.395309913008767e-07,2.0562741379933529e-07,8.454290076898282e-07,3.9278033102428887e-07,1.417664529699622e-06,2.0227294509204385e-06,1.3780873555955027e-06,-1.7788255561076926e-07,3.4017162806620794e-07,5.493779047086337e-07,6.532527203608744e-07,1.1411821418525193e-06,-1.6652468142297323e-07,8.351613199337063e-07,6.935208221356957e-07,5.907338121028202e-07
6.575482064537126e-07,7.809506062733551e-07,5.97333893379e-07,2.391302455129584e-07,8.427275334442261e-07,3.7470766206230905e-07,1.4227477185888925e-06,1.9412478999092407e-06,1.4008400413946725e-06,-1.901405261507647e-07,3.1825383513649663e-07,4.835116384870848e-07,6.526673821534193e-07,1.1304716893062716e-06,-1.1859071076997734e-07,8.584112880975475e-07,7.106512621220664e-07,6.010964895802437e-07
6.585921362150864e-07,7.831023943457063e-07,5.526764563135845e-07,2.361111131911297e-07,8.568904308086599e-07,3.7891831342116556e-07,1.429952744584646e-06,1.8318778353275573e-06,1.4081520755013457e-06,-1.9841326645191646e-07,3.0639276465807626e-07,4.4117646127920505e-07,6.373830193884136e-07,1.1293166802981305e-06,-7.917454575123602e-08,8.812186535641495e-07,7.232460946776317e-07,5.999104291534917e-07
6.399584752905758e-07,7.92070590432308e-07,5.011162282193454e-07,1.9724252844552453e-07,8.859563957320277e-07,4.04230246234058e-07,1.443759156148435e-06,1.710032223854297e-06,1.4133283697217229e-06,-1.9774050510880842e-07,3.071476969018984e-07,4.1353940580641e-07,6.111904704663417e-07,1.1486220128446089e-06,-3.3471034658158536e-08,9.13056732592447e-07,7.41350523940372e-07,5.944397555127611e-07
6.12935908450697e-07,6.9424091517011e-07,4.470296873497553e-07,1.3310737814562018e-07,9.232905563421194e-07,4.471509488531363e-07,1.4657681948101566e-06,1.5554763433415747e-06,1.4235903060558063e-06,-1.8528849027028275e-07,3.2146827864576694e-07,4.272102214459139e-07,5.813846269782941e-07,1.191025631086873e-06,3.256307371263865e-08,1.0022066163539626e-06,7.705831866182791e-07,5.921486635045257e-07
5.879557661578701e-07,5.689074602046348e-07,3.726403898211613e-07,6.069647575996392e-08,9.57645182546209e-07,4.91493594328589e-07,1.4889966429050356e-06,1.3887213331629921e-06,1.4423258607754696e-06,-1.6338459850399323e-07,3.4101701419985085e-07,4.667592450581053e-07,5.542856599760135e-07,1.248276512537433e-06,1.2592661891608504e-07,1.1058937183951796e-06,8.062577809100473e-07,5.976149323462018e-07
5.691139787321637e-07,4.822491387768395e-07,3.295972412871044e-07,-4.742924625675862e-10,9.739537548418276e-07,5.168623151362265e-07,1.495305817397848e-06,1.2125210833090723e-06,1.467040825848448e-06,-1.393339819213788e-07,3.5852816262655273e-07,5.245944650886316e-07,5.316688025677614e-07,1.3023168562503804e-06,2.423596657102606e-07,1.1465396749556053e-06,8.366801007016003e-07,6.079443949364202e-07
5.542061269790434e-07,4.332203877699474e-07,3.072540912106153e-07,-3.4232937095284056e-08,9.58760251463548e-07,5.102583056814339e-07,1.4712317801765916e-06,1.0363745489151013e-06,1.4891933704576862e-06,-1.2246700261161228e-07,3.6551473688091683e-07,5.878554434341782e-07,5.104974981546172e-07,1.3343056301711133e-06,3.592997593217958e-07,1.1572603487121405e-06,8.502632916079241e-07,6.17748242973942e-07
5.388298031785048e-07,4.1476876110124967e-07,2.960751133042739e-07,-3.193755775014769e-08,9.050693219743216e-07,4.974016714066524e-07,1.412690481192127e-06,8.299621453778486e-07,1.5033638216326475e-06,-1.1833747338865289e-07,3.579337543117212e-07,6.364986060498349e-07,4.856603704937172e-07,1.3353650498949772e-06,4.6504983331097e-07,1.1532505595671338e-06,8.433502492944573e-07,6.232482637963847e-07
5.215536266291505e-07,4.2793781463691395e-07,3.011065450987151e-07,7.392949916571367e-09,8.177204710739993e-07,3.918388470226231e-07,1.3244736164472916e-06,6.580008253669798e-07,1.5075263516605586e-06,-1.2618330229624598e-07,3.377187029210696e-07,6.585390150399042e-07,4.5467865612559734e-07,1.3127873579594022e-06,5.549130541119131e-07,1.1835246627383356e-06,8.234133464550997e-07,6.238641272615427e-07
5.059329479418967e-07,4.6750096605796467e-07,2.975296211942414e-07,7.907638283825845e-08,7.116030705594092e-07,2.973950435013868e-07,1.2233167776507335e-06,5.360588031329771e-07,1.5089723142646635e-06,-1.3926906180401247e-07,3.1486221352068204e-07,6.571984549383443e-07,4.2107055522864384e-07,1.2851502894897582e-06,6.319047575176187e-07,1.1745492868461141e-06,8.047673891285998e-07,6.239532939837396e-07
4.999943923951549e-07,5.262844932723477e-07,3.31991855443276e-07,1.6954431520692282e-07,6.058077799161692e-07,2.2149745393085934e-07,1.1300366839697811e-06,4.565525967149824e-07,1.5152541713190437e-06,-1.4822149077648581e-07,3.004440347023162e-07,6.421790056715172e-07,3.9108586723111006e-07,1.2733775236506541e-06,6.944180427092256e-07,1.121048044263271e-06,8.026780980773145e-07,6.294450930298827e-07
5.09176600491159e-07,5.957703172546196e-07,4.1406909876223797e-07,2.692187866065033e-07,5.178515382814057e-07,1.5997004155758687e-07,1.061666965866868e-06,4.29445244616644e-07,1.5238982322101847e-06,-1.455779324950242e-07,3.0193106284606886e-07,6.253615536089432e-07,3.710359231013801e-07,1.2919333241461602e-06,7.433704332115807e-07,1.0826449610328432e-06,8.216567747746667e-07,6.420410771713383e-07
5.328057361559787e-07,6.655468310958602e-07,5.095272857367877e-07,3.660589954031434e-07,4.5487762268186016e-07,1.2009213891008622e-07,1.0286932596619802e-06,4.2751031149826307e-07,1.5423383063450487e-06,-1.317330055226114e-07,3.2081807576414473e-07,6.166401272613595e-07,3.6362326531926134e-07,1.3353020915695043e-06,7.788802329682333e-07,1.053658582584224e-06,8.553357039316716e-07,6.573570133532073e-07
5.629278169687798e-07,7.238135788168734e-07,5.780904171128186e-07,4.474363647977547e-07,4.159137157128541e-07,1.04307602563976e-07,1.0367701179552195e-06,4.3793019725078923e-07,1.5674632443715805e-06,-1.1231871948651267e-07,3.5153131618654326e-07,6.194375394793013e-07,3.6565011611053986e-07,1.3907332949711524e-06,8.100632647682401e-07,1.0227706142363689e-06,8.906752760652496e-07,6.700458017794871e-07
5.875263425938266e-07,7.605055035845105e-07,6.178162234778581e-07,4.984077802270487e-07,3.934168451891778e-07,1.017015539200142e-07,1.072116560460846e-06,4.469183308606652e-07,1.6053004351028007e-06,-9.481119184421886e-08,3.8550399413200975e-07,6.32951925164423e-07,3.704761682802444e-07,1.4430502929589947e-06,8.348245700099319e-07,1.0118624934781374e-06,9.156039953437198e-07,6.713606007396666e-07
5.967276161616318e-07,7.748612198065185e-07,6.595005086696693e-07,5.10221378542218e-07,3.801515440611743e-07,1.0477168808035698e-07,1.1267278914530623e-06,4.5895163553674823e-07,1.6433779349999584e-06,-8.453836287772715e-08,4.168649049255735e-07,6.566428471065973e-07,3.712880393544067e-07,1.4826395585657519e-06,8.534742592156684e-07,9.885937875412614e-07,9.254838618810882e-07,6.598085543503762e-07
5.887550379958795e-07,7.595905541534817e-07,7.296205573958492e-07,4.837523655660007e-07,3.741075090577709e-07,1.1267652707338707e-07,1.197213889097259e-06,4.601584262655659e-07,1.6793303162648511e-06,-8.163155284410424e-08,4.446100474133742e-07,6.922903154885354e-07,3.6493546489918095e-07,1.5190736965215947e-06,8.561527446048925e-07,9.5914316602963e-07,9.283035520563612e-07,6.382716649227992e-07
5.710356433243856e-07,7.249521932108284e-07,7.559079895279091e-07,4.3205919775605967e-07,3.772070503928367e-07,1.248067729369798e-07,1.2807764497515076e-06,4.5114369852007825e-07,1.721553588680541e-06,-8.033386453138505e-08,4.7088522430580906e-07,7.420097390588262e-07,3.523394477851514e-07,1.5585783258377357e-06,8.309887355568872e-07,9.438858569879802e-07,9.364011018375717e-07,6.143431208068016e-07
5.548147921200643e-07,6.860271056933406e-07,7.267596534568576e-07,3.69821360030745e-07,3.94502772061262e-07,1.437302203692623e-07,1.3852487619199287e-06,4.4758067677860905e-07,1.7511630252359674e-06,-7.385554035398968e-08,4.989513499891334e-07,8.055011487589791e-07,3.3859327659799096e-07,1.6023956071800376e-06,8.314536015859297e-07,9.272522989264254e-07,9.562994561796879e-07,5.94329606711126e-07
5.482317609798877e-07,6.486706419779999e-07,6.875431572013273e-07,3.1065249840916456e-07,4.21834168546678e-07,1.7534293523075124e-07,1.5049288151927017e-06,4.528474386077191e-07,1.7781791344407888e-06,-5.811195577853977e-08,5.29454308500207e-07,8.754623027717058e-07,3.290406719999573e-07,1.6349161600664722e-06,8.540776529915453e-07,8.987246163417402e-07,9.807743963297945e-07,5.821443612636681e-07
5.528119021769557e-07,6.192829730546182e-07,6.502166996889165e-07,2.5471706695012675e-07,4.5245758595237287e-07,2.2630013062924826e-07,1.6201959072497162e-06,4.6798078782229216e-07,1.8248730562362815e-06,-3.241917484280477e-08,5.578449499530539e-07,9.34262268308317e-07,3.263664734074846e-07,1.664945207810914e-06,9.231940078242451e-07,8.801922514075093e-07,1.0008661660383427e-06,5.735807091132861e-07
5.62946292314188e-07,5.947786373365362e-07,6.291153955837105e-07,2.1051763526634012e-07,4.764616803496965e-07,2.827193947449836e-07,1.6718099285540653e-06,4.935397514345659e-07,1.8765617618077171e-06,-4.277668326113581e-11,5.762664909243447e-07,9.597789782957747e-07,3.311259133833854e-07,1.67365364734958e-06,1.10838878483981e-06,8.506017381388639e-07,1.0019472561906229e-06,5.590119344796874e-07
5.720736537426895e-07,5.734441727152098e-07,6.398310662295287e-07,1.9699584592073092e-07,4.802443658310353e-07,3.4183893761863925e-07,1.6422079518123074e-06,5.049847595540544e-07,1.8998134819408131e-06,3.568698933650299e-08,5.813322878690774e-07,9.362428202220198e-07,3.432031850409286e-07,1.6393080706796935e-06,1.2117535420586916e-06,8.400735761697805e-07,9.786450730021758e-07,5.539114419890719e-07
5.868189181366642e-07,5.542097558107104e-07,6.73972156562027e-07,2.1645977293853396e-07,4.5956299935448175e-07,4.0432353567995456e-07,1.4826105730206254e-06,5.005648218203834e-07,1.9366490432117264e-06,7.563855923730925e-08,5.769795302754571e-07,8.589759724814157e-07,3.6420213200850595e-07,1.5477330937063422e-06,1.2748891908845112e-06,9.317503949567002e-07,9.5605200630679e-07,5.511120709149646e-07
6.09119052192999e-07,5.439005173760339e-07,7.233729908780487e-07,2.704288284570958e-07,4.169466693758377e-07,4.67936882900153e-07,1.427788189306783e-06,4.899060719054901e-07,1.987177214957276e-06,1.220768721333986e-07,5.748787958751542e-07,7.465777865478281e-07,3.971910940561002e-07,1.4121755000610913e-06,1.3345874657858054e-06,9.93920793922118e-07,9.475871331049081e-07,5.718852292473759e-07
6.486323033094241e-07,5.426181545173153e-07,7.84208437524291e-07,3.5428868045186747e-07,3.6523282728581155e-07,5.404693666800948e-07,1.397069009284309e-06,5.207782316903551e-07,1.9996257572380265e-06,1.7798734956970476e-07,5.895765925639733e-07,6.295042837553888e-07,4.4487816623269235e-07,1.2787068671804516e-06,1.3574924450453365e-06,1.020594833223487e-06,9.885812368535929e-07,6.666966084785099e-07
7.085272161490068e-07,5.580148303692467e-07,8.510652739936106e-07,4.584957095966279e-07,3.1810259851325196e-07,6.247094240191108e-07,1.2219869093993398e-06,5.956637943734774e-07,2.0110636569617233e-06,2.4341671879904154e-07,6.395675364036642e-07,5.484957350399924e-07,5.059394199528683e-07,1.1727977287389941e-06,1.3850629651522551e-06,1.0195706316786951e-06,1.083808827038027e-06,7.270254188060273e-07
7.626705706932544e-07,6.042173692992386e-07,9.235587992057075e-07,5.733558063555967e-07,2.9054661945893085e-07,7.175735976061808e-07,9.729589333926845e-07,7.657910382273815e-07,2.0379094559181283e-06,3.0718390102739034e-07,6.637235506599802e-07,5.091224352015952e-07,5.734189784334497e-07,1.0645268927651976e-06,1.4146205003161682e-06,1.031641729214028e-06,1.1216858390412776e-06,7.536270307323022e-07
8.125150737527757e-07,6.71736521214708e-07,9.800039791490753e-07,6.994384883303147e-07,2.878815576097241e-07,8.118163897107398e-07,8.110702122216155e-07,1.0381140358277981e-06,2.08664786032997e-06,3.7020802628687573e-07,7.113404551836632e-07,5.074412212305296e-07,6.363618745293256e-07,9.99402422087178e-07,1.4767922483162516e-06,1.1153034793210597e-06,1.164412933307931e-06,8.09656511045932e-07
8.650549761373496e-07,7.517237810211214e-07,1.0059856224557286e-06,7.958921642576216e-07,2.924090915498817e-07,9.019452851728274e-07,7.473842041188304e-07,1.1852524346346188e-06,2.0994132016497735e-06,4.285263382031366e-07,7.641612613500554e-07,5.292383385328753e-07,6.836485806695035e-07,9.443637826846491e-07,1.5049929041984586e-06,1.2646246643698093e-06,1.2198019567849963e-06,8.530798638958809e-07
9.31264689655509e-07,8.012812955648816e-07,9.577911326256418e-07,8.702629847577911e-07,3.25997467291799e-07,9.831423757991735e-07,7.62621139240324e-07,1.3153907041968995e-06,2.15812504161058e-06,4.75140548619235e-07,8.010223696006806e-07,5.417855868651777e-07,7.091536505460305e-07,8.828221911510634e-07,1.5080884465919935e-06,1.376132282197522e-06,1.2774779737515515e-06,8.719887032084944e-07
9.778878833905364e-07,7.852944395952611e-07,8.776872868778892e-07,9.277004569433502e-07,3.4079978050439317e-07,1.0358667592058384e-06,7.468586120086247e-07,1.468847110491074e-06,2.1753740914304334e-06,4.97506046555883e-07,7.710025674515438e-07,5.29274168745633e-07,7.134025420248129e-07,8.298694308303871e-07,1.4823589380889936e-06,1.4952824184378198e-06,1.2931059143705123e-06,8.789695174633066e-07
9.771427605633932e-07,6.86568450184099e-07,8.067695154659384e-07,9.502776159373571e-07,3.5538165592663485e-07,1.0581760961483049e-06,7.659521144725684e-07,1.6635341528602484e-06,2.166809325377972e-06,5.01967293629681e-07,7.246084963815602e-07,4.860181267281264e-07,7.037720707905657e-07,7.906007978054159e-07,1.4684299586600613e-06,1.5113833080121723e-06,1.266125108371831e-06,8.740325150783739e-07
9.633836909293877e-07,5.875436295672376e-07,7.598547530611155e-07,9.439027152704967e-07,3.71460351896564e-07,1.0585061688520936e-06,9.522356131901456e-07,1.8567197559424389e-06,2.1416300541908517e-06,4.856744763461984e-07,6.859182603535693e-07,4.2286794816892404e-07,6.921689772515025e-07,7.76358518978533e-07,1.4428725081770475e-06,1.513270576188156e-06,1.2388448719931785e-06,8.503284168501833e-07
9.503277535203033e-07,4.977589614796151e-07,7.21821921841407e-07,9.092627150495298e-07,3.796855505829401e-07,1.0436763045663864e-06,1.1735471965449577e-06,1.913448481537901e-06,2.1313496779810407e-06,4.4696396447348364e-07,6.564026053325875e-07,3.6100246238771483e-07,6.886996235054903e-07,7.783953586231547e-07,1.438993326945533e-06,1.5303333748443692e-06,1.2017757998914675e-06,8.317113100526361e-07
9.352858623062193e-07,4.218352523988601e-07,6.750534932020752e-07,8.532042995501408e-07,3.900407210392339e-07,1.0192326265307717e-06,1.2866058959153063e-06,1.9623861457069317e-06,2.130080912735291e-06,4.430760241168956e-07,6.182411500977954e-07,3.1313495109291264e-07,6.996207868738017e-07,7.836099463283373e-07,1.4410949436411e-06,1.5559156147485038e-06,1.1849339884974954e-06,8.18569862099384e-07
9.329803906033253e-07,3.439564820129289e-07,6.582970016988525e-07,7.533934089270165e-07,3.98253429347609e-07,9.816921997234557e-07,1.2181992329051985e-06,2.0354759616511784e-06,2.144665592113136e-06,4.536000518297969e-07,6.07439290210271e-07,2.8429383770606296e-07,7.259203640302254e-07,7.979211342020269e-07,1.4903509372562725e-06,1.5950320464479868e-06,1.1973575903674643e-06,7.791599132731428e-07
9.3072649829274e-07,3.0316107923931933e-07,6.347270510867379e-07,7.211353204130902e-07,3.921060822240352e-07,9.451263916264572e-07,1.1136908164298963e-06,2.0546149630858256e-06,2.1617313444049565e-06,4.678470600253954e-07,5.692978569118132e-07,3.383052132213936e-07,7.639165693502521e-07,8.029889587997188e-07,1.4969506564828547e-06,1.6308769387040626e-06,1.1757109953466971e-06,7.289012453756686e-07
9.215592131777984e-07,2.937684156792176e-07,5.821286846372751e-07,6.838756279425262e-07,3.8527905913413174e-07,8.718699977651885e-07,1.0151699588155571e-06,2.071866694885811e-06,2.187330895658833e-06,4.914174448819062e-07,5.274502943347248e-07,4.476162952119587e-07,8.084989426436067e-07,7.851751618277697e-07,1.4749174801390455e-06,1.66366680504111e-06,1.1441320486655743e-06,7.028977279458917e-07
8.807300871462818e-07,2.609071119648513e-07,5.194749757863128e-07,5.573414450787456e-07,3.5404328665598935e-07,7.972184764903372e-07,9.436055833620412e-07,2.0746298853308095e-06,2.2038868668563145e-06,4.776284950589482e-07,4.4915963642306107e-07,5.408303390883194e-07,8.549962236159269e-07,7.59072480260209e-07,1.4607374862361488e-06,1.6837345975694604e-06,1.0933444888586561e-06,7.202873150127044e-07
8.169791768045192e-07,1.8635164034582674e-07,4.5595305692938236e-07,5.323986716055225e-07,2.8964719762363574e-07,7.3386088694697e-07,7.990472549081512e-07,2.0433216764429168e-06,2.178489115757849e-06,4.320087408095513e-07,3.92286650761799e-07,6.301991544968597e-07,9.028564040107837e-07,7.369573697204669e-07,1.4279640590356962e-06,1.695534775189119e-06,1.107106793414076e-06,7.572736341854617e-07
8.072861354760738e-07,3.875437193678085e-08,3.853866465633763e-07,5.305009245802613e-07,1.9579083473305692e-07,6.636484856951225e-07,5.915543814818199e-07,1.959510181001053e-06,2.1929932982110235e-06,3.861640614474873e-07,3.8369331510136626e-07,7.08838714951192e-07,9.421588128451634e-07,7.365688026245388e-07,1.38780254513689e-06,1.6930000978109078e-06,1.1471854488413571e-06,7.966203619395787e-07
7.937228542442392e-07,-7.56440445745644e-08,3.1601435481772015e-07,5.896081457572576e-07,1.1318307689123261e-07,6.670216237089326e-07,3.6223629572289566e-07,1.9028017372479772e-06,2.1765504628039415e-06,3.5930457210370167e-07,3.359347000588792e-07,7.461876692112919e-07,9.736824480951402e-07,7.714923635807229e-07,1.3411940189932506e-06,1.6862513250013915e-06,1.175510451305694e-06,8.278247456490442e-07
7.417500746366115e-07,-1.8329071560135048e-07,2.407575918995891e-07,6.381137632155007e-07,3.514482612875829e-08,6.865530578825986e-07,1.7372732440869407e-07,1.8436073407263652e-06,2.1312661020976154e-06,3.5790987330763323e-07,3.169828692924276e-07,7.690820455918658e-07,1.0028265451798683e-06,8.488467631659374e-07,1.2707206858896075e-06,1.6868523253266092e-06,1.194415531918696e-06,8.649827753287892e-07
7.075372912007839e-07,-2.394531153591287e-07,1.8793911462186117e-07,5.340768633320549e-07,-5.587382420341802e-08,7.04428477260663e-07,-4.202697932731938e-08,1.8080023884309662e-06,2.064559999401104e-06,3.8473456795026427e-07,2.863629231385257e-07,7.920096831600215e-07,1.0332977406374348e-06,9.196079963257948e-07,1.1985995911418847e-06,1.7015203945070786e-06,1.2076088939470335e-06,8.931852593891711e-07
6.882375110274657e-07,-2.422933772431929e-07,1.5333257001376634e-07,3.303120821238718e-07,-1.5818775388360674e-07,7.278354798839552e-07,-2.0470598582251614e-07,1.761338659876662e-06,2.0659256038415753e-06,4.1876110173902655e-07,2.4926781064303327e-07,8.27177815982635e-07,1.0726915237724434e-06,9.889113734018418e-07,1.1522938831087447e-06,1.7301198899474781e-06,1.1799600645605373e-06,9.097781995318061e-07
6.605570788307921e-07,-3.0769273363914114e-07,1.6279826362460022e-07,1.5006170514231845e-07,-3.1986600266055856e-07,6.697722545513208e-07,-2.7172047803587e-07,1.6881494178236696e-06,2.046793587894694e-06,4.36837864414152e-07,2.2612227936308866e-07,9.043840011598924e-07,1.1246372965735804e-06,1.089369803413574e-06,1.1655392720530031e-06,1.7706321689667825e-06,1.1954279297710863e-06,9.302429185477736e-07
6.468284168180119e-07,-3.536437506311361e-07,1.8957351543653552e-07,-2.011574207655805e-08,-5.101581097505457e-07,5.857681978185624e-07,-3.047114729974443e-07,1.5694263187891058e-06,2.0040621065667883e-06,4.4947907678564853e-07,2.1732395708543621e-07,1.0263834196086295e-06,1.188289283945729e-06,1.2072981034958428e-06,1.238455739691369e-06,1.8245414663022077e-06,1.2469040670619123e-06,9.553063903151709e-07
6.527749736215003e-07,-3.7508511737154087e-07,1.550754863254769e-07,-1.1991472641910156e-07,-6.966761502169209e-07,4.797173290288443e-07,-3.761741209785575e-07,1.428875095641973e-06,1.9500881049783356e-06,4.7332687134646495e-07,2.196001105875269e-07,1.1963993372408535e-06,1.262085474989695e-06,1.3426122299550939e-06,1.2155397080861025e-06,1.8848984385186378e-06,1.2955089174584644e-06,1.0034752516785885e-06
6.67131373792957e-07,-4.5975338666340713e-07,7.049093602403993e-08,-1.634619352500069e-07,-8.712382489024526e-07,3.538327568565445e-07,-4.924675478301836e-07,1.2899269372996747e-06,1.8926180513264626e-06,5.208924692457152e-07,2.499894177344166e-07,1.3776201783737333e-06,1.3368425341390345e-06,1.4824324323927498e-06,1.1286298866461393e-06,1.9321947867611424e-06,1.3648243048126526e-06,1.0605314435582147e-06
6.877255141011226e-07,-5.200795740808107e-07,-2.5372196905755485e-08,-1.8645982750695967e-07,-1.0581052773737313e-06,2.6257617185433034e-07,-6.458463111305246e-07,1.155702910027661e-06,1.828807504303308e-06,5.93698217904326e-07,2.918036047599529e-07,1.553688619159398e-06,1.4014857789159856e-06,1.5996371499646014e-06,1.0404960220400043e-06,1.9656232796822445e-06,1.4416957300637116e-06,1.1244443233944748e-06
6.921414438943647e-07,-5.365151571761277e-07,-8.04137973634854e-08,-1.8733430300802062e-07,-1.2394317258080022e-06,1.7390050849048677e-07,-7.922569537144899e-07,1.0112810354405483e-06,1.7462343281984174e-06,6.693160058923406e-07,3.3085090413485566e-07,1.6954536562287028e-06,1.4461174216228542e-06,1.6784085302348646e-06,9.534302903604608e-07,1.9859786651911827e-06,1.5264640784498216e-06,1.195981057404583e-06
6.776231164611958e-07,-5.330016952422656e-07,-9.767188065970628e-08,-2.0374825799849494e-07,-1.3884447691894383e-06,8.891504398024833e-08,-9.55359078921738e-07,8.606574736192352e-07,1.6668457145136068e-06,7.326669493040906e-07,3.4601552730259124e-07,1.7831038984689525e-06,1.4655998260190752e-06,1.7317492659613944e-06,9.251558676587038e-07,1.980857929656143e-06,1.5973997993718307e-06,1.234725634329665e-06
6.536518054947199e-07,-5.218094312366084e-07,-1.090622318980702e-07,-1.9746474499139e-07,-1.513761108208446e-06,-3.474495255502715e-09,-1.0943235682680978e-06,7.485201965497385e-07,1.5911112066835735e-06,7.675869941563808e-07,3.583003983240336e-07,1.825665985090713e-06,1.4621601238796111e-06,1.7661621075436304e-06,9.280687315320401e-07,1.9560011930711723e-06,1.6240571767329786e-06,1.2345286605026526e-06
6.272443091593345e-07,-5.505301266202255e-07,-1.1119842441189017e-07,-1.70459090500549e-07,-1.6055729406692624e-06,-1.1165802271809286e-07,-1.2255369034538012e-06,6.624443097214636e-07,1.5505287384439436e-06,7.768023343620415e-07,3.770654065651397e-07,1.8287157922674876e-06,1.4440952324392496e-06,1.7627108421942012e-06,9.396545435762463e-07,1.8946466639589078e-06,1.6244004098794313e-06,1.206830564438222e-06
6.083118463116623e-07,-6.11656824651478e-07,-1.2409562584617606e-07,-1.3787788571138697e-07,-1.6526640350130963e-06,-2.1689753890926655e-07,-1.3514849922098425e-06,6.032274799472768e-07,1.5431508501459007e-06,7.795688996935284e-07,3.9765494371425593e-07,1.7973440395663812e-06,1.4221313113879e-06,1.7577288795072977e-06,9.689631089074234e-07,1.8199398113209614e-06,1.6018007751020918e-06,1.1607818678073333e-06
5.97619684882926e-07,-6.790667610544248e-07,-1.4090638708868864e-07,-1.0117204934674235e-07,-1.684065867498492e-06,-3.068935459764714e-07,-1.434868864226623e-06,5.537885949525529e-07,1.5319619300978618e-06,7.724604163389786e-07,4.2577147043595327e-07,1.7150684798003708e-06,1.378394385906881e-06,1.7528249300457478e-06,1.0257818808733442e-06,1.7349322485735215e-06,1.5593924701693397e-06,1.1170374141849014e-06
5.914498561607454e-07,-7.275989830593677e-07,-1.2848815495182295e-07,-8.003760647406792e-08,-1.7278981437077135e-06,-3.6763728831179805e-07,-1.494702403147881e-06,5.073220303556394e-07,1.5185200342869072e-06,7.557876386281889e-07,4.4077255417717303e-07,1.668017465288079e-06,1.3490204504030149e-06,1.7333465058443741e-06,1.0469678628669077e-06,1.6441788909100125e-06,1.5412591377417712e-06,1.1050568826556474e-06
5.830831870922166e-07,-7.581310286780515e-07,-1.0975132006935028e-07,-9.072905622835999e-08,-1.7432093809840802e-06,-4.130605826932062e-07,-1.494312378687264e-06,4.7575317688229063e-07,1.466597319446065e-06,7.308155344986469e-07,4.398551980627204e-07,1.6512921375688541e-06,1.3337410602754182e-06,1.6975976712904406e-06,1.091950538845111e-06,1.5840281491776765e-06,1.5421914734753224e-06,1.0905885680031059e-06
5.660176477919635e-07,-7.812763302282165e-07,-8.792305694658103e-08,-1.4083191223332894e-07,-1.7452024289361702e-06,-4.54017497430626e-07,-1.4986110184541002e-06,4.683792369252038e-07,1.4085894039572954e-06,7.060838431919072e-07,4.2892484361770666e-07,1.6209860902237924e-06,1.2808657803147522e-06,1.623727839984194e-06,1.133407439694846e-06,1.5347054442317386e-06,1.5295344203302495e-06,1.0710041171258568e-06
5.390815492386915e-07,-8.074910152133625e-07,-6.696124771679301e-08,-2.2614182594543071e-07,-1.7761272463160477e-06,-4.898081793350454e-07,-1.447337623592708e-06,4.703416402518239e-07,1.35219877797376e-06,6.776833357663635e-07,4.1497499293841125e-07,1.5855045478374411e-06,1.2593228031599467e-06,1.5390572264569686e-06,1.1322180711848261e-06,1.5586331153951228e-06,1.5171967514084353e-06,1.0694801608830697e-06
5.10037669418087e-07,-8.146979269959304e-07,-4.8621388649584115e-08,-3.4692527085366394e-07,-1.7964146076398644e-06,-5.107998637935752e-07,-1.386314035837971e-06,4.82303333573263e-07,1.2767957992311457e-06,6.525592247713171e-07,4.0940360968376006e-07,1.5447108249085897e-06,1.2504256762216049e-06,1.4536754274376823e-06,1.1202420436271557e-06,1.5670772775051351e-06,1.4885417189736594e-06,1.0759365665820095e-06
4.854482476288447e-07,-7.95840267378627e-07,-3.5310450775605816e-08,-4.877584488172977e-07,-1.7508981879353191e-06,-5.065475903440202e-07,-1.2543152827661122e-06,5.184996307884111e-07,1.204715328846192e-06,6.388387416518352e-07,4.2301766897299077e-07,1.5099525478729999e-06,1.277760603330559e-06,1.3956115520976013e-06,1.0826258217683347e-06,1.558890037850636e-06,1.464929424690679e-06,1.093640225269659e-06
4.727163278261588e-07,-7.437110503173346e-07,-1.7039220303707053e-08,-6.15438119543686e-07,-1.6869296367318871e-06,-4.744838797925697e-07,-1.035506855226066e-06,5.764229183662596e-07,1.1416894060750233e-06,6.190745239637697e-07,4.5931932858153143e-07,1.4959986981657246e-06,1.2861120393541004e-06,1.3385850551715717e-06,1.0366287020149725e-06,1.5609391160255704e-06,1.4533942718965524e-06,1.0989436051016116e-06
4.734884410422986e-07,-6.611778145604997e-07,5.8262966149987836e-09,-7.175702971988814e-07,-1.5718477259952927e-06,-4.1925854577054484e-07,-8.057747751306651e-07,6.524081482823786e-07,1.1388452718966555e-06,6.011444982232355e-07,5.110957589511026e-07,1.506874284608942e-06,1.2623252299959783e-06,1.288520517956162e-06,9.47412705118231e-07,1.5840306142219411e-06,1.4397621977065864e-06,1.0875344491443794e-06
4.817425229154875e-07,-5.881165748382558e-07,1.7178560930488447e-08,-7.819848179031168e-07,-1.4160318496492278e-06,-3.787679533247452e-07,-5.635470744954985e-07,7.223492468950621e-07,1.1793724129343963e-06,5.826046895898495e-07,5.684332755045168e-07,1.458703328076925e-06,1.2002085265002087e-06,1.2380661740732493e-06,8.334136451210567e-07,1.5904983995241483e-06,1.4267067136166581e-06,1.071656507453491e-06
4.930219843045983e-07,-5.285780537372005e-07,3.5612550414399274e-08,-8.042337366341705e-07,-1.2857581210815088e-06,-3.5111662913509083e-07,-3.7381644359239024e-07,7.63770106139222e-07,1.2224592405586941e-06,5.572895142500047e-07,6.149547629624998e-07,1.3391354706923335e-06,1.111960731322022e-06,1.1667056651207122e-06,7.125497952834825e-07,1.5630670606956837e-06,1.358300091467333e-06,1.0313554903627955e-06
5.041697617711892e-07,-4.840939171683131e-07,4.835423604185319e-08,-7.909811174584614e-07,-1.2050288648005613e-06,-3.313286487064788e-07,-2.3132283100668048e-07,7.930297496609039e-07,1.2776807271332844e-06,5.151762415946186e-07,6.422633683743922e-07,1.168714381577393e-06,1.0128571705571435e-06,1.1141379023189436e-06,6.191986747808339e-07,1.4977485065543255e-06,1.2607041234215675e-06,9.66425777253541e-07
5.105157728274715e-07,-4.5339758392390944e-07,6.053195556603162e-08,-7.40616899911984e-07,-1.1382520326435725e-06,-3.2261771009556794e-07,-1.7927455817425708e-07,7.975785585782744e-07,1.3173939687039395e-06,4.636927628884723e-07,6.466428386980062e-07,9.972680030216023e-07,9.088991697447926e-07,1.0537342025208655e-06,5.532273829943256e-07,1.3737443449488908e-06,1.1659420379515702e-06,8.983697514101729e-07
5.261233932646629e-07,-4.3092701517742114e-07,8.092916033346202e-08,-6.59700513156445e-07,-1.0887301162528586e-06,-3.35567520428734e-07,-1.6513252952212727e-07,7.730919533294899e-07,1.314104826205211e-06,4.0834682635905335e-07,6.362466936341626e-07,8.501584712984028e-07,8.42884923827947e-07,1.0179892701296484e-06,5.048622119015444e-07,1.2333603822728373e-06,1.1084341005414447e-06,8.553995649646069e-07
5.544073370256676e-07,-4.1265632871694135e-07,8.666137472239723e-08,-5.59663334237459e-07,-1.0665064330404283e-06,-4.090716819194079e-07,-2.1334516638187642e-07,7.245509853793361e-07,1.2826235525027423e-06,3.56967108652865e-07,6.243391788421607e-07,7.658739826979365e-07,8.261005627620535e-07,1.04944274194204e-06,4.559869689160822e-07,1.1057501186809844e-06,1.1558370038764768e-06,8.079178590811032e-07
5.868345773061664e-07,-4.0150003719735054e-07,8.887251354673289e-08,-4.50130628786739e-07,-1.0106137067850878e-06,-5.370067034998849e-07,-3.146210060319381e-07,6.527939078085933e-07,1.2472161456122402e-06,3.3235479851802044e-07,6.169334478740939e-07,7.765688633332026e-07,8.200339234175382e-07,1.0266904104677782e-06,3.5764239618320447e-07,1.0396621012402916e-06,1.1379964453880966e-06,7.684955876249748e-07
6.255432026876007e-07,-4.1684162311885755e-07,7.074839500743578e-08,-3.4193037990832684e-07,-9.633563315138437e-07,-6.82448962095391e-07,-4.123341152478821e-07,5.664420685680054e-07,1.1700218388994357e-06,3.3209996471042055e-07,6.149059359943148e-07,7.378368164662461e-07,8.236994492102664e-07,9.70733727257229e-07,1.8128415261042744e-07,9.676603337996125e-07,1.1279328577908714e-06,7.807204165036406e-07
6.45692259567667e-07,-4.980695678983756e-07,-2.3446873014357818e-08,-2.498194017684066e-07,-8.972536183812428e-07,-8.365149190681001e-07,-5.284235055573222e-07,5.139442885849628e-07,1.09289649224864e-06,3.487233915672289e-07,6.109935567660595e-07,6.872827743972577e-07,8.307786916274624e-07,9.974396577060102e-07,1.0338507264958134e-07,9.11674689460431e-07,1.1433265318945775e-06,7.921643269059146e-07
6.088457775342415e-07,-5.506568793240188e-07,-8.297303013906308e-08,-1.9717452312539985e-07,-8.400200821683121e-07,-1.0047987513248906e-06,-6.464720582412517e-07,5.320444752972033e-07,1.0266895758235985e-06,3.6690013232712093e-07,5.979884403025059e-07,7.60713986356833e-07,8.644739933477982e-07,1.0213089366567765e-06,7.153557274521024e-08,8.769308749728537e-07,1.13986175406544e-06,7.736374551024822e-07
6.198813447022763e-07,-6.078406317329023e-07,-1.0102037547151672e-07,-1.9446366812854823e-07,-7.975001376909401e-07,-1.1663337330882166e-06,-7.609665716904813e-07,6.551443591338146e-07,9.07465582083225e-07,3.8566817746036494e-07,5.716279915761295e-07,8.565175563788306e-07,8.861609280310146e-07,1.0392895733180616e-06,-4.001178774144097e-08,8.852628083148566e-07,1.1199930970185097e-06,7.28506551866861e-07
6.273491197741323e-07,-6.430170626244344e-07,-1.3795157258873845e-07,-2.4690970767369875e-07,-7.439188044158423e-07,-1.284009076390803e-06,-8.389248253377818e-07,8.185899165754149e-07,7.730064613932251e-07,4.000537846392497e-07,5.403989023446756e-07,9.561838502025829e-07,9.095876575621499e-07,1.0666605566032098e-06,-1.799958665405594e-07,9.188604064862162e-07,1.0936031911582177e-06,6.889119990673823e-07
6.156177344616063e-07,-6.277373421935125e-07,-2.0605219506116554e-07,-3.501131963185284e-07,-6.956511926292843e-07,-1.3136755543018523e-06,-7.843177453579095e-07,9.442948074369313e-07,6.191648395547367e-07,4.195802792774742e-07,5.069222414663617e-07,1.0545725242291782e-06,9.819270785275605e-07,1.1161996943978077e-06,-2.1469241262937548e-07,9.466913230410572e-07,1.0766018051257514e-06,6.557801588047311e-07
6.522138969417299e-07,-6.624843835746548e-07,-2.8288663156798024e-07,-4.869934720622281e-07,-6.387526325954095e-07,-1.3142960068666595e-06,-7.452808403004911e-07,1.0339830484306566e-06,4.5857956837861223e-07,4.371662555850375e-07,4.7437626831642954e-07,1.098436066338215e-06,1.0132152252607413e-06,1.1775228016729683e-06,-2.3612109142684707e-07,9.669477913599164e-07,1.1006802293909005e-06,6.29705101294771e-07
7.115749530923541e-07,-7.196072433297272e-07,-3.516343888670376e-07,-6.427093663488037e-07,-5.835353217075425e-07,-1.2748350683335739e-06,-6.674121277900401e-07,1.161741927641157e-06,3.463135648465789e-07,4.517946810465772e-07,4.584915254841559e-07,1.1255469748790165e-06,9.876248644887472e-07,1.1873170075049147e-06,-2.3319420055732362e-07,9.476682496645279e-07,1.1382469148753811e-06,6.132678936337891e-07
7.469451751644862e-07,-7.479663389768892e-07,-3.896031736528582e-07,-7.991624656311204e-07,-5.217290228554161e-07,-1.2947814793826399e-06,-5.408855659354943e-07,1.2846914104732745e-06,2.741781937987374e-07,4.637610074920433e-07,4.5618377045522766e-07,1.1098970458646016e-06,9.4886902521079e-07,1.1889418994601598e-06,-2.55929920309631e-07,9.133615244824451e-07,1.1623107889464393e-06,5.807313493579795e-07
7.681062662402477e-07,-7.377154562261827e-07,-3.8922973630325695e-07,-9.359041605832922e-07,-4.5202308996657765e-07,-1.297298784671473e-06,-3.3121880818437646e-07,1.3986964733000454e-06,2.321116126640274e-07,4.6421332657846463e-07,4.799371318011738e-07,1.0573865847547248e-06,9.432353131233111e-07,1.1829567676315045e-06,-2.527442036330237e-07,8.712524421957049e-07,1.1721638634254577e-06,5.317802630458586e-07
7.908721156324006e-07,-6.914038412749865e-07,-4.384644165512051e-07,-1.0490157826441598e-06,-3.4870198025588593e-07,-1.2706120019717064e-06,-1.6422615542886079e-07,1.385351831799686e-06,2.0762276049036305e-07,4.773750848843188e-07,5.441310297338525e-07,1.039061494417486e-06,9.660494146045476e-07,1.1619498425924051e-06,-2.5275726169546255e-07,8.48777563562212e-07,1.1583242540960388e-06,4.874944180486903e-07
8.129179614104757e-07,-6.541382205847073e-07,-5.166841610586122e-07,-1.141632643315979e-06,-2.0825722466393103e-07,-1.1918772976807459e-06,-5.579914679371692e-08,1.3547592654739925e-06,1.764090950052574e-07,4.676670439284203e-07,5.877121106608841e-07,1.0552640535806057e-06,9.850073364085306e-07,1.1545402721161444e-06,-2.5097294925677553e-07,9.087212613698666e-07,1.1310576704825526e-06,4.4601758287555047e-07
8.399422299930176e-07,-6.21444891882057e-07,-5.937656310355523e-07,-1.2174607498542099e-06,-4.206764870268953e-08,-1.093239247185963e-06,8.206498291929529e-09,1.2919530452913426e-06,1.4313248260123949e-07,4.4852764190344447e-07,6.188943025439666e-07,1.1516219277567184e-06,1.0299111806983803e-06,1.185027788657835e-06,-3.033998832649543e-07,9.144293366123054e-07,1.1248915198252323e-06,4.1285694528314473e-07
8.693919107109921e-07,-5.796057644301338e-07,-6.988525722411962e-07,-1.281042694572475e-06,1.5185728795733621e-07,-9.845918198320438e-07,2.2640445663755104e-08,1.2263927136553587e-06,1.328024889542948e-07,4.5013052632922786e-07,6.443186066759595e-07,1.240543847656466e-06,1.0662120830250704e-06,1.2273087319652805e-06,-3.616859916978317e-07,8.844539651426196e-07,1.1363017938647144e-06,4.396388064542273e-07
8.853838344277898e-07,-5.559430039950564e-07,-7.545344470835584e-07,-1.3322126788641934e-06,3.301604997090708e-07,-8.631755528494486e-07,-7.027284181196201e-09,1.1013802022145538e-06,1.3894531139157242e-07,4.648204600965187e-07,6.526794922685713e-07,1.225232997802706e-06,1.0829163681145052e-06,1.2771740885348956e-06,-4.1984112421246946e-07,8.443278438232123e-07,1.1627660145007151e-06,4.2674550554431717e-07
9.194599442853592e-07,-5.698202607488051e-07,-7.200985657529418e-07,-1.3674499946038395e-06,4.90967369014355e-07,-7.6285059717186e-07,-7.644150628332122e-08,9.706182801609402e-07,1.5367589565776822e-07,4.694374130407874e-07,6.611135784880836e-07,1.303173080854203e-06,1.075736973109805e-06,1.3141249554080478e-06,-4.4191607573205064e-07,8.689680229193289e-07,1.1870185598712815e-06,3.766334750382943e-07
9.401124774736924e-07,-5.192888499083274e-07,-6.913986411831815e-07,-1.3841275943893058e-06,5.644144368073952e-07,-6.891148752328246e-07,-1.8407228051585957e-07,8.506244027848041e-07,1.5659071318249547e-07,4.451573610856185e-07,6.810222315429985e-07,1.3663828537336893e-06,1.0034880249990256e-06,1.2598894485062604e-06,-4.33342383982743e-07,9.682449859941765e-07,1.1498140838484004e-06,3.844113248369481e-07
9.397583142661112e-07,-3.928591362694979e-07,-6.863539509565557e-07,-1.3811901255505463e-06,5.337682738621593e-07,-6.398110334939407e-07,-3.30836505516637e-07,7.846616822997618e-07,1.4613200729344834e-07,4.2487296258195993e-07,6.710716839134242e-07,1.2801051494961345e-06,9.583804787184084e-07,1.2184495497189085e-06,-4.071611816977788e-07,1.021615866428739e-06,1.076664115462988e-06,4.379514947994949e-07
9.385009160905268e-07,-2.239441327991632e-07,-6.534372086553928e-07,-1.3516403916555146e-06,4.948635854711797e-07,-6.07692609550568e-07,-5.111232002367045e-07,7.403618818071294e-07,1.2740203664171472e-07,4.1318388955096097e-07,6.819978308621203e-07,1.2624816103949238e-06,9.39871178183301e-07,1.1819077080187237e-06,-3.4753667106879765e-07,1.018816738261941e-06,1.0243800901356755e-06,4.79812798406633e-07
9.391192658688189e-07,-7.411315262528585e-08,-6.394103365043612e-07,-1.2912689520972759e-06,4.927864934797694e-07,-5.760963760135423e-07,-7.164400264955259e-07,7.330491197667967e-07,1.351779132930875e-07,4.0259535774375693e-07,7.014935028488112e-07,1.2036465113186562e-06,9.208502118539981e-07,1.1347522193781156e-06,-3.001926345676259e-07,1.0361688796003448e-06,9.963816546106197e-07,4.570540216588685e-07
9.243046596991268e-07,5.7299617800790696e-08,-6.369791081931106e-07,-1.1982522428119236e-06,5.521636854268272e-07,-5.567959163530324e-07,-9.238112262784632e-07,6.587714568994817e-07,2.052963737948601e-07,3.9137737722165943e-07,7.178714936538451e-07,1.1256308156329512e-06,8.72828631035148e-07,1.1041701952618017e-06,-2.5971554587731865e-07,1.0323534586517427e-06,9.71383950862551e-07,4.743884212036448e-07
9.259463634856491e-07,1.629731492687121e-07,-5.74767995679947e-07,-1.0739259355803046e-06,5.975605428514589e-07,-5.079029302855327e-07,-1.1057700366593645e-06,5.069951428687315e-07,2.8704820264624475e-07,3.79846756991e-07,7.264797406633248e-07,1.0762474602697512e-06,8.152612880931029e-07,1.0957743839570372e-06,-1.9840580562075256e-07,1.031473009665121e-06,9.432083747132467e-07,4.705624199303024e-07
9.27786979401741e-07,2.443251909877058e-07,-5.014391790978181e-07,-9.27017761604214e-07,6.296198914552907e-07,-4.1150345133388305e-07,-1.2404501525485917e-06,3.6201988643974035e-07,3.2578762398037215e-07,3.457022070448747e-07,7.270154157849896e-07,9.315648575069454e-07,7.524493291553847e-07,1.0561320185756237e-06,-1.3805164392260912e-07,1.0487686560910355e-06,8.82500045949529e-07,4.571216752588139e-07
9.064848954605063e-07,4.2545909448489835e-07,-4.3456322779374796e-07,-7.704437173653075e-07,6.237936341209128e-07,-3.2227928970099643e-07,-1.3166640398922308e-06,2.6858047007137147e-07,2.9909803983579515e-07,3.0735823663228736e-07,7.044145581667267e-07,7.626847730721465e-07,6.909428897151798e-07,1.0099298935100426e-06,-8.23662839383812e-08,1.0081448157159057e-06,8.121403950247564e-07,4.224880704525644e-07
9.039616969450221e-07,5.624415330549692e-07,-3.8344797208526124e-07,-6.192961969680963e-07,6.076906919839824e-07,-2.5789306163380503e-07,-1.3373464307093778e-06,1.368473477215031e-07,2.9482482528517225e-07,2.8661544651551913e-07,6.731984962707541e-07,6.033088703306033e-07,6.143712708947882e-07,9.813062442136321e-07,-2.8780087674881145e-08,9.170209959828643e-07,6.999089712449899e-07,3.466893685762784e-07
9.002078603361212e-07,6.557238052609044e-07,-3.3607263797722276e-07,-4.901169420127383e-07,5.494174139369109e-07,-1.936046844536949e-07,-1.3188049106689932e-06,3.5007680908285495e-08,3.580254702174279e-07,2.73402114106017e-07,6.513316557430415e-07,4.840098293780087e-07,5.583667719274356e-07,9.3431407028529e-07,1.6161735168440073e-08,8.094364625476938e-07,6.209872367079763e-07,2.7655094230089834e-07
8.982926590240082e-07,7.488731437411571e-07,-2.3869191838819716e-07,-3.9353770868443376e-07,4.591851390905548e-07,-1.5893581282296106e-07,-1.2779580840277584e-06,-3.4200519516993447e-08,4.348609530924085e-07,2.3839267246185619e-07,6.61233362758009e-07,3.047565864813332e-07,4.821413482325811e-07,8.888818890936328e-07,1.730977425117509e-08,6.856559034397061e-07,5.648697941923408e-07,2.1595718054009504e-07
8.702477760931311e-07,8.041630992707478e-07,-1.4746426469163894e-07,-3.337051517262876e-07,3.300535397803247e-07,-1.892848224822858e-07,-1.2285910428365296e-06,-9.174197081806749e-08,5.074886928534965e-07,1.9335799558995557e-07,6.381108909636493e-07,6.052566369377175e-08,4.0394539549033e-07,8.506892360842296e-07,-1.6771660789459056e-08,5.676215416790205e-07,4.839699794774598e-07,1.5969106394649872e-07
8.290021721205946e-07,8.138184926151417e-07,-1.0175999512137266e-07,-3.0919085541801934e-07,2.1751030105213318e-07,-2.391726576212707e-07,-1.1672269120171923e-06,-1.0196631706734498e-07,5.643589353403663e-07,1.5361349791359284e-07,5.68835375260657e-07,-8.988397371246462e-08,3.213937031271689e-07,8.118486211785157e-07,1.0847738116988189e-08,4.63678003853967e-07,3.6664301795114493e-07,1.417320333119688e-07
7.884716711829054e-07,8.124242866593431e-07,-4.5078704890140056e-08,-3.124891558885194e-07,1.3339414273252547e-07,-2.702072992646713e-07,-1.0892159857668513e-06,-9.940708602324696e-08,6.051614869537587e-07,1.0264672693899454e-07,5.391894648808157e-07,-1.6233202952337403e-07,2.3599378111913988e-07,7.292635666294835e-07,6.676732497458697e-08,3.9838959888714973e-07,2.7415679389690956e-07,1.5009650080102896e-07
7.628324595240007e-07,8.010919431072613e-07,-4.0758593900256217e-08,-3.32510124998212e-07,6.668941242251132e-08,-2.811914419254051e-07,-9.938638377577228e-07,-1.1392960040756313e-07,6.412464526894333e-07,5.397497339364995e-08,5.414445787413997e-07,-2.510128453669525e-07,1.740566024236779e-07,6.717354626033482e-07,1.147690723401092e-07,3.3425263963038803e-07,2.0442130776548946e-07,1.6761573149547588e-07
7.424380501342658e-07,8.179291459024473e-07,-3.2365280882505015e-08,-3.561967567571981e-07,1.8660202667072884e-08,-2.9276186712430254e-07,-8.878989152041161e-07,-1.29385893007554e-07,6.589158784517602e-07,1.6598960820565407e-08,5.378184275083441e-07,-3.475420625916061e-07,1.3710588060796623e-07,6.387388589183268e-07,1.693494139420382e-07,2.690995514054317e-07,1.60100827086253e-07,1.8553596217185975e-07
7.314341381281443e-07,8.268103196586557e-07,-4.558735250678482e-08,-3.703470888167796e-07,-5.013075262848295e-08,-3.0465825422222354e-07,-7.895572169673737e-07,-9.632905661736714e-08,6.345988327575702e-07,-2.1418205034924938e-08,5.257181206298082e-07,-4.499166173527683e-07,9.264261439728669e-08,6.318097401483561e-07,1.8784183367697748e-07,2.2524216389315843e-07,1.1100256762451307e-07,1.9249010728480473e-07
7.03447456508237e-07,8.095749575187707e-07,-8.077325262923216e-08,-3.6351536765321025e-07,-9.971514978162419e-08,-3.190107975126356e-07,-7.188999939119452e-07,-7.714490863213214e-08,5.948311331515458e-07,-7.678610712942449e-08,4.890516604882121e-07,-5.725100024177382e-07,7.036640862840581e-08,6.24418908856937e-07,2.0046921859291112e-07,1.7244278434727863e-07,4.469462446000311e-08,1.8455609302063449e-07
6.635755925692019e-07,7.773850518033972e-07,-9.160801727651538e-08,-3.2723689744746774e-07,-1.479545098405841e-07,-3.415007920892356e-07,-6.90244474248012e-07,-4.6722265159458924e-08,5.494390346364054e-07,-1.28830679496035e-07,4.198841265327882e-07,-7.075511315797377e-07,6.465863563417745e-08,5.907393165486721e-07,2.035915466094601e-07,1.1235699512080473e-07,-1.794721576694787e-08,1.67104156393359e-07
6.367505190934272e-07,7.159529477071277e-07,-8.79661310187922e-08,-2.620739055493751e-07,-1.934825840609013e-07,-3.7158941219962713e-07,-7.100308962648833e-07,-9.707993933899535e-09,5.116852169787415e-07,-1.6798837205056266e-07,3.440094802533903e-07,-8.41633573163626e-07,5.1511818856866517e-08,5.547847123062733e-07,2.0317478661671369e-07,5.172558760475268e-08,-6.810376576697444e-08,1.5081512045156904e-07
6.05927047331985e-07,6.590005252224987e-07,-6.935491935901253e-08,-1.7590383806509528e-07,-2.171286737145764e-07,-4.0636791506827944e-07,-7.763192413514669e-07,-6.879670504804254e-08,5.011097659075941e-07,-2.000475709337326e-07,2.646888227349922e-07,-9.583823539007251e-07,2.014419492908507e-08,4.966728517108293e-07,2.296348785463139e-07,-1.1912793238921233e-08,-1.2275267443759588e-07,1.4391667537349462e-07
5.784843472246932e-07,5.802048337514554e-07,-3.7535194121882364e-08,-8.342788135840075e-08,-2.3312993488322941e-07,-4.460515246619792e-07,-8.766613375756106e-07,-1.9154498791589103e-07,5.091325684103084e-07,-2.2415176386050355e-07,1.9788594452218672e-07,-1.0462849903574441e-06,-2.0082148950584275e-09,4.446976704182947e-07,2.693752322195513e-07,-6.612063532323464e-08,-1.488741150422387e-07,1.555838438818941e-07
5.536833140794609e-07,4.72571321577197e-07,-6.999292529849783e-09,-4.8051710521244295e-09,-2.406087129543063e-07,-4.898825482795848e-07,-9.996046466291708e-07,-2.701970739220384e-07,5.315604193294511e-07,-2.4420787836556705e-07,1.5011062024422118e-07,-1.1065830077087042e-06,-1.0653587039471254e-08,4.19163890333917e-07,2.827110411547019e-07,-1.042827725234243e-07,-1.603712321213997e-07,1.805777230928949e-07
5.220036241188932e-07,3.446449435333842e-07,4.851544857334757e-09,4.08348121333514e-08,-2.4473966300056587e-07,-5.391574943760113e-07,-1.1267923681380704e-06,-2.7563251407955265e-07,5.60418266426036e-07,-2.7186058980656194e-07,1.0284403394626996e-07,-1.1495445701819643e-06,-2.8436151731335628e-09,4.0080762915878784e-07,2.610931495998188e-07,-1.359185447293415e-07,-1.833592641217434e-07,2.0669548402626987e-07
4.853496161780291e-07,2.0339548971857837e-07,-3.207940193258116e-10,4.1282803929770053e-08,-2.481878851186506e-07,-5.960340843269787e-07,-1.240603960229927e-06,-1.956520115473641e-07,5.902346319409643e-07,-2.9384741514715365e-07,6.810276999939061e-08,-1.1913253875264422e-06,1.9730782605091813e-08,3.7779752360534345e-07,2.1287013109459166e-07,-1.7611745317286142e-07,-2.2189595726222122e-07,2.2463757457587453e-07
4.441776386601216e-07,6.889015111400542e-08,-2.4212721768049587e-08,-5.517871083014462e-09,-2.602481688056543e-07,-6.54885683306507e-07,-1.32774025963606e-06,-7.103860232643177e-08,6.124404580089699e-07,-3.1328730112064547e-07,4.993165181384014e-08,-1.245890984342958e-06,4.542757887997449e-08,3.4353449584646857e-07,1.0481862698159821e-07,-2.2448898941995042e-07,-2.7129458931595e-07,2.2843248605951437e-07
4.005740375968533e-07,-4.924234003699366e-08,-6.070685712074161e-08,-8.574853768426932e-08,-2.685584276088163e-07,-7.055248289961935e-07,-1.3763585339479492e-06,6.021639253979274e-08,6.284976056527128e-07,-3.31267385410033e-07,3.313853012630678e-08,-1.3056600536183214e-06,6.336716377402643e-08,3.1300044497056395e-07,-1.1161653465432153e-08,-2.779185990721954e-07,-3.2381078172787274e-07,2.213784185965074e-07
3.5750684069560257e-07,-1.458720357582367e-07,-9.14622215420637e-08,-1.752258849374612e-07,-2.611426893501886e-07,-7.385828418541439e-07,-1.3814237950190782e-06,1.819295598702593e-07,6.472371391646732e-07,-3.419985765851131e-07,3.157075144412135e-08,-1.3559262255196706e-06,9.574916047666834e-08,2.8421714169560997e-07,-1.1943125604121388e-07,-3.262482357208964e-07,-3.542392093018835e-07,2.1075634358733628e-07
3.2560066573595123e-07,-2.1427907841523567e-07,-1.06424738934539e-07,-2.4952919108060547e-07,-2.366158295325884e-07,-7.489697369128097e-07,-1.34799048337103e-06,2.5125614705794435e-07,6.747972096975022e-07,-3.4255510614265967e-07,2.3568012942328713e-08,-1.3900351586590574e-06,1.5320172890766705e-07,2.9260192788776704e-07,-2.2298179679327437e-07,-3.601950012474587e-07,-3.536057277948667e-07,2.0364947270001234e-07
3.0712474220214913e-07,-2.1429316852916194e-07,-1.0032618637413181e-07,-2.923474505646977e-07,-1.954371867943157e-07,-7.389080294774338e-07,-1.286995213011056e-06,3.080636235323599e-07,7.137165672523483e-07,-3.249425973760806e-07,-8.042716902714978e-09,-1.40423845316355e-06,2.2800517914131318e-07,3.196385516635355e-07,-3.039601006724746e-07,-3.8022254096945176e-07,-3.4567904256491346e-07,2.0238235157092177e-07
3.000084587860722e-07,-1.9352768970940901e-07,-7.670044518307086e-08,-3.020190375088714e-07,-1.491795616579218e-07,-7.187592123325051e-07,-1.2105749617245524e-06,3.5669734897269285e-07,7.575907957092896e-07,-2.995762184745758e-07,-3.251167655614805e-08,-1.403597893728604e-06,3.1219126574146954e-07,3.387969183095677e-07,-3.6593340506472365e-07,-3.896914688359938e-07,-3.3579890678794354e-07,2.0467906238950682e-07
2.9842483009091024e-07,-1.6314509794900317e-07,-4.2918332691862627e-08,-2.8955096334939606e-07,-1.0852831123076004e-07,-7.007637192815328e-07,-1.1320960215952998e-06,3.9492563452978845e-07,7.967506358967826e-07,-2.698412754097497e-07,-4.060515872913827e-08,-1.395756414024943e-06,3.9149614047764405e-07,3.459657980709217e-07,-4.1654677461365785e-07,-3.9579976280751745e-07,-3.3235518346960363e-07,2.0762429683657254e-07
2.9564233458813025e-07,-1.2646334546751578e-07,-9.096240678372767e-09,-2.706136047848313e-07,-7.609735664334391e-08,-6.93558237571951e-07,-1.0600522459345015e-06,4.254826759667523e-07,8.187964664493862e-07,-2.5393513908993796e-07,-3.128070614123231e-08,-1.3806362671785083e-06,4.561907904915652e-07,3.299377919806711e-07,-4.6431713295842973e-07,-4.0610089669470666e-07,-3.386868857329206e-07,2.0896798357893965e-07
2.995002813211678e-07,-9.300558855470554e-08,2.145666132743233e-08,-2.569383225066091e-07,-4.667588275611559e-08,-6.977279008359388e-07,-9.936712977347658e-07,4.4221652995398336e-07,8.194556435895575e-07,-2.469016258195622e-07,-2.919651677456058e-09,-1.3548470471082477e-06,5.072168527715794e-07,3.00574157228791e-07,-4.906450991131109e-07,-4.209366613892543e-07,-3.459155101493095e-07,2.1110113477679471e-07
3.1199298747674007e-07,-6.671619462589418e-08,5.140979681675616e-08,-2.545386798834747e-07,-1.0306638187708931e-08,-7.101126460379029e-07,-9.289482646106255e-07,4.6441835093950737e-07,8.11494060685065e-07,-2.390167759672511e-07,1.919908628876275e-08,-1.3123412508151716e-06,5.558479369476125e-07,2.7194878517965546e-07,-5.028007326320026e-07,-4.356285315266953e-07,-3.414813497401324e-07,2.1926080038745366e-07
3.341629145519775e-07,-4.259729885591731e-08,7.984119457222857e-08,-2.634575556861332e-07,4.431352025256009e-08,-7.23127483803756e-07,-8.592091283731985e-07,5.047257575734668e-07,8.027301357767864e-07,-2.2690063073021142e-07,3.237121086536156e-08,-1.2505480856835687e-06,6.000669147989204e-07,2.665145679529513e-07,-5.081495039797488e-07,-4.4496133499127133e-07,-3.223673945213974e-07,2.3557683482889935e-07
3.689358841251713e-07,-3.146140971314943e-08,1.0936045879523319e-07,-2.825273033158749e-07,1.22136345302718e-07,-7.282113688492701e-07,-7.739813233442116e-07,5.73850296054739e-07,8.015038512074537e-07,-2.050968286423438e-07,4.632470670255036e-08,-1.1777948316050722e-06,6.398488103986245e-07,2.729897799356714e-07,-4.971992135126824e-07,-4.447981752508074e-07,-2.922664072033151e-07,2.5850045005702764e-07
4.103037158284353e-07,-1.7629200518326687e-08,1.365477193023183e-07,-3.1302105373084267e-07,2.1894900674144725e-07,-7.199019468687224e-07,-6.73598920790505e-07,6.637761399972626e-07,8.125683668077888e-07,-1.802227435036363e-07,7.62753308168687e-08,-1.1058553536877573e-06,6.734024763074955e-07,2.753591855115012e-07,-4.931904369968301e-07,-4.416594348516252e-07,-2.572191157133599e-07,2.7947630074541624e-07
4.507214281798091e-07,-5.943982844815922e-09,1.5261008092029745e-07,-3.5785053301297603e-07,3.237557102949315e-07,-6.971002416005833e-07,-5.610749139312865e-07,7.69582719942801e-07,8.32532213578676e-07,-1.5855205762821916e-07,1.2063525778709708e-07,-1.04317458632529e-06,6.979374216901623e-07,2.630431566752558e-07,-5.043441035983076e-07,-4.39810638615094e-07,-2.315592604216384e-07,2.90756161130491e-07
4.821417735751278e-07,-4.461542698983324e-09,1.5568712471635338e-07,-4.189864943873783e-07,4.238846544381488e-07,-6.619890885484656e-07,-4.4131865098509403e-07,8.899670683620956e-07,8.577226193665735e-07,-1.4513528894738554e-07,1.521127114344204e-07,-9.951143531046995e-07,7.11504758020506e-07,2.310053498351116e-07,-5.289318518645724e-07,-4.4524571896253576e-07,-2.2064746105438175e-07,2.88272998695219e-07
5.014498884238015e-07,-5.9819493192979175e-09,1.4471135470208578e-07,-4.928974487347126e-07,5.117892426371656e-07,-6.173054125601418e-07,-3.2111774683469367e-07,1.0150970396791796e-06,8.864558026172398e-07,-1.365204142349048e-07,1.7445112422127135e-07,-9.581685080195153e-07,7.183211294733629e-07,1.9861806512176235e-07,-5.750406204841149e-07,-4.615286071412371e-07,-2.1906052843453707e-07,2.733572015315993e-07
5.118192182153248e-07,-1.1902502733750328e-08,1.2689824157051852e-07,-5.673830001849294e-07,5.868110101517794e-07,-5.675314205890191e-07,-2.0455092447902782e-07,1.1465229311560885e-06,9.175772039501588e-07,-1.3005995209390604e-07,1.912916842638939e-07,-9.266023710683231e-07,7.242113940472829e-07,1.7546986139555374e-07,-6.146592066707858e-07,-4.863178521079137e-07,-2.1785805659621528e-07,2.526606605537372e-07
5.234263379237564e-07,-9.266469048040485e-09,1.1634203392504191e-07,-6.244265125285847e-07,6.521493767017541e-07,-5.168494155816103e-07,-9.619674090140606e-08,1.281768801674009e-06,9.471533299412925e-07,-1.1675881249467113e-07,2.0539314730988472e-07,-8.981992712135765e-07,7.340424555233864e-07,1.670962080168944e-07,-6.370952335977952e-07,-5.155911715752922e-07,-2.089976658454586e-07,2.3209518344440115e-07
5.461089862843843e-07,1.5085350778676493e-08,1.2439266343950262e-07,-6.444934622892997e-07,7.094424350152379e-07,-4.708992272832572e-07,-2.5130671422788197e-09,1.4135193029416718e-06,9.741390764561838e-07,-9.224479454692114e-08,2.3375529907425034e-07,-8.761525092147538e-07,7.511668482202205e-07,1.7084874373796334e-07,-6.415652181720571e-07,-5.455189973843802e-07,-1.9412799389017755e-07,2.1408776290895427e-07
5.817775112111521e-07,6.914177835666325e-08,1.5689973917018932e-07,-6.146438204277656e-07,7.569149172141045e-07,-4.382603866017074e-07,6.437338944146785e-08,1.5410533122357627e-06,9.945750695456083e-07,-5.9111085258333643e-08,2.697661969650922e-07,-8.681365157392242e-07,7.744746459078104e-07,1.7097910649311643e-07,-6.335847763698311e-07,-5.74577513297042e-07,-1.788183091132036e-07,1.9759309257942475e-07
6.260672415116036e-07,1.469069886020847e-07,2.1059559394349072e-07,-5.335285180942973e-07,7.885661871879809e-07,-4.2731589887669995e-07,9.56938003477678e-08,1.6304066225512924e-06,1.0032363770955908e-06,-2.3106011065602307e-08,2.9923571202030257e-07,-8.829747515758664e-07,8.003062528199654e-07,1.60456776685037e-07,-6.24332451094405e-07,-6.022721027822147e-07,-1.7181546730585537e-07,1.7743272104592818e-07
6.702973197106287e-07,2.3845431980417596e-07,2.748446506233905e-07,-4.067550041904293e-07,8.003320422992456e-07,-4.423657924180226e-07,8.637490651296353e-08,1.6786728225465406e-06,9.988211070539123e-07,8.84315927192352e-09,3.181806233634914e-07,-9.238331519110268e-07,8.276649501778936e-07,1.3656490789045939e-07,-6.211295228891794e-07,-6.30212835350186e-07,-1.7714959095374112e-07,1.5043190190334147e-07
7.077267365583269e-07,3.3190560844462047e-07,3.35796104638676e-07,-2.665103421193505e-07,7.946091460150434e-07,-4.771823609996425e-07,4.204031545012379e-08,1.6929272600424905e-06,9.873334719983999e-07,3.2087937752491423e-08,3.2892568266950583e-07,-9.81315355228262e-07,8.541898208091496e-07,1.1030400895519748e-07,-6.26223157965447e-07,-6.570376108632688e-07,-1.891641744396889e-07,1.1827381753229204e-07
7.36670221711716e-07,4.1288138919244084e-07,3.8276669393007113e-07,-1.4092592067003075e-07,7.805861689402949e-07,-5.163340009061725e-07,-1.7839318953815023e-08,1.6847356226802689e-06,9.75801388973171e-07,4.531208547137516e-08,3.344186980065278e-07,-1.036906534906272e-06,8.808613922246907e-07,9.279461632916022e-08,-6.311125210016724e-07,-6.783472620445126e-07,-1.9772505123645444e-07,8.654739029685471e-08
7.571647300712247e-07,4.758862241859254e-07,4.0939671759278923e-07,-5.854579355883368e-08,7.72465376146919e-07,-5.420401925249759e-07,-6.87911754980982e-08,1.6706505240566962e-06,9.642448347787441e-07,5.051867774042266e-08,3.4003142908495794e-07,-1.0669525529631594e-06,9.10474034545697e-07,9.801179254122282e-08,-6.377202282534943e-07,-6.90237301792812e-07,-1.9391940461243816e-07,6.16870883207476e-08
