0,1,2,3,4,5,6,7,8,9,10,11,12,13,14,15,16,17
1.730030342074304e-08,2.8272277690728165e-07,2.8970448092566927e-07,1.617960766927623e-07,2.2553313470261952e-07,1.0633167146203298e-07,2.7697587105451746e-07,9.091387920850979e-08,1.5981344480956945e-07,1.1361986609781152e-07,1.6259739798722984e-07,-2.3291889232818165e-08,5.6654088912660346e-08,-1.479968551359909e-07,-9.07387551957435e-08,1.7898253034613234e-07,1.2941120740907025e-07,1.7540942190772426e-07
-5.030251186930639e-09,2.614598413610849e-07,2.701505826051333e-07,1.5821041936962058e-07,2.152409750013524e-07,1.0333007500085963e-07,2.735130469837068e-07,9.449569345438822e-08,1.4166342676282488e-07,1.1801075713299971e-07,1.6331200749319232e-07,-3.176598468156293e-08,2.3358559834645705e-08,-1.473831115982157e-07,-9.97190918106454e-08,1.4863421710206908e-07,1.1343726040671186e-07,1.2800167411592918e-07
-1.3302440126654828e-08,2.402688898687919e-07,2.4331825974777484e-07,1.5031746751253702e-07,1.8467349777049463e-07,9.745644920630971e-08,2.625086483495159e-07,9.903397176928779e-08,1.1202820278535412e-07,1.1463949956128205e-07,1.6104038047139958e-07,-3.096133791261655e-08,1.561576463236358e-09,-1.4183461020946393e-07,-9.799490285596839e-08,1.1776191356052901e-07,1.0105232727963744e-07,8.709288162279948e-08
-1.11426672946408e-08,2.1689857061497317e-07,2.068189251744515e-07,1.363071506647628e-07,1.3110851713207222e-07,8.797349880790054e-08,2.393508940988241e-07,1.0008215030689398e-07,1.0231231349006168e-07,9.342773084028176e-08,1.5308041045901859e-07,-2.3374975416490174e-08,-1.1828856826169467e-08,-1.1081389154118529e-07,-8.565897926017055e-08,8.649858300282997e-08,9.015961997951711e-08,5.196886712557989e-08
-4.012344436832017e-09,1.855466701284833e-07,1.6002858772009997e-07,1.1530482805794859e-07,1.0649037212309782e-07,7.439117400760028e-08,2.0143976335338487e-07,9.426664467840069e-08,1.0113045528050623e-07,7.216750862446949e-08,1.3654790314670405e-07,-1.4096705248929866e-08,-2.162494672443287e-08,-5.6571471125734456e-08,-6.304629922117808e-08,5.639198287697529e-08,7.839701241400697e-08,2.3248456473511863e-08
3.7311541637503134e-09,1.4203125447301454e-07,1.061216659302821e-07,8.42722177585777e-08,9.972151899149382e-08,5.722228615007948e-08,1.4972053032793564e-07,8.084794790044748e-08,9.718444788981461e-08,6.740809730034171e-08,1.100388588496444e-07,-4.697036539780379e-09,-2.6271314171068453e-08,-2.4643971005899002e-08,-4.054009862438102e-08,3.014008016169694e-08,6.625770514905832e-08,2.948301393531442e-09
9.296639912649884e-09,8.63017522890883e-08,5.0131437487481554e-08,5.1249890922795025e-08,1.0002907225226265e-07,3.778756155275847e-08,8.863219312350586e-08,6.11364193551043e-08,9.66719200419449e-08,6.54900614421621e-08,7.483095573525112e-08,5.11829855277553e-09,-2.2303213128426596e-08,-8.002881367337352e-09,-1.6362168853708148e-08,9.781413770415074e-09,5.39855977693652e-08,-8.186325178572167e-09
1.1303944090316703e-08,2.1915078678970347e-08,-3.440534092134541e-09,1.920310413209845e-08,1.1188381543880775e-07,1.7418545712378686e-08,2.3676123475479142e-08,3.725545248162756e-08,7.636076023112253e-08,5.937890146190568e-08,3.323314979806801e-08,1.4344527002342912e-08,-1.1162053693201584e-08,-1.6118117094320904e-08,4.573645606421679e-09,-5.259658329557199e-09,3.9976435849721115e-08,-1.3137929411401602e-08
9.567955551744972e-09,-4.3993586146696574e-08,-5.273444165148765e-08,-1.1949212268354435e-08,6.947648966580879e-08,-3.670503543097889e-09,-4.06188007736901e-08,1.014659473339117e-08,3.614251582619964e-08,2.9494221460107602e-08,-1.1588402620712646e-08,2.1523619238740017e-08,2.3218397584424967e-09,-1.940265312528507e-09,1.7688124221795993e-08,-1.8716997718878368e-08,2.0059321454246122e-08,-1.790263742224123e-08
4.86979147575506e-09,-1.039174331429663e-07,-9.84369566062517e-08,-4.0844765085343216e-08,-1.9231411560100276e-09,-2.587958546472073e-08,-1.011112171520822e-07,-1.990765822589916e-08,-1.0929499998986597e-08,-8.262652592029477e-09,-5.588008866817601e-08,2.266038656772348e-08,9.622041436807263e-09,1.6117797639803025e-08,2.4345849513730598e-08,-3.470045944364802e-08,-8.70999016360663e-09,-2.7760587938107634e-08
-1.534166565629715e-09,-1.5252438961668078e-07,-1.4094882986265662e-07,-6.946866034743516e-08,-7.639737649749648e-08,-4.954413919794997e-08,-1.5509703505675607e-07,-5.1637270073732446e-08,-6.015393951326513e-08,-4.8750933940637797e-08,-9.600233481181116e-08,1.858196640357325e-08,7.316373084171266e-09,5.3210342367438784e-08,3.1144363004677896e-08,-5.489522735640803e-08,-4.3967506256667654e-08,-4.3498903041855687e-08
-7.299872879921203e-09,-1.8797126106313448e-07,-1.7790723317307366e-07,-9.788117045048985e-08,-1.5062946648492026e-07,-7.289777246675461e-08,-1.9981264794323012e-07,-8.220288553180301e-08,-1.0677944634070652e-07,-9.088750791427823e-08,-1.291714349698336e-07,1.1373856338159177e-08,9.33065199283291e-10,7.726183228375279e-08,3.726659399229901e-08,-7.613489877579495e-08,-7.990594986938602e-08,-6.078155022939753e-08
-9.831141495870437e-09,-2.1202623643788277e-07,-2.0499966977981745e-07,-1.2538807901840603e-07,-2.03121595440379e-07,-9.289552542805883e-08,-2.3286328992185973e-07,-1.079457671298342e-07,-1.4418252581322356e-07,-1.2032952658313845e-07,-1.5420470215009948e-07,5.047928120597941e-09,-6.917163650195134e-09,1.0464149675606877e-07,4.6688195154926e-08,-9.500645732204292e-08,-1.1045592643827726e-07,-7.334730588892204e-08
-8.115668627990814e-09,-2.2949427663210154e-07,-2.187563426009253e-07,-1.4940458081007679e-07,-2.4160804285950323e-07,-1.0694005465849603e-07,-2.536317769766584e-07,-1.2629090323423105e-07,-1.7419405882232058e-07,-1.3888715026772126e-07,-1.7204733739288092e-07,3.883154127248316e-09,-8.137186092946542e-09,1.3130778356978486e-07,7.886368011438709e-08,-1.083452940901293e-07,-1.3293418160667958e-07,-7.756799814261456e-08
-2.1998167182609907e-09,-2.4544674501329674e-07,-2.1908827017352106e-07,-1.756269484662005e-07,-2.724762115982099e-07,-1.1414373385299238e-07,-2.64171021564958e-07,-1.3717588583105456e-07,-2.0054433818703558e-07,-1.556304041826916e-07,-1.840752058276717e-07,8.272066515548785e-09,-1.9082230765619924e-09,1.3571726299148276e-07,1.1579571720914856e-07,-1.1573357432264193e-07,-1.5007715689214032e-07,-7.501879459215892e-08
6.3985807177699905e-09,-2.617709062689294e-07,-2.0996166165102508e-07,-2.0609773866479656e-07,-2.9800155904149115e-07,-1.1593994728784941e-07,-2.6851128137763514e-07,-1.4301838386149614e-07,-2.2652367844185995e-07,-1.7088846844086606e-07,-1.9171155749932227e-07,1.738212616548837e-08,8.385412673754905e-09,1.3704865878234488e-07,1.3769412700440896e-07,-1.19398153461547e-07,-1.666857764845764e-07,-7.14675707938048e-08
1.5435541250209677e-08,-2.7622659808197127e-07,-1.972415130828419e-07,-2.406202660487136e-07,-3.123825794557363e-07,-1.1532345452411904e-07,-2.707284583397443e-07,-1.469337359687404e-07,-2.50827971075433e-07,-1.875982548047206e-07,-1.9603527134314459e-07,2.918775933707063e-08,2.2270210437722825e-08,1.2577863210913775e-07,1.4266278211488256e-07,-1.2103119720314901e-07,-1.8504305858908137e-07,-7.329849707726733e-08
2.4303734710341012e-08,-2.834866287294283e-07,-1.8581815342447058e-07,-2.7896607735586805e-07,-3.2610015594634626e-07,-1.1519460346969807e-07,-2.7336242338864493e-07,-1.5140802723230087e-07,-2.77391359235894e-07,-2.0133130304196543e-07,-1.9776839880221163e-07,4.288116538744567e-08,3.457158139724579e-08,1.115095911342716e-07,1.4037834445894394e-07,-1.2089554225093018e-07,-2.0350199815695114e-07,-8.408184949060445e-08
3.442784129902701e-08,-2.782756652195567e-07,-1.7854489530916219e-07,-3.167285818633671e-07,-3.4918237594604723e-07,-1.1729194826595118e-07,-2.771365675933257e-07,-1.581153716577319e-07,-3.090057676275933e-07,-2.124617925276461e-07,-1.9827814085027775e-07,5.9560108827166934e-08,4.924650489559188e-08,1.0751603643607362e-07,1.3806455465170245e-07,-1.179528402070811e-07,-2.219282139279366e-07,-1.0343597126839033e-07
4.8671897146768335e-08,-2.591073977960386e-07,-1.766687879701252e-07,-3.50100308128329e-07,-3.8449600003050873e-07,-1.2252745782168815e-07,-2.8178539865461186e-07,-1.683988083692325e-07,-3.426636842756061e-07,-2.2369821552005145e-07,-1.9986924003049408e-07,7.971455763765035e-08,7.165425489958931e-08,1.0579136812298819e-07,1.417177857147906e-07,-1.100116763469207e-07,-2.3633399005115094e-07,-1.2801306815780817e-07
7.047436337339147e-08,-2.2780608973787674e-07,-1.803239276778611e-07,-3.772581391982222e-07,-4.315758872229532e-07,-1.310745168632037e-07,-2.873157822989818e-07,-1.831320789624411e-07,-3.802050968363323e-07,-2.3555473164563313e-07,-2.04494037116238e-07,1.0586148892830644e-07,1.0238114820822937e-07,1.0356216498631973e-07,1.524936018088524e-07,-9.417349779864241e-08,-2.4086962126016237e-07,-1.5299190676007133e-07
1.030998375288004e-07,-1.882601816417329e-07,-1.884270970950487e-07,-3.9913200600861303e-07,-4.856182693293365e-07,-1.4172285241718585e-07,-2.939021690950027e-07,-2.015495241181298e-07,-4.1962061120579935e-07,-2.4924089891944484e-07,-2.1233467684272797e-07,1.400821982920996e-07,1.3878036728201704e-07,9.811012662845716e-08,1.6241929529088004e-07,-6.765040244492836e-08,-2.361597238363105e-07,-1.731200224985974e-07
1.4863949363634308e-07,-1.4394643908540545e-07,-1.9799795164815e-07,-4.1643416529891856e-07,-5.394004595531556e-07,-1.519399513557605e-07,-2.9928608027485546e-07,-2.2032180637627137e-07,-4.5550408036378106e-07,-2.6180996211195177e-07,-2.2130083595734519e-07,1.8448003103307767e-07,1.6900474665838553e-07,9.262179484874106e-08,1.8198685346411389e-07,-2.8905878079443844e-08,-2.1451674874803039e-07,-1.8359869400280617e-07
2.0791639733180772e-07,-9.640321891816838e-08,-2.0480907301554058e-07,-4.3109699202248924e-07,-5.847753844861103e-07,-1.5841005761688943e-07,-3.008898729747441e-07,-2.3484997946433607e-07,-4.833466015905762e-07,-2.710645342284575e-07,-2.2767749507090884e-07,2.406921736859038e-07,1.6370062548857396e-07,9.897445416134212e-08,2.1215651551355634e-07,2.1003261992664738e-08,-1.7698436990784725e-07,-1.813534736457673e-07
2.794258094732954e-07,-4.64219727053756e-08,-2.0542269801709703e-07,-4.4438643811844694e-07,-6.209897118419635e-07,-1.5821635023189188e-07,-2.965677050647311e-07,-2.419176787396684e-07,-5.003916461226903e-07,-2.755450301029578e-07,-2.2842555124102957e-07,3.0509183168273107e-07,1.4371494211358695e-07,1.1540871644046732e-07,2.4586928634584643e-07,7.607827093669865e-08,-1.3527422406623238e-07,-1.664640784497434e-07
3.5869933741642816e-07,4.361711275554886e-09,-1.9890036840089775e-07,-4.5635837802595964e-07,-6.412602628489987e-07,-1.506148648099694e-07,-2.862244803574208e-07,-2.4113815582463976e-07,-5.032559181502836e-07,-2.7616311666682593e-07,-2.2291802277917175e-07,3.668740334181298e-07,1.5050224923582086e-07,1.3799136393193606e-07,2.8451717416602717e-07,1.2688187345865066e-07,-9.053013866154952e-08,-1.4257611890971966e-07
4.3920154191800197e-07,5.254081361045506e-08,-1.8666704324584685e-07,-4.678705376680903e-07,-6.476584711921348e-07,-1.3718747317004553e-07,-2.724591869093479e-07,-2.3481935528479736e-07,-4.954610914621865e-07,-2.7362878289179056e-07,-2.1278372390976255e-07,4.195579750462413e-07,2.0132498992904572e-07,1.616256020623658e-07,3.216923636321476e-07,1.6606742746990681e-07,-4.727046536086096e-08,-1.1520667531420031e-07
5.141189397398774e-07,9.475588654698883e-08,-1.708542908124887e-07,-4.792117929758077e-07,-6.484452443674955e-07,-1.2068276863529623e-07,-2.5805998675267223e-07,-2.261883183290136e-07,-4.808726094862615e-07,-2.689754700088133e-07,-1.999866413994562e-07,4.591815512828138e-07,2.5456490066636835e-07,1.808552953236479e-07,3.540388281638713e-07,1.9051356347260615e-07,-1.7882017278163035e-08,-8.859597843973487e-08
5.789437902114231e-07,1.3002486625130114e-07,-1.5229797859676524e-07,-4.895050204933627e-07,-6.458980270476769e-07,-1.0362084222776997e-07,-2.4389290174719676e-07,-2.167192330451764e-07,-4.624910016431715e-07,-2.639773221099037e-07,-1.8521108488207233e-07,4.845110383497198e-07,3.035828570037219e-07,1.967992943135089e-07,3.8178471261439896e-07,2.0323796532217395e-07,1.8432955426451614e-08,-6.354307347079549e-08
6.324525748489257e-07,1.606993782570794e-07,-1.3062501435136813e-07,-4.965956691678703e-07,-6.411584521050256e-07,-8.742561284376875e-08,-2.3044985433032496e-07,-2.0658641172079828e-07,-4.4349279848622e-07,-2.5856593113925145e-07,-1.6780215514210528e-07,5.051155595859472e-07,3.550337352279523e-07,2.0998533715861316e-07,4.064678100070022e-07,2.0877744149944313e-07,5.242817047133517e-08,-3.821992264924456e-08
6.75544860244131e-07,1.9000266090116804e-07,-1.0605889600744505e-07,-4.977765533707721e-07,-6.326111817013631e-07,-7.252802966360703e-08,-2.1823000309267856e-07,-1.9498641909321665e-07,-4.2636690052871463e-07,-2.5347848583317403e-07,-1.4632965395509696e-07,5.219184978591275e-07,3.9200312703587293e-07,2.1978120950965786e-07,4.278551094752679e-07,2.131842146641175e-07,8.305924281288374e-08,-1.1318129350445523e-08
7.096655314678883e-07,2.1863070270427295e-07,-8.080168800024656e-08,-4.913700823000442e-07,-6.194582256459635e-07,-5.98059886343095e-08,-2.0933282672126678e-07,-1.8333226546670824e-07,-4.140601769927566e-07,-2.490260930233516e-07,-1.2053922308721055e-07,5.33775732921256e-07,4.19048217370634e-07,2.2480167588990966e-07,4.450174551954021e-07,2.182050653496808e-07,1.0573806832726987e-07,1.5374136152742665e-08
7.352729080665946e-07,2.440569366569499e-07,-5.878886499809489e-08,-4.776139240580147e-07,-6.0181327302556e-07,-5.028645469332096e-08,-2.0596875097528978e-07,-1.7435258407623683e-07,-4.0832577536060043e-07,-2.4628182502890607e-07,-9.185542881385268e-08,5.403350568441051e-07,4.408282084780463e-07,2.246257184730171e-07,4.537024509714214e-07,2.2281825640980884e-07,1.1513594152056689e-07,3.716949015729743e-08
7.52963213154458e-07,2.6372578714789694e-07,-4.379885223460835e-08,-4.582572687842534e-07,-5.82455549864216e-07,-4.501302193730141e-08,-2.0812472009424788e-07,-1.6871004444735474e-07,-4.0917790021083594e-07,-2.457191763176978e-07,-6.245481547090699e-08,5.418231029713189e-07,4.446230100240857e-07,2.203293717037562e-07,4.557043550137669e-07,2.2668378886654805e-07,1.1208201228355122e-07,4.8928336196533284e-08
7.634188413029685e-07,2.789046133903775e-07,-3.7399838406341026e-08,-4.353122439655802e-07,-5.642895552119834e-07,-4.3564276293952806e-08,-2.1307004468248842e-07,-1.6549983969211445e-07,-4.134158656108958e-07,-2.4724843372732456e-07,-3.451766674652771e-08,5.328023188579372e-07,4.4618556756748223e-07,2.1005446846345226e-07,4.5696717471585715e-07,2.2996512495658896e-07,1.0263083154148415e-07,4.77250804755057e-08
7.673584238636039e-07,2.9512537074881753e-07,-3.906539247298029e-08,-4.104270996959357e-07,-5.490206505953123e-07,-4.507396241054974e-08,-2.19292329568444e-07,-1.6271418025141002e-07,-4.1780044348416135e-07,-2.50324097449807e-07,-1.0018424604182613e-08,5.143687320624708e-07,4.518437179155769e-07,1.9785127479159658e-07,4.6015248460337763e-07,2.3525758803257815e-07,9.443851538474205e-08,3.421082191820649e-08
7.654875947444208e-07,3.189835628216728e-07,-4.76400189148944e-08,-3.850025584179869e-07,-5.406087221124697e-07,-4.857605504947886e-08,-2.2387454189735386e-07,-1.5903593201521347e-07,-4.2066656123109096e-07,-2.5378525102453646e-07,9.082455030048101e-09,4.905584983645253e-07,4.6115163375411964e-07,1.800669094415204e-07,4.6659633814783956e-07,2.438564769395168e-07,9.218501344477808e-08,1.2295899229701e-08
7.580581983149049e-07,3.531740902684904e-07,-6.16328743673664e-08,-3.6015427298372023e-07,-5.466254338127652e-07,-5.317169791026942e-08,-2.274500672829454e-07,-1.5479405187037916e-07,-4.220287194334879e-07,-2.5752614001837345e-07,2.2271236556919263e-08,4.694413819134365e-07,4.762909121216003e-07,1.6616713511126833e-07,4.7632545940642485e-07,2.557790373486841e-07,9.784210604757471e-08,-1.2159670885894943e-08
7.457712213093342e-07,3.9450575922893175e-07,-7.894714979288614e-08,-3.3623176356197553e-07,-5.666868988740392e-07,-5.75475001367118e-08,-2.3050057448340183e-07,-1.508155713250241e-07,-4.2270678486562224e-07,-2.6068469303854673e-07,3.116780212488692e-08,4.5717974149809935e-07,4.950698356014441e-07,1.576476813990258e-07,4.862641330260746e-07,2.690700705087287e-07,1.1177142323157099e-07,-3.261256857335701e-08
7.307640212123736e-07,4.360089482178881e-07,-9.532115428939388e-08,-3.1199230099771826e-07,-5.862525787012074e-07,-5.97180006854759e-08,-2.267532934303033e-07,-1.462916153679776e-07,-4.216858272874299e-07,-2.620598230437319e-07,3.9365282610497514e-08,4.570503960131024e-07,5.169133872759764e-07,1.5259048525135933e-07,4.954782750666247e-07,2.8130473978728504e-07,1.3378745838114603e-07,-4.2119194794959834e-08
7.165140522933264e-07,4.7073446224342474e-07,-1.0464999537811038e-07,-2.8536234039395823e-07,-5.975461882098783e-07,-5.733152651437839e-08,-2.1596314176481135e-07,-1.3768015218537125e-07,-4.168155732192332e-07,-2.5974209060854725e-07,5.0909342302396075e-08,4.6626124398120244e-07,5.439038788767145e-07,1.5117891119485247e-07,5.061233931661763e-07,2.942392076525431e-07,1.6329975587219557e-07,-3.7161168130533824e-08
7.066931291695414e-07,4.945110665806893e-07,-1.020693655313886e-07,-2.55365252778413e-07,-6.052769934485769e-07,-4.893852669505532e-08,-1.98052824009359e-07,-1.2286620357204598e-07,-4.0674166545829925e-07,-2.5472449028890375e-07,6.734761346793253e-08,4.845166245320775e-07,5.726912562863323e-07,1.4671304426080462e-07,5.198827670493401e-07,3.1563491393312247e-07,1.977871574860023e-07,-1.622893884648246e-08
7.036720197165379e-07,5.067755791481817e-07,-8.646735101322338e-08,-2.2334671049223112e-07,-6.025368229428175e-07,-3.664143294170846e-08,-1.7783534770204475e-07,-1.0243926817897862e-07,-3.9149140248498494e-07,-2.509776726995021e-07,8.760324269963345e-08,5.04276590487539e-07,6.004759470034359e-07,1.4204222915468342e-07,5.315269820318012e-07,3.4275440959100784e-07,2.3208252825265776e-07,1.9282608939094386e-08
7.078671305167983e-07,5.101763353448676e-07,-6.042413325969333e-08,-1.925804436336836e-07,-5.898957992080683e-07,-2.4694476992621316e-08,-1.6019960974792605e-07,-7.868782089723286e-08,-3.7393757671169674e-07,-2.507202384489154e-07,1.0847679857576243e-07,5.303556376419246e-07,6.259988807973982e-07,1.3837481298087707e-07,5.389962970279508e-07,3.6995266232662556e-07,2.59444401011579e-07,6.518910442873279e-08
7.175762812284288e-07,5.099368679645312e-07,-2.8454997163584867e-08,-1.672603092231246e-07,-5.773828437290929e-07,-1.6719418433030096e-08,-1.518519719964354e-07,-5.514627347827892e-08,-3.5698877926417845e-07,-2.4988916633300774e-07,1.2693698648754716e-07,5.574138725726603e-07,6.467022498833473e-07,1.45516767842e-07,5.406482075460559e-07,3.9415281520202584e-07,2.778450842670459e-07,1.165535665625686e-07
7.304391994705312e-07,5.126897356424293e-07,5.927813792923379e-09,-1.497727139120266e-07,-5.52462426155479e-07,-1.3842110159557397e-08,-1.4122277682882891e-07,-3.2545347021135794e-08,-3.4138433676216825e-07,-2.4917146161262733e-07,1.4262569747251607e-07,5.791254333578177e-07,6.62199029208815e-07,1.7033571859849745e-07,5.365992630806936e-07,4.062566156754576e-07,2.880728902029154e-07,1.6772622209245713e-07
7.456017408225573e-07,5.244090878301695e-07,4.132586011022861e-08,-1.3885171725808118e-07,-5.259816523813573e-07,-1.537802398455372e-08,-1.1056067313080061e-07,-1.504553488955889e-08,-3.260283520017364e-07,-2.481317317346783e-07,1.5621004537030528e-07,6.286344764850229e-07,6.725849476480664e-07,2.01826224803122e-07,5.289007168589296e-07,4.1577803060767174e-07,2.9184071883642683e-07,2.1339142407288693e-07
7.627902917528679e-07,5.477726333929398e-07,7.635334116475237e-08,-1.306310804050048e-07,-5.121199422262033e-07,-1.944500586549802e-08,-5.672362963898477e-08,1.5220063656116608e-10,-3.0986107641724e-07,-2.519437127910887e-07,1.6904336831404628e-07,6.518552867655313e-07,6.770831657210062e-07,2.277497564737638e-07,5.197138231435239e-07,4.344888360637312e-07,2.9094943433273975e-07,2.422943577575726e-07
7.818594255932607e-07,5.809740759186139e-07,1.0754814184986618e-07,-1.211759373515325e-07,-4.783596541495246e-07,-2.7751103475457564e-08,1.0651397665810968e-08,1.1802523738354021e-08,-2.943917811676698e-07,-2.597906365431632e-07,1.8161722497784072e-07,6.720244282695974e-07,6.740323436459141e-07,2.424773405802782e-07,5.308757713369249e-07,4.7243005990557045e-07,2.817780730683692e-07,2.586293396378148e-07
8.019534794715375e-07,6.198970109244027e-07,1.2902844530517248e-07,-1.0920011161626703e-07,-4.336238687124809e-07,-3.883253856191211e-08,6.295938765974117e-08,1.4611656982350426e-08,-2.830937087265101e-07,-2.5985001661157684e-07,1.9318890230739772e-07,6.926645549895312e-07,6.628360285664832e-07,2.5300764871186645e-07,5.596898511088502e-07,5.562332245031528e-07,2.6479917769313423e-07,2.5899353598155684e-07
8.200332315395444e-07,6.605978379847763e-07,1.3555644911100935e-07,-9.690765809125291e-08,-4.104284104705174e-07,-4.84599550008961e-08,1.0967203114993117e-07,8.107968017206388e-09,-2.7972259505448344e-07,-2.5225865545116697e-07,2.007756192314309e-07,7.121344202923053e-07,6.412702607032428e-07,2.6561647054115757e-07,6.031843960197452e-07,6.094289621963201e-07,2.3833038203801674e-07,2.3927994667322954e-07
8.331484338432805e-07,7.000577528502787e-07,1.2522732341206156e-07,-8.848714369890256e-08,-4.070626797351589e-07,-5.311409144115564e-08,1.5330414305314417e-07,-1.1974298717926777e-08,-2.851706880663478e-07,-2.3040274608610694e-07,2.039471935219607e-07,7.249039216483667e-07,6.125832245209094e-07,2.7817091037759593e-07,6.491599462823305e-07,6.380005760104439e-07,2.0931182242955246e-07,2.1649383762810775e-07
8.388320754411575e-07,7.355796624866369e-07,9.973339372236064e-08,-8.765087014757937e-08,-4.1422441044187207e-07,-2.5071554362988847e-08,2.0175143179659028e-07,-3.0180844880107215e-08,-2.948564088649329e-07,-1.7466272098496374e-07,2.0397124231434345e-07,7.455494611012421e-07,5.834057325797063e-07,2.8224846228983377e-07,6.907694626409759e-07,6.682118534691623e-07,1.9203843409176803e-07,1.8039931051150698e-07
8.376814616187443e-07,7.64537385719117e-07,6.419791016879931e-08,-9.646295121617802e-08,-3.8706807407171345e-07,-2.3971804112211644e-10,2.797914502213256e-07,-4.650191540261237e-08,-3.050492252881135e-07,-1.407264974742077e-07,1.9182549552570206e-07,7.650292205286791e-07,5.615059424044646e-07,2.8171184150984084e-07,7.24585151133666e-07,6.956866148159442e-07,2.2066865238319962e-07,1.407768793224227e-07
8.317835682889112e-07,7.849999171231253e-07,2.3585774634751123e-08,-1.1507204841975147e-07,-3.2749642062787765e-07,1.5212454724506147e-08,3.349514762772793e-07,-5.673459042417362e-08,-3.136708754582261e-07,-1.2090659353513473e-07,1.903735808848492e-07,7.843564591442983e-07,5.529789223777157e-07,2.8624357267571576e-07,7.465351336596225e-07,7.465222328135252e-07,2.775175217533291e-07,1.1113789427662412e-07
8.243047042624407e-07,7.962232502702196e-07,-1.794192874413387e-08,-1.4193979455894977e-07,-2.82426912767289e-07,5.660745043593303e-08,3.6092928401207164e-07,-5.966218376951429e-08,-3.2132414817288274e-07,-8.542072116600504e-08,2.0808389831259703e-07,7.835250479505675e-07,5.588563054449802e-07,2.893153734982934e-07,7.50522141521101e-07,7.830868004184965e-07,3.0927998714326777e-07,8.513917382257388e-08
8.169274410758663e-07,7.985305103874864e-07,-5.8451059292625135e-08,-1.7422701885764537e-07,-2.5228953896262775e-07,9.94636392338036e-08,3.8230162916001364e-07,-8.656558762698731e-08,-3.2737945564145513e-07,-4.168229073061532e-08,2.2223123711608818e-07,7.828095655563841e-07,5.757230671177007e-07,2.824129572274274e-07,7.2413410846146e-07,7.933295834501464e-07,3.3092939198658965e-07,7.769432823006746e-08
8.103656485142648e-07,7.927472995184587e-07,-9.25184964102516e-08,-2.0830925745630302e-07,-2.084791191350954e-07,1.3130369314992755e-07,4.0391360620747487e-07,-1.273106653129827e-07,-3.3232296117954276e-07,9.266870338340962e-09,2.3097348188669234e-07,7.89170610003627e-07,6.000664570029309e-07,2.7236196386155544e-07,6.892514196441395e-07,7.946158936403452e-07,3.41184331685041e-07,8.681912484429408e-08
8.052261641389479e-07,7.808546270299903e-07,-1.224691245024435e-07,-2.4061734164031306e-07,-1.8676053029685135e-07,1.5960363002596035e-07,4.3834472056247516e-07,-1.6866871306977096e-07,-3.3582917511237817e-07,3.271555657285232e-08,2.3920570544280095e-07,8.182837495826171e-07,6.26973767264603e-07,2.523300679618015e-07,6.671801988455599e-07,8.023192289574722e-07,3.6156570374466436e-07,1.05021442018185e-07
8.014831152120873e-07,7.653727525085022e-07,-1.4907667000864842e-07,-2.6909469836908786e-07,-1.6074154810153368e-07,1.6745271395360147e-07,4.4379139358492697e-07,-2.0890636363426298e-07,-3.4027643411369354e-07,3.795171193248243e-08,2.417974391176425e-07,8.25382086194043e-07,6.528101311432027e-07,2.5610647361755526e-07,6.596649657366051e-07,7.994335484158995e-07,4.2723285867319075e-07,1.3064377254186506e-07
7.998966042817584e-07,7.480855972159316e-07,-1.6760784522735986e-07,-2.932052882143221e-07,-9.76189717632052e-08,1.6284806591962216e-07,4.624195590252648e-07,-2.2658835492701203e-07,-3.6555761806421694e-07,5.17138971888284e-08,2.32561660264686e-07,8.252976520338262e-07,6.757158007684567e-07,2.5558782569785173e-07,6.540614745409695e-07,7.811796504550882e-07,4.969031683004711e-07,1.5610515890079031e-07
8.031080297220407e-07,7.295794783526044e-07,-2.0903557944862462e-07,-3.142661141812422e-07,-5.682435992169183e-08,1.483248283759172e-07,4.866916979377849e-07,-2.2586314543117591e-07,-4.1494970974066885e-07,5.7919864013973094e-08,2.1260918568769647e-07,8.121806905568782e-07,6.939255188589385e-07,2.5498254416452216e-07,6.607788171365159e-07,7.523860528580066e-07,5.58647517256361e-07,1.7782008078907664e-07
8.133217154012776e-07,7.103108022124484e-07,-2.5296451207005526e-07,-3.3431181973449373e-07,-3.34701510181075e-08,1.25656100219754e-07,4.821625444423102e-07,-2.2113826935411586e-07,-4.773281069330378e-07,6.201935227102783e-08,1.8869549113574014e-07,8.087105040915512e-07,7.083351423263769e-07,2.580774529591916e-07,6.625773136839662e-07,7.399042815701419e-07,6.152534331574723e-07,1.9326945061807676e-07
8.340646153096736e-07,6.93303888284769e-07,-2.6573247263267035e-07,-3.5410440619912254e-07,-2.7190032290470088e-08,1.1141621227137435e-07,4.606282599121078e-07,-2.1464178942833347e-07,-5.402493960640329e-07,5.35853160920792e-08,1.6856408381621472e-07,8.537273742226139e-07,7.219202563690959e-07,2.3687847706711259e-07,6.315814136767057e-07,7.343721852425133e-07,6.376642661488176e-07,1.9813668284497511e-07
8.68694387725829e-07,6.85125734148866e-07,-2.52323904952065e-07,-3.7266188315360747e-07,-3.207672931353561e-08,9.954034866957733e-08,4.3535390637729804e-07,-2.088854774184781e-07,-5.846037185468969e-07,2.9868424799704335e-08,1.6026132949586567e-07,8.916299523149952e-07,7.345973321485908e-07,2.360128941041095e-07,6.083432274689307e-07,7.396151901535156e-07,6.383240682455446e-07,1.9198233654490572e-07
9.100156216003524e-07,6.937366095442909e-07,-2.1707932585791967e-07,-3.886197352793724e-07,-4.966707992588687e-08,9.407245981867007e-08,4.1132028578254566e-07,-2.0141629389302582e-07,-6.043629969564603e-07,1.2166681122129194e-08,1.6806625419565938e-07,9.374166790891225e-07,7.489095783377838e-07,2.405144560316285e-07,5.92291471743736e-07,7.366317396994994e-07,6.374543621437611e-07,1.690868999733125e-07
9.576692160052951e-07,7.233905379941339e-07,-2.0124713986452294e-07,-4.01624187079658e-07,-5.3418705302804206e-08,1.0103943132446634e-07,3.918354327525846e-07,-1.910616430762134e-07,-6.039971615673066e-07,1.3534077340628961e-08,1.9072573374882376e-07,9.738073063370824e-07,7.67805926054708e-07,2.515575734122809e-07,5.801024634815471e-07,7.253275848439239e-07,6.35970678927775e-07,1.3165210358497503e-07
1.0087017622937189e-06,7.69710132035407e-07,-1.9829466789096288e-07,-4.105472423165797e-07,-4.914555240584235e-08,1.2216722657901845e-07,3.845948839468873e-07,-1.700912462948768e-07,-6.020367475915612e-07,1.8662909061274046e-08,2.2229248409053054e-07,9.915867578633266e-07,7.886397142452976e-07,2.5807875388734877e-07,5.770605387682223e-07,7.23782900912842e-07,6.169604057215216e-07,9.4377563662563e-08
1.0626501991073749e-06,8.203830022417883e-07,-1.7431006738657314e-07,-4.175936365783304e-07,-3.36386587655958e-08,1.445371611674251e-07,3.6692475510139243e-07,-1.3965052962206856e-07,-6.062033476024908e-07,6.0796162173410265e-09,2.559279024244248e-07,9.976069556331399e-07,8.07275307065815e-07,2.604719273613249e-07,5.784095878941858e-07,7.036547557019516e-07,6.000198607670654e-07,6.28394798507375e-08
1.0975327883490746e-06,8.58402563296319e-07,-1.3702629082522306e-07,-4.242178093364791e-07,-1.7577034660730383e-08,1.6068242468593812e-07,3.4584365588717305e-07,-1.0840196621326358e-07,-5.936756712869639e-07,1.6856606193120154e-08,2.843782571740087e-07,9.938461289700333e-07,8.1966561348422e-07,2.551597867676987e-07,5.713973369621206e-07,6.675506206942142e-07,5.815164767458169e-07,6.109545008363816e-08
1.104781840821545e-06,8.70083546287215e-07,-1.0337850516821634e-07,-4.2975900058139826e-07,-4.4937166207589505e-09,1.7198625163593937e-07,3.2398971090423164e-07,-7.635512721600717e-08,-5.724730894601795e-07,3.393852414215351e-08,2.911307988835087e-07,9.86632235204591e-07,8.147154567228455e-07,2.5169527041406767e-07,5.556232643498605e-07,6.270405968819456e-07,5.40383941146862e-07,7.211600147757356e-08
1.0728945379235909e-06,8.490753574627372e-07,-8.931359823599616e-08,-4.338364843511524e-07,-1.0856753801170328e-09,1.7781505926976492e-07,2.973295738717967e-07,-5.4130969522253215e-08,-5.671967064306305e-07,3.329241668959401e-08,2.835789752849062e-07,9.775258945401274e-07,7.700289119816006e-07,2.594135309981605e-07,5.377668685801363e-07,5.771212182970432e-07,5.116241829528332e-07,5.9110370036223453e-08
9.953911226425806e-07,7.96924103697056e-07,-9.362052505618985e-08,-4.358877970111435e-07,-1.5811287232811112e-08,1.794034603398968e-07,2.713663488706663e-07,-4.531326355783269e-08,-5.600224761983525e-07,2.4814363994070263e-08,2.521544255789289e-07,9.728245721198867e-07,7.480216774277176e-07,2.700426923884614e-07,5.243880774277776e-07,5.372737899328861e-07,5.148641302730611e-07,3.910135567186863e-08
9.719974055721538e-07,7.215121958777024e-07,-1.3167502459334354e-07,-4.372314298103167e-07,-3.7577160126354635e-08,1.6758167225540383e-07,2.426741697613658e-07,-4.7818177490741394e-08,-5.65002030687512e-07,8.595919625227871e-10,2.07863451823072e-07,9.621446894977831e-07,7.537455679495268e-07,2.720482622469257e-07,5.12465660236165e-07,5.062901745745023e-07,5.330823222955088e-07,3.4851110007384646e-08
9.965203010579357e-07,6.332867440154902e-07,-1.4428217575351555e-07,-4.402986390468551e-07,-7.585026588437871e-08,1.4572564887308287e-07,2.1908480289451463e-07,-6.26436899456037e-08,-5.780091006258244e-07,-2.162652212215115e-08,2.0042642229444855e-07,9.360154023560745e-07,7.462508638128807e-07,2.68012542244704e-07,4.994367331347902e-07,4.7454458380716566e-07,5.281606934368458e-07,4.311945026666051e-08
1.0125415325596096e-06,5.429695077272904e-07,-1.3748904845391065e-07,-4.4732567354269157e-07,-1.232514899577329e-07,1.1817536753236131e-07,1.9495080136955566e-07,-8.47084476156899e-08,-5.904358193907902e-07,-4.3822125334072796e-08,1.941864746863449e-07,9.010517529124141e-07,7.345369035976957e-07,2.4408591996420416e-07,4.806161976304284e-07,4.440221700866389e-07,4.84154009911544e-07,4.6207327254910773e-08
9.933913213147916e-07,4.592647301123741e-07,-1.7041590274820826e-07,-4.580441850185878e-07,-1.678852731780512e-07,9.215547991789724e-08,1.777868623356165e-07,-1.064883696759148e-07,-6.02387636805963e-07,-8.360574938553105e-08,1.6103032843082576e-07,8.455427744195801e-07,6.988449293485581e-07,2.2969106152881437e-07,4.7061752743155857e-07,4.263784578142592e-07,4.200457888287656e-07,3.4576821957407724e-08
9.205920784222601e-07,3.877506841683271e-07,-2.0932826407350344e-07,-4.7027333267702973e-07,-2.0523864040785912e-07,6.699038853381498e-08,1.74548651784215e-07,-1.224634766987282e-07,-6.039871573836671e-07,-1.2192483359052922e-07,1.1475811121528355e-07,7.722453924169458e-07,6.565784170171023e-07,2.3043419624882872e-07,4.768682381755603e-07,4.155122126438739e-07,3.5227222075804644e-07,1.821981560504178e-08
8.510691049478153e-07,3.301362848219532e-07,-2.2952283081256384e-07,-4.818695387299372e-07,-2.2736690556552425e-07,4.711842021131344e-08,1.8237685798328686e-07,-1.3019761565452368e-07,-5.940570925914697e-07,-1.5436551828063106e-07,6.68686408789457e-08,7.032655898269158e-07,6.230449596747642e-07,2.370726164798793e-07,4.908713211944126e-07,4.0463960648808273e-07,2.866241269241547e-07,4.899615568699275e-09
8.064491506391715e-07,2.850858643470881e-07,-2.3675211369573295e-07,-4.918660177384198e-07,-2.3113110408990213e-07,3.614313844015606e-08,1.9997562351560214e-07,-1.2890646193216644e-07,-5.750865170655818e-07,-1.6539749826101226e-07,2.4113056396187078e-08,6.597572830296808e-07,5.972410417045365e-07,2.3761540772203515e-07,5.103554845560211e-07,3.943123544276033e-07,2.3697088588556936e-07,-2.2547769867997744e-08
7.999861198499642e-07,2.500216104919724e-07,-2.2864640019850401e-07,-5.006889259956653e-07,-2.1797031888756107e-07,3.325306043475702e-08,2.2078803935054592e-07,-1.2127123493316686e-07,-5.510781762133288e-07,-1.8084157321499571e-07,1.6194136464336205e-09,6.5990353463932e-07,5.789514466206487e-07,2.2525839676318518e-07,5.21892507268453e-07,3.811136372655091e-07,1.9904893600740657e-07,-6.13168564717045e-08
7.912517961372189e-07,2.2297081771409445e-07,-2.0829663757824833e-07,-5.093588229644781e-07,-1.9433714781128112e-07,3.723496034086214e-08,2.406656876901882e-07,-1.0978451257953264e-07,-5.263695910049593e-07,-2.100693291033572e-07,2.3140064437512014e-08,6.798742257920625e-07,5.680746085874298e-07,2.4420823686152647e-07,5.315389399813366e-07,3.657881578127975e-07,1.6258590550392173e-07,-9.694350951754211e-08
7.706130348445688e-07,2.0313460790129428e-07,-1.944984746251782e-07,-5.177732778842445e-07,-1.626298094428743e-07,4.60243094320055e-08,2.546082825916795e-07,-9.456863497403487e-08,-5.03030708383095e-07,-2.2194930773099306e-07,1.501005628040273e-08,6.996623590918695e-07,5.537682225907851e-07,2.6834933707520993e-07,5.176902620342074e-07,3.6041397889348525e-07,1.2895852616719526e-07,-1.2337070795930668e-07
7.448774747364958e-07,1.915146757147666e-07,-1.8337989509729167e-07,-5.254123460218134e-07,-1.2692608851482428e-07,5.8238973317801274e-08,2.6379115757113136e-07,-7.548897545992138e-08,-4.819847177979628e-07,-2.18818325636112e-07,-1.3306923557783067e-08,6.89073580542452e-07,5.381607450786716e-07,2.9103593627715285e-07,5.176260890910749e-07,3.62180979661821e-07,9.811638302351005e-08,-1.4139844367980058e-07
7.419362729388371e-07,1.8939657060221405e-07,-1.5695304175331638e-07,-5.315421212096766e-07,-9.369112536764567e-08,7.183736079013357e-08,2.6823015428471545e-07,-5.429042041095122e-08,-4.6412798299152216e-07,-2.1128818044169766e-07,-1.8352839556859418e-08,6.891944648543224e-07,5.352514905617996e-07,3.1971935714116376e-07,5.250834201606733e-07,3.6135931901548516e-07,8.259449330349718e-08,-1.5104258702924225e-07
7.51034483733548e-07,1.9715412244422353e-07,-1.253149901203225e-07,-5.359830334258152e-07,-6.565333453077287e-08,8.367048860219008e-08,2.6562933792953613e-07,-3.4572851956817937e-08,-4.507859717338424e-07,-2.0294670546252098e-07,-1.700883441234963e-08,6.849604817092287e-07,5.43039816395904e-07,3.418148624346522e-07,5.287592328918766e-07,3.575731731196207e-07,7.697876923367116e-08,-1.5141268143259644e-07
7.992610993340668e-07,2.1403497920715236e-07,-8.173545303351912e-08,-5.389133147478358e-07,-5.370100248121148e-08,9.095846719630919e-08,2.5417731404295464e-07,-2.0349431097346288e-08,-4.4259051242432666e-07,-1.9094773482767566e-07,1.3912984491008967e-08,7.224886124912172e-07,5.601452642245002e-07,3.53723927324405e-07,5.259101640670333e-07,3.5472351686264163e-07,7.356537285125454e-08,-1.4488977304983544e-07
8.475656691454416e-07,2.4003360494447764e-07,-3.142834483690512e-08,-5.396311576088904e-07,-6.449402410978756e-08,9.241371842755419e-08,2.3355324573636435e-07,-1.4015459129454779e-08,-4.380790063810514e-07,-1.7892034783241324e-07,3.964533026538965e-08,7.642220428160334e-07,5.81733978197066e-07,3.492321383020441e-07,5.182268456404925e-07,3.4979046103502867e-07,7.310046889078169e-08,-1.3473375614526918e-07
8.873336086103699e-07,2.7457262181208604e-07,7.020968768237109e-09,-5.369957177572011e-07,-9.407344214761681e-08,8.88463647856548e-08,2.077056382941197e-07,-1.3645017570732728e-08,-4.339421324136309e-07,-1.6861855006899384e-07,5.4820742950245635e-08,8.016846444006908e-07,6.035032499634416e-07,3.266653223109103e-07,4.972693349598986e-07,3.4783094265621293e-07,7.490219350435141e-08,-1.2486809220959583e-07
9.290961293697048e-07,3.150977722490412e-07,4.194452440676144e-08,-5.29615905346513e-07,-1.3331710995167357e-07,8.260565701549128e-08,1.8199423738748202e-07,-1.5112766599065067e-08,-4.269275348564688e-07,-1.659759674212055e-07,7.575006313724367e-08,8.48273115039767e-07,6.190067815518045e-07,2.82953471547209e-07,4.6969499714889525e-07,3.4913494938672725e-07,8.226119468667831e-08,-1.1660553718047115e-07
9.540951992088308e-07,3.5618946747600307e-07,7.574911813870218e-08,-5.155597079315527e-07,-1.7439735666888886e-07,7.474834987471402e-08,1.6074945639150069e-07,-1.5709296962305463e-08,-4.1617954023336354e-07,-1.6735793370175526e-07,8.183941660764019e-08,8.539302384715153e-07,6.277029864754444e-07,2.389530762863004e-07,4.4348662563351674e-07,3.4348681852354075e-07,9.408324208703839e-08,-1.1274711353199114e-07
9.708563859878219e-07,3.8832425118936537e-07,1.059892637469615e-07,-4.945370183567338e-07,-2.1271838721258154e-07,6.527224946763912e-08,1.4413503144745817e-07,-1.5731982026234846e-08,-4.04664487178854e-07,-1.702998012817176e-07,8.057710481772242e-08,8.472573932767298e-07,6.297454636356028e-07,1.9572670397244618e-07,4.093812803841029e-07,3.3197889879758296e-07,1.0459154786670113e-07,-1.1544468353626784e-07
9.792101873175718e-07,4.033063161568146e-07,1.3384576182997648e-07,-4.67809875468992e-07,-2.4814027561357234e-07,5.3113292437261655e-08,1.2947263534637672e-07,-1.9243161414322895e-08,-3.9680483430863394e-07,-1.7589071710925698e-07,7.782859615084151e-08,8.376745074931951e-07,6.20583528246525e-07,1.4495136010630694e-07,3.72368611054005e-07,3.1393183670036405e-07,1.0628238205820893e-07,-1.2336934273040812e-07
9.760060824389362e-07,3.9644270142164265e-07,1.5449753822951536e-07,-4.376224250126359e-07,-2.8490938321204005e-07,3.930926801652346e-08,1.1143869971604051e-07,-2.812683787130411e-08,-3.952610609209456e-07,-1.8280881724861796e-07,7.00430015477936e-08,8.178699507967606e-07,6.049979153653026e-07,9.999716465927812e-08,3.3324125985976274e-07,2.9092241326201676e-07,9.851819493481792e-08,-1.3306106645120376e-07
9.646249394913054e-07,3.6791821596997704e-07,1.663052932849568e-07,-4.059215934419459e-07,-3.271559058905652e-07,2.338290615578579e-08,8.884942256989e-08,-4.0194578488100514e-08,-3.9867519546384785e-07,-1.913724314938167e-07,6.214970869116951e-08,7.92688449776498e-07,5.861552319846036e-07,6.156208526353049e-08,2.952531463250738e-07,2.651177494047921e-07,8.51218881376309e-08,-1.398248694585116e-07
9.460972040077918e-07,3.228436799271183e-07,1.7201037183022462e-07,-3.7251092325430105e-07,-3.7593584599131064e-07,6.869013174386575e-09,6.48966161744244e-08,-5.267910887616907e-08,-4.022520668700943e-07,-2.0056274703552054e-07,5.445825517985279e-08,7.645090175982296e-07,5.663727041001156e-07,4.007958560311999e-08,2.530365876475537e-07,2.416390468441597e-07,7.072841467006408e-08,-1.4097484605427372e-07
9.225379881425901e-07,2.6821242207991966e-07,1.7459088549729433e-07,-3.3768690005238156e-07,-4.262173660343493e-07,-7.796928175275737e-09,4.4294781273870845e-08,-6.231003638898731e-08,-4.010094269638593e-07,-2.0918838906442952e-07,4.7130265457673747e-08,7.3601168619576e-07,5.489700389491704e-07,5.008445530837244e-08,2.1478274659348605e-07,2.2398541766299324e-07,5.904358055162663e-08,-1.3765868888570994e-07
8.964499047416472e-07,2.1342904361314798e-07,1.751413289276643e-07,-3.0347326261106156e-07,-4.760723839694094e-07,-2.1210742908111204e-08,2.514004235434499e-08,-6.817153435968242e-08,-3.9350848948964815e-07,-2.175343414666003e-07,4.079514635405923e-08,7.10477094020008e-07,5.327675718061401e-07,6.116822734517827e-08,1.9596868021055966e-07,2.1239677625820052e-07,4.852454250070129e-08,-1.342379374560349e-07
8.64419606247574e-07,1.6660731610876807e-07,1.7152446375371345e-07,-2.699393695627091e-07,-5.139840194372569e-07,-3.340873654490434e-08,6.267745730462263e-09,-7.283383938556757e-08,-3.818676358474464e-07,-2.2621625706463991e-07,3.4099615808291236e-08,6.940840901759226e-07,5.171062856915407e-07,4.8522113599922165e-08,1.8854922453019074e-07,2.0681228873786392e-07,3.7154214830734814e-08,-1.3594779517448476e-07
8.31507736334324e-07,1.345484171924152e-07,1.6119174144814797e-07,-2.458275603081625e-07,-5.383105661744507e-07,-4.6255210517216774e-08,-1.3352279756507908e-08,-7.854791796176532e-08,-3.686194208287074e-07,-2.3559927617029093e-07,2.528249140044803e-08,6.808007931367682e-07,4.994656579272795e-07,4.5235140381400976e-08,1.8928949434884246e-07,2.0285884033715623e-07,2.5113405638137716e-08,-1.4547275497057548e-07
7.99304593460663e-07,1.1819575697431828e-07,1.4389722032596982e-07,-2.3325189029536563e-07,-5.566684447213831e-07,-6.000738202922131e-08,-3.427126292827876e-08,-8.522761880626185e-08,-3.5615502193022373e-07,-2.447393662396854e-07,1.4057346779312996e-08,6.714588632948709e-07,4.769012270029233e-07,5.5304121169740445e-08,1.9477279406690985e-07,1.9845995432804324e-07,1.5890961813453422e-08,-1.604768716043689e-07
7.705451734122064e-07,1.2292561419125483e-07,1.2373912015830416e-07,-2.2899859066291937e-07,-5.631869458715228e-07,-7.470508323288691e-08,-5.203979392264292e-08,-9.084077920773523e-08,-3.439332854121737e-07,-2.500688738039207e-07,2.0371409737252123e-09,6.68757950866212e-07,4.554153649600165e-07,6.179149340100098e-08,1.9666658432076828e-07,1.9381458329313234e-07,1.3236573372371209e-08,-1.7396818102188853e-07
7.484557119234478e-07,1.4516447545231442e-07,1.1036069053775306e-07,-2.2869989387247907e-07,-5.571388759440031e-07,-8.794724758380426e-08,-6.226343152786316e-08,-9.276066092629493e-08,-3.28995479869501e-07,-2.48126980248365e-07,-8.795943393881279e-09,6.744639076317618e-07,4.4521652681299976e-07,3.218602157003902e-08,1.9724156177151356e-07,1.8932834780231459e-07,1.859631649471176e-08,-1.77579935035011e-07
7.442184023229505e-07,1.718956250155753e-07,1.0951795595222341e-07,-2.2678956704526118e-07,-5.376623306671106e-07,-9.711021116354173e-08,-6.481028031632116e-08,-9.114576117754718e-08,-3.103798018902364e-07,-2.37429919943734e-07,-1.826519468493866e-08,6.833090614757692e-07,4.448385183887369e-07,4.2960239469878295e-09,1.949758819755795e-07,1.8347060698150355e-07,2.8784537277528907e-08,-1.6586943593799095e-07
7.403612421423202e-07,2.0150383311847787e-07,1.2245039675397547e-07,-2.190321923499407e-07,-5.078067008933068e-07,-1.0175560026289622e-07,-6.186848135160632e-08,-8.886185160778773e-08,-2.8951747410336217e-07,-2.2327439877594749e-07,-2.8488322906252806e-08,6.774988645662912e-07,4.4417645876964787e-07,-2.7737483842234103e-08,1.8264139768048452e-07,1.716625674703328e-07,3.6611208864631985e-08,-1.38866923609664e-07
7.30061658601985e-07,2.284306835667673e-07,1.4655591588352764e-07,-2.094619364072449e-07,-4.7271178350819463e-07,-1.0215955471855394e-07,-5.8120026736303144e-08,-8.980419257195239e-08,-2.688072994878315e-07,-2.097701696830534e-07,-4.114954824191058e-08,6.511474646499184e-07,4.3971140852616637e-07,-6.041452032407894e-08,1.609002327745393e-07,1.5036541363969972e-07,3.633815940102461e-08,-1.012920462641194e-07
6.942937514774268e-07,2.4496509444877303e-07,1.6879798566419133e-07,-1.9784182146672695e-07,-4.5494040068458573e-07,-1.0119004115407305e-07,-6.140615519298766e-08,-9.88658238402326e-08,-2.526569171686426e-07,-1.9936199730661494e-07,-5.6812856434501685e-08,6.018454240661248e-07,4.183384237525534e-07,-9.199904912472001e-08,1.3497167465820551e-07,1.1897646453311564e-07,2.7953107492755094e-08,-5.961123840249185e-08
6.274273883342675e-07,2.4096896472373795e-07,1.9223624922414337e-07,-1.8163043690015423e-07,-4.5141256943450667e-07,-9.982596221497014e-08,-7.375915214540463e-08,-1.1727401260501786e-07,-2.3928387689768355e-07,-1.9228745875794403e-07,-7.187801560660899e-08,5.317788261945544e-07,3.5786636917315855e-07,-1.2321717467376895e-07,9.653932362112687e-08,8.234579927054827e-08,1.6229748914809975e-08,-1.9736630768288636e-08
5.846783714561837e-07,2.2393224515299587e-07,2.1475153783882626e-07,-1.5869390896619403e-07,-4.432015823808092e-07,-9.820627460476841e-08,-9.362908490540825e-08,-1.4053547941822585e-07,-2.2166491499723616e-07,-1.865902887343198e-07,-8.023075149877664e-08,4.5155373095299594e-07,3.2731112796601624e-07,-1.3603820903053406e-07,5.625049066908797e-08,4.834114472665061e-08,8.269905431491348e-09,1.320051054279254e-08
5.697749735484117e-07,1.882017581922171e-07,2.2953715555554e-07,-1.2774352200857493e-07,-4.3062474978641275e-07,-9.865765143582012e-08,-1.1659342076636458e-07,-1.6366165302450388e-07,-1.9469885435721522e-07,-1.842708352659771e-07,-7.886323382124631e-08,3.720968342375826e-07,3.0385489254172794e-07,-1.3677616903090523e-07,2.9158509133873156e-08,2.4157279614857394e-08,8.676123771741552e-09,3.403091025283826e-08
5.666648491795984e-07,1.300107232625519e-07,2.3791293428540452e-07,-8.968035821141587e-08,-4.105820604111538e-07,-9.79911266804518e-08,-1.373775177941651e-07,-1.8243399718218095e-07,-1.631732992294018e-07,-1.8368928574811207e-07,-6.860611217848312e-08,3.057824684652445e-07,2.7468774274085646e-07,-1.3571902633840654e-07,3.236136812766612e-08,1.3091806250673438e-08,1.4929456654484254e-08,3.756238899250999e-08
5.53004038575131e-07,9.782782114599498e-08,2.3765716498005381e-07,-5.2526897761367716e-08,-3.9009663906321493e-07,-9.807714401136375e-08,-1.5992649504570407e-07,-1.9388133522442158e-07,-1.336328549888655e-07,-1.9464572386884157e-07,-5.61142171878731e-08,2.5152929604454066e-07,2.4213645777564436e-07,-1.3581353301975326e-07,6.630718094804508e-08,1.294297042232435e-08,2.1020826635271684e-08,2.0279478563016705e-08
5.092687218574729e-07,6.850944740650019e-08,2.298480026466267e-07,-4.0251894450716576e-08,-3.9456317258430326e-07,-1.0004965436745185e-07,-1.873192742707019e-07,-1.9863779027968286e-07,-1.2322860029949891e-07,-2.2195044870574524e-07,-5.078604911400225e-08,2.1086809608628927e-07,1.9586223526626525e-07,-1.467045399237461e-07,8.67299607012862e-08,1.8270801715935975e-08,2.0224988641347983e-08,-1.7265778114467066e-08
4.859993709054288e-07,3.8375085762415324e-08,2.1688047908437032e-07,-4.1586343597387945e-08,-4.3676816874853777e-07,-1.06751581354104e-07,-2.1416808073695936e-07,-1.9705195138274173e-07,-1.4569119884888814e-07,-2.39561764950933e-07,-5.998889737233332e-08,1.8089996122498752e-07,1.682212574157062e-07,-1.5620468735890172e-07,9.424964364711482e-08,2.3367576653673032e-08,1.8320334560690536e-08,-6.93653683140016e-08
4.860039487962249e-07,2.728462849662121e-08,2.1536418060838802e-07,-2.799159546967166e-08,-4.724302059329403e-07,-1.1788111250666515e-07,-2.434866628897671e-07,-1.8378434181236576e-07,-1.580877575896707e-07,-2.5249536949570406e-07,-8.576589257792147e-08,1.5921514149576647e-07,1.6730780611844924e-07,-1.5870574637673937e-07,1.0504633207315168e-07,2.464022744020406e-08,1.9376085943965854e-08,-1.2633752930936437e-07
4.841572031863705e-07,2.943652263033758e-09,2.1460269185917537e-07,-1.833721509088944e-08,-5.120785070080642e-07,-1.3035707649957097e-07,-2.741187064203428e-07,-1.610741105399021e-07,-1.6950613337628225e-07,-2.6671847486848625e-07,-1.2506510368135708e-07,1.4897631871840465e-07,1.8047027403349967e-07,-1.603528077921779e-07,1.0756077187208581e-07,2.0676488126734462e-08,2.4977252790535307e-08,-1.7726297724184187e-07
5.124284873765141e-07,2.5008722808635944e-09,2.1541452344282972e-07,-1.5272891369745627e-08,-5.716555851593453e-07,-1.4033683541573182e-07,-3.022302163462236e-07,-1.335412108171656e-07,-1.8184124699827895e-07,-2.76213127664771e-07,-1.724185018788779e-07,1.5840810591306261e-07,1.9567283554312887e-07,-1.71616379782112e-07,1.1056154743243357e-07,1.1226404243493551e-08,2.9649452851308136e-08,-2.1307254831251113e-07
5.350662402478486e-07,2.315822074440734e-08,2.21838080474723e-07,-1.431077660775135e-08,-6.070160557982251e-07,-1.46291035710911e-07,-3.218960596609981e-07,-1.089598497525407e-07,-1.869608404009949e-07,-2.852380485183213e-07,-2.221891034367623e-07,1.8611893385565643e-07,2.005297273515765e-07,-1.8295870550494702e-07,1.0388187010375899e-07,-2.386189755165914e-09,3.332261322872358e-08,-2.2894730675181672e-07
5.413436194937415e-07,7.616419214302392e-08,2.2381921621739245e-07,-1.0875718156081895e-08,-6.116239412175367e-07,-1.46416840110847e-07,-3.391942157759306e-07,-1.0557493486842258e-07,-2.0503816755540608e-07,-3.08065954833126e-07,-2.7011960971495457e-07,2.236854377111498e-07,2.018936022170614e-07,-1.7995751662178052e-07,1.0837702661444667e-07,-1.9060466246152112e-08,3.224051486478418e-08,-2.2503954445479755e-07
5.744738957934932e-07,1.3946004336993164e-07,2.2683520799168668e-07,4.167092373950067e-09,-6.368019005234981e-07,-1.397528213384284e-07,-3.469496057776815e-07,-1.1364316800334417e-07,-2.3658672615348842e-07,-3.346071610689581e-07,-3.1200155995772626e-07,2.701544969636621e-07,2.1221578033971643e-07,-1.6021855867984225e-07,1.2458880642129485e-07,-3.6370360268910524e-08,3.280303510306774e-08,-2.053030742382017e-07
6.066228326759135e-07,1.8258243968658415e-07,2.3803566889582847e-07,9.609160690217782e-09,-6.562924104700264e-07,-1.3848707091370696e-07,-3.5566264558679564e-07,-1.0836064414963735e-07,-2.8785854271522963e-07,-3.4937727949669805e-07,-3.423722254344292e-07,3.0102929145843177e-07,2.2523292088910027e-07,-1.3448160561422506e-07,1.5148520399919705e-07,-4.815900363354132e-08,4.7933296356522624e-08,-1.7555455778952266e-07
6.127357386774766e-07,2.3160396291665626e-07,2.7319380090335857e-07,2.1545698621192665e-08,-6.64625833802125e-07,-1.5445667807560133e-07,-3.922845523562463e-07,-1.0645740488937464e-07,-3.380751640556191e-07,-3.5029814180409366e-07,-3.562530398605878e-07,3.191862973700707e-07,2.3670686948662962e-07,-1.184397335024505e-07,1.398717802846588e-07,-4.892263346909035e-08,7.066635559584993e-08,-1.4207454226601585e-07
6.296955678501575e-07,2.4242384713714596e-07,2.9869816521692366e-07,3.796312467738366e-08,-6.864540380245459e-07,-1.6679211019577743e-07,-4.181156587710358e-07,-8.899579979455978e-08,-3.795465498254449e-07,-3.5471481537092216e-07,-3.501334334377392e-07,3.0789347837335106e-07,2.3535953687485843e-07,-1.5231128554366047e-07,1.4001196268346344e-07,-3.664022555309744e-08,9.988906053270718e-08,-1.1083250992042068e-07
6.789085224524299e-07,2.5353686762879385e-07,3.230583739726961e-07,5.977856809046552e-08,-6.993189323801649e-07,-1.7653532735415735e-07,-4.40548715755311e-07,-4.2990327374371554e-08,-4.26541720145714e-07,-3.689326162744576e-07,-3.285329847597687e-07,2.446958201964133e-07,2.4067556916510184e-07,-1.7863641374745925e-07,1.4800770499427358e-07,-1.2789753129776818e-08,1.3419900566562164e-07,-8.641799176789827e-08
7.107571277946743e-07,2.7688085172370304e-07,3.5193956453656543e-07,7.407850235172142e-08,-7.123570309789766e-07,-1.835684733624174e-07,-4.647467902339312e-07,5.046039510079257e-09,-4.5859171555358675e-07,-3.803075527593857e-07,-2.993205651853016e-07,2.067063018875364e-07,2.6063773927534605e-07,-1.941060592954051e-07,1.480119281056998e-07,1.5427296827166635e-08,1.5456668089238374e-07,-7.041166515458731e-08
7.252452083979784e-07,2.9942111930331673e-07,3.772965819171383e-07,9.06817801621297e-08,-7.236479933472909e-07,-1.8777800857191705e-07,-4.724759321157157e-07,4.2116545274722904e-08,-4.805753405944184e-07,-4.0356259632743423e-07,-2.7145008254738566e-07,1.7133978577251232e-07,2.8552770403435187e-07,-1.9731553271797624e-07,1.4528890930867399e-07,2.8904050591871036e-08,1.4954326219306917e-07,-5.962047312226194e-08
7.459949713859948e-07,3.436431335473286e-07,3.994048948266933e-07,1.13666506899937e-07,-7.322689628127692e-07,-1.9243010302451778e-07,-4.745479723141277e-07,7.945057819202882e-08,-5.104787534102162e-07,-4.1643063299262996e-07,-2.641913460675821e-07,1.273056926294179e-07,3.221595181307346e-07,-1.8951335345155138e-07,1.4688882271018705e-07,2.492442810815709e-08,1.8992914843279605e-07,-4.972540035257283e-08
7.619884149885104e-07,3.710706811768811e-07,4.180096604136755e-07,1.2866776259019915e-07,-7.428468166813657e-07,-1.9977455942781312e-07,-4.852515666482635e-07,1.0069834616353851e-07,-5.426969047998438e-07,-4.1484316574372825e-07,-2.6876432212520496e-07,4.091530617184995e-08,3.401541177475793e-07,-1.8462212534033347e-07,1.4026169372305436e-07,-1.023547975269443e-08,2.4225320799299957e-07,-3.839962077353914e-08
7.803785729961323e-07,3.904440942684232e-07,4.465565408862026e-07,1.445959170092096e-07,-7.610024326698296e-07,-2.097194148450711e-07,-5.032363207984386e-07,1.2882564696401895e-07,-5.79658312226971e-07,-4.3479960101081e-07,-2.6878362873977023e-07,-4.60371397143945e-08,3.6450810430414664e-07,-1.8584333793706078e-07,1.4158744954436147e-07,-6.133888863777947e-08,2.3144337272432775e-07,-2.496959178467578e-08
8.117185745031939e-07,4.089059244142865e-07,4.853578268420088e-07,1.6260826253828027e-07,-7.728386308119786e-07,-2.1103195002231613e-07,-5.283038738182434e-07,1.4296042962999354e-07,-6.126355872121535e-07,-4.58210171110092e-07,-2.9144546125849977e-07,-7.865219351034076e-08,3.861387261270724e-07,-1.8403603467113452e-07,1.4734385281404521e-07,-7.749208427620112e-08,2.3262139712286527e-07,-2.2584296089628097e-08
8.362154474466306e-07,4.3079044302819945e-07,5.006680933331859e-07,1.7707601429924646e-07,-7.815971294183131e-07,-2.108326391132593e-07,-5.460442497720126e-07,1.5767089378047695e-07,-6.452113906476591e-07,-4.754330272858538e-07,-3.423998815290146e-07,-1.2039577721433274e-07,3.9866884221337913e-07,-1.8893079003931566e-07,1.5751006719483472e-07,-8.571530677509459e-08,2.4354834680325947e-07,-4.02753743269853e-08
8.330815077253154e-07,4.4142284678806097e-07,5.088928926718803e-07,1.8492103079296566e-07,-7.860075596141739e-07,-2.1384171886997198e-07,-5.614531489795574e-07,1.6048798484259298e-07,-6.796024001899226e-07,-5.009380561130144e-07,-3.946710122834428e-07,-1.7192578891189441e-07,4.1891378462989743e-07,-1.8049898246472422e-07,1.7083530860894693e-07,-1.300205511400154e-07,2.484858842507069e-07,-3.091409268020771e-08
8.32941053553948e-07,4.628642170271907e-07,5.137920315710327e-07,1.9523814781687632e-07,-7.909545249565701e-07,-2.151436169911286e-07,-5.685958977384114e-07,1.6005303383664912e-07,-7.111657688905784e-07,-5.294103032268659e-07,-4.254309141728518e-07,-2.2826287692805063e-07,4.2939505149084745e-07,-1.7315219945013564e-07,1.8008218090614216e-07,-1.8494676539162017e-07,2.46652051615376e-07,-2.5904655896316152e-08
8.267668279414938e-07,4.841083895506268e-07,4.968267195336465e-07,2.0908890012601278e-07,-7.92452570745665e-07,-2.1616896922272628e-07,-5.654405675075731e-07,1.6251229787166973e-07,-7.377193057663294e-07,-5.664527552586637e-07,-4.2245373966183336e-07,-1.9851325545817523e-07,3.99500743123442e-07,-1.6411575718783657e-07,1.70790485457645e-07,-2.0847757140954456e-07,2.154453946695471e-07,-3.568740855553073e-08
8.190044695358636e-07,4.903388912627978e-07,5.132432328536144e-07,2.1537134664477004e-07,-7.994433088774283e-07,-2.1654940450914015e-07,-5.674981966223529e-07,1.6384404319001574e-07,-7.557969358219262e-07,-6.110481685389272e-07,-4.4625563837069463e-07,-1.490329904764406e-07,3.921926937388304e-07,-1.4439347342979832e-07,1.8714849538373025e-07,-2.277979049066406e-07,1.9369728124175655e-07,-5.355353287091262e-08
8.20655830355275e-07,5.119833478300204e-07,5.336720696286853e-07,2.2012573735922998e-07,-8.078839660127592e-07,-2.1655001645462082e-07,-5.745325498471293e-07,1.676900876491564e-07,-7.655534479375678e-07,-6.644253579973035e-07,-4.5011633988451555e-07,-1.2594939593465638e-07,4.037363878840011e-07,-1.1453844726823434e-07,1.8218225290540167e-07,-2.4881115497175116e-07,1.8894550187242715e-07,-6.543410280144851e-08
8.207268293501273e-07,5.010491680898481e-07,5.280887541308261e-07,2.3124421195927567e-07,-8.102212385185531e-07,-2.1493338096269128e-07,-5.896293946098949e-07,1.5532280993774903e-07,-7.698766869824598e-07,-7.084143505121149e-07,-4.19893470486645e-07,-9.806160280627381e-08,4.021905227958191e-07,-1.0762534376849726e-07,1.9854390940606656e-07,-2.49218929229242e-07,1.8900122062991415e-07,-7.816023256217475e-08
8.230161009347791e-07,4.946093800571874e-07,5.059994149976254e-07,2.3138104292347782e-07,-8.054340762728952e-07,-2.137300424313592e-07,-6.142290485694951e-07,1.1685411995483289e-07,-7.694391091843029e-07,-7.405827072188375e-07,-3.7319457149243317e-07,-8.912219629328706e-08,3.93054235529293e-07,-7.747739989429567e-08,2.1041121374553595e-07,-2.4300394476152815e-07,1.5469450573706134e-07,-9.466270502230227e-08
8.032530378206462e-07,5.248116492445363e-07,4.951573023577402e-07,2.3412240121433855e-07,-8.044388642796351e-07,-2.1496976619177495e-07,-6.308396534202977e-07,6.782953531725751e-08,-7.619083473154532e-07,-7.829055786251078e-07,-3.410377827186715e-07,-9.275123744440605e-08,3.88856681040688e-07,-6.490370157135333e-08,2.2088440146859838e-07,-2.2879745497032215e-07,1.4442615190891957e-07,-1.1007763891909549e-07
7.925290426332879e-07,5.254697573946098e-07,4.653237464573948e-07,2.3783121203429918e-07,-7.982683468790654e-07,-2.1786415818312838e-07,-6.439431669427661e-07,3.871852802213157e-08,-7.50184336456777e-07,-8.215007013559474e-07,-3.234350748222722e-07,-9.327678987383076e-08,3.864049588330232e-07,-5.762813624637186e-08,2.2110100036071445e-07,-2.1377028700608304e-07,1.3462702287856682e-07,-1.1928103593478407e-07
7.660603342476993e-07,5.232851240853843e-07,4.4013660648077335e-07,2.452392233238392e-07,-8.139534183167602e-07,-2.213320782983284e-07,-6.479776988638338e-07,2.1749370451965224e-08,-7.34964970445685e-07,-8.517415779504461e-07,-3.1957811923860083e-07,-9.620635995701137e-08,3.743362737448676e-07,-4.6280758212670834e-08,2.2393777927203757e-07,-1.9959616913678098e-07,1.3066455716352299e-07,-1.1908642498968558e-07
7.423015702759487e-07,5.294699497895768e-07,4.208756028984076e-07,2.490602894440404e-07,-8.276119089798917e-07,-2.2448516419922167e-07,-6.522736444533946e-07,-7.777589565658154e-09,-7.178701097457095e-07,-8.834034532137543e-07,-3.3581670541993004e-07,-9.024012536972644e-08,3.7308419065675495e-07,-3.5677646946960094e-08,2.3833493845507405e-07,-1.7280802824302785e-07,1.5465974486099995e-07,-1.0945414675900631e-07
7.04253222862434e-07,5.372090035568569e-07,3.9560876133558046e-07,2.5646629587330047e-07,-8.311312135427276e-07,-2.2657981700023064e-07,-6.747314102759452e-07,-5.330962537732992e-08,-7.010010759033145e-07,-9.107027147808152e-07,-3.680746849092579e-07,-7.309110653802182e-08,3.793682593057666e-07,-3.248613977773586e-08,2.3027095925267328e-07,-1.5384523839243158e-07,1.86098595831672e-07,-9.236562634173228e-08
6.495336979211005e-07,5.35841409500193e-07,3.997074193802899e-07,2.56676232994194e-07,-8.148755219120146e-07,-2.2261123503556632e-07,-6.84853212252741e-07,-1.0410248257561153e-07,-6.825360738076543e-07,-9.369234592985634e-07,-4.126962016091447e-07,-4.5136476701397485e-08,3.8660126106970674e-07,-5.069257142249446e-08,2.1306030362760606e-07,-1.4165883491374899e-07,2.184145103664865e-07,-7.01798758199739e-08
5.942865471016322e-07,5.125092830114669e-07,3.730726057988981e-07,2.5525225639023077e-07,-8.131394117633138e-07,-2.1784805311044853e-07,-6.672789655993514e-07,-1.414301717001373e-07,-6.597402274352455e-07,-9.461215522595959e-07,-4.284102162811354e-07,-4.267222662468418e-09,4.0312375485116254e-07,-8.477552986211089e-08,1.9513796353597334e-07,-1.2861252638713296e-07,2.5455781820126725e-07,-4.5364935432459016e-08
5.178226255431917e-07,4.87059468907494e-07,3.398555497170358e-07,2.570569591216841e-07,-8.246004478647267e-07,-2.269933569414525e-07,-6.522048381165931e-07,-1.7972947543050398e-07,-6.340956493142776e-07,-9.792817622093423e-07,-4.1911835924935606e-07,4.402713091653729e-08,4.044927928958314e-07,-1.0083318915527526e-07,1.8216331069204072e-07,-1.1791286786537846e-07,2.7764074733250654e-07,-2.1311772062777204e-08
4.5400146866840677e-07,4.366867322991425e-07,2.8826712213801975e-07,2.5314346626225525e-07,-8.261343073771278e-07,-2.3356821526790083e-07,-6.46847471747582e-07,-2.0827226439046343e-07,-6.0671341918236e-07,-1.0013108658532933e-06,-4.07939592738269e-07,7.149382549220655e-08,4.0565517649700803e-07,-1.4074727056614328e-07,1.5830170396745858e-07,-1.0558436688755075e-07,2.894098863300628e-07,-2.1175329074660837e-09
3.9899827207982893e-07,3.691869419629555e-07,2.3207527511742133e-07,2.4554350690305293e-07,-8.477704488124099e-07,-2.282820409059843e-07,-6.539861100029208e-07,-2.3483657703475784e-07,-5.774225524474762e-07,-1.0132299602891154e-06,-3.92716733702387e-07,7.263756276394859e-08,4.071747533662653e-07,-1.5833467613635744e-07,1.1957370874844462e-07,-9.461428674337952e-08,2.9015103951669957e-07,9.582849661810918e-09
3.7697528046836757e-07,3.2361128632423503e-07,1.9375813607420964e-07,2.2349250568853842e-07,-8.645026850628281e-07,-2.2378445843305378e-07,-6.933223379575723e-07,-2.625684532255863e-07,-5.473834667574912e-07,-1.0227391612627312e-06,-3.6307997957661373e-07,2.6600027579882784e-08,3.7437516111168803e-07,-1.6111360419849e-07,1.10029647768513e-07,-8.915129258856201e-08,2.7951309736754433e-07,1.4711057545073987e-08
3.691606338031315e-07,2.970328440135609e-07,1.7043839313474688e-07,2.055698345614471e-07,-8.664113705521528e-07,-2.2021598023503192e-07,-7.122077765170113e-07,-2.804187616838045e-07,-5.185703161351232e-07,-1.0257647093722854e-06,-3.316947126613466e-07,-6.630641299626617e-08,3.453901082688566e-07,-1.9289707784134157e-07,1.0941939129483873e-07,-8.99429529881671e-08,2.650111856366267e-07,1.7317030779558367e-08
3.519118479819611e-07,2.7667104832805834e-07,1.5844813507247193e-07,1.9466832268640724e-07,-8.270371679344087e-07,-2.1554680988964893e-07,-7.108458279733278e-07,-2.9954356907455936e-07,-4.913113517731023e-07,-1.018115938694381e-06,-2.966010896573476e-07,-9.078419533977903e-08,3.097916136459404e-07,-2.488076933753197e-07,8.53521726752754e-08,-9.661165277442306e-08,2.470154864751012e-07,2.1800201239265127e-08
3.3633412947961016e-07,2.937993847180282e-07,1.5209808406636538e-07,1.9361455562528134e-07,-7.932849567747131e-07,-2.1302005468240195e-07,-7.080249742375114e-07,-3.14847750292181e-07,-4.6848180788742373e-07,-9.971666750660316e-07,-2.687101654608651e-07,-7.667386718479848e-08,2.739136750000724e-07,-2.9016647990261e-07,5.599167022709047e-08,-1.0862123571995334e-07,2.2956298719673807e-07,3.016031189272945e-08
3.006459702679243e-07,3.190321206796989e-07,1.4826259910654323e-07,1.9186697587101409e-07,-7.678310134292618e-07,-2.0168886755662883e-07,-7.062457371747483e-07,-3.223870765840922e-07,-4.544028664998992e-07,-9.641998089596296e-07,-2.6278873329467963e-07,-1.257721569870663e-07,2.401680386438784e-07,-3.4120292370858533e-07,1.6394955377966514e-08,-1.2526450951574756e-07,2.1618566577752418e-07,4.1508178279341805e-08
2.5074740300770445e-07,3.192311669104483e-07,1.3829322539017144e-07,1.813406472196984e-07,-7.491402225637474e-07,-1.9023055545623638e-07,-6.951972249291972e-07,-3.26170775147111e-07,-4.501864565505471e-07,-9.392840335146272e-07,-2.739414103238364e-07,-2.078597363583377e-07,2.0178554424030943e-07,-3.938848275624884e-07,-3.523779938862377e-08,-1.4460786673800076e-07,2.0811986342641827e-07,5.3808836085151616e-08
2.0243512615084207e-07,3.0447233413752874e-07,1.1646331580777014e-07,1.7541509762045192e-07,-7.472534431509122e-07,-1.817586032231362e-07,-6.807353805647024e-07,-3.232916889142401e-07,-4.5468613731863047e-07,-9.240514181222958e-07,-2.8349381886778693e-07,-2.647563195353782e-07,1.7109188704984076e-07,-4.4544431275483184e-07,-8.102045545034124e-08,-1.627534302392003e-07,2.071989724213988e-07,6.554405623630661e-08
1.7804856164333656e-07,2.755387817293136e-07,8.924885372764376e-08,1.6107439439450075e-07,-7.573522067794697e-07,-1.7571588331777117e-07,-6.698040520130718e-07,-3.1304451930903556e-07,-4.6336025657514163e-07,-9.16558663679156e-07,-2.984083382340067e-07,-2.922803025468495e-07,1.5549981401704193e-07,-4.803977173560972e-07,-1.1670574387971027e-07,-1.7498101032583378e-07,2.1221862922630993e-07,7.542666415794572e-08
1.8965096580148504e-07,2.418770517573474e-07,5.996768649138102e-08,1.4349588678795244e-07,-7.707637076680212e-07,-1.700258408134259e-07,-6.570761663667442e-07,-2.951890005062973e-07,-4.712393893408095e-07,-9.169053548043999e-07,-3.168942689121154e-07,-2.986679718543825e-07,1.6231555329295344e-07,-5.122585176587206e-07,-1.2412097207878895e-07,-1.7836018895192735e-07,2.1836507354822348e-07,8.094524079824557e-08
1.7664419516399786e-07,2.166143199185071e-07,3.305430434618659e-08,1.2648055587453858e-07,-7.882234542913147e-07,-1.577305737970968e-07,-6.509643661726878e-07,-2.7322880618049253e-07,-4.7543064031855745e-07,-9.196247598475543e-07,-3.239468509268443e-07,-3.0566863463765565e-07,1.6981796096432555e-07,-5.406364201182908e-07,-1.397571275344853e-07,-1.7302467768371925e-07,2.184257904223489e-07,7.813228471583574e-08
1.505822521127513e-07,1.9994096073834784e-07,7.580011718780942e-09,1.0508619047980267e-07,-8.065955958700397e-07,-1.4034336819978504e-07,-6.508164585977471e-07,-2.52274800606408e-07,-4.7626483048129175e-07,-9.286951331482178e-07,-3.298384676404444e-07,-3.08931430113724e-07,1.6941424483176719e-07,-5.639866527090853e-07,-1.3208053943884438e-07,-1.621221230047573e-07,2.062924776157684e-07,6.36369854816375e-08
1.6725921474948094e-07,1.8196717328575201e-07,-1.0369256830168264e-08,8.039571541175786e-08,-8.151970777009439e-07,-1.2032934218830052e-07,-6.557614233401827e-07,-2.362791164901175e-07,-4.753841254637547e-07,-9.419137914332025e-07,-3.342525493206628e-07,-2.8702250218084604e-07,1.6706097546634776e-07,-5.900633782970508e-07,-1.0971944876094112e-07,-1.494713088381994e-07,1.8112986320536633e-07,3.7206706058412294e-08
1.896560110796365e-07,1.601708678618123e-07,-2.8479223102880345e-08,5.658148447352208e-08,-8.191496074728143e-07,-1.0524707317107629e-07,-6.635309309679205e-07,-2.2696566651741632e-07,-4.733457055000823e-07,-9.52689011462159e-07,-3.3314550004761016e-07,-2.6890355903813223e-07,1.574945489446835e-07,-5.854685109265421e-07,-8.721646863444833e-08,-1.3720769784593763e-07,1.4806964188709593e-07,1.81516572396484e-09
1.88418551272427e-07,1.3033588554245408e-07,-4.512807129677623e-08,3.3404365041712237e-08,-8.193069480534055e-07,-9.461118284570948e-08,-6.682288935907907e-07,-2.225749302858196e-07,-4.6988184167549155e-07,-9.568414566349718e-07,-3.275890746992877e-07,-2.1675016790809288e-07,1.458942730394624e-07,-5.824559711990384e-07,-8.165363131063926e-08,-1.2658798636490936e-07,1.1442085531430787e-07,-3.8630602202209405e-08
1.626472334962756e-07,8.602122138571091e-08,-5.702414989302856e-08,4.430031663734118e-09,-8.131280124668864e-07,-8.805206106702763e-08,-6.636599869032753e-07,-2.2054935741658644e-07,-4.643018643288991e-07,-9.51307850921988e-07,-3.143581719690492e-07,-1.6021663836051977e-07,1.3444681312907882e-07,-5.867992903192201e-07,-8.695699524694858e-08,-1.1905157665823309e-07,8.436217421838761e-08,-8.157528423988563e-08
1.2509274201714332e-07,3.2825612802452466e-08,-6.719310119299654e-08,-1.9995175740862305e-08,-8.033334610019318e-07,-8.257071706196817e-08,-6.475762792616313e-07,-2.1976117168547067e-07,-4.5761348471114966e-07,-9.357533579059588e-07,-2.96128281718808e-07,-1.1108984000975702e-07,1.207585078831259e-07,-5.937837719277352e-07,-9.870169407216536e-08,-1.1703680006296904e-07,5.656125384907998e-08,-1.261702822852288e-07
7.340392006871061e-08,-2.7859144879423968e-08,-7.605899537612653e-08,-3.555111495521776e-08,-7.927494749439374e-07,-7.714597491161035e-08,-6.220800039104674e-07,-2.204450901567879e-07,-4.5203751294515366e-07,-9.135537754327209e-07,-2.7894018757947496e-07,-5.55671899746156e-08,1.0477738007501471e-07,-5.740479980097278e-07,-1.1542216412295702e-07,-1.2359409107652247e-07,2.654469548579262e-08,-1.7174183725682867e-07
1.5759003443463213e-08,-9.082978493237325e-08,-8.660929291813282e-08,-4.644450488341479e-08,-7.782990843995709e-07,-7.545517560045079e-08,-5.910603504326997e-07,-2.2290332151263474e-07,-4.4774406227721634e-07,-8.894318649170193e-07,-2.679161194621776e-07,-3.009862419511091e-08,8.299988775375165e-08,-5.826167370413691e-07,-1.3671922651043107e-07,-1.4064000194387298e-07,-8.69342457042477e-09,-2.160709799922215e-07
-3.6600428366696194e-08,-1.468742119767729e-07,-9.6277736546771e-08,-5.206465661168236e-08,-7.600728997254563e-07,-7.538023754557804e-08,-5.576339076652593e-07,-2.253718209920644e-07,-4.4478826819726515e-07,-8.672325170461028e-07,-2.659194224508876e-07,-2.453518171543142e-08,5.632719390130395e-08,-6.192152589576662e-07,-1.619773193847448e-07,-1.6723305631042822e-07,-4.80876192353553e-08,-2.5543584014353695e-07
-7.956138704975192e-08,-1.909053526191197e-07,-1.0336949918482702e-07,-5.578896149873021e-08,-7.395981368694135e-07,-7.490332875993805e-08,-5.176491842935497e-07,-2.253092059560087e-07,-4.4159611654998286e-07,-8.495227444075709e-07,-2.730648212798215e-07,-2.4666698676263013e-08,2.7813808746151408e-08,-6.32904968660597e-07,-1.8403348943902786e-07,-1.9931940459957822e-07,-8.781022647547606e-08,-2.865418423353595e-07
-1.0803333175245447e-07,-2.1917820642455635e-07,-1.0200112413388588e-07,-6.393404938087296e-08,-7.168572837856105e-07,-7.546810096510332e-08,-4.746197278162402e-07,-2.2063240888050558e-07,-4.3641152693545605e-07,-8.372654031538713e-07,-2.882855234471478e-07,-3.174531431378396e-08,-4.3260788356700534e-10,-6.447427247075637e-07,-2.006289976230509e-07,-2.32259817558722e-07,-1.248086110714345e-07,-3.083480638577641e-07
-1.218695205142386e-07,-2.3638128014649688e-07,-9.037892350381335e-08,-7.430084226738099e-08,-6.921092635678567e-07,-7.60660121750111e-08,-4.414781121959068e-07,-2.1181119446528055e-07,-4.3134355605370637e-07,-8.297617484564485e-07,-3.114763175827583e-07,-3.69555119658312e-08,-2.7803122650496283e-08,-6.638887707985737e-07,-2.1209554510575576e-07,-2.6380702531115e-07,-1.5920980542208373e-07,-3.2193605783955346e-07
-1.2587973464547775e-07,-2.519687201088403e-07,-7.200910916130987e-08,-8.354221542224815e-08,-6.737413651922526e-07,-7.428315229271624e-08,-4.1586541876064885e-07,-2.0238976757630113e-07,-4.2908653375614283e-07,-8.268207040506983e-07,-3.4181371261681895e-07,-4.283032908345188e-08,-5.578849231482884e-08,-6.571667109062782e-07,-2.2034301633411406e-07,-2.9292229216879467e-07,-1.9347289308411036e-07,-3.287073459135617e-07
-1.2790968751815394e-07,-2.7633207777530954e-07,-5.0978185002570035e-08,-9.144861315943144e-08,-6.690179451639837e-07,-7.739955548509213e-08,-4.003805072276987e-07,-1.9663720598309846e-07,-4.3345453032008393e-07,-8.282351708604017e-07,-3.7755658090816727e-07,-5.081969970245874e-08,-8.59562732909944e-08,-6.459519139950207e-07,-2.2945133726765507e-07,-3.2114316377348403e-07,-2.2927374065916456e-07,-3.288794330756119e-07
-1.3121964423249912e-07,-3.138892046081462e-07,-3.239365836929792e-08,-9.850803533657129e-08,-6.866789549479324e-07,-8.648459460794803e-08,-3.955970069784296e-07,-1.9693517704440265e-07,-4.4542037543758517e-07,-8.326407722606856e-07,-4.156243854452188e-07,-6.199566333923777e-08,-1.1800610966967955e-07,-6.442231189833954e-07,-2.4058567207302047e-07,-3.5000327812190955e-07,-2.652636567619539e-07,-3.220140595814306e-07
-1.3771424121383142e-07,-3.619837417043906e-07,-1.8698928434734582e-08,-1.0416903978135168e-07,-7.199384701064422e-07,-9.991262653894424e-08,-3.9459388106702935e-07,-2.028668376723253e-07,-4.6238894198176934e-07,-8.38017749755698e-07,-4.5149428989182963e-07,-7.534910663723227e-08,-1.4524900627592787e-07,-6.55490839355145e-07,-2.5294845957989715e-07,-3.83480183003567e-07,-2.979118731074508e-07,-3.095826686405072e-07
-1.4608995348542955e-07,-4.1374839501458613e-07,-9.501680411411081e-09,-1.0919404449216642e-07,-7.575083884829134e-07,-1.1697931325228985e-07,-3.961701595245574e-07,-2.1195098589694202e-07,-4.800541234412314e-07,-8.417266163754744e-07,-4.815685566425356e-07,-9.05356920876573e-08,-1.675276831253715e-07,-6.777266630221447e-07,-2.645083288535627e-07,-4.21859935164053e-07,-3.246187897709823e-07,-2.9672186815536477e-07
-1.5143492936156894e-07,-4.604937472520501e-07,-5.302843372449616e-09,-1.1462272092200841e-07,-7.877147744738957e-07,-1.3353534083469618e-07,-4.0095841190668987e-07,-2.2284025829058864e-07,-4.954782121830574e-07,-8.431282228240255e-07,-5.032528339772573e-07,-1.0692086934609746e-07,-1.8474228285729567e-07,-7.094224502467233e-07,-2.757683463198066e-07,-4.6140198329326846e-07,-3.4598343929181123e-07,-2.944007157148436e-07
-1.504676072637326e-07,-4.945203670098323e-07,-3.2266548591612897e-09,-1.2029944470409072e-07,-8.005841534257402e-07,-1.4505412131788147e-07,-4.057056062327064e-07,-2.3601264899311776e-07,-5.099371647574407e-07,-8.41527289077457e-07,-5.151728920571317e-07,-1.2514579382671257e-07,-1.9776621956684186e-07,-7.410407419445086e-07,-2.877146598716449e-07,-5.081841844987305e-07,-3.647661193999303e-07,-3.1904658540998093e-07
-1.4155437672326781e-07,-5.102045770323317e-07,4.683051328200031e-11,-1.2768086847851087e-07,-7.964307527797129e-07,-1.5171190043536835e-07,-4.007127640915584e-07,-2.5232227640185056e-07,-5.150285599497762e-07,-8.366408374148589e-07,-5.172965404617227e-07,-1.463598689762858e-07,-2.104392180057435e-07,-7.696909464191396e-07,-3.003457330349919e-07,-5.475338830637541e-07,-3.824544478977182e-07,-3.5270783249218184e-07
-1.2556290663664185e-07,-5.062786122244951e-07,7.491500816350196e-09,-1.362383189784356e-07,-7.765409223881876e-07,-1.5415059483523491e-07,-3.900461451869613e-07,-2.711354887073783e-07,-5.206489068188824e-07,-8.283590454607793e-07,-5.110782104057613e-07,-1.6999041234800909e-07,-2.2471000561416138e-07,-7.829784444162064e-07,-3.1212849566623426e-07,-5.708973750979344e-07,-3.9687343106991456e-07,-4.145207163030667e-07
-1.0803180316548559e-07,-4.88190803250027e-07,2.268830322108702e-08,-1.4340208096914379e-07,-7.466743301591654e-07,-1.5037371534802796e-07,-3.603768087479338e-07,-2.890297068330606e-07,-5.176328890836849e-07,-8.16607456489875e-07,-4.988815351712803e-07,-1.9581699466367122e-07,-2.417527067229452e-07,-7.655803617968478e-07,-3.1936329098622936e-07,-5.719678444606248e-07,-4.032061735145984e-07,-4.768651027039217e-07
-9.216226557638544e-08,-4.636170845678371e-07,4.7259500340701586e-08,-1.468704663206017e-07,-7.091875935726712e-07,-1.4080716870242732e-07,-2.9190845216719813e-07,-3.014635468614485e-07,-4.911239731601347e-07,-8.003401066838616e-07,-4.833921666311906e-07,-2.2303014166224214e-07,-2.6105335400590383e-07,-7.603380106071822e-07,-3.189185569190225e-07,-5.616575890985146e-07,-3.9773053979574674e-07,-5.269203999715201e-07
-8.179268270250248e-08,-4.4155057937702354e-07,8.069220643416481e-08,-1.4337202153989456e-07,-6.634902100714846e-07,-1.2396646055692494e-07,-2.583031459719776e-07,-3.0536855299672763e-07,-4.6662171581091833e-07,-7.798073787868625e-07,-4.6745671921307483e-07,-2.5212903428490754e-07,-2.8179957097056415e-07,-7.490709321473895e-07,-3.1020890983087265e-07,-5.650862880319647e-07,-3.812440122944941e-07,-5.531341120170121e-07
-7.969033972913555e-08,-4.2914502614315954e-07,1.2039255926589656e-07,-1.3226292568909062e-07,-6.085443493136307e-07,-1.0066500076775758e-07,-2.2484307173388466e-07,-3.007803496183397e-07,-4.3284981604966867e-07,-7.554428745210681e-07,-4.5325108058444856e-07,-2.8299883999121924e-07,-3.0049589327672635e-07,-7.154290282942003e-07,-2.957036484631628e-07,-5.503927641226462e-07,-3.5899367384831027e-07,-5.514820307963194e-07
-8.457824474057601e-08,-4.280739395669316e-07,1.635808147091915e-07,-1.1523726546401833e-07,-5.428847113263885e-07,-7.355188384779681e-08,-1.769291694290984e-07,-2.893686917081882e-07,-3.9419397562542587e-07,-7.282998103143002e-07,-4.414885583512921e-07,-3.134868215089933e-07,-3.162359175827269e-07,-6.684833938981725e-07,-2.7877575363947103e-07,-5.371949878569653e-07,-3.3684154696406806e-07,-5.254706158751276e-07
-9.27106135439483e-08,-4.3483159061337513e-07,2.0801683418869094e-07,-9.374240636814546e-08,-4.6545000464823335e-07,-4.344893537804712e-08,-1.052735851801377e-07,-2.7210834489546766e-07,-3.6271774166486646e-07,-6.991656941207728e-07,-4.307143053123188e-07,-3.3785293652538884e-07,-3.266205191276813e-07,-6.361303164972663e-07,-2.613925758692735e-07,-5.14519236118944e-07,-3.171827841505034e-07,-4.84044440374995e-07
-9.775563362084978e-08,-4.4072102587049444e-07,2.540221228782946e-07,-6.991275160813066e-08,-3.779004188367574e-07,-1.1593992649015241e-08,-3.438897243164297e-08,-2.479902010406468e-07,-3.274501055336295e-07,-6.685788938446543e-07,-4.173441083344988e-07,-3.4877871877774304e-07,-3.3175000602197506e-07,-6.160773904227478e-07,-2.434313831305251e-07,-4.728631779549314e-07,-2.9838865119856103e-07,-4.3867669695500703e-07
-9.316355312821902e-08,-4.364867337237427e-07,3.0387338605135114e-07,-4.579603571499887e-08,-2.840730493174385e-07,2.211513714681887e-08,2.8430812900297428e-08,-2.1525016212371414e-07,-3.0238130027458615e-07,-6.374826499294244e-07,-3.981656047441161e-07,-3.4153278435616195e-07,-3.353579049997503e-07,-6.01225196699647e-07,-2.237960554326707e-07,-4.2582956661936437e-07,-2.7792474039243024e-07,-4.0041875033806006e-07
-7.431463882416181e-08,-4.1634249028211297e-07,3.5876303603625885e-07,-2.02573380676422e-08,-1.9374024775940292e-07,5.825423821659215e-08,8.930362272711873e-08,-1.743857532922208e-07,-2.8441762003971457e-07,-6.073328039158141e-07,-3.727107616690329e-07,-3.166456429509792e-07,-3.191731435488466e-07,-5.898823693028942e-07,-2.0270074805046055e-07,-3.868775001674317e-07,-2.557856959151947e-07,-3.774413957396865e-07
-4.102852017690603e-08,-3.809606515651902e-07,4.1724210706368366e-07,2.825528582459887e-09,-1.127140824410105e-07,9.557534907999824e-08,1.2725185148649575e-07,-1.2926581789114927e-07,-2.7086165521920233e-07,-5.807136172631905e-07,-3.4399905149959306e-07,-2.7905243637175487e-07,-2.9060124759022197e-07,-5.812735798922e-07,-1.8206104169306993e-07,-3.8129274762666844e-07,-2.3484520133511222e-07,-3.733813166445934e-07
4.2470146238159125e-09,-3.351661913020399e-07,4.755656864511977e-07,2.024512743700107e-08,-4.783619183874898e-08,1.317572333191481e-07,1.443357195768978e-07,-8.577966334272402e-08,-2.67001609174239e-07,-5.593613010132644e-07,-3.1669534565502596e-07,-2.368397835012511e-07,-2.7008325644946946e-07,-5.758895748316501e-07,-1.6411095386084246e-07,-3.937684001715163e-07,-2.180707906898801e-07,-3.8676637781070985e-07
5.8176700027747e-08,-2.828850110320496e-07,5.302373721318447e-07,3.140155624155938e-08,-1.0741263788681567e-10,1.66674303416244e-07,1.5603709282413868e-07,-4.8208492616023334e-08,-2.6698777322820487e-07,-5.434622034019781e-07,-2.9366434201549506e-07,-1.9738376594846102e-07,-2.56407496682517e-07,-5.747028576370854e-07,-1.4926334156361964e-07,-4.1439632260748166e-07,-2.0569635561447945e-07,-4.118357999807055e-07
1.1762790267231518e-07,-2.2451378900932734e-07,5.803077932430748e-07,3.7205114210488466e-08,3.9722193180635323e-08,2.0091940552379389e-07,1.5819337968015194e-07,-1.7015849179696537e-08,-2.676874594649011e-07,-5.312002477735368e-07,-2.747862533337934e-07,-1.6479495669771733e-07,-2.461930328832239e-07,-5.77398794136821e-07,-1.3575375357151535e-07,-4.2724190505956514e-07,-1.9508567614875454e-07,-4.4050591128810937e-07
1.805206031904192e-07,-1.5762446951840107e-07,6.270020576389909e-07,4.1680218452649097e-08,5.700568368354969e-08,2.343334341059261e-07,1.4996306246464672e-07,1.0525383232845582e-08,-2.6550359322850275e-07,-5.206268390026205e-07,-2.5821436129510704e-07,-1.3952976736862626e-07,-2.3730265913808357e-07,-5.821310902344034e-07,-1.2121365191505898e-07,-4.355461149839534e-07,-1.8316927788856685e-07,-4.6461681946713405e-07
2.448349372797598e-07,-8.00667601165989e-08,6.710768575581575e-07,4.868006355891591e-08,5.518077717259638e-08,2.6758717991230516e-07,1.5059786890688833e-07,3.7479303021672637e-08,-2.581146551571279e-07,-5.109070703716051e-07,-2.42761486948851e-07,-1.2047875665158723e-07,-2.2788546311623904e-07,-5.914910810883511e-07,-1.0456216139220927e-07,-4.317162555596189e-07,-1.6911253264367755e-07,-4.779139520902566e-07
3.0795482251637095e-07,6.973875782983429e-09,7.104967004031211e-07,5.9477933270454384e-08,3.1990776621775884e-08,2.9963489585262084e-07,1.5358809370855053e-07,6.445839234960433e-08,-2.474416332746059e-07,-5.029760789185316e-07,-2.2928120516689416e-07,-1.0659933125508926e-07,-2.1986847185809507e-07,-6.020966066466559e-07,-8.715965331136355e-08,-4.1644402006065345e-07,-1.548216609856173e-07,-4.775063178827567e-07
3.669085001802009e-07,9.662978977241873e-08,7.408203068068098e-07,7.138392966182555e-08,-2.661588840689996e-09,3.272457304797707e-07,1.6171197260647987e-07,8.956679016502439e-08,-2.3773764893756957e-07,-5.000854686920087e-07,-2.204138698488988e-07,-9.730825715305083e-08,-2.0982916074605623e-07,-6.13807968713953e-07,-7.158727709502279e-08,-4.0510347648987203e-07,-1.4285797261763628e-07,-4.641888462904704e-07
4.1928772774944343e-07,1.7695871839151385e-07,7.581854319013519e-07,8.095438376661676e-08,-1.3463253473559006e-08,3.4735677991483314e-07,1.7312960212421283e-07,1.1064703532309903e-07,-2.3286997706530745e-07,-5.043611371626953e-07,-2.191847529108002e-07,-9.210561378405572e-08,-2.0091381637916264e-07,-6.194220336648182e-07,-5.9455120894939606e-08,-3.996381953898605e-07,-1.3374187355478368e-07,-4.4141753030162375e-07
4.641482270726778e-07,2.350240364873818e-07,7.62256917777347e-07,8.464031257653331e-08,4.100480691773005e-08,3.584984332706813e-07,1.8029190102640217e-07,1.2757572273294608e-07,-2.341200016386491e-07,-5.162983912943469e-07,-2.274222309304054e-07,-8.926972518061711e-08,-1.6974511231954794e-07,-5.965648880491251e-07,-5.017309441087393e-08,-3.993791282409053e-07,-1.2515960024084365e-07,-4.1390634036930487e-07
5.020274845576062e-07,2.623666418027751e-07,7.56581988910187e-07,8.039516453417777e-08,8.338133284478442e-08,3.612642935886693e-07,1.7157831886585666e-07,1.422306966171121e-07,-2.4030190823794843e-07,-5.343651871261111e-07,-2.4505173484775497e-07,-8.665500697358409e-08,-1.3134179446526568e-07,-5.497067850747263e-07,-4.15265952235945e-08,-4.03172026571812e-07,-1.137692246986798e-07,-3.869555027572419e-07
5.339945130568437e-07,2.585003234606717e-07,7.46195085892248e-07,6.918129387301584e-08,1.2070948457035742e-07,3.574911399100122e-07,1.4874755873252202e-07,1.567600627261991e-07,-2.495735187944757e-07,-5.566679077321948e-07,-2.7042277614256085e-07,-8.298363750959276e-08,-9.381510614243665e-08,-4.9796323355129e-07,-3.170031855805846e-08,-4.0714801903033003e-07,-9.809891308302285e-08,-3.663252681374491e-07
5.603660345941898e-07,2.3024385719096272e-07,7.345276853142438e-07,5.441602946628857e-08,1.3712798838253031e-07,3.4894163129339034e-07,1.3119755128127425e-07,1.710048033765398e-07,-2.614281931933116e-07,-5.820838295554872e-07,-3.0139270905406845e-07,-7.893740817385482e-08,-5.583353326031032e-08,-4.48929555282914e-07,-2.0756131294905482e-08,-4.051910417415989e-07,-8.019499372372979e-08,-3.573596012331952e-07
5.80033923129137e-07,1.8781750184529906e-07,7.220689291403641e-07,3.905182557729149e-08,1.4623374150524665e-07,3.361824061059352e-07,1.0610552170567886e-07,1.8225947488534032e-07,-2.7690846175931383e-07,-6.091021796804205e-07,-3.357260044188857e-07,-7.640525241541555e-08,-2.7738494215781642e-08,-4.0499442966481356e-07,-1.0451388363323662e-08,-4.0249255066693133e-07,-6.457260086285408e-08,-3.627726508236308e-07
5.910762397397156e-07,1.415516971855504e-07,7.077082261656773e-07,2.6920134090138376e-08,1.5908317160237673e-07,3.177955949887267e-07,7.572611790787779e-08,1.8755368518077063e-07,-2.966971351793651e-07,-6.379359610208332e-07,-3.7067569024530505e-07,-7.673938469572655e-08,-8.177131232565475e-09,-3.70775314820583e-07,-2.5809245082137108e-09,-3.993167489762e-07,-5.5150338757793575e-08,-3.805210404501548e-07
5.924074587625834e-07,1.002796819196169e-07,6.914028717304942e-07,2.1383250796702416e-08,1.405791846876753e-07,2.9708330457259065e-07,4.145164527211275e-08,1.8632901778495055e-07,-3.189617566448111e-07,-6.668079976793778e-07,-4.0163670919536726e-07,-7.994779508443642e-08,4.52856891836164e-09,-3.491756722723545e-07,2.655737085111134e-09,-3.9382885067928166e-07,-5.26562509117942e-08,-4.0395486985348585e-07
5.852650010432804e-07,7.139372455768058e-08,6.75621399745812e-07,2.6121001553954574e-08,1.2223185414614728e-07,2.7329108750307844e-07,1.6411573444068472e-09,1.8130017952334077e-07,-3.3910286952357615e-07,-6.927348120438669e-07,-4.226215606239e-07,-8.361055576392744e-08,1.222357199865155e-08,-3.3492143972909104e-07,5.980364162854103e-09,-3.871509869765315e-07,-5.4711673598628676e-08,-4.2469452271250285e-07
5.732895336455521e-07,6.089169813410986e-08,6.641125020960296e-07,4.247842160831689e-08,1.1201786978370962e-07,2.4933005306188704e-07,-3.5591832787493113e-08,1.7660313094497945e-07,-3.5197981133751056e-07,-7.131618586270979e-07,-4.290045305975079e-07,-8.637407802226823e-08,1.345555729101775e-08,-3.2634033615663635e-07,7.687251759981272e-09,-3.781679646543432e-07,-5.85028434303053e-08,-4.3638780459535525e-07
5.610240635105159e-07,7.180407594951351e-08,6.590358780362787e-07,6.760614860763355e-08,1.0260881823801528e-07,2.287665494284004e-07,-5.498302558873956e-08,1.7485001006340755e-07,-3.549128183993522e-07,-7.262670358010752e-07,-4.201382719681465e-07,-8.888879245670178e-08,1.4457976064312725e-08,-3.234909384883995e-07,6.6580160709681105e-09,-3.684706277578871e-07,-6.355079823771913e-08,-4.3709881842577224e-07
5.519520418807703e-07,1.0188777566808924e-07,6.590497169195188e-07,9.50032751046166e-08,9.813360028636179e-08,2.1158214991021714e-07,-6.163490321951764e-08,1.7571700187557498e-07,-3.4918025647758707e-07,-7.31882391668645e-07,-4.0045680480982165e-07,-9.443052754037675e-08,1.623514987422098e-08,-3.274945060435802e-07,3.844418936243356e-10,-3.615232928511411e-07,-7.186126684533912e-08,-4.292729018903331e-07
5.475172843874272e-07,1.4229241034193666e-07,6.602061058466707e-07,1.1557888230853223e-07,9.97355904115191e-08,1.9926266305600515e-07,-6.069611759946285e-08,1.7714970546324987e-07,-3.3877481712831783e-07,-7.315055169812407e-07,-3.774539763203638e-07,-1.0636654509148994e-07,1.6742594321280407e-08,-3.39912631982223e-07,-1.2734578957358531e-08,-3.6137812612318316e-07,-8.54141100149437e-08,-4.1753388064015145e-07
5.475523782227364e-07,1.8001548302277488e-07,6.589319603524296e-07,1.222274547383442e-07,1.0857817219796278e-07,1.8999453375427784e-07,-5.080835392735782e-08,1.7758983990867306e-07,-3.2781135280915554e-07,-7.27416629863843e-07,-3.5819531358540386e-07,-1.2546424436066772e-07,1.7103956665898622e-08,-3.5883901679275934e-07,-3.1914909646361385e-08,-3.6742142759135635e-07,-1.0379405822386576e-07,-4.0581115632326363e-07
5.512648441891171e-07,2.0287622308614223e-07,6.544512951435606e-07,1.1248095254262918e-07,1.2117511410409796e-07,1.8226905955523907e-07,-3.855240681520476e-08,1.7718492064598924e-07,-3.1884871730856143e-07,-7.207546592823092e-07,-3.4675336409980905e-07,-1.495429510430742e-07,1.7022229800185476e-08,-3.809264333160657e-07,-5.386042694759436e-08,-3.7753074859752587e-07,-1.2434380619500787e-07,-3.960668817451348e-07
5.577437642745934e-07,2.043541462117593e-07,6.487047651679936e-07,8.945204725718243e-08,1.4385347594590378e-07,1.7513462177828218e-07,-3.2544345972966164e-08,1.769939351921349e-07,-3.1294932817716875e-07,-7.130900075868596e-07,-3.4371588566384885e-07,-1.7411841290197337e-07,1.7351589347187926e-08,-4.023191459770193e-07,-7.473009987865398e-08,-3.885755489301904e-07,-1.4432356433277044e-07,-3.8959732203628236e-07
5.658362028894099e-07,1.8580245197555334e-07,6.441784615490895e-07,5.955745559350645e-08,1.74607114802952e-07,1.683920525669886e-07,-3.202214762110329e-08,1.7719998556922512e-07,-3.1055171611502185e-07,-7.066004854380895e-07,-3.470212302457058e-07,-1.95423211019701e-07,1.8665131802363673e-08,-4.204307696851978e-07,-9.23078033623547e-08,-3.9712296636184703e-07,-1.6254826624136672e-07,-3.8887734066297376e-07
5.740834535582939e-07,1.551895611770969e-07,6.417727032207982e-07,2.98381133162876e-08,2.0273531035344044e-07,1.6164962585605484e-07,-3.805141904914063e-08,1.7654426076285835e-07,-3.116833021669862e-07,-7.027179713749484e-07,-3.5312100640300157e-07,-2.1091509365607048e-07,1.58872678357888e-08,-4.3464936157512653e-07,-1.060035596973552e-07,-4.019493361204904e-07,-1.7865660507773193e-07,-3.9685859985711335e-07
5.813040400442434e-07,1.2380443371659673e-07,6.405221313465324e-07,6.077942975416048e-09,2.1871103530294062e-07,1.541441344255737e-07,-5.53569456045088e-08,1.7377683241998787e-07,-3.1517996248900384e-07,-7.025130309916432e-07,-3.5805513757495147e-07,-2.188077993806073e-07,1.1540955896881928e-08,-4.4630812474776344e-07,-1.160323420452137e-07,-4.021523756882173e-07,-1.9089048559330632e-07,-4.136030433405347e-07
5.874820388601854e-07,1.0232524386040611e-07,6.389898328003628e-07,-8.178142299799365e-09,2.1981721325378449e-07,1.4610343556611265e-07,-7.008607480848237e-08,1.6967674585773337e-07,-3.1821540079259683e-07,-7.055162850736135e-07,-3.5805915665376123e-07,-2.1796050415502347e-07,8.111076124161077e-09,-4.5422426601878885e-07,-1.2158317564458623e-07,-3.9644117485738135e-07,-1.9525422824578722e-07,-4.337266720209879e-07
5.939759874236269e-07,9.763246125771834e-08,6.364972485065999e-07,-1.1722735344510452e-08,2.0492487444698692e-07,1.3801981455952458e-07,-8.417561278132224e-08,1.6785793498877162e-07,-3.173440139945646e-07,-7.101946949458722e-07,-3.502127783458327e-07,-2.0777383436101208e-07,8.135083344317169e-09,-4.558085654332059e-07,-1.2089098732743043e-07,-3.8375739052400957e-07,-1.877378029452018e-07,-4.478625005124713e-07
6.025367175823131e-07,1.111481736592977e-07,6.328278613599935e-07,-5.309001990513422e-09,1.771939861292494e-07,1.3108751573296466e-07,-9.667193554990354e-08,1.7261941356799235e-07,-3.107001918557831e-07,-7.160556112019473e-07,-3.3353348508885136e-07,-1.8941786372342333e-07,1.5885095821192844e-08,-4.492899287577567e-07,-1.1286230223262527e-07,-3.6399670436742684e-07,-1.678860979346681e-07,-4.476192035139649e-07
6.137185006416373e-07,1.3976108655702083e-07,6.26976072674257e-07,7.928968861352947e-09,1.4176431864653793e-07,1.2555981531070546e-07,-1.0395149440521767e-07,1.8607618529518253e-07,-2.994762059656134e-07,-7.226846274229465e-07,-3.0976144234518973e-07,-1.6671977180306896e-07,3.1462325986420645e-08,-4.355928707287868e-07,-9.871608550617044e-08,-3.389852581367641e-07,-1.4002877398141302e-07,-4.302421777529677e-07
6.259087142681582e-07,1.778641150914814e-07,6.172285395497833e-07,2.24715871077229e-08,9.750933973855752e-08,1.1962645533061138e-07,-1.0888165791083929e-07,2.064513207520676e-07,-2.869165567206804e-07,-7.307946507983321e-07,-2.8326668221489306e-07,-1.4495206833109252e-07,5.298379639974179e-08,-4.173869989903058e-07,-8.151622451624876e-08,-3.1189773242755974e-07,-1.105361009116433e-07,-3.9941361491045865e-07
6.357779824074482e-07,2.1975967693678254e-07,6.028947566031567e-07,3.438146118581245e-08,4.3850076723495796e-08,1.129214763700429e-07,-1.1348423031912369e-07,2.3003671945242833e-07,-2.758765655134549e-07,-7.406116964199765e-07,-2.5944754103413123e-07,-1.2857540366593982e-07,7.782626077197822e-08,-3.9453646254062853e-07,-6.3867606120921e-08,-2.85204319618628e-07,-8.358669206958446e-08,-3.6215990344320144e-07
6.397868886912415e-07,2.61041623265121e-07,5.861054349591719e-07,4.213026021499397e-08,-1.2208808732715705e-08,1.0506343753502144e-07,-1.186434564819461e-07,2.535191381334958e-07,-2.6673132435800953e-07,-7.521200491867845e-07,-2.42570413772646e-07,-1.187116061719549e-07,1.0324990958241243e-07,-3.6776569557886747e-07,-4.5682270094502485e-08,-2.592156674220206e-07,-5.9403223180586347e-08,-3.2499799038773936e-07
6.355866125741549e-07,2.9813664886980237e-07,5.714234198170354e-07,4.7208789025216844e-08,-6.792467329592052e-08,9.696096622913615e-08,-1.2286211103930417e-07,2.753031664180647e-07,-2.576019045787538e-07,-7.64220538533296e-07,-2.3483773759869512e-07,-1.1388583992209398e-07,1.2727512082868515e-07,-3.433531846037821e-07,-2.522417768622543e-08,-2.3250804626904494e-07,-3.624460407412683e-08,-2.919739500315031e-07
6.224377196844725e-07,3.276157211125956e-07,5.633039735897261e-07,5.303084984810691e-08,-1.1142294176222225e-07,9.068526503420828e-08,-1.255108419522283e-07,2.9468740332074274e-07,-2.4636215234909787e-07,-7.751430001018433e-07,-2.3680590968013955e-07,-1.1230394986541539e-07,1.4776032006200031e-07,-3.087825535669666e-07,-1.976755489433851e-09,-2.0395128052778153e-07,-1.3692693360469919e-08,-2.64632132473613e-07
6.007450410694235e-07,3.4658312224655506e-07,5.638390630472645e-07,6.199309780895929e-08,-1.5175295718866595e-07,8.677532654048377e-08,-1.2380686466267e-07,3.1038936130775055e-07,-2.3232844604747081e-07,-7.842076052190957e-07,-2.4811056617273475e-07,-1.1186142906567302e-07,1.619360377825635e-07,-2.6651377503219467e-07,2.4101687563759973e-08,-1.7440037711845736e-07,6.33047375299302e-09,-2.426625951696782e-07
5.71594348789179e-07,3.5366142814831647e-07,5.726597058887008e-07,7.499351436379083e-08,-1.684329443701155e-07,8.58784612802e-08,-1.1660160346251513e-07,3.2102167092397427e-07,-2.1605051937921547e-07,-7.835500716945281e-07,-2.6705809662912714e-07,-1.1106994591490203e-07,1.6767618702118884e-07,-2.287500375441717e-07,4.806337179568223e-08,-1.462896445431999e-07,2.1733689877384346e-08,-2.2442943793003723e-07
5.370532182198486e-07,3.4983084000094574e-07,5.889842660915686e-07,9.251984537875214e-08,-1.5694366958916255e-07,8.768359003197944e-08,-1.0273869885590982e-07,3.2699655243212634e-07,-1.9763270757154843e-07,-7.72736174897071e-07,-2.8930979116441775e-07,-1.1069808995982474e-07,1.654038108082396e-07,-1.9637030510257336e-07,6.796943721858937e-08,-1.2125777803342368e-07,3.2972263975344185e-08,-2.073332659945959e-07
5.009471031647305e-07,3.3908915183980685e-07,6.136711544647744e-07,1.1546224485524452e-07,-1.1992436629184598e-07,9.259201496773041e-08,-7.695020757487046e-08,3.3170771053386396e-07,-1.7551870889650682e-07,-7.523911993767659e-07,-3.074326926394564e-07,-1.1177302809016745e-07,1.5909910320005506e-07,-1.8780126561617704e-07,8.504822445198295e-08,-9.845395594696572e-08,4.322355880995432e-08,-1.8834337387788126e-07
4.6897102839191814e-07,3.281347982070602e-07,6.491170493563405e-07,1.4415435789859463e-07,-6.666378752948316e-08,1.0182611158513777e-07,-3.660087375070038e-08,3.406786788108788e-07,-1.4742367493664776e-07,-7.189106483468724e-07,-3.128671103862517e-07,-1.1501538521890936e-07,1.5499746643684538e-07,-2.241615792229622e-07,8.142897503753001e-08,-7.524624628255693e-08,5.588689273126928e-08,-1.650031901550042e-07
4.4744567684501673e-07,3.244465280841961e-07,6.967921596158085e-07,1.77824063325447e-07,-4.108753005067661e-08,1.1594528807946806e-07,1.870115064046418e-08,3.584008449366387e-07,-1.1257445914635668e-07,-6.796231645602873e-07,-2.9958578039005173e-07,-1.2595601349032865e-07,1.6023080580907008e-07,-2.6495493542569923e-07,6.165077315671695e-08,-4.996803528595537e-08,7.211113741696242e-08,-1.368049103741376e-07
4.413250053440708e-07,3.335897705607766e-07,7.544325084248946e-07,2.1421412162728256e-07,-3.1980243725411557e-08,1.3427279728649564e-07,8.581509608609671e-08,3.849247898676743e-07,-7.347963639315039e-08,-6.614021042220011e-07,-2.6671819405897833e-07,-1.463544391425454e-07,1.7554484879055918e-07,-2.893388045466852e-07,3.815823497749814e-08,-2.376972680020594e-08,9.091198284897665e-08,-1.0607028392817946e-07
4.527983125394498e-07,3.5776059803733477e-07,8.162596257239213e-07,2.5001550570242495e-07,-3.29771735436842e-08,1.548298763538247e-07,1.5607948842022342e-07,4.1717211028683643e-07,-3.529774500187989e-08,-6.247964842222393e-07,-2.1824652565628148e-07,-1.6477247921314232e-07,1.9853307945079402e-07,-3.0837435966721e-07,2.7180367498069154e-08,1.1615486481341485e-10,1.116180969430846e-07,-7.714559422666985e-08
4.812737036479822e-07,3.965168990281354e-07,8.765198575176319e-07,2.8276584587967987e-07,3.063596485435426e-10,1.7597538008208108e-07,2.2282636772169568e-07,4.5111103166358785e-07,-3.488380330528045e-09,-5.725667454804477e-07,-1.6041820444552424e-07,-1.8360263279540096e-07,2.253065032463402e-07,-3.3314836041644504e-07,1.4049991050372431e-08,1.9540180449080953e-08,1.3582047235336126e-07,-5.392483638733505e-08
5.243110959926694e-07,4.484637665964415e-07,9.333362259210251e-07,3.1193651382434816e-07,6.745125900621959e-08,1.974638299723378e-07,2.8186346148844247e-07,4.846561777885322e-07,2.0221878097382175e-08,-5.214110226128808e-07,-9.90441146837953e-08,-1.717622241978419e-07,2.5167077666407154e-07,-3.8010805383755514e-07,-2.663419688179295e-08,3.5870709258490124e-08,1.66431660731689e-07,-3.746168974186611e-08
5.784671784645313e-07,5.120641897793234e-07,9.89181343663346e-07,3.38598798008718e-07,1.443953236578469e-07,2.2126770761805947e-07,3.316801158161848e-07,5.185969170664767e-07,3.760539912404807e-08,-4.940735773699313e-07,-3.856271760051868e-08,-1.1680427088039608e-07,2.762576339051035e-07,-4.0722580222802793e-07,-4.661935645100957e-08,5.309846199438565e-08,2.0429958343888482e-07,-2.55496527229576e-08
6.395170757083577e-07,5.855958154597533e-07,1.047264662511658e-06,3.6347833453815726e-07,2.242191920541817e-07,2.472657923021479e-07,3.723260741449531e-07,5.542754355645607e-07,5.1399469716997935e-08,-4.809287227804943e-07,1.6881403339129066e-08,-7.985286873065265e-08,2.9918885708876985e-07,-4.155552652632978e-07,-4.8167451320422855e-08,7.442573411384085e-08,2.451975528634932e-07,-1.4524979991809178e-08
7.024578988514584e-07,6.666888550249504e-07,1.107435314093767e-06,3.850428651061137e-07,2.7746673426169614e-07,2.777330715363028e-07,4.0294319634843884e-07,5.907551026531671e-07,6.296737638886475e-08,-4.786697278973107e-07,6.363765864866193e-08,-6.984893242777702e-08,3.207394812481768e-07,-4.156313403410345e-07,-5.90607792234903e-08,9.894213773353918e-08,2.8014324096019906e-07,-1.8096627621681264e-09
7.62124561201096e-07,7.518051243359938e-07,1.1652645504128106e-06,4.001929011519074e-07,3.1901306773701295e-07,3.100245227324981e-07,4.2095779711764936e-07,6.245375132519099e-07,7.177483483769584e-08,-4.646938618874931e-07,9.8775504754755e-08,-2.8398717824066887e-09,3.403954741120855e-07,-3.966984513421966e-07,-5.8545101504788195e-08,1.2220069728710156e-07,2.997311883188943e-07,1.297188505866861e-08
8.146005960986453e-07,8.361542637760674e-07,1.2149521532452188e-06,4.064358149421782e-07,3.517700542442755e-07,3.398324139516312e-07,4.242743358292183e-07,6.520414449278659e-07,7.61088188573373e-08,-4.479565990833801e-07,1.2096091081251102e-07,7.895747635220778e-08,3.581493677257586e-07,-3.8315243575265583e-07,-2.749032389905633e-08,1.3981891953488343e-07,2.9975621956917425e-07,2.9402627242319436e-08
8.584521519384683e-07,9.146262919823427e-07,1.2531316368660189e-06,4.040791515798551e-07,3.6858302072935946e-07,3.651000475567239e-07,4.144434939005715e-07,6.720414823629792e-07,7.603570141052302e-08,-4.397996668633877e-07,1.31544291923736e-07,1.5269958974659406e-07,3.745635357161413e-07,-3.433339492710559e-07,1.4476666275257263e-08,1.5082606446762484e-07,2.8385962251945265e-07,4.855678815279777e-08
8.946483312477914e-07,9.829666121056159e-07,1.2802807459123163e-06,3.9686392863898395e-07,3.644524696682775e-07,3.837073471174774e-07,3.965797819762362e-07,6.863787095413345e-07,7.415831553683998e-08,-4.474083218474939e-07,1.3397455325743457e-07,2.221115955219676e-07,3.9074191890634086e-07,-3.0354291661198985e-07,7.329970011769359e-08,1.579436179926817e-07,2.6112157214979585e-07,7.301743898797826e-08
9.251119708928395e-07,1.0383577640570847e-06,1.299157641380251e-06,3.9051973746559795e-07,3.5411467274987524e-07,3.9689788684253745e-07,3.7779630658949147e-07,6.978908784772042e-07,7.337164683602384e-08,-4.563735671878243e-07,1.33357233697775e-07,2.7411267021692255e-07,4.0746329996488474e-07,-2.8370702156532587e-07,9.963354301731128e-08,1.6474775316507438e-07,2.403779955632314e-07,1.0396804206571888e-07
9.508512570919928e-07,1.0783437926073613e-06,1.3121915285225076e-06,3.902760573320156e-07,3.4756884618775717e-07,4.063294379357875e-07,3.634240926911414e-07,7.076430649099115e-07,7.519127376702032e-08,-4.6755963738690426e-07,1.3380220228932606e-07,3.123371591514271e-07,4.236309005953829e-07,-2.4957959718957355e-07,1.0375352361426534e-07,1.7255773556834698e-07,2.253296358826055e-07,1.3821464597750406e-07
9.708658831416204e-07,1.100083259751425e-06,1.320020249395453e-06,3.987479414875969e-07,3.513619369766377e-07,4.1290626105791175e-07,3.545223170344071e-07,7.140118226433315e-07,7.856608707906816e-08,-4.813202488522917e-07,1.3655512643473463e-07,3.360182803813479e-07,4.365739073188457e-07,-2.1730441386824526e-07,1.1957648040864433e-07,1.7961282627869688e-07,2.1387468560077037e-07,1.6820476863928533e-07
9.826610945265384e-07,1.1021929025859345e-06,1.3219912059827138e-06,4.1521001796141287e-07,3.627790057742934e-07,4.159616349599963e-07,3.4853924246152853e-07,7.139940256513694e-07,8.086708312496514e-08,-4.865493033138532e-07,1.4012449573145394e-07,3.4264077265255344e-07,4.437511256503332e-07,-1.9420131133665284e-07,1.3348406894869873e-07,1.8303224925837882e-07,2.017389524619212e-07,1.8536082513195428e-07
9.842024713218198e-07,1.087456681496909e-06,1.3180231543536607e-06,4.3623431477743195e-07,3.690987934266185e-07,4.1547831021825405e-07,3.42044708198262e-07,7.061269076454629e-07,8.020597382446522e-08,-4.868251945864176e-07,1.419956930281051e-07,3.3714764189387677e-07,4.4477677840576e-07,-1.9430532424534815e-07,1.2427689175989194e-07,1.814732241563893e-07,1.868641814657217e-07,1.8427035108754186e-07
9.75953458378254e-07,1.0633694333026964e-06,1.310351381366241e-06,4.5733245841738983e-07,3.7025200095543773e-07,4.130434774081101e-07,3.337062190440409e-07,6.918595621062715e-07,7.721736114491726e-08,-4.849831965861417e-07,1.4085628417284043e-07,3.2148162655605237e-07,4.421330085529779e-07,-1.9179286883050154e-07,1.0456740897195762e-07,1.7610537785600466e-07,1.7075006741844467e-07,1.6490316308932125e-07
9.614009021271844e-07,1.0395680532692748e-06,1.3025630079652605e-06,4.7469890590389886e-07,3.6522957272263894e-07,4.11245770051816e-07,3.2438975098578743e-07,6.756765817295307e-07,7.427785238982067e-08,-4.810688552686515e-07,1.3761284431898876e-07,2.999681149663418e-07,4.3978752019918827e-07,-1.9273758407525667e-07,8.69396129211018e-08,1.6933661518895268e-07,1.5612083636891844e-07,1.3211537598314166e-07
9.455768063246341e-07,1.0238680906033013e-06,1.2975763325099962e-06,4.861581277501607e-07,3.599219039937216e-07,4.1290435216690563e-07,3.159695823478346e-07,6.614729447139155e-07,7.34016495763842e-08,-4.781658048069289e-07,1.336380038673685e-07,2.774893713793224e-07,4.406522799544924e-07,-2.1810416108364528e-07,6.498936523984495e-08,1.6244406533979957e-07,1.4345810458522961e-07,9.344687648557772e-08
9.326111546152591e-07,1.018742710863504e-06,1.2955943232430703e-06,4.912109080912206e-07,3.5294312265155646e-07,4.1887085309069924e-07,3.087025819984276e-07,6.503111933459853e-07,7.401132498289917e-08,-4.760764158760308e-07,1.2918156926577006e-07,2.55611499389232e-07,4.447899251394295e-07,-2.5176856940007376e-07,4.168003635434666e-08,1.5433190396043719e-07,1.296552504165856e-07,5.647347689112407e-08
9.240384657547992e-07,1.0205798317551631e-06,1.2939442659022457e-06,4.904462656814284e-07,3.4228128984523706e-07,4.265447206142949e-07,3.008490770658424e-07,6.399647835249624e-07,7.312055177812816e-08,-4.760935251399004e-07,1.2258004034465566e-07,2.3322544442786913e-07,4.4985468626785667e-07,-2.8749848644891625e-07,1.7590154905035424e-08,1.4263627058184163e-07,1.1014896857943633e-07,2.704413159479965e-08
9.188792054771466e-07,1.0214929703298994e-06,1.2893436855034783e-06,4.851664321560097e-07,3.2518710927523627e-07,4.341596602586901e-07,2.9035922269766467e-07,6.268080179703028e-07,6.776791588272814e-08,-4.802070707380122e-07,1.109905096344273e-07,2.08905142795829e-07,4.5337719082882044e-07,-3.126643285194549e-07,-3.826651448293805e-09,1.2627797080871358e-07,8.278612228063408e-08,9.129427988436087e-09
9.150649438376943e-07,1.0132245946113417e-06,1.2802226634167728e-06,4.771939467750465e-07,3.0330551667118607e-07,4.39389908187188e-07,2.769500267210075e-07,6.090878730232958e-07,5.7500137941508646e-08,-4.88465058591417e-07,9.248445065120579e-08,1.830854312533262e-07,4.548335432327904e-07,-3.2589156412059454e-07,-2.3077119130052192e-08,1.0730683844337e-07,5.010643194619786e-08,5.244168576218612e-09
9.108716245825661e-07,9.911859445607049e-07,1.268321664683744e-06,4.686213655815354e-07,2.811662403689121e-07,4.4170838864937953e-07,2.629048642270545e-07,5.877860410023304e-07,4.4747940041666813e-08,-4.99063181417129e-07,6.764270138739266e-08,1.5887296728278434e-07,4.557931980685911e-07,-3.320226435957197e-07,-4.0613575395140436e-08,9.014310324787452e-08,1.809992626485408e-08,1.5845405089585587e-08
9.053384463206652e-07,9.564483692047938e-07,1.2572550523668947e-06,4.613099056233297e-07,2.6153186802280386e-07,4.419389970534774e-07,2.5151522023587e-07,5.656267337710057e-07,3.315773626112393e-08,-5.095074370246663e-07,3.9041991707289816e-08,1.400736303976889e-07,4.5825706826822286e-07,-3.359468645333543e-07,-5.456504804402975e-08,7.879277376705258e-08,-7.693764839785502e-09,3.7809762492121195e-08
8.976776578013137e-07,9.151459187990509e-07,1.2500018782099178e-06,4.5612726331100145e-07,2.4896559419857326e-07,4.399747807231598e-07,2.444791383355629e-07,5.443230102462817e-07,2.470098124195082e-08,-5.180761139383683e-07,8.895393439501551e-09,1.2848358243803009e-07,4.6269008710614643e-07,-3.4109236923785877e-07,-6.628835960209968e-08,7.406638606690885e-08,-2.572443138616796e-08,6.362455056314785e-08
8.865558784472831e-07,8.758486990398166e-07,1.2468432702330257e-06,4.526442963057956e-07,2.4305096161642334e-07,4.3532371259977045e-07,2.405265287008381e-07,5.237175572337482e-07,1.8179930402845964e-08,-5.24516724367569e-07,-2.2159925301512317e-08,1.2271876027153894e-07,4.673903262122038e-07,-3.440368988037932e-07,-7.683548482324897e-08,7.293048718755977e-08,-3.858675709545023e-08,8.278066826554041e-08
8.702824851531401e-07,8.463381590335934e-07,1.245304666381426e-06,4.49696491137349e-07,2.414275934527444e-07,4.2685602840770315e-07,2.366939925760021e-07,5.028839160256216e-07,1.1262668671217362e-08,-5.295492807946313e-07,-5.450749918691142e-08,1.1978733234292123e-07,4.6977025687492006e-07,-3.4735187983665265e-07,-8.812986328276751e-08,7.067671285762645e-08,-4.968824718016167e-08,8.56648593205846e-08
8.481532725322591e-07,8.313204054261241e-07,1.2426092959664925e-06,4.4669555635225186e-07,2.4255479160340406e-07,4.1503940303012075e-07,2.3080347014001083e-07,4.821589271622844e-07,2.1388064271679544e-09,-5.333933708790022e-07,-8.70118859106926e-08,1.176828933349367e-07,4.684839960131147e-07,-3.5363023323251136e-07,-9.946947043836503e-08,6.417596800466513e-08,-5.972855491769211e-08,6.819500074338012e-08
8.219998743467986e-07,8.319970703688193e-07,1.238156554733374e-06,4.447759088892331e-07,2.4559776479913357e-07,4.0187480999095963e-07,2.2359455838126332e-07,4.643251999076014e-07,-8.219167372785129e-09,-5.351999056184028e-07,-1.1559867428509845e-07,1.1687082064237853e-07,4.645665541260158e-07,-3.6094995584190444e-07,-1.0823077653037753e-07,5.372647364147193e-08,-6.624299505641507e-08,3.392514305774452e-08
7.965193257786236e-07,8.468335558338198e-07,1.2337400637245794e-06,4.4656127220647773e-07,2.5379499017635024e-07,3.9092600939029637e-07,2.1820580763976743e-07,4.5314106018204043e-07,-1.6417071430222354e-08,-5.332775106697362e-07,-1.3464639739765133e-07,1.1968770031986807e-07,4.606325587078287e-07,-3.6716896166768104e-07,-1.1161999368955943e-07,4.228564379745493e-08,-6.625925406391571e-08,-8.018398149410802e-09
7.777220987294986e-07,8.723077358520007e-07,1.2320296923109138e-06,4.5473070334810053e-07,2.693626135499635e-07,3.8497323704505863e-07,2.1757146526572446e-07,4.5066504532479015e-07,-1.9911121426487853e-08,-5.266588669707235e-07,-1.397203040609736e-07,1.280300159006446e-07,4.588524266666778e-07,-3.7012781739953905e-07,-1.0874998341775883e-07,3.276578226370263e-08,-5.938655594093261e-08,-4.740821964507468e-08
7.702900809281197e-07,9.032246834488061e-07,1.2325653257244994e-06,4.696896217492579e-07,2.9024694610221775e-07,3.845550324382277e-07,2.2205984633864376e-07,4.5537252605440174e-07,-1.8408306062093325e-08,-5.156359364490966e-07,-1.3138771756989265e-07,1.416970098137454e-07,4.5949707661778855e-07,-3.694553894751668e-07,-1.0201515612169747e-07,2.64618424942262e-08,-4.849486085051569e-08,-7.691735160009869e-08
7.756159727972904e-07,9.333243194323917e-07,1.232063143614253e-06,4.885835577725888e-07,3.1254258378846376e-07,3.883587299767085e-07,2.293887976559975e-07,4.6352730746242826e-07,-1.3752947388080106e-08,-5.022744941424478e-07,-1.1475111294919895e-07,1.584446954844491e-07,4.613463712613266e-07,-3.670935469846032e-07,-9.511983966343445e-08,2.3079485392047033e-08,-3.743116909417293e-08,-9.405801241270227e-08
7.917685391152106e-07,9.575695178717153e-07,1.227189628138493e-06,5.064233017967063e-07,3.309377051660656e-07,3.941783311101202e-07,2.365797527032969e-07,4.7086331691734974e-07,-8.030314377880827e-09,-4.89000851115456e-07,-9.659454183140809e-08,1.7557570058243783e-07,4.6345689643750534e-07,-3.649287489636486e-07,-9.051486620219974e-08,2.1821165880164254e-08,-2.806593066336409e-08,-1.0068125271972588e-07
8.149738754549369e-07,9.73659609643328e-07,1.217417920160733e-06,5.185469309523864e-07,3.421048562218836e-07,4.006430302660047e-07,2.423101923759294e-07,4.758178106595767e-07,-2.229355952273274e-09,-4.772798143714369e-07,-8.27839786655409e-08,1.9119022055733837e-07,4.665011022079509e-07,-3.6319277583521103e-07,-8.846526766250045e-08,2.2355350720684103e-08,-1.9521651295638863e-08,-1.0051387489601833e-07
8.411409322541236e-07,9.821631760963012e-07,1.2063016447846617e-06,5.227844291124833e-07,3.451982303512302e-07,4.0729920801242554e-07,2.4758264967721234e-07,4.801640218480643e-07,3.9434085648437045e-09,-4.674209748908879e-07,-7.588431697617727e-08,2.0410369936917828e-07,4.723950044757749e-07,-3.600756252581528e-07,-8.773096663909834e-08,2.384966976045899e-08,-1.0182833077246131e-08,-9.620598938119825e-08
8.664016842734037e-07,9.854869537853183e-07,1.1987950573730895e-06,5.199031105042539e-07,3.421884974839246e-07,4.1426089280464134e-07,2.53833198507836e-07,4.863740138548812e-07,1.0180022216176099e-08,-4.5937302438297195e-07,-7.600488105898064e-08,2.1301703679514874e-07,4.824648707003863e-07,-3.549938927758614e-07,-8.704449425223467e-08,2.3858271239439093e-08,-3.8721201935763124e-10,-8.787109913185777e-08
8.868370291320824e-07,9.85945702458729e-07,1.1974107270749957e-06,5.123509382654346e-07,3.3347048644004203e-07,4.19706885858722e-07,2.607026829673077e-07,4.953357879660335e-07,1.4892917319807893e-08,-4.53455490230453e-07,-8.237694637099859e-08,2.1558260285328664e-07,4.956914464055273e-07,-3.48799451655336e-07,-8.672976375562075e-08,1.8735482302723742e-08,7.002745846787547e-09,-7.418575290124303e-08
8.983811036174403e-07,9.845691080833072e-07,1.1998897256704489e-06,5.028625058341258e-07,3.1620247086185094e-07,4.2115312066339427e-07,2.6602684103015234e-07,5.055678952155054e-07,1.5450424733790438e-08,-4.506562797759514e-07,-9.506819685894028e-08,2.0960686314551003e-07,5.087183128736265e-07,-3.434898594682014e-07,-8.816017246167796e-08,5.617539376440513e-09,8.972256718809508e-09,-5.486576938240909e-08
8.977122227223603e-07,9.813046757611808e-07,1.2011092503420337e-06,4.938659191485258e-07,2.871710568363709e-07,4.1706705596763183e-07,2.6595557354556255e-07,5.14381461237779e-07,1.0481135752477296e-08,-4.5132545862094397e-07,-1.1343816895267982e-07,1.94706662562587e-07,5.178452417785595e-07,-3.408784209330637e-07,-9.163135503410337e-08,-1.5176826337984498e-08,5.596907946934793e-09,-3.2100116070040896e-08
8.839056334190462e-07,9.761528817359386e-07,1.1961087185311351e-06,4.871834665946084e-07,2.5151526275289687e-07,4.0767539747691876e-07,2.5986759614381394e-07,5.209217139805688e-07,1.6421829776383413e-09,-4.541080368764492e-07,-1.3562974953479209e-07,1.737824387236561e-07,5.213510777041825e-07,-3.4030975784774e-07,-9.52751182559343e-08,-3.9213699692447704e-08,1.0820696413143414e-09,-1.002446703220251e-08
8.597013878864721e-07,9.700831439206342e-07,1.1837609512430721e-06,4.831405546210147e-07,2.1216294637919178e-07,3.957265633384856e-07,2.500568598982323e-07,5.261444725815118e-07,-6.902906975910382e-09,-4.562680104668619e-07,-1.557248434783166e-07,1.5247942898361411e-07,5.202223648331585e-07,-3.3907376601284227e-07,-9.58581604378262e-08,-5.965837861835656e-08,1.3010899451534538e-09,6.738266990330053e-09
8.312668855362626e-07,9.643830572681997e-07,1.1657483520639565e-06,4.802843162527529e-07,1.7535645949390875e-07,3.85263292806432e-07,2.3966060334844027e-07,5.313367836073995e-07,-1.0702460801823106e-08,-4.5578522708511287e-07,-1.6617830501293982e-07,1.3700257473103027e-07,5.168133696654123e-07,-3.3493596722586545e-07,-9.10409734451437e-08,-7.085813823391022e-08,9.541561138091665e-09,1.4325433386046237e-08
8.062432271253701e-07,9.597543250031928e-07,1.1466955081333897e-06,4.759729553688903e-07,1.5103610024505076e-07,3.796890368652298e-07,2.320151438619295e-07,5.367288188369549e-07,-7.591611505111526e-09,-4.513275126012334e-07,-1.6305562525111466e-07,1.316011398307513e-07,5.126972047027409e-07,-3.2797856808706074e-07,-8.117745321944582e-08,-7.118411356543308e-08,2.3993961228268087e-08,1.0326827015583505e-08
7.910481673046143e-07,9.551032366256504e-07,1.129360531866419e-06,4.6794673673657945e-07,1.4328125563894575e-07,3.8018978491782603e-07,2.2689905303387137e-07,5.409485461918148e-07,1.4370562771538717e-09,-4.423939319581497e-07,-1.4677607084357822e-07,1.3710362202616965e-07,5.076864812772959e-07,-3.207635482546506e-07,-6.945029216381059e-08,-6.326950419085813e-08,3.9285794021909426e-08,-5.665517343026136e-09
7.890100559146911e-07,9.476455659081475e-07,1.1148083791112196e-06,4.562524095349457e-07,1.554212702987625e-07,3.858524203509823e-07,2.234879458881353e-07,5.431466622211996e-07,1.3671470235036027e-08,-4.306325632649701e-07,-1.2182536919280917e-07,1.5178268828474083e-07,5.008845594737347e-07,-3.1623815485514377e-07,-5.904753434693743e-08,-5.173309318409824e-08,5.077265073175764e-08,-3.112866804182062e-08
8.002304502037585e-07,9.352742851911931e-07,1.10448068656216e-06,4.435594924253255e-07,1.8640174494984358e-07,3.949079908824438e-07,2.2181548510341017e-07,5.43958362483925e-07,2.73802896059006e-08,-4.174444757136444e-07,-9.372579227067541e-08,1.7281236131912677e-07,4.925122605363919e-07,-3.1496245775475996e-07,-5.0713614305340544e-08,-4.023529401800953e-08,5.778314303273163e-08,-6.005252873016527e-08
8.226417989682103e-07,9.188449258678816e-07,1.1004340467100217e-06,4.3372673723140355e-07,2.3074432918416544e-07,4.0548855019347487e-07,2.2290463667495325e-07,5.465584145582152e-07,4.227178413702024e-08,-4.036973540024091e-07,-6.617612259402944e-08,1.9702441409563534e-07,4.845095760695269e-07,-3.15786541932652e-07,-4.3463603532749406e-08,-3.0300070666564864e-08,6.306961970458558e-08,-8.432154864246904e-08
8.530289535054517e-07,9.02509566790765e-07,1.1052096815612138e-06,4.294015336791409e-07,2.825536510800608e-07,4.161415198602943e-07,2.2742686601878066e-07,5.540094947050694e-07,5.8171059604680146e-08,-3.903225293331238e-07,-4.136742005580739e-08,2.2047095876240143e-07,4.792917106737876e-07,-3.1699003205603e-07,-3.58068962381896e-08,-2.207499550377364e-08,6.928379734611866e-08,-9.695157040190134e-08
8.874400524686036e-07,8.920690768022672e-07,1.1188251932378903e-06,4.302240905089975e-07,3.3519364785928043e-07,4.2550251440327456e-07,2.336554292083836e-07,5.653271787411476e-07,7.329616307322344e-08,-3.7845622182477215e-07,-2.176734439600689e-08,2.3814643174245066e-07,4.778709236366441e-07,-3.1817793880079775e-07,-2.7920166152263087e-08,-1.5709730860199598e-08,7.613151506293216e-08,-9.506942374184476e-08
9.214808035848132e-07,8.934373361647527e-07,1.1376376095104768e-06,4.3267993026334163e-07,3.812655572385243e-07,4.3203521168886843e-07,2.3714745334108413e-07,5.787501180034354e-07,8.451578305857603e-08,-3.692187742803354e-07,-9.955952138136037e-09,2.451072847717656e-07,4.791199190050251e-07,-3.2048071881935687e-07,-2.1718482289614208e-08,-1.219541339495852e-08,8.113058213687959e-08,-8.066997887137837e-08
9.511759579025839e-07,9.10802522857431e-07,1.1557602078312756e-06,4.320997477698929e-07,4.0924126115053416e-07,4.337199628322145e-07,2.326068422760968e-07,5.909470943727865e-07,8.910457231426067e-08,-3.6334977276710083e-07,-6.461190617184133e-09,2.3867951151968366e-07,4.808381008911242e-07,-3.260053809050881e-07,-1.8851790913919693e-08,-1.2558513655263292e-08,8.301571439520026e-08,-5.8906523520716214e-08
9.742022469117706e-07,9.445341194109423e-07,1.1689711570727422e-06,4.2565605903375253e-07,4.2060572857308457e-07,4.295305766943556e-07,2.187409617669826e-07,6.004939450164529e-07,8.53391272455128e-08,-3.6142186600783173e-07,-8.845618611079376e-09,2.1995952537449186e-07,4.815487506287354e-07,-3.3491378491373456e-07,-1.89523902468671e-08,-1.667948255956864e-08,8.403824123490495e-08,-3.5364841518282194e-08
9.90479317142213e-07,9.895461424172979e-07,1.1743403512522448e-06,4.1458650156017197e-07,4.1762345672442746e-07,4.2150740080687407e-07,1.9819128341343434e-07,6.071830301151594e-07,7.665389092622099e-08,-3.6352056898844146e-07,-1.254366987460692e-08,1.931766675142865e-07,4.813248179546655e-07,-3.444228775321671e-07,-1.9555812152659318e-08,-2.305846515283938e-08,8.874693426997692e-08,-1.4191392699649364e-08
1.0014249730383963e-06,1.0356499870978283e-06,1.1737420906156368e-06,4.0218392339816463e-07,4.128414187604653e-07,4.121631955549043e-07,1.7299136354518964e-07,6.124144681079034e-07,6.873143420295655e-08,-3.6370015036991996e-07,-1.3623106391583586e-08,1.630416477189863e-07,4.809630539424948e-07,-3.5213004708798536e-07,-1.7930142958710974e-08,-2.995066735257864e-08,1.0032300547716498e-07,2.31588855996737e-09
1.0083158503439626e-06,1.0709356781679097e-06,1.1706489613394204e-06,3.9270563227010765e-07,4.15166160714645e-07,4.037628173247812e-07,1.5638787541307084e-07,6.183970472595718e-07,6.393000996403443e-08,-3.60672069004774e-07,-1.505243878657752e-08,1.3232976720508814e-07,4.804697531649541e-07,-3.557246540742111e-07,-1.3023504306714229e-08,-3.6949557895012895e-08,1.1762459955708115e-07,1.3396131357250448e-08
1.011018751426656e-06,1.0862224417733087e-06,1.1681322838770118e-06,3.8986902934541396e-07,4.131491509513981e-07,3.9739772575918563e-07,1.486103118232292e-07,6.261862930836633e-07,6.19821966945698e-08,-3.5466386775022807e-07,-1.130832241263905e-08,1.0136806273275371e-07,4.785542781472837e-07,-3.548559086658952e-07,-6.14359174279975e-09,-4.53328286761875e-08,1.354636393317091e-07,1.9544105007606915e-08
1.0081977461893394e-06,1.077787660054842e-06,1.165814307320522e-06,3.93906716047131e-07,4.0618778901635175e-07,3.9251361538054977e-07,1.4584471872911837e-07,6.356810869308721e-07,6.069675902452518e-08,-3.4780817918249346e-07,-7.62612632044364e-09,6.981745730837149e-08,4.7378640744307314e-07,-3.5086776365696823e-07,8.154080696032867e-10,-5.664722273193729e-08,1.47967701836749e-07,2.246092761477603e-08
9.999359973649293e-07,1.047780612439956e-06,1.1688864823803983e-06,4.032539553318354e-07,3.9464882172928236e-07,3.884808368862878e-07,1.455960911557681e-07,6.464249414809914e-07,5.7846282460638796e-08,-3.4270060611649646e-07,-1.1243962768683927e-08,3.9052829761281304e-08,4.662448884337111e-07,-3.4643895340714527e-07,6.403758014159722e-09,-7.059884780216043e-08,1.5230213853038072e-07,2.4996495308281747e-08
9.864691777853936e-07,1.00348438450747e-06,1.167141774738991e-06,4.1571045011505736e-07,3.8492686156962165e-07,3.85995943654698e-07,1.462964071831685e-07,6.587950296447328e-07,5.429504291276084e-08,-3.303717710820082e-07,-1.0811821255501113e-08,1.3098285468212686e-08,4.5789290032214396e-07,-3.371717506405485e-07,1.1465090087170979e-08,-8.315864907305885e-08,1.4984554449128056e-07,3.037768031090077e-08
