0,1,2,3,4,5,6,7,8,9,10,11,12,13,14,15,16,17
4.097362029781933e-08,-1.7148330965185978e-07,-1.0161247239353373e-06,-1.8513661822255108e-06,-4.870246489273809e-06,8.66660119470758e-08,7.892573678819653e-07,-3.633214655209225e-08,2.7693561053355775e-08,2.5955989070088162e-08,1.5983941050688051e-07,-1.3409408224723594e-07,-1.3003369792746013e-08,8.348927603848032e-08,4.676295831553546e-09,2.9601505791270197e-07,-2.377130620458879e-06,3.282602690423629e-07
1.291372084113486e-08,-2.279748112887658e-08,-2.3846264613514833e-06,-2.26784236294672e-06,4.1048202001941265e-07,9.412585302863496e-08,8.899265090270941e-08,-7.348325569265674e-08,3.653475860627757e-08,-3.247192089528614e-10,2.4687142983981737e-07,-1.0188042939452654e-07,-1.62818843201835e-08,1.6858138355828458e-08,1.69152236295511e-08,1.708229409370631e-07,-8.852943012062324e-07,4.790932448156123e-07
1.3777501796962602e-09,3.5185131038884906e-08,-3.2712735030659488e-06,-2.679064916858171e-06,5.433794587175895e-06,1.0915591607999889e-07,-6.861951083370396e-07,-8.608083863662452e-08,4.914956291302855e-08,-7.175155068036879e-09,3.2020787547271506e-07,-4.322923173497574e-08,3.664732584216207e-09,-6.485918501134441e-08,4.584964839381251e-08,5.386112108064984e-08,3.277638317628031e-07,4.4684590570241586e-07
8.561395602465667e-09,9.972240828687804e-09,-3.1375646530755577e-06,-2.897439317881722e-06,8.66016951696616e-06,1.2724306735340976e-07,-1.30812391087126e-06,-6.551777117084295e-08,6.674345229869241e-08,6.36142780979902e-09,3.811918763791553e-07,3.9828809746743585e-08,4.217439585919951e-08,-1.2157683357979763e-07,9.115655850915647e-08,-3.296218420888487e-08,1.0810166337722704e-06,2.9161830976986324e-07
3.1005147131087794e-08,-6.918413944335321e-08,-2.7736450201475653e-06,-2.80429472451753e-06,9.515378690850308e-06,1.3926448778595776e-07,-1.7784090095584217e-06,-1.7657631089060164e-08,8.230722058748879e-08,3.759384227017076e-08,4.252659425471806e-07,1.3569760675909e-07,8.96368400837759e-08,-1.0441341213433073e-07,1.4130780796725204e-07,-7.418950979348609e-08,1.3298752599986657e-06,7.877123327327018e-08
6.268119386925213e-08,-1.6183785992201991e-07,-2.6892317535542568e-06,-2.3204424224827637e-06,8.602026823769558e-06,1.3345902704303546e-07,-2.1143873234701883e-06,4.3031364335561135e-08,8.453929470971167e-08,7.706824646048792e-08,4.1365259357562483e-07,2.093211497835524e-07,1.337065971548387e-07,5.640894384250518e-09,1.6375109105288356e-07,-6.511908001916347e-08,1.1607970849443955e-06,-1.1930904354168424e-07
9.322044899689802e-08,-2.3499296225155053e-07,-2.528830966885993e-06,-1.5684401227632383e-06,5.905530646518636e-06,1.0133806620087726e-07,-2.1638491854151414e-06,8.783082312264188e-08,6.539841088592276e-08,1.0383016408219083e-07,3.816420308101665e-07,2.2957401338129602e-07,1.6243073346453144e-07,1.8120118329595274e-07,1.7531249776884488e-07,-1.4212322171343355e-08,7.592372761779331e-07,-2.463907904968e-07
1.1600249783340466e-07,-2.725508044051226e-07,-1.5600460563308465e-06,-7.355404322056724e-07,3.5468589044411914e-06,4.6755110414145774e-08,-1.9022606699358657e-06,1.1378569256415287e-07,2.5180333219925337e-08,1.1902769162263036e-07,3.13463419121794e-07,1.8814504753938643e-07,1.6724361682906205e-07,3.7119671107797396e-07,1.5118979972240955e-07,5.713342278357505e-08,3.452097107215381e-07,-2.991492788543431e-07
1.2549471303851379e-07,-2.7135741963956003e-07,-4.11524110130813e-07,4.954347684557379e-08,2.605438163093676e-06,-2.899356151597848e-08,-1.3148778947207168e-06,9.023223912271328e-08,-2.8144396967948804e-08,1.1284319004234316e-07,1.818778818933779e-07,1.4422871344283285e-07,1.4460076455078048e-07,4.515955366018561e-07,8.585576528934597e-08,1.1929598738450432e-07,8.498927037376024e-08,-2.942202052353254e-07
1.0201795576269577e-07,-2.3337930194726487e-07,7.420723826271689e-07,6.986362891314019e-07,1.8251287579107854e-07,-1.1598386032774472e-07,-4.605870007380113e-07,6.742567307353743e-08,-8.245777954146581e-08,4.691423020399863e-08,6.299074751460647e-08,1.4572359556486888e-07,9.58891512801055e-08,3.439678063810499e-07,8.061139232237984e-08,1.4406684734175777e-07,2.063695319824972e-08,-2.552491071834838e-07
5.1027733446893904e-08,-1.6012525839597286e-07,1.7160858279557927e-06,1.2880754649889177e-06,-3.2289451808858106e-06,-1.8272359613383132e-07,5.162975229769943e-07,9.889963693084243e-08,-1.2410161129780188e-07,2.6126639973906287e-08,-1.2918654919516786e-07,9.241720806701183e-08,2.661204401000301e-08,3.1815100728875054e-07,1.0279306137883074e-08,1.1555352545475137e-07,6.997446673388013e-08,-2.0497775548224186e-07
1.771927575582097e-08,-4.955905063324302e-08,2.514686831491178e-06,1.9138263401528653e-06,-7.004236227976096e-06,-1.997898884054098e-07,1.4361221521713467e-06,3.3132056810833274e-08,-1.40255667950318e-07,5.6629289219849664e-09,-3.664645543382524e-07,-1.1624705368470041e-08,-5.390946949054009e-08,2.0042498800114856e-07,-9.983666696075911e-08,3.6550627542513477e-08,9.734281213452882e-08,-1.5585428713978105e-07
-7.149545010262587e-08,1.0271746259729408e-07,3.009977485498094e-06,2.6594335303831005e-06,-8.846373697770932e-06,-1.4965389314866154e-07,2.1236645915579136e-06,-6.490281344222785e-08,-1.2243611544974614e-07,-5.696597219892541e-08,-5.032593828710144e-07,-1.5119066855986554e-07,-1.3268013634635753e-07,-5.044559657022977e-08,-1.9010773658400758e-07,-7.259649004212724e-08,-4.127366567687039e-09,-1.064759347354577e-07
-1.664992948198775e-07,2.953521106096982e-07,3.4418369438702693e-06,3.419650345574102e-06,-8.426677930901409e-06,-9.5825268885182e-08,2.448427389975063e-06,-9.358731687720954e-08,-6.91694120436958e-08,-1.3277373158841478e-07,-5.664095376493668e-07,-2.2984617152966205e-07,-1.9484515238319516e-07,-3.5065723832633075e-07,-2.2610203045616398e-07,-1.8147542555138537e-07,-2.6891466231317795e-07,-4.9951588216594355e-08
-2.1775711501110225e-07,5.081868400233095e-07,3.9368445710184485e-06,3.81265519274061e-06,-7.105922151777676e-06,-4.552383253962349e-08,2.363390177580468e-06,-7.589361084522384e-08,1.3847536934755005e-08,-1.7144507272486828e-07,-6.282243846533387e-07,-2.4650619647475537e-07,-2.2800599769782171e-07,-5.676680626737156e-07,-2.1797341276036988e-07,-2.60611992719202e-07,-6.57778404313538e-07,1.7333706344666237e-08
-2.0724359282207745e-07,6.95853802320949e-07,4.4113632060168445e-06,3.2826098420647633e-06,-5.379790550040181e-06,-1.9513638896704556e-08,1.9625382500001867e-06,-2.088210165434461e-08,1.1517085204181655e-07,-1.92699699668402e-07,-6.93458798954178e-07,-2.665646589752911e-07,-2.272328657856684e-07,-7.129052131295422e-07,-2.328855398637722e-07,-2.92132525931925e-07,-1.08359794495851e-06,8.965532193752025e-08
-2.2446528920800123e-07,8.000020873132246e-07,4.7858376998673165e-06,1.4061253080757174e-06,-3.4205920339128475e-06,-3.3582761126150334e-09,1.4166532666939678e-06,-9.351020287031628e-09,2.19993920420508e-07,-2.1186166968563475e-07,-7.234393932709982e-07,-2.7214567392387994e-07,-1.9757228397411408e-07,-8.070368933202684e-07,-2.3441752483172671e-07,-2.750494575030104e-07,-1.4490754677049504e-06,1.4847627992522628e-07
-2.4622187820768726e-07,7.737109161888138e-07,4.760137049034698e-06,-1.6779289436195581e-06,-2.0153467263667376e-06,4.702851441825092e-10,9.174354292820969e-07,1.1810360319620822e-08,3.142328137764421e-07,-2.137995778207316e-07,-6.27440700226716e-07,-2.0694726984113538e-07,-1.5218937205054522e-07,-8.483974577040262e-07,-1.8607747797720967e-07,-2.224439402595826e-07,-1.6748003942179094e-06,1.6859323878890165e-07
-2.0123571961400127e-07,6.004616047982258e-07,4.345369974984263e-06,-5.170279355190685e-06,-5.270003889383689e-07,4.801460209893931e-08,6.559506583015856e-07,6.173002347758119e-08,3.89877685421989e-07,-1.867403621746633e-07,-4.953094033247104e-07,-1.0071661222651083e-07,-1.0710128445903444e-07,-8.336355498796253e-07,-1.3915690314175117e-07,-1.5337790066062952e-07,-1.709517836628154e-06,1.3191222393132256e-07
-1.3821397746814758e-07,2.9981237146356955e-07,3.70060600070752e-06,-7.880125352353256e-06,1.3832959067012187e-06,1.088021649915835e-07,7.478290167984633e-07,1.318114665677172e-07,4.480965482300144e-07,-1.4649713768532751e-07,-4.279301753753701e-07,-2.302687239907515e-08,-7.516247351631428e-08,-7.502604300387146e-07,-1.4608732912442226e-07,-8.541961285675093e-08,-1.5430787823453531e-06,3.630628285502264e-08
-9.436377837810712e-08,-7.923065300226787e-08,3.0036757772025957e-06,-8.680316986333512e-06,3.2519520475726343e-06,1.6145947567789907e-07,1.2371453817403315e-06,2.0638063024385002e-07,4.966302259890151e-07,-1.211783274192427e-07,-3.2574826760584823e-07,3.756825234214964e-08,-6.18795379767112e-08,-5.857090597144182e-07,-1.8291858780211827e-07,-3.115334808841921e-08,-1.2257295932093468e-06,-1.040486971067185e-07
-6.301108013143324e-08,-4.72878963223313e-07,2.4291498023769697e-06,-7.194126474561745e-06,4.8270402677125285e-06,2.1065782236468982e-07,2.0456916109030155e-06,2.7904437608359414e-07,5.422612363852507e-07,-1.0315517865994876e-07,-2.265202261795318e-07,9.446242177655939e-08,-6.480875772048118e-08,-3.433647501303305e-07,-2.2476902556095636e-07,2.271369184400895e-09,-8.52067580483027e-07,-2.6065475028570704e-07
-3.530530279735594e-08,-8.179396431781039e-07,2.0666751091799927e-06,-3.737615275220215e-06,5.569190277229834e-06,2.2771612481918663e-07,2.9776901266718804e-06,3.4915548347122614e-07,5.838518965317155e-07,-8.631277444771021e-08,-1.249767616760937e-07,1.487523346173154e-07,-7.661360276704542e-08,-5.435676115240941e-08,-2.574674482098149e-07,1.2606722405020105e-08,-4.95238101634338e-07,-3.9611869599716817e-07
-1.1439536820575224e-08,-1.0649364166924631e-06,1.8994594221986476e-06,4.916631811734843e-07,5.188148354275944e-06,2.421327519806421e-07,3.6636218034358395e-06,3.955311730814085e-07,6.117418431687606e-07,-7.23874887725608e-08,-5.389683092582857e-09,2.010284922734636e-07,-8.961428355136446e-08,2.262325642514741e-07,-2.702063392771965e-07,1.7888410606926595e-09,-1.6267922293522142e-07,-4.738960416730001e-07
9.426393095990926e-09,-1.1889751793333052e-06,1.8334928959938454e-06,4.450638266134379e-06,3.855949741560594e-06,2.730627792090315e-07,3.6318697211452006e-06,4.193737186689594e-07,6.144736491949228e-07,-6.219766687940143e-08,9.864011864394297e-08,2.476473316553898e-07,-9.90297140930641e-08,4.396522884854979e-07,-2.593244607155732e-07,-2.4745713511666418e-08,1.5907607332870258e-07,-4.6997303091177665e-07
2.7127839736366056e-08,-1.192670203889142e-06,1.799043259474641e-06,7.705427022357463e-06,1.8768514865218476e-06,3.0839752952573405e-07,3.1995512262097734e-06,4.4047148355579544e-07,5.875414897679681e-07,-5.627299298558215e-08,1.8857301343964258e-07,2.829194096916296e-07,-1.035939734374653e-07,5.467202714142717e-07,-2.2695789364961217e-07,-5.8875489016491735e-08,4.170436980293137e-07,-3.821157231623173e-07
4.140987649970076e-08,-1.099317465362373e-06,1.7201367809058307e-06,1.0240722656122274e-05,-3.865095018090451e-07,3.4594713609210714e-07,2.6823177307652933e-06,4.590540891781472e-07,5.370609249945834e-07,-5.325195586588059e-08,2.497778985230118e-07,3.0187570393490343e-07,-1.0409827082078597e-07,5.386600782208035e-07,-1.7987970231721222e-07,-9.143376860131015e-08,4.6993204683376273e-07,-2.32774107030703e-07
5.2184266164707275e-08,-9.451645521216263e-07,1.5977646202061854e-06,1.288248546018576e-05,-2.4479894044389683e-06,3.553630841779004e-07,2.3933744011450934e-06,4.6122550262020144e-07,4.76492854977167e-07,-5.09957090223164e-08,2.691465534451384e-07,3.015486243316935e-07,-1.0165537095675255e-07,4.3306778954073315e-07,-1.2886003920180283e-07,-1.1479394902278938e-07,1.7121256308849333e-07,-6.220058331740824e-08
5.8779550725516896e-08,-7.733436015078746e-07,1.5082221534836518e-06,1.5116564799390727e-05,-3.794728858329498e-06,3.342675253610574e-07,1.3598716992779209e-06,4.456812323859222e-07,4.2024256045795904e-07,-4.948211039788019e-08,2.4586249427567804e-07,2.8030548989526173e-07,-9.74352253021597e-08,2.630815584608771e-07,-8.729114323719202e-08,-1.255073208139565e-07,-5.048537859306475e-07,8.509190570332534e-08
5.88360643892926e-08,-6.223405543816076e-07,1.530459124190771e-06,1.689104862546308e-05,-4.121104449023693e-06,3.1428265832335455e-07,-2.17978838869161e-07,4.225387900075384e-07,3.780815062853173e-07,-5.164028465706058e-08,1.8131929394447182e-07,2.3643917352239982e-07,-9.397493187786985e-08,6.525635725297386e-08,-6.827395831658733e-08,-1.2594869751159707e-07,-1.3886636543384744e-06,1.760923219505023e-07
4.81946200001982e-08,-5.116623898934499e-07,1.7185430128616636e-06,1.7853350197528833e-05,-3.3102497711242287e-06,2.88405791355829e-07,-1.4733311645064945e-06,3.998209952141513e-07,3.5217404835012046e-07,-6.410797320083629e-08,7.883708514692083e-08,1.6803557036774352e-07,-9.629898707853704e-08,-1.312573881254261e-07,-8.066760587649265e-08,-1.2424304271157187e-07,-2.1480731552547637e-06,1.969009392995958e-07
2.2438265389924627e-08,-4.377918718826848e-07,2.0618881470248693e-06,1.5965530048383793e-05,-1.5186298692586351e-06,2.5035554432636323e-07,-2.416921299672239e-06,3.9605334704780174e-07,3.376641499251567e-07,-9.254971172192645e-08,-5.571446290432795e-08,7.493511626892473e-08,-1.107831464712543e-07,-3.0883437352809336e-07,-1.257539157709993e-07,-1.3161065572987055e-07,-2.425887926871508e-06,1.4971745622745447e-07
-2.036243710688352e-08,-3.848210993683852e-07,2.48900138834078e-06,1.41732691113426e-05,8.567971086514313e-07,1.850794364871058e-07,-2.7718962957439375e-06,3.9442943690050453e-07,3.263817989097817e-07,-1.372864722507433e-07,-2.1310811316412673e-07,-3.852161815537607e-08,-1.4158470663222619e-07,-4.5718839927054306e-07,-1.964731263156746e-07,-1.5667566544778875e-07,-2.015404584388805e-06,4.756175870135377e-08
-7.689597838774915e-08,-3.392197815241576e-07,2.904189302003962e-06,1.3979352168792022e-05,3.411875750618991e-06,1.029432685457204e-07,-2.474415712243411e-06,3.4072088917049687e-07,3.114577577860799e-07,-1.9291565931843625e-07,-3.807526732147384e-07,-1.6225329916315174e-07,-1.873028587148051e-07,-5.676899586950688e-07,-2.7965281243057843e-07,-1.993684332775053e-07,-9.57418626326322e-07,-8.800158823729891e-08
-1.3931733002355012e-07,-2.965179022320281e-07,3.226003636049443e-06,1.4820965862109246e-05,5.906596419377248e-06,2.482987403564877e-08,-2.3742506248074925e-06,2.628550502254744e-07,2.905524286592533e-07,-2.481111056030616e-07,-5.429869733179967e-07,-2.8193748449202786e-07,-2.411366759207693e-07,-6.32808159944738e-07,-3.600040520563142e-07,-2.498626083138061e-07,5.079039730450546e-07,-2.2979366146606308e-07
-1.9793164809752935e-07,-2.600874070046379e-07,3.4105880440092892e-06,1.2165032873763346e-05,8.332806253342485e-06,-3.093260798073679e-08,-2.3342124500810302e-06,1.729877979145488e-07,2.6624910927301517e-07,-2.9113770941769937e-07,-6.817722387402711e-07,-3.825674571282699e-07,-2.946098488118811e-07,-6.496308429213649e-07,-4.2524753204887075e-07,-2.9447267136475337e-07,2.0663578051936766e-06,-3.523942971172067e-07
-2.4465553371419326e-07,-2.3906199946544616e-07,3.457032227089617e-06,8.417188152359816e-06,1.0814683591118924e-05,-5.257941461635327e-08,-1.8272961645319563e-06,1.2554296155441726e-07,2.4315304949216616e-07,-3.148547619610008e-07,-7.792663641617918e-07,-4.521973781466608e-07,-3.413297916082574e-07,-6.226662814812432e-07,-4.663027255733247e-07,-3.238543010159351e-07,3.4221701097970143e-06,-4.40794393086031e-07
-2.7602672063853317e-07,-2.4604635729398907e-07,3.3956585846422518e-06,7.637809186931926e-06,1.3385944987970987e-05,-6.080205030503259e-08,-1.1411692226130006e-06,9.728850038442542e-08,2.2367860203355136e-07,-3.189538819021456e-07,-8.226026929910525e-07,-4.842816523530104e-07,-3.776303319353512e-07,-5.628407278432447e-07,-4.821558418856697e-07,-3.3747881542697313e-07,4.347576735164934e-06,-4.944786381644362e-07
-2.935784090576614e-07,-2.9210144389461923e-07,3.2601353775782976e-06,6.734521452931661e-06,1.5803749425814918e-05,-5.540419319490461e-08,-5.63604529932884e-07,8.015774981520282e-08,2.0616170806135794e-07,-3.087525136105005e-07,-8.08572801961233e-07,-4.782649761060171e-07,-4.0077795273103825e-07,-4.82294761010526e-07,-4.780367271109117e-07,-3.419015723756444e-07,4.7390532719126e-06,-5.241923610526608e-07
-3.0163656301990143e-07,-3.8048391400706954e-07,3.0588539034496993e-06,3.855866140744218e-06,1.7555659216512155e-05,-3.872390723906494e-08,-3.6670881341587784e-08,8.411767132877415e-08,1.8677937573359056e-07,-2.9146340953174645e-07,-7.455177495398541e-07,-4.391065461199454e-07,-4.0793574777748457e-07,-3.8853662938194045e-07,-4.614357504520285e-07,-3.4497294942908783e-07,4.652332542676492e-06,-5.446910810045433e-07
-3.0432695963542644e-07,-5.023632466012752e-07,2.7790619383305398e-06,1.6942731491043823e-06,1.807921191257692e-05,-4.493158441289849e-09,2.4531049386495644e-07,1.2742265454081792e-07,1.6336691878841663e-07,-2.7273445107451977e-07,-6.51327454588306e-07,-3.727927266501192e-07,-3.9488241859933e-07,-2.8339503577626774e-07,-4.412657886316068e-07,-3.513713313340803e-07,4.237670010377996e-06,-5.680022347961558e-07
-3.0427669475928144e-07,-6.380802856010847e-07,2.4264668207296735e-06,4.3275941991731264e-06,1.7026013959229334e-05,3.7393506654638736e-08,3.2359614548620756e-07,1.6604686915901805e-07,1.3823078243610631e-07,-2.549665293918094e-07,-5.485684421051204e-07,-2.9746828267222265e-07,-3.694277791661092e-07,-1.6741067895774737e-07,-4.21645748795358e-07,-3.628126536898812e-07,3.5997751434985725e-06,-5.997963080002986e-07
-3.0318354021229867e-07,-7.661407782327568e-07,2.055642166184117e-06,6.672371646941594e-06,1.441221176659341e-05,7.078106369027081e-08,2.489139275803138e-07,1.911305750641772e-07,1.1690600138839675e-07,-2.3950003366483754e-07,-4.594403030034687e-07,-2.2648776768994088e-07,-3.3546711793551554e-07,-4.555282968162025e-08,-4.0828783160719036e-07,-3.8092812253883527e-07,2.7193047260233717e-06,-6.402581021471455e-07
-3.0348701329707906e-07,-8.756780961422412e-07,1.7558936377994086e-06,7.0385484476241995e-06,1.0657855369532874e-05,8.524550732357512e-08,1.513399380659165e-07,1.9980486586384898e-07,1.0365905443422199e-07,-2.2828997847537608e-07,-4.0209257373604255e-07,-1.799516972923984e-07,-3.0216649944796615e-07,6.974346393368791e-08,-3.985285218642389e-07,-4.089599626549637e-07,1.5192678405228487e-06,-6.882758417377624e-07
-3.09125492575898e-07,-9.740401493920608e-07,1.599174393319478e-06,7.704402229600946e-06,6.531197506559402e-06,6.748802473743002e-08,1.3873289033305455e-07,1.8230158987345985e-07,9.79052186912076e-08,-2.2430169952707068e-07,-3.8744631624464087e-07,-2.3226939505343606e-07,-3.115074104830221e-07,1.5998488331424526e-07,-3.8900761914891396e-07,-4.502828430128306e-07,5.913975523173815e-09,-7.449533117438582e-07
-3.242317844751891e-07,-1.0837899060662453e-06,1.5913649888542155e-06,5.153922078717591e-06,2.942000738896822e-06,1.8822698784504656e-08,1.662759505155896e-07,1.321513760946158e-07,9.463994740648388e-08,-2.3053249251043172e-07,-4.17035551293198e-07,-2.699575094455644e-07,-3.6712948565670143e-07,2.0518108445686798e-07,-4.122794758253842e-07,-5.043622468013044e-07,-1.648551134162234e-06,-8.099084335558209e-07
-3.5080070235065247e-07,-1.2280473933322586e-06,1.6664156081768394e-06,2.4855068023759616e-06,6.22169775968725e-07,-5.861549144187372e-08,2.957640015046226e-07,5.962753125911306e-08,8.804692510722983e-08,-2.467532903059746e-07,-4.847240512704945e-07,-3.2613562997490174e-07,-3.740768858721415e-07,1.8895459968941305e-07,-4.7665136359275195e-07,-5.638669175561485e-07,-3.1429820839646267e-06,-8.757437413644288e-07
-3.867433194616224e-07,-1.4112288541183953e-06,1.7300759414664505e-06,2.8447833698358246e-07,-1.3065307182377564e-07,-1.551161781616065e-07,5.149563003951781e-07,-2.3010264130968417e-08,7.511594863614881e-08,-2.6947275722260294e-07,-5.815866054833719e-07,-4.176044929762868e-07,-4.5620338997379744e-07,1.0297204551486208e-07,-5.453363457027435e-07,-6.170848114690359e-07,-4.172848090359331e-06,-9.280691674140972e-07
-4.259845975339744e-07,-1.608836328249443e-06,1.7196591163847905e-06,-9.892077757660267e-07,4.829601414274302e-07,-2.562123404089028e-07,7.244878345025723e-07,-1.001656914047797e-07,5.689138431259192e-08,-2.9294450845717346e-07,-6.982164172971547e-07,-5.642158886243483e-07,-5.825144634314481e-07,-4.980647773292456e-08,-5.836739468370138e-07,-6.547009158841251e-07,-4.563854093598118e-06,-9.518281407745275e-07
-4.605237697643866e-07,-1.772853883643333e-06,1.6360071088840767e-06,-7.529012879500442e-07,1.8830253944614326e-06,-3.433454334900828e-07,7.93015924997217e-07,-1.5890850209338883e-07,3.686229854698058e-08,-3.115913185782093e-07,-8.221032789899132e-07,-6.729453219987845e-07,-6.46445194517618e-07,-2.541690637615953e-07,-5.958599070278968e-07,-6.749866959123676e-07,-4.335355768573033e-06,-9.401543812218188e-07
-4.839277193269884e-07,-1.8483852569877148e-06,1.5279024627360063e-06,5.451717097228419e-07,3.3322140573911887e-06,-4.041635029332527e-07,5.698167700793103e-07,-1.8878105182715184e-07,1.875844435605608e-08,-3.2295599353527855e-07,-9.34928090607574e-07,-7.124854916748939e-07,-6.330679842621198e-07,-4.842885326299004e-07,-5.822752378906054e-07,-6.83208351174983e-07,-3.6737440391240288e-06,-8.947997165324965e-07
-4.930729559335366e-07,-1.7951913397823148e-06,1.4510921123842482e-06,2.2026651711277864e-06,4.161727758201041e-06,-4.38504751141368e-07,-1.7053457814501645e-08,-1.8721203139338847e-07,6.547250592846452e-09,-3.272559813086034e-07,-1.0144574788274185e-06,-7.434211251875602e-07,-6.403865848544614e-07,-7.083630824483002e-07,-5.257905229586643e-07,-6.868446946487551e-07,-2.8531562568769334e-06,-8.28315877530091e-07
-4.885773092269456e-07,-1.6055181918227652e-06,1.4418017317049924e-06,4.18585161189332e-06,3.913739865745635e-06,-4.522333064379675e-07,-8.571222304368716e-07,-1.6035710345211613e-07,6.0156980021917064e-09,-3.255323669904694e-07,-1.0408373793753493e-06,-7.149351416471271e-07,-6.527864524775599e-07,-8.950477571067882e-07,-4.53671074233858e-07,-6.908142453538327e-07,-2.1432142900753783e-06,-7.639839584188045e-07
-4.734340239758341e-07,-1.3063264249032893e-06,1.5156772984522395e-06,6.298637001952083e-06,2.387279062911628e-06,-4.530253033611136e-07,-1.6982622617151087e-06,-1.1598530590673435e-07,2.5056779675580035e-08,-3.1772147602287124e-07,-1.0045639366570493e-06,-6.69620398177222e-07,-6.936490731205833e-07,-1.018628601631804e-06,-3.7740597667846905e-07,-6.949516564955245e-07,-1.730417128912298e-06,-7.314196957577109e-07
-4.5123244714288184e-07,-9.440205690824632e-07,1.6705922601320838e-06,8.772738227542972e-06,-3.5464667346941377e-07,-4.440809551321655e-07,-2.289794409084987e-06,-6.207239545618797e-08,7.040087561622409e-08,-3.0230013401050655e-07,-9.120443322739908e-07,-6.137047667056446e-07,-6.405075931307996e-07,-1.0617701228962083e-06,-3.028543859394679e-07,-6.943451335992112e-07,-1.6749068626895508e-06,-7.57590129523905e-07
-4.2527452537914216e-07,-5.667886755473649e-07,1.8798126812543692e-06,1.186864523799737e-05,-3.964095335581482e-06,-4.2394114028266763e-07,-2.4438573922437617e-06,-4.437744749377487e-09,1.4308995952356467e-07,-2.7782299393631195e-07,-7.841568165480719e-07,-5.574541243905796e-07,-5.677642661573428e-07,-1.0183314024597515e-06,-2.421334263171478e-07,-6.822962996180135e-07,-1.9035074158421997e-06,-8.52431111567893e-07
-3.985919767343507e-07,-2.1823587946388303e-07,2.0927311422682045e-06,1.5104575902974516e-05,-7.812864436662892e-06,-3.9066271942174924e-07,-2.107890998924237e-06,5.229214918056781e-08,2.366019747319072e-07,-2.4566197635666314e-07,-6.471169330518304e-07,-5.085707118639884e-07,-5.326550197367813e-07,-8.976073494333283e-07,-1.9520742526659522e-07,-6.545952513348409e-07,-2.2403466183962656e-06,-9.983900834533578e-07
-3.7455018037059856e-07,6.252337633884412e-08,2.2496901647685627e-06,1.7441477027361396e-05,-1.1129632594282571e-05,-3.449439276041023e-07,-1.3825785233777174e-06,1.026186857912906e-07,3.3880491170110375e-07,-2.1022019068718336e-07,-5.215981182156103e-07,-4.7208804300598093e-07,-4.851959189645557e-07,-7.256021682424775e-07,-1.6322571959300549e-07,-6.128469169525035e-07,-2.5007002690168696e-06,-1.1511145529336801e-06
-3.5634917696442744e-07,2.436966568705172e-07,2.304226363696228e-06,1.832544722620069e-05,-1.3272407591328013e-05,-2.9032666775103125e-07,-4.7254291018083215e-07,1.4070184281758473e-07,4.366148241629038e-07,-1.772988847403005e-07,-4.177915899927589e-07,-4.4973193710942705e-07,-4.5589233940194826e-07,-5.387577027384545e-07,-1.4474683337384876e-07,-5.641658970547013e-07,-2.617778200327821e-06,-1.2546317065945073e-06
-3.455299643192812e-07,3.049729348380023e-07,2.230617087223731e-06,1.7042032947277346e-05,-1.3955933180160723e-05,-2.3128371182396295e-07,3.7041618301028597e-07,1.630093837009541e-07,5.205498486060024e-07,-1.5112684567414404e-07,-3.378565960549552e-07,-4.3941433021049793e-07,-4.437152658249886e-07,-3.7270144533612025e-07,-1.3348029019630443e-07,-5.167162589162981e-07,-2.6839520058614388e-06,-1.2638341206538344e-06
-3.405151778970791e-07,2.3947078606319396e-07,2.028390478941465e-06,1.3480847119148862e-05,-1.3257122331617972e-05,-1.7225443974054792e-07,9.285299981185031e-07,1.7103081377017553e-07,5.867060653153834e-07,-1.3219012923186655e-07,-2.80876305170674e-07,-4.359681829009932e-07,-4.344081278694705e-07,-2.5313804060670904e-07,-1.2249745640137167e-07,-4.753247655846573e-07,-2.8499024084373056e-06,-1.165537278875393e-06
-3.370686666884425e-07,5.381920611194326e-08,1.7311216279371952e-06,1.3740482722769266e-05,-1.1447236112224086e-05,-1.182356448093222e-07,1.0935211914083191e-06,1.7109539655166082e-07,6.353585361881475e-07,-1.1825716914991124e-07,-2.461373806388961e-07,-4.3311704962341174e-07,-4.3935315544579713e-07,-1.9296838587372119e-07,-1.0752903582322725e-07,-4.414247098723854e-07,-3.1779514816463056e-06,-9.876032100948464e-07
-3.308089036622651e-07,-2.3340522558093396e-07,1.4102731964210987e-06,1.284295515244146e-05,-8.872494743285598e-06,-7.54784154041136e-08,9.026594914404501e-07,1.7070525683234436e-07,6.681432660851288e-07,-1.0663364465999193e-07,-2.3402725537144209e-07,-4.2631389749755474e-07,-4.46443010599163e-07,-1.9418708756305955e-07,-8.92122486818214e-08,-4.1539645986615714e-07,-3.5780993361686305e-06,-7.878061460723503e-07
-3.1990511785872315e-07,-5.919494936434899e-07,1.1482470396002613e-06,9.776034036789957e-06,-5.963776686192805e-06,-5.076276432319075e-08,5.20490347182413e-07,1.7401555030310542e-07,6.864898973618612e-07,-9.688823445938563e-08,-2.4447178165818237e-07,-4.1512299973087006e-07,-4.552833742026347e-07,-2.508293518281012e-07,-7.267656695562138e-08,-3.9621273572236626e-07,-3.857087659587992e-06,-6.268406054974922e-07
-3.0619973270754336e-07,-9.755250649313518e-07,9.904952599933206e-07,7.478751124292706e-06,-3.2015172450703693e-06,-4.904745295739123e-08,1.6608147070082183e-07,1.801190738838456e-07,6.914497292374693e-07,-9.027414591516529e-08,-2.7382262164977097e-07,-4.032547600260397e-07,-4.6788172283691014e-07,-3.501170180930692e-07,-6.479211333748421e-08,-3.7859338005539774e-07,-3.816572631761893e-06,-5.397302679896693e-07
-2.9397548877109235e-07,-1.3191525516177216e-06,9.288510889862131e-07,5.023102969375019e-06,-9.221981912215808e-07,-7.068210406562674e-08,1.8368892410452396e-08,1.8543614497285714e-07,6.834411163103734e-07,-8.821740448182589e-08,-3.1237956293268507e-07,-3.9577758766653266e-07,-4.804628663399094e-07,-4.724043544589947e-07,-7.029748388928815e-08,-3.532757440257217e-07,-3.323424706550007e-06,-5.221957222779308e-07
-2.86686137862966e-07,-1.5498163375097193e-06,9.316117608445101e-07,2.4825241243603217e-06,8.662544665860196e-07,-1.0971159708159269e-07,1.5437604827625841e-07,1.877416423132332e-07,6.625780424331004e-07,-8.921894579582614e-08,-3.4544509932682594e-07,-3.9552037702214936e-07,-4.870219230457402e-07,-5.926865837138224e-07,-8.865631143436776e-08,-3.125923301196021e-07,-2.3305910719313344e-06,-5.410931861076813e-07
-2.8495594463050135e-07,-1.6106933788291343e-06,9.763500355013133e-07,1.6457252753679317e-06,2.4465065722176933e-06,-1.5554376129198164e-07,5.451793107197598e-07,1.878781409775479e-07,6.313550966889582e-07,-8.933458598748337e-08,-3.582023362621897e-07,-4.0176652263132024e-07,-4.797704585301798e-07,-6.85574097959218e-07,-1.1398009944972859e-07,-2.569135313706218e-07,-8.839658198273847e-07,-5.570330818604588e-07
-2.868100289643987e-07,-1.4850469159716965e-06,1.049604003654122e-06,1.6079530468425596e-06,4.158110874682958e-06,-1.974343598042449e-07,1.0826747440683648e-06,1.8772673224175615e-07,5.972753719967314e-07,-8.484299190642335e-08,-3.42066224138832e-07,-4.121335476923984e-07,-4.531237433777319e-07,-7.323112432479617e-07,-1.389255885589831e-07,-1.9670711066499336e-07,8.530569175401331e-07,-5.429357775576826e-07
-2.897506649284688e-07,-1.2049924081668681e-06,1.1314790043450992e-06,1.5254652673696659e-06,6.157751063825132e-06,-2.291909788662021e-07,1.6065506217370145e-06,1.8689334484321765e-07,5.708598068397771e-07,-7.463825120972726e-08,-2.989900259292403e-07,-4.255117191830643e-07,-4.0779100654242256e-07,-7.266168162837783e-07,-1.5985958748110808e-07,-1.4886748435481513e-07,2.5829348423235618e-06,-4.893226666230404e-07
-2.9306966477834807e-07,-8.39983574422234e-07,1.189328737578248e-06,1.0708630478807763e-06,8.295417379954852e-06,-2.507675484235635e-07,1.935400132695055e-06,1.8195100848138334e-07,5.60170603301113e-07,-6.221103572801258e-08,-2.4110811971834045e-07,-4.4302094141866576e-07,-3.511731757913632e-07,-6.771185326351594e-07,-1.7838226942958042e-07,-1.292363988187742e-07,3.9230339727804565e-06,-4.009603307007864e-07
-2.9792725347235873e-07,-4.715780145568914e-07,1.2081204818509117e-06,-3.3662985684206274e-07,1.0129359946204547e-05,-2.6698626533795036e-07,1.9140759475397422e-06,1.6944806564289085e-07,5.671997380437128e-07,-5.3357211051133556e-08,-1.8542845742983537e-07,-4.663264488198114e-07,-2.933331453896239e-07,-6.051567315120539e-07,-1.975820462390152e-07,-1.4553535917719518e-07,4.536909274267416e-06,-2.944228580734943e-07
-3.0596917408823e-07,-1.6865977390850536e-07,1.234405706989664e-06,-2.6542270870227145e-06,1.1084931003441764e-05,-2.8064362864157386e-07,1.452077278711097e-06,1.4992449394202671e-07,5.885086579681154e-07,-5.2494585819408084e-08,-1.4618730709141416e-07,-4.95604560363759e-07,-2.4161712004558064e-07,-5.383023641201151e-07,-2.172022843339699e-07,-1.9496028209183553e-07,4.290036586238538e-06,-1.9609876901406458e-07
-3.17450635581016e-07,2.587278228330805e-08,1.3910072126525015e-06,-5.0852161980750816e-06,1.0728853324645777e-05,-2.904784154144586e-07,6.187684899765882e-07,1.2899627120139363e-07,6.178895030117818e-07,-6.026799861996541e-08,-1.3015602516821026e-07,-5.295956248857627e-07,-1.9813068477930806e-07,-5.011326017305567e-07,-2.330657295658586e-07,-2.6666274118903665e-07,3.329164714157341e-06,-1.3592497737242913e-07
-3.306635837445999e-07,9.719632583192453e-08,1.8093283406583247e-06,-7.487854795830446e-06,9.03204522858966e-06,-2.9291059699544274e-07,-4.122278742733504e-07,1.1417160279048864e-07,6.486735602701876e-07,-7.385416616054776e-08,-1.3773316407719593e-07,-5.676349548763393e-07,-1.6207097202427813e-07,-5.058679172764412e-07,-2.408713098362113e-07,-3.45787037430983e-07,2.018787001407947e-06,-1.377145254224909e-07
-3.4322966411499445e-07,5.501635886714214e-08,2.565516478923812e-06,-9.47769120640951e-06,6.431526962137325e-06,-2.853283483714114e-07,-1.3515094682621405e-06,1.0994250473477683e-07,6.751361077562357e-07,-8.947192294793729e-08,-1.6778165372973498e-07,-6.113304127034763e-07,-1.3475938291071895e-07,-5.472566561535526e-07,-2.4044621273596743e-07,-4.1711310577225756e-07,7.64525399484793e-07,-2.1094018676290597e-07
-3.5407758519429616e-07,-7.424523889837204e-08,3.5363528483323776e-06,-1.0432719031196404e-05,3.6254566473574448e-06,-2.699173647365137e-07,-1.6814970532192019e-06,1.1503351056560378e-07,6.92540422874893e-07,-1.0504294766831084e-07,-2.2188538207818984e-07,-6.635544431242752e-07,-1.2228526629085655e-07,-6.057200775600892e-07,-2.3683392634600598e-07,-4.6869760086759646e-07,-1.7602256959430215e-07,-3.492739629640042e-07
-3.6440808447701074e-07,-2.5881076512857774e-07,4.523327267420184e-06,-9.965019977501089e-06,1.2625222227071405e-06,-2.5347095078521337e-07,-1.8059603979498062e-06,1.2383362173996486e-07,6.957754161570131e-07,-1.204042979535897e-07,-3.036889503310103e-07,-7.246850094859163e-07,-1.3249715130741977e-07,-6.573868533847019e-07,-2.374578726896525e-07,-4.951135969627477e-07,-7.911185583410839e-07,-5.284876793977764e-07
-3.764929587591195e-07,-4.6996778168708863e-07,5.248318014628479e-06,-8.163937074951272e-06,-2.708258190998946e-07,-2.4322763936666145e-07,-1.5764958648099135e-06,1.3070909838792462e-07,6.794085172624599e-07,-1.3625292352569526e-07,-4.1218803156554076e-07,-7.887797372383896e-07,-1.6852683298958032e-07,-6.848965853965158e-07,-2.472992290828139e-07,-4.984781923021759e-07,-1.2655555295680603e-06,-7.099672651161689e-07
-3.9131424421800083e-07,-6.823423584389295e-07,5.108049047681201e-06,-5.581219177685818e-06,-9.155415720710133e-07,-2.4385079193935e-07,-1.0124529980211811e-06,1.3387913089869513e-07,6.419569054287865e-07,-1.5121950128425678e-07,-5.34653331575886e-07,-8.433799170367002e-07,-2.2431840190901517e-07,-6.837539075694357e-07,-2.6552914184768583e-07,-4.86302306044794e-07,-1.8174364839517004e-06,-8.511367274071112e-07
-4.0713938500891536e-07,-8.707326714399096e-07,4.88820969778084e-06,-3.00300913443134e-06,-9.00349304422471e-07,-2.5418180825178585e-07,-1.425981355545976e-07,1.361163253551151e-07,5.913185670995871e-07,-1.5958321687892154e-07,-6.472103871826203e-07,-8.74261071105661e-07,-2.858790398923804e-07,-6.625451879921713e-07,-2.862437771716254e-07,-4.673655592049349e-07,-2.5310594418685026e-06,-9.183868878809271e-07
-4.202934645696309e-07,-1.0120856428667928e-06,4.397735998112173e-06,-1.280708446563912e-06,-6.236440193417566e-07,-2.6849020147769384e-07,5.453669064474482e-07,1.4199137183799795e-07,5.451123206479095e-07,-1.592836667622433e-07,-7.249956053444355e-07,-8.726376613521966e-07,-3.373847251889006e-07,-6.374808482480824e-07,-3.0244603700864417e-07,-4.4826837530408066e-07,-3.2903617879196964e-06,-8.982318869913847e-07
-4.2823544371749574e-07,-1.092106314153179e-06,3.5995044235642066e-06,-6.812065365940013e-07,-4.964163628364286e-07,-2.8080726093696e-07,9.324243429345179e-07,1.5394553386537952e-07,5.239505843546562e-07,-1.521592908883371e-07,-7.550996615574507e-07,-8.404344473565544e-07,-3.6761725209598756e-07,-6.236127904337069e-07,-3.099803306645376e-07,-4.3251711702765174e-07,-3.8429288574418065e-06,-8.006998812556721e-07
-4.311415709996803e-07,-1.108238236487321e-06,2.409203791068081e-06,-9.852708398316533e-07,-8.254201558958105e-07,-2.879532107256538e-07,1.1050765946160024e-06,1.704912734088681e-07,5.417407688950949e-07,-1.401704427576793e-07,-7.431139444253843e-07,-7.902513703446582e-07,-3.728259448348866e-07,-6.27478689762017e-07,-3.089040796802744e-07,-4.215384309595193e-07,-3.942226136173814e-06,-6.527622540819805e-07
-4.316838063519965e-07,-1.0682858640415728e-06,1.4685091559014856e-06,-1.614156115508755e-06,-1.781218610829858e-06,-2.908852337540199e-07,1.164130813281156e-06,1.8750373927458525e-07,5.993412618175077e-07,-1.257870448108198e-07,-7.096515088224989e-07,-7.39984213174108e-07,-3.560722962808864e-07,-6.465126216302917e-07,-3.0251155710512125e-07,-4.1607057665294976e-07,-3.4751614678788355e-06,-4.877924640423965e-07
-4.321046410810574e-07,-9.918113908607835e-07,9.22036048307522e-07,-1.888271358434067e-06,-3.4076751142666703e-06,-2.931054291542594e-07,1.250324157121236e-06,2.00888009758517e-07,6.847054127142239e-07,-1.1303641148439272e-07,-6.796365864810579e-07,-7.056457257982787e-07,-3.251788332699071e-07,-6.751172579274328e-07,-2.954145935611688e-07,-4.1761089255306937e-07,-2.515176798235072e-06,-3.377812156847674e-07
-4.3366959646289785e-07,-9.131382028929667e-07,7.369557277991359e-07,-1.3855602694252128e-06,-5.609260681475715e-06,-2.979417919265664e-07,1.4442444823835338e-06,2.085109538382423e-07,7.776102580755963e-07,-1.0252194630187141e-07,-6.697671716545408e-07,-6.966484386140612e-07,-2.90357020287187e-07,-7.104048463194081e-07,-2.918529632666894e-07,-4.295875521874912e-07,-1.3028008371159283e-06,-2.2756614308064977e-07
-4.359220161799128e-07,-8.761322707166209e-07,9.39346070245445e-07,-1.0608047998806833e-07,-8.123591269653677e-06,-3.0574254690834337e-07,1.726316366461847e-06,2.102981062777905e-07,8.555997254403678e-07,-9.35474029134769e-08,-6.809880511766547e-07,-7.148760084401951e-07,-2.617240233202816e-07,-7.508298219243142e-07,-2.946288564868831e-07,-4.5664343844510726e-07,-1.68952583703313e-07,-1.7105278717195741e-07
-4.383139146254219e-07,-9.175445290482837e-07,1.4360382927732618e-06,1.5359616133217181e-06,-1.054405343652874e-05,-3.149408570659627e-07,1.9953551762312472e-06,2.0682215603720858e-07,9.002735532392768e-07,-8.974227522871753e-08,-7.00934051120186e-07,-7.559027715526945e-07,-2.470821326780927e-07,-7.88636737183088e-07,-3.0468937386639364e-07,-5.014402294893795e-07,5.820163676670988e-07,-1.7011193014829185e-07
-4.4191866908936803e-07,-1.0470574066053236e-06,2.065390584286986e-06,2.900332673740772e-06,-1.2429216430586092e-05,-3.23184611647213e-07,2.130239009319249e-06,1.9785778339743009e-07,9.033958585532573e-07,-9.111616296169811e-08,-7.132725255102816e-07,-8.105558557185999e-07,-2.503621343890371e-07,-8.048778256507215e-07,-3.2113341194692556e-07,-5.611325535232068e-07,7.760517098772485e-07,-2.1686303083863285e-07
-4.4971232822139403e-07,-1.2356963962367884e-06,2.655184705445398e-06,3.384627784419482e-06,-1.3450678103704076e-05,-3.27759384555968e-07,2.0580546283438687e-06,1.825723525928311e-07,8.699468769237671e-07,-9.85457733893093e-08,-7.057594567438776e-07,-8.664633482564651e-07,-2.70784921924815e-07,-7.753551071695579e-07,-3.411750829158946e-07,-6.260759001197105e-07,4.0970416759314324e-07,-2.985384632321425e-07
-4.6334685545777224e-07,-1.4203979367438297e-06,3.078344533027606e-06,2.6894650792061677e-06,-1.3488643958200373e-05,-3.2544765991477787e-07,1.7895625774694691e-06,1.614099501540732e-07,8.157255572878317e-07,-1.1258109162186198e-07,-6.733459425005355e-07,-9.102891295932058e-07,-3.026837449444506e-07,-6.86187387140989e-07,-3.6011644050616246e-07,-6.817495700788173e-07,-3.6253431408049374e-07,-4.02811964851642e-07
-4.814685171377816e-07,-1.5258560478964416e-06,3.2732980579354023e-06,9.053328860182683e-07,-1.263761312070925e-05,-3.1195567427015764e-07,1.4118406403137846e-06,1.3773450617373465e-07,7.604761591596137e-07,-1.2925215082954705e-07,-6.186782952602643e-07,-9.308047331495581e-07,-3.364113288516269e-07,-5.481247358654673e-07,-3.725639375976739e-07,-7.136967458916443e-07,-1.2639486681885565e-06,-5.190834945669614e-07
-5.00372549848193e-07,-1.4956206534753587e-06,3.24492928123207e-06,-1.5520459860218089e-06,-1.1149126816319e-05,-2.8337587410419167e-07,1.054663864031148e-06,1.1729035270652484e-07,7.201715158060257e-07,-1.4488064526730048e-07,-5.510581396284392e-07,-9.220004841397635e-07,-3.608049934102571e-07,-3.9784341757552196e-07,-3.7533354205840726e-07,-7.135965843813087e-07,-1.9603826549578772e-06,-6.367960105681223e-07
-5.162921019448285e-07,-1.3160980251150685e-06,3.05037338285933e-06,-4.170885045969236e-06,-9.341070955928468e-06,-2.392803088978539e-07,8.438198846085101e-07,1.05463657051347e-07,7.020057193704087e-07,-1.5462309876288965e-07,-4.821534326797749e-07,-8.849458446205902e-07,-3.6678519600284953e-07,-2.830678345471952e-07,-3.6971638738846045e-07,-6.827019714358761e-07,-2.1650606132338925e-06,-7.425837129343836e-07
-5.265731946008472e-07,-1.021764953392834e-06,2.764970659990701e-06,-6.39952041073153e-06,-7.497784606760983e-06,-1.849747725800436e-07,8.525893727486231e-07,1.0449769126322423e-07,7.0375842123301e-07,-1.5752583118149663e-07,-4.2020299796645457e-07,-8.27333729092227e-07,-3.5094951156122405e-07,-2.4038065605876745e-07,-3.6053975652402486e-07,-6.305539961238525e-07,-1.7476235287015925e-06,-8.201447214137452e-07
-5.293646150036065e-07,-6.852295966860887e-07,2.434433523180307e-06,-7.740074300504114e-06,-5.80485520313874e-06,-1.2756994941081585e-07,1.0748146526117417e-06,1.1306479608867372e-07,7.171406220367959e-07,-1.574671785516918e-07,-3.676997640626606e-07,-7.604136919363104e-07,-3.173813023376998e-07,-2.794575340551953e-07,-3.5252307809661023e-07,-5.706568971431294e-07,-7.875509277288007e-07,-8.544676342775142e-07
-5.287576541504554e-07,-3.997822079280995e-07,2.080129219572508e-06,-7.904684900662149e-06,-4.350006867605623e-06,-7.535511395800386e-08,1.438383684272611e-06,1.284293280459146e-07,7.33269775536541e-07,-1.5265330546910784e-07,-3.2373506145673704e-07,-6.945815468181272e-07,-2.7568073109637673e-07,-3.8136738294089035e-07,-3.4706016145422866e-07,-5.158075540154457e-07,4.5309361278619646e-07,-8.372932685805316e-07
-5.275826315016428e-07,-2.5263768844219667e-07,1.709852364530085e-06,-6.960121189983454e-06,-3.1707187462315958e-06,-3.451248303189991e-08,1.848153601439686e-06,1.4890101250600426e-07,7.473430379596985e-07,-1.4810610073190347e-07,-2.8737607943126417e-07,-6.361514839271809e-07,-2.359719448364114e-07,-5.096222321359655e-07,-3.4185390122333445e-07,-4.7457187529271804e-07,1.621980956116671e-06,-7.705294935732007e-07
-5.256944651269089e-07,-2.8882190437533686e-07,1.3733620471171446e-06,-5.334597028767034e-06,-2.3048581610793643e-06,-7.51130557509764e-09,2.2228663230399557e-06,1.740903869455082e-07,7.598051974578477e-07,-1.441763927392154e-07,-2.5993748688635404e-07,-5.869995636672512e-07,-2.052137553074141e-07,-6.265926802286638e-07,-3.3306511349654576e-07,-4.4955280411817926e-07,2.4020794097160935e-06,-6.664546522612224e-07
-5.219492619003409e-07,-4.847118151249801e-07,1.1747651074781813e-06,-3.7799141200486176e-06,-1.8070636315127733e-06,4.807026632566018e-09,2.5030127682078273e-06,2.0300936591347902e-07,7.737103912328138e-07,-1.381592997764207e-07,-2.461656549490913e-07,-5.467517054900208e-07,-1.8764990482450053e-07,-7.064926623927897e-07,-3.17691838663613e-07,-4.3805670371460564e-07,2.6245340735523225e-06,-5.449685488028433e-07
-5.146031304859846e-07,-7.571357351907396e-07,1.2112142014630184e-06,-2.664243237160439e-06,-1.6919346361093174e-06,2.591347138595701e-09,2.63979080248729e-06,2.3218902579140276e-07,7.906444930493461e-07,-1.299325996041238e-07,-2.531162028503076e-07,-5.152052607160823e-07,-1.871463648081701e-07,-7.38587499986425e-07,-2.951125055037438e-07,-4.3531606166746727e-07,2.3144854499724396e-06,-4.2761353826906163e-07
-5.036804762589307e-07,-1.0090851918563482e-06,1.5183538906332445e-06,-2.2128804422901643e-06,-1.8182280094274167e-06,-1.56460065656931e-08,2.588823028223497e-06,2.5584188431722204e-07,8.083712458677707e-07,-1.2057676793368864e-07,-2.8554607755112e-07,-4.939128690378195e-07,-2.0758270290012758e-07,-7.231311943342771e-07,-2.670676812072958e-07,-4.3830339713577476e-07,1.6417317333076548e-06,-3.291899011089998e-07
-4.917713454964864e-07,-1.1811777372943256e-06,2.0321946058041947e-06,-2.3722676611136723e-06,-1.838623211032109e-06,-3.962419155331939e-08,2.326622241211651e-06,2.6832987996814194e-07,8.21569084720285e-07,-1.1206131035226601e-07,-3.4045017040309725e-07,-4.852109074726525e-07,-2.5054548632368047e-07,-6.659862826793273e-07,-2.3692945589638625e-07,-4.467928142111343e-07,8.069036696214872e-07,-2.519481247868893e-07
-4.820705804051694e-07,-1.2742256442210416e-06,2.6250476907058167e-06,-2.782558545363754e-06,-1.3135532721815568e-06,-6.888922937833138e-08,1.8909493609629751e-06,2.672065139602122e-07,8.242072446355675e-07,-1.0561686034270546e-07,-4.058327727891858e-07,-4.903453930808355e-07,-3.1274329693968017e-07,-5.755612466044767e-07,-2.08340045166136e-07,-4.610156061645959e-07,-6.179444134002204e-08,-1.8845936256044226e-07
-4.742707125570762e-07,-1.3337965806541666e-06,3.1386684952285154e-06,-3.1072054298078507e-06,7.704093751593033e-08,-1.0216858244659168e-07,1.4105261168566184e-06,2.544609059139331e-07,8.119338501369622e-07,-1.0245703328502478e-07,-4.659311487026248e-07,-5.082803587716822e-07,-3.858382892261784e-07,-4.627874258343161e-07,-1.8381656796399716e-07,-4.791262293220652e-07,-9.387673626701558e-07,-1.3054578685188806e-07
-4.6715368806382677e-07,-1.4140361468360037e-06,3.4527039845203574e-06,-3.0328857852981766e-06,2.3464800699653083e-06,-1.3500034524500752e-07,1.0729220692819985e-06,2.3499404697484008e-07,7.842476001420062e-07,-9.786961261336193e-08,-5.088756731043598e-07,-5.356934011835848e-07,-4.5918477914137524e-07,-3.421377547239282e-07,-1.6616843653694017e-07,-4.977566031446428e-07,-1.8523212530206684e-06,-7.583257378210393e-08
-4.5949889829475654e-07,-1.5445851731698643e-06,3.5073207435203563e-06,-2.444453828395698e-06,5.1022620417630785e-06,-1.6843102742035487e-07,1.0286792419860761e-06,2.1342435337880492e-07,7.451186136686607e-07,-8.78779455876016e-08,-5.325639096212787e-07,-5.685834084614248e-07,-5.236645836394449e-07,-2.3188134233805644e-07,-1.569526805752977e-07,-5.152233229625867e-07,-2.8045523529495986e-06,-2.81828087274644e-08
-4.516762408889298e-07,-1.7153223239911781e-06,3.3066419724316895e-06,-1.1027834657648978e-06,7.597933206265726e-06,-2.0293515534912786e-07,1.318032937645894e-06,1.9133206528835784e-07,7.006780378521547e-07,-7.46831753635243e-08,-5.460203403072218e-07,-6.041712411270472e-07,-5.744437642154037e-07,-1.527603435548341e-07,-1.5911816421953397e-07,-5.336989571695516e-07,-3.7189966365793332e-06,7.499747560923233e-09
-4.467134406941319e-07,-1.880684138106978e-06,2.9329011183395877e-06,1.1046910077970502e-07,9.000805221548373e-06,-2.4222340448028014e-07,1.7971941877647347e-06,1.6685600807585392e-07,6.553485904400543e-07,-5.677931581009748e-08,-5.651263417372867e-07,-6.415094913848409e-07,-6.112853018055997e-07,-1.244105935736814e-07,-1.7529453714960087e-07,-5.576072887802674e-07,-4.442196896385438e-06,2.9567949636062707e-08
-4.477425353165831e-07,-1.9785076793385068e-06,2.55228493899435e-06,5.650883075489666e-07,8.787175910966026e-06,-2.9165556057116474e-07,2.276494755974119e-06,1.3713705299810916e-07,6.098249625708058e-07,-3.715790191786098e-08,-6.027022050529929e-07,-6.801132665246706e-07,-6.373968667790332e-07,-1.5864972253288106e-07,-2.0656247464423102e-07,-5.895303976831819e-07,-4.790400467071108e-06,3.82863938636556e-08
-4.5488147075716047e-07,-1.9602945200670652e-06,2.317594750513356e-06,-2.0835956777899244e-08,6.989706851150872e-06,-3.2883645767372295e-07,2.540022878082648e-06,1.0182431627370082e-07,5.629773784074241e-07,-1.600894411961073e-08,-6.579910440515244e-07,-7.181860099712645e-07,-6.568581119077628e-07,-2.5101499916075505e-07,-2.5030185302955124e-07,-6.239259102558207e-07,-4.6272008551792675e-06,2.8993094682291548e-08
-4.668328605474377e-07,-1.8225354496949114e-06,2.3213545437090245e-06,-1.7507768163619677e-06,4.110731895979536e-06,-3.5123061260324945e-07,2.161538317954073e-06,6.474242995378453e-08,5.161833037898216e-07,5.513576573330876e-09,-7.141182144035283e-07,-7.519778340924829e-07,-6.710296740877488e-07,-3.7692767757906377e-07,-2.978981246534657e-07,-6.539123734248909e-07,-3.9461593647329715e-06,-1.279315378171379e-08
-4.817488199232197e-07,-1.618074205925894e-06,2.583684442016243e-06,-4.1930198697764475e-06,8.422725520338791e-07,-3.521856816508847e-07,1.7253862599125917e-06,3.139419889205013e-08,4.7612562234576284e-07,2.3008875938028705e-08,-7.467598501671967e-07,-7.767617033757279e-07,-6.807351330586593e-07,-4.998409165027254e-07,-3.400872504604372e-07,-6.730767302408032e-07,-2.9003832215436056e-06,-1.0702459828111077e-07
-4.935227241130129e-07,-1.4321721174439367e-06,2.9966013901896604e-06,-6.621754767198132e-06,-2.136561590395326e-06,-3.2642345282060193e-07,1.0542661958113838e-06,8.700996537069424e-09,4.527672267165558e-07,4.245127367216113e-08,-7.389433307275277e-07,-7.886137386438967e-07,-6.850899303687342e-07,-5.89572624021999e-07,-3.732552739968297e-07,-6.760990431107806e-07,-1.7399993151754684e-06,-2.6877719051938925e-07
-5.008716061997552e-07,-1.3392358054373104e-06,3.3870778727719735e-06,-8.423055116721639e-06,-4.226508709394912e-06,-2.843509361335287e-07,1.2132190108115522e-07,-4.1213729702313885e-09,4.5359203090274276e-07,5.184999150611566e-08,-6.911368873917046e-07,-7.854618680832215e-07,-6.859585644518392e-07,-6.35859568955962e-07,-3.9888475716339147e-07,-6.589502130295802e-07,-6.962719655245332e-07,-4.957103313536238e-07
-5.046548142354597e-07,-1.3739678621727388e-06,3.6093599970958928e-06,-9.719284939410885e-06,-4.96541297710687e-06,-2.359051535986474e-07,-1.1217346764333963e-06,-8.700406237892918e-09,4.795650206506874e-07,6.231218975734625e-08,-6.193762021245128e-07,-7.692418987085798e-07,-6.811520769745135e-07,-6.46280402927449e-07,-4.2024717624898633e-07,-6.202722882071528e-07,1.1055476021743098e-07,-7.621126846327568e-07
-5.057066227971273e-07,-1.5287696117833408e-06,3.6235022104246666e-06,-9.970176087109162e-06,-4.138307376435936e-06,-1.6828518988483147e-07,-2.1632431281236817e-06,-4.049172579780765e-09,5.263293619098606e-07,6.876681374407667e-08,-5.444872816107122e-07,-7.409232006449656e-07,-6.660384114027062e-07,-6.354562325402062e-07,-4.3938191781991924e-07,-5.580613514667656e-07,6.964729359035416e-07,-1.0240510702579557e-06
-5.065062558852338e-07,-1.7640980933025936e-06,3.431444222827324e-06,-8.964521096902005e-06,-1.890846515760069e-06,-7.473254404642122e-08,-2.830168108245995e-06,1.2857066240150803e-08,5.911303137575912e-07,8.376856710448796e-08,-4.818978707679295e-07,-6.979760204041147e-07,-6.332905647874369e-07,-6.171380161212261e-07,-4.5374035156731984e-07,-4.8084966835931e-07,1.1763505493038006e-06,-1.2342466126590415e-06
-5.008624085281875e-07,-2.0193816234166145e-06,3.260916011016447e-06,-6.646513490141327e-06,1.230939956185621e-06,-9.46503390131291e-09,-3.1174341045657223e-06,4.826777649058319e-08,6.644808135413688e-07,1.6075187998603666e-07,-4.383039813328717e-07,-6.501958570283521e-07,-5.836737893192678e-07,-6.022053076268215e-07,-4.5224878182020626e-07,-4.279583317422855e-07,1.6869839290181173e-06,-1.359520062860171e-06
-4.806011979217329e-07,-2.226291114354749e-06,3.304438634598224e-06,-2.851207077995267e-06,4.382247250456562e-06,7.779974396057013e-08,-3.0138655070732984e-06,1.020663345708167e-07,7.403140111777055e-07,2.0956635263403078e-07,-4.147283208995171e-07,-6.019234369478839e-07,-5.343941302914861e-07,-5.987185481306326e-07,-4.3884271704471136e-07,-4.0986170037066815e-07,2.29413327418528e-06,-1.3902908452428805e-06
-4.4761822339155484e-07,-2.328309841178847e-06,3.538686602881454e-06,2.2754578770952675e-06,6.668192028822153e-06,1.7556151616247247e-07,-2.586019228907772e-06,1.7127051223252622e-07,8.017786619426497e-07,2.4073492715916203e-07,-4.117190767185289e-07,-5.713574349782556e-07,-4.940615997441199e-07,-6.108492095329642e-07,-4.4791515287644833e-07,-4.54558573599927e-07,2.9207058340485918e-06,-1.338441144818932e-06
-4.05798025199433e-07,-2.3006051221800565e-06,3.3560877413373472e-06,7.895061111286382e-06,7.442469140801642e-06,1.814535887194525e-07,-1.923760164619863e-06,2.2125171392484456e-07,7.815397513861339e-07,2.714685882681989e-07,-4.325416200499596e-07,-6.506753022646085e-07,-5.100222425975541e-07,-6.377571445254732e-07,-4.942511298782813e-07,-5.93600931787942e-07,3.3483759066329437e-06,-1.2272943433480433e-06
-3.958726832781825e-07,-2.158397892241365e-06,2.657489139551319e-06,1.3067637200821223e-05,6.523978922054457e-06,1.4971047579663534e-07,-1.1337334513705337e-06,2.2113471915953713e-07,7.667562279528859e-07,2.8171477354541256e-07,-4.86526454715459e-07,-7.457759627386617e-07,-5.565855626604867e-07,-6.757173784504087e-07,-5.494731784526441e-07,-6.711361726245195e-07,3.318984806163577e-06,-1.0816692956802143e-06
-4.363196410045123e-07,-1.948584130252035e-06,1.5742814875150454e-06,1.7274004759487523e-05,4.269552494944147e-06,1.8714402343753164e-07,-3.5138172475254104e-07,2.0267098195041095e-07,7.232285178812507e-07,3.102418771019473e-07,-5.721539070760773e-07,-7.891274852033058e-07,-5.820406821734486e-07,-7.23485033426099e-07,-6.21689837068172e-07,-6.931148970519806e-07,2.6906964563893884e-06,-9.230879568561354e-07
-4.8965701963896e-07,-1.7286549836159568e-06,8.089063748436533e-07,1.9757119271999714e-05,1.4910657836817777e-06,2.8000901703831957e-07,2.6726032527537754e-07,1.6000662004062022e-07,6.402299325853451e-07,3.646491796654766e-07,-6.706313845941994e-07,-8.904652513830005e-07,-5.884869099203112e-07,-7.849905267086437e-07,-7.359911215120472e-07,-7.299628543562832e-07,1.542341597048544e-06,-7.695231762228588e-07
-5.142435692410019e-07,-1.540806234280451e-06,5.611439038713914e-07,2.021456266808677e-05,-8.102529901533376e-07,3.778713892256651e-07,5.901640385700936e-07,1.4596454207940402e-07,5.064459138126405e-07,4.0857772148977416e-07,-7.603379844162105e-07,-9.459600349322291e-07,-6.502744907026183e-07,-8.641552272514496e-07,-8.281665027433991e-07,-8.601120089146357e-07,1.4184683939181387e-07,-6.363806157597717e-07
-5.536971672548422e-07,-1.392389691274312e-06,4.334661039672332e-07,1.889002449700795e-05,-1.8398520411944762e-06,4.920773502843732e-07,5.648895542552118e-07,7.745856890306058e-08,3.9951613032507474e-07,4.4327857828206463e-07,-7.615514732189041e-07,-8.867393998260668e-07,-7.347603458709524e-07,-9.556412255250039e-07,-8.190881581219873e-07,-9.346602548632532e-07,-1.1994127136735822e-06,-5.358260687970932e-07
-5.387620027591395e-07,-1.256287579224405e-06,2.895606326526843e-07,1.6382554459895694e-05,-1.3264339408143756e-06,6.034665079919482e-07,2.518795018424208e-07,-1.3934781915387763e-08,3.373130602795702e-07,4.884781121937448e-07,-6.256328960389414e-07,-8.079612647571933e-07,-7.636435771575071e-07,-1.0423008506866846e-06,-7.669174324782434e-07,-9.559706212227994e-07,-2.274449373094461e-06,-4.743305964693417e-07
-4.94144880469433e-07,-1.0939065864789063e-06,4.4206020383049137e-07,1.3485005422406716e-05,4.34266603415575e-07,6.791671930629242e-07,-1.8946415959933103e-07,-8.13201247839001e-08,3.142116422245706e-07,5.199875974814022e-07,-6.01250690636397e-07,-7.359675866827931e-07,-8.093612102149802e-07,-1.1046457375407509e-06,-7.279413884668861e-07,-9.842392079236607e-07,-3.029012334917062e-06,-4.4950267949727756e-07
-4.4802136779404346e-07,-8.843682611028288e-07,1.06703037032463e-06,1.1118187159326846e-05,2.791122658880961e-06,7.34270659308162e-07,-5.703943770976135e-07,-1.0726480718269192e-07,3.3289073481233104e-07,5.561448493800365e-07,-5.367184568289557e-07,-6.546589294527286e-07,-8.402297519470646e-07,-1.1348876337988375e-06,-7.065210563002942e-07,-1.0316133301825594e-06,-3.5078778637470574e-06,-4.4886468066710795e-07
-4.162791786037383e-07,-6.380146695674187e-07,1.5707623058490415e-06,9.638014465244017e-06,5.025656416299162e-06,7.758683711059702e-07,-7.536199750873984e-07,-1.2191839693940456e-07,3.8490144600208615e-07,5.837953495764153e-07,-3.8655325371449725e-07,-5.476651780597017e-07,-8.686210348556949e-07,-1.141668556560875e-06,-7.138841998007244e-07,-1.061691633892865e-06,-3.7830466428419897e-06,-4.5593199366773276e-07
-3.4645156605840096e-07,-3.842948502422931e-07,2.0120474734652635e-06,8.710417796049211e-06,6.569949062895092e-06,8.158135624651e-07,-6.784975459128754e-07,-1.0526139478624283e-07,4.537859082750305e-07,6.33050979008729e-07,-2.0416542701459635e-07,-4.248939189989433e-07,-8.603302362175202e-07,-1.141880473438916e-06,-6.80348945971611e-07,-1.0262311431544552e-06,-3.9223769592344815e-06,-4.612374255420644e-07
-2.76825417962032e-07,-1.4859819458240573e-07,2.379602101729746e-06,7.816835895082435e-06,7.1162946234140225e-06,8.635222767844591e-07,-3.3283243906643306e-07,-8.981191972014652e-08,5.167377981491555e-07,7.130368130729919e-07,-9.418188440180031e-08,-3.026154848902434e-07,-8.28080142489377e-07,-1.1453689041461836e-06,-6.006357973935603e-07,-9.85295848427298e-07,-3.9769282233128546e-06,-4.6822041276085016e-07
-2.2597506429554282e-07,5.8036880343352396e-08,2.8462412274389097e-06,6.406591418874855e-06,6.6174920855663e-06,9.055018978459846e-07,2.672558517813322e-07,-4.631275633749857e-08,5.497047067689265e-07,7.924760902273341e-07,-4.775284892988404e-08,-2.7212046802700726e-07,-8.204661165376157e-07,-1.146180742201829e-06,-5.759819825924661e-07,-9.535523893763624e-07,-3.961653467354769e-06,-4.882867166014702e-07
-1.7872094015323564e-07,2.301218967810397e-07,3.4213032628134802e-06,4.207886937670437e-06,5.2238349060915635e-06,9.545317943610718e-07,1.0627828015749206e-06,-1.0161537313656297e-08,5.347454627071049e-07,8.22567676883274e-07,-5.1831872508164046e-08,-1.8691467379907998e-07,-8.099845543772281e-07,-1.1260113209408294e-06,-5.523747037232647e-07,-9.343698412984252e-07,-3.8539363438296026e-06,-5.313045103115035e-07
-1.3886718997435464e-07,3.5636550541033824e-07,3.8954553384447726e-06,1.3923619395323853e-06,3.250916693166513e-06,9.85840140631639e-07,1.934715781292105e-06,-7.454295968461096e-09,4.663125815219366e-07,8.173686893583696e-07,-1.0367373355422188e-07,-1.437481785614976e-07,-7.917271837061382e-07,-1.0657676208539425e-06,-4.905552602792777e-07,-9.470736864827716e-07,-3.6311617350393297e-06,-5.999777586521802e-07
-1.0251848892962639e-07,4.253999592225516e-07,4.368241556591184e-06,-1.5108505103101763e-06,1.1969675137008062e-06,9.962223004305438e-07,2.720534423491885e-06,-1.7184928826194145e-08,3.542502484821749e-07,7.89641237460312e-07,-1.8312415126209538e-07,-1.1858139332345593e-07,-7.842188451244735e-07,-9.582892438704395e-07,-5.092107254737197e-07,-9.905104040671637e-07,-3.320775627842103e-06,-6.878777372479238e-07
-8.958533500344618e-08,4.4447548221982e-07,4.71867574082087e-06,-3.932004863264595e-06,-3.0612614516164543e-07,9.958767998621687e-07,3.2668738364769443e-06,-3.481528229643226e-08,2.2237949337319893e-07,7.447362175270315e-07,-2.617084806055245e-07,-1.4638907738960733e-07,-7.724565551486079e-07,-8.139663401352049e-07,-5.544396929204723e-07,-1.048852019368435e-06,-3.018633597001476e-06,-7.792589957443206e-07
-1.0990419071607661e-07,4.5700547597100404e-07,4.66773583228998e-06,-5.401581794703841e-06,-6.937255204567287e-07,9.847431722182418e-07,3.49460863965754e-06,-5.188706927703084e-08,1.0201376870208232e-07,7.193760645198802e-07,-3.10980510017916e-07,-2.611809330041472e-07,-7.624546034606613e-07,-6.558319659298621e-07,-5.635920116560199e-07,-1.100818533416736e-06,-2.8560032444701577e-06,-8.53633102075369e-07
-1.2904968965433982e-07,5.183937318680522e-07,4.168902186269727e-06,-5.712920997855981e-06,2.420814431767629e-07,9.767583665462925e-07,3.4433328049191753e-06,-5.3177334960188496e-08,2.1819982636372366e-08,6.86912907091316e-07,-3.112262196198856e-07,-3.5802276877593137e-07,-7.542000485619424e-07,-5.084451840001525e-07,-5.354939891166823e-07,-1.1287827391080188e-06,-2.931632851370615e-06,-8.941492743555947e-07
-1.2172510031481274e-07,6.515431097039317e-07,3.10521795511881e-06,-4.917448464300797e-06,2.1491543188258777e-06,9.795028828741306e-07,3.262285474312748e-06,-4.300870351984852e-08,-2.203515157350768e-09,6.504099418400639e-07,-2.5535186237451117e-07,-4.1303919398367205e-07,-7.413023459615381e-07,-3.8930045808335455e-07,-4.960669129309754e-07,-1.1289921999630336e-06,-3.2484722888490546e-06,-8.942556487396638e-07
-9.797866072155755e-08,8.097360440835088e-07,1.6103036835355704e-06,-3.270785240787727e-06,4.1845292609015964e-06,9.830734354263088e-07,3.139003394819387e-06,-1.6212889452662568e-08,2.7877645846882165e-08,6.255604803001706e-07,-1.4761235080817908e-07,-4.6388017157531164e-07,-7.251475088385372e-07,-3.051973403052721e-07,-4.547552650221848e-07,-1.1025098264597761e-06,-3.692419847089994e-06,-8.566598260854313e-07
-4.7700837446556196e-08,8.924305392444748e-07,-6.204505233349503e-08,-1.1580088719059342e-06,5.390867147092541e-06,9.801022074818078e-07,3.201476246702958e-06,3.27349426307954e-08,9.417446522015837e-08,5.973846098701669e-07,-1.170025787610874e-09,-4.4355493676312267e-07,-7.054839186753302e-07,-2.5313397730965e-07,-4.18795555875165e-07,-1.0533762047843455e-06,-4.070038337525411e-06,-7.884946599089234e-07
1.2054598812653172e-08,8.064380696638172e-07,-1.4518539618305893e-06,1.061415265112017e-06,5.179168332171665e-06,9.89168895316562e-07,3.4527622554863894e-06,8.955626885696726e-08,1.7166255578540505e-07,5.894055006981321e-07,1.6354384371462048e-07,-3.8776318699052985e-07,-6.846306232568766e-07,-2.270119219864876e-07,-3.964006128075387e-07,-9.917665754691501e-07,-4.195384638642935e-06,-6.976987053429354e-07
1.0391252707611772e-07,5.260138795818088e-07,-2.2971538839980897e-06,3.137353563900901e-06,3.5882770970582096e-06,1.001142962137664e-06,3.773974902574697e-06,1.241946787042506e-07,2.3820630041378712e-07,6.080225072747858e-07,3.2114521779432987e-07,-3.3285334477134163e-07,-6.690114634141192e-07,-2.2705757349712928e-07,-3.899927932677666e-07,-9.523887485962339e-07,-3.98619592405992e-06,-5.907816779355056e-07
1.6105754743300143e-07,1.1350075692445138e-07,-2.2032724105301124e-06,4.957031553204692e-06,1.1531197167875585e-06,1.0059852775952167e-06,3.98621282960177e-06,1.07997497441326e-07,2.8067507468252133e-07,5.871445906331329e-07,4.453485378695939e-07,-3.2826260704228816e-07,-6.66272633421337e-07,-2.626698355146304e-07,-4.115265928232452e-07,-9.513019237086538e-07,-3.5142997677385874e-06,-4.7294768592561513e-07
1.9327458451268876e-07,-3.1145980871334225e-07,-2.104519446034295e-06,6.449423536956237e-06,-1.4489100873572117e-06,9.997179335191068e-07,3.934177662151331e-06,2.547107128687788e-08,2.9500666798256825e-07,5.436119602065463e-07,5.144372234540896e-07,-3.9463514511174944e-07,-6.818356600754821e-07,-3.44177398224643e-07,-4.6485310043833124e-07,-1.0267112586220627e-06,-2.9776245382973653e-06,-3.5129132276574854e-07
2.2995572507020313e-07,-6.194225256814392e-07,-2.188088909297432e-06,7.451423047868643e-06,-3.6865594862348384e-06,9.710564146346733e-07,3.5507978981284794e-06,-3.7299923666467554e-08,2.825730264307595e-07,5.652395161229348e-07,5.1675853182397e-07,-3.892658776937092e-07,-7.190364810889402e-07,-4.698342511077898e-07,-5.463271027795734e-07,-1.0327054299054776e-06,-2.6075457285765087e-06,-2.37743285288725e-07
2.5217195290854173e-07,-7.145559289408189e-07,-1.1390108979725895e-06,7.702666000361409e-06,-5.291816938361045e-06,9.200793950803919e-07,2.8755948884034953e-06,-7.817236599692524e-08,2.4752218046886297e-07,6.424530667668612e-07,4.537679958594245e-07,-4.864266343786864e-07,-7.743290348394081e-07,-6.199384557056781e-07,-6.406984219582697e-07,-1.0317324567015415e-06,-2.5577789055636677e-06,-1.4837012733550878e-07
2.662709199752246e-07,-5.669883861715831e-07,1.964147896611072e-07,7.048553287534874e-06,-6.273047058319748e-06,8.593550222257183e-07,2.0290012890300865e-06,-9.252971597474399e-08,1.9697731801635623e-07,6.773841999576514e-07,3.3869263450673243e-07,-6.421121628466728e-07,-8.397453911659876e-07,-7.630832450546921e-07,-7.287318121630571e-07,-1.1423112061290248e-06,-2.82748165597767e-06,-9.910202718798576e-08
3.221104996378794e-07,-2.0642569425463814e-07,1.0119987134046724e-06,5.608325101062605e-06,-6.876072734616581e-06,8.01011022531813e-07,1.166826991741159e-06,-1.3209252064052986e-07,1.4214119261040372e-07,6.777137938160536e-07,1.9120742436545242e-07,-7.685696117047109e-07,-9.066510212127291e-07,-8.695770748378987e-07,-7.920545447193074e-07,-1.3241512963962711e-06,-3.2602905669908924e-06,-9.972733923693363e-08
3.8651733231491304e-07,2.653736662645196e-07,1.5714083629564632e-06,3.7502761979345173e-06,-7.466488928975006e-06,7.543965927894691e-07,4.371006816936709e-07,-2.1580504267612265e-07,9.75786198372679e-08,7.280447864818944e-07,3.094920988221556e-08,-8.180021991859006e-07,-9.493409267347023e-07,-9.230163103190972e-07,-8.221874041620488e-07,-1.4469582722744396e-06,-3.6302982730971587e-06,-1.5064185199323358e-07
4.455092231164449e-07,7.070203705450787e-07,1.588970874082742e-06,1.9069832035251709e-06,-8.331122143844435e-06,7.317063662658152e-07,-4.6259577130366516e-08,-3.033757357471711e-07,7.79186554541556e-08,7.335403052786695e-07,-1.271028730893258e-07,-8.789850479617391e-07,-9.700605316605444e-07,-9.252450922147704e-07,-8.225414022813541e-07,-1.5498072099975862e-06,-3.766926732793471e-06,-2.4501562643994523e-07
4.75482474285617e-07,1.0152689978620423e-06,1.212948977679785e-06,3.8285907833800825e-07,-9.484725235804251e-06,7.338540514364955e-07,-2.098053764709068e-07,-3.9197405201195324e-07,8.960122679885515e-08,7.110488945277218e-07,-2.73655076619116e-07,-8.623472892843138e-07,-9.727908453517016e-07,-8.949247631422925e-07,-8.050380078748898e-07,-1.5872477263279626e-06,-3.6221112960637205e-06,-3.728113248472803e-07
5.092166974399966e-07,1.117496784795254e-06,7.695739550161011e-07,-6.936956938639577e-07,-1.061477654343517e-05,7.514600942757128e-07,-2.6001403621217512e-08,-4.964566224342775e-07,1.2613943516555085e-07,6.89055872620249e-07,-4.029078070275448e-07,-8.399663727979716e-07,-9.598088895118604e-07,-8.592031120960328e-07,-7.845420421521552e-07,-1.5654901370570227e-06,-3.2299524132518526e-06,-5.220413838193425e-07
5.469554634959574e-07,1.025888232854084e-06,4.627535611325533e-07,-1.2957605756602344e-06,-1.1227748426494105e-05,7.726816516866795e-07,4.6031768343525936e-07,-5.328750330851187e-07,1.6801589977276377e-07,6.668329059948324e-07,-5.097323023802413e-07,-8.268237370853147e-07,-9.472669713998918e-07,-8.411637455821136e-07,-7.800694647976587e-07,-1.523823891687138e-06,-2.625748496241025e-06,-6.787451911626175e-07
5.712437727816654e-07,8.048307355974473e-07,6.654615773002174e-07,-1.4682322164842256e-06,-1.0903939061512653e-05,7.862254803536993e-07,1.100443491258263e-06,-5.342944975048546e-07,1.9117067890659314e-07,6.536819866863749e-07,-5.898950448488201e-07,-8.446871587769744e-07,-9.392861607878333e-07,-8.511308976423404e-07,-8.100875490488464e-07,-1.4644532990700558e-06,-1.8195816475945823e-06,-8.278662477821069e-07
5.824231399671987e-07,6.044734334437105e-07,1.369036445542095e-06,-1.3296811756799067e-06,-9.479960921993647e-06,7.923130864960151e-07,1.6561787040837984e-06,-5.461269066407547e-07,1.7736807144434713e-07,6.268327220825271e-07,-6.439133732787166e-07,-8.946069436363492e-07,-9.160317298568677e-07,-8.859904810217695e-07,-8.679590954274812e-07,-1.4123369076758645e-06,-8.295695358834335e-07,-9.547626647652606e-07
6.175932726733943e-07,4.4835012603589116e-07,2.393594233116632e-06,-1.0488437235873974e-06,-7.074569717086812e-06,7.882048809866107e-07,1.8787151795837055e-06,-5.559620861129339e-07,1.2247843223388496e-07,5.657919253732823e-07,-6.795797595475754e-07,-9.706661344182588e-07,-8.835035911017835e-07,-9.328420020496612e-07,-9.382978706568868e-07,-1.3478392564509982e-06,2.829569219228766e-07,-1.047650076538692e-06
6.552090883250424e-07,3.689693758447132e-07,3.4102042002067196e-06,-7.267201547145733e-07,-4.057936278834259e-06,7.783130769206973e-07,1.6166430467547995e-06,-5.701969249049289e-07,4.180554818809497e-08,5.18983129535843e-07,-7.082102206777181e-07,-1.0337168863133594e-06,-8.443595684091225e-07,-9.746463051247907e-07,-9.832451009786645e-07,-1.290930480657136e-06,1.4072397677801785e-06,-1.1030860274008025e-06
7.110175017356529e-07,3.8810649662157426e-07,4.265119858945796e-06,-3.172396844140641e-07,-1.0540840624936453e-06,7.701342709012745e-07,8.886865057448034e-07,-5.900794167456685e-07,-4.503671686843629e-08,5.084695150822368e-07,-7.362908753736604e-07,-1.04282310885701e-06,-7.552568554023433e-07,-9.962726447536607e-07,-9.656920885135214e-07,-1.1834194837956073e-06,2.390416037569811e-06,-1.1315098296441972e-06
7.696084013011965e-07,3.438548075626651e-07,4.609235883008477e-06,3.617516833450548e-07,1.145253964915907e-06,7.670146897764071e-07,-1.2279281081308607e-07,-6.115984103927489e-07,-1.1268370126402933e-07,5.269683554292522e-07,-7.603134466204171e-07,-9.518559579197561e-07,-6.806134926338783e-07,-9.895683066817108e-07,-8.930400106426861e-07,-9.667816141617202e-07,3.0428597518592716e-06,-1.1540760569680562e-06
7.906280785366184e-07,3.5970745534912524e-07,4.664470517793154e-06,1.5425269808056114e-06,1.8991002509161648e-06,7.746309556207757e-07,-1.1467647159879157e-06,-6.35569857765887e-07,-1.4067185356942092e-07,5.539068566668527e-07,-7.690110662276294e-07,-8.504019854940974e-07,-6.398635662094144e-07,-9.531085236654959e-07,-8.57662792773066e-07,-8.481825982700243e-07,3.1670907284602984e-06,-1.1882688950284362e-06
8.183509708081587e-07,4.445483710633757e-07,4.244226671772735e-06,3.3502190254261817e-06,1.1155770414939147e-06,7.969704362971115e-07,-1.914267810128874e-06,-6.537508725330464e-07,-1.2013707627323467e-07,5.045317814198179e-07,-7.49835319951231e-07,-7.480221123027618e-07,-5.987621472584768e-07,-8.891966974341081e-07,-8.626156619607729e-07,-7.901796004972102e-07,2.639323946354612e-06,-1.2326268153758156e-06
8.491749160002922e-07,5.914172934683959e-07,3.317281766985424e-06,5.673605611386016e-06,-6.246205348930959e-07,8.355123757351204e-07,-2.225146448061315e-06,-6.552721452622034e-07,-4.940937690061374e-08,4.452480303413912e-07,-6.950641635089465e-07,-6.544853873897506e-07,-5.877794213827991e-07,-8.047656368721333e-07,-8.562256684132291e-07,-7.879561761918843e-07,1.508427441583398e-06,-1.2645654611157937e-06
8.760702930868809e-07,8.404884761781076e-07,2.1514395141020703e-06,8.14160625350079e-06,-2.3641715692477426e-06,8.87985713409415e-07,-1.995661582616024e-06,-6.394360150513554e-07,6.435986338208402e-08,4.4525024885441864e-07,-6.061059606662147e-07,-5.883127366770735e-07,-5.303255633972832e-07,-7.144130855073554e-07,-7.85348947654324e-07,-7.874247837790163e-07,3.477159842240841e-08,-1.2548806615072176e-06
8.998662436994804e-07,1.022262061992816e-06,1.087814622440482e-06,1.0271635261511716e-05,-3.2632255218425353e-06,9.518608241414131e-07,-1.290792283297059e-06,-6.132496056587353e-07,2.0377726822143e-07,4.303005995939822e-07,-4.950309211405924e-07,-5.042171643742251e-07,-4.5641914442613473e-07,-6.405587434790145e-07,-7.134519948189944e-07,-7.210634137275538e-07,-1.374411263357978e-06,-1.188039779002156e-06
9.179924527707569e-07,1.0739093499761974e-06,1.279389753239703e-07,1.1667238044500078e-05,-2.962562782365019e-06,1.021745645313407e-06,-3.089991236183023e-07,-5.778967402770854e-07,3.2578242435726627e-07,3.9558993371722476e-07,-3.8139543216399406e-07,-4.536593321955427e-07,-4.2808290920888894e-07,-6.074900972239211e-07,-6.760229982055619e-07,-6.302993493447651e-07,-2.310349020536977e-06,-1.0729295934332332e-06
9.467279704868612e-07,9.7232706487806e-07,-3.332468782841546e-07,1.2123769953099944e-05,-1.6575248075179595e-06,1.0916435009555354e-06,6.914792112281855e-07,-5.343293183185406e-07,3.742101243924605e-07,3.7112047135912166e-07,-2.8628787032568825e-07,-4.141529574113091e-07,-4.012646187918486e-07,-6.313965287313292e-07,-6.55678269248392e-07,-5.345257384960026e-07,-2.518003997609636e-06,-9.388899395337665e-07
9.671747419844174e-07,7.394705962677853e-07,-2.2577663296231028e-07,1.1581873106720654e-05,1.0551379454996234e-07,1.1567687403269147e-06,1.4863434379146547e-06,-4.827556860740976e-07,3.713080447104709e-07,3.419705077423489e-07,-2.2851337459883722e-07,-3.3677403898855717e-07,-3.5079970701854604e-07,-7.108967842186942e-07,-6.469085754810825e-07,-3.7752138294727585e-07,-1.9881974534066337e-06,-8.228650354164124e-07
9.256192402106607e-07,4.434848950974826e-07,2.933441039177312e-07,1.0055465894481934e-05,1.7981540666077284e-06,1.2110474044679615e-06,1.9444975399891624e-06,-4.242263743482203e-07,3.5961848892888095e-07,3.1103571577272495e-07,-2.2250836520527687e-07,-2.810092441264864e-07,-3.1610156048498695e-07,-8.238478715860489e-07,-6.132663041440981e-07,-2.9797499556134644e-07,-9.480272720802615e-07,-7.545366768648918e-07
8.61582988437581e-07,1.3900608064639318e-07,1.1943966896441375e-06,7.703637012090485e-06,3.228704042543363e-06,1.2476482345303783e-06,2.0562704222990642e-06,-3.6602892990431036e-07,3.931484229945145e-07,3.140351111455731e-07,-2.7378571913788204e-07,-2.428180597563575e-07,-2.43189229721472e-07,-9.328318205411528e-07,-6.361103693834772e-07,-2.2092470755447536e-07,2.417565723640599e-07,-7.445879921726228e-07
8.22140226620455e-07,-1.560277631493842e-07,2.3071750476090878e-06,4.923922596055637e-06,4.569572803899774e-06,1.2603511231512408e-06,1.9099287512919214e-06,-3.1823870541273743e-07,3.0634000842373194e-07,3.136716537527668e-07,-3.7316609198029125e-07,-2.579534296446434e-07,-2.0848775897277388e-07,-1.0002144841274194e-06,-6.995447139408676e-07,-7.823139996507112e-08,1.2226301227327222e-06,-7.805743151823369e-07
8.19974402203085e-07,-4.101775901765144e-07,3.4080025002446616e-06,2.3024268082176413e-06,6.076917187677371e-06,1.245627212726365e-06,1.6355192940247352e-06,-2.886534751468849e-07,2.1064903575455467e-07,2.9979212908032335e-07,-4.96783293403896e-07,-3.0241703368386006e-07,-1.9227596078740297e-07,-1.0036912167395137e-06,-7.264636586469151e-07,5.061285605487237e-08,1.7345469510959775e-06,-8.32569730113138e-07
8.574434194318127e-07,-6.071478050215072e-07,4.342625639687115e-06,3.70533870393675e-07,7.762192562856644e-06,1.2088218703323102e-06,1.3699827128574612e-06,-2.785212967068365e-07,2.454692924976441e-07,2.8168787356586326e-07,-6.141103076412759e-07,-2.8796235485937417e-07,-1.952645393019985e-07,-9.407977462603288e-07,-7.570545025836583e-07,6.766490190286089e-08,1.6553589899219133e-06,-8.642390757172634e-07
8.609438200374537e-07,-7.482350558261568e-07,4.966189540903317e-06,-6.014875070427809e-07,9.286970054418335e-06,1.162557135132815e-06,1.2194192551625374e-06,-2.810203234269445e-07,2.4536812662392856e-07,2.842142412299112e-07,-6.981563136567565e-07,-2.977658408506147e-07,-1.5987688611151756e-07,-8.20734745408464e-07,-7.519606415880719e-07,4.7836235997033255e-08,1.0201570128351346e-06,-8.437733098573424e-07
8.203792792145458e-07,-8.182797289063762e-07,5.195617757475267e-06,-5.973365631406646e-07,1.0141333860942588e-05,1.1236139491014974e-06,1.2386309238773903e-06,-2.843712475858089e-07,2.378556490820769e-07,2.4919596553383485e-07,-7.324390360998657e-07,-2.6446913151110355e-07,-1.484957929878225e-07,-6.557622058799037e-07,-7.050098445724038e-07,1.495336571081548e-08,2.931154902456178e-08,-7.533425670224845e-07
7.645059646393887e-07,-8.061276698015412e-07,5.020583726054537e-06,2.511524366920726e-07,9.954437612418372e-06,1.1075377636188044e-06,1.4323958649623604e-06,-2.77893588559519e-07,2.424439847802269e-07,2.0619833678806408e-07,-7.139649887364762e-07,-1.4608621789070914e-07,-1.7731527655992157e-07,-4.605874042431674e-07,-6.338620486355836e-07,-4.0906772807078724e-08,-1.0012660076629122e-06,-5.95049669082073e-07
7.416748511412118e-07,-7.03054728984454e-07,4.4627310161819955e-06,1.74411622328626e-06,8.705865650104216e-06,1.1218137835826093e-06,1.7638398870769749e-06,-2.574769110761102e-07,2.7185451101769356e-07,2.04681992914094e-07,-6.520331844136182e-07,6.004247180481414e-09,-1.9705217218321243e-07,-2.5626054602406724e-07,-5.402095327331038e-07,-4.8960602990479085e-08,-1.7574812851264585e-06,-3.9233126043261724e-07
7.332823423545656e-07,-5.16388863088285e-07,3.5973845961409968e-06,3.619029524150598e-06,6.700376404247617e-06,1.1650646499820393e-06,2.169329405332631e-06,-2.2683385741584976e-07,3.5311724940848275e-07,2.2388358869016447e-07,-5.617565472479046e-07,1.4374209306766598e-07,-1.474989030209625e-07,-7.133057130374347e-08,-4.465873291997699e-07,-5.2923605124718694e-08,-2.038625255655358e-06,-1.845214394276754e-07
7.637049622336595e-07,-2.3957317718136596e-07,2.636910278862226e-06,5.532994725364296e-06,4.385001412469354e-06,1.2290759223523953e-06,2.578651576829136e-06,-1.937648081781085e-07,4.672879216844137e-07,2.497052186746388e-07,-4.554476219322618e-07,2.536775538651311e-07,-7.067678295306593e-08,6.421455468333988e-08,-3.594632651277192e-07,-7.029609183089612e-08,-1.805094298364343e-06,-1.546061181459974e-08
7.830625696410269e-07,1.197695358248205e-07,1.7461615868644019e-06,7.112387937991671e-06,2.2106715495675873e-06,1.3017477933721763e-06,2.930674112747769e-06,-1.6458927236730183e-07,5.333658432827895e-07,2.865800408463283e-07,-3.3850739929741854e-07,3.4089463225190283e-07,-3.399064733828437e-08,1.2936168133485446e-07,-2.819028414019055e-07,-8.349535788242026e-08,-1.173377583789133e-06,7.996661806385258e-08
7.88365812789963e-07,5.486795722250816e-07,1.2435578222755419e-06,8.086274315976525e-06,6.228612986489122e-07,1.3715056211487268e-06,3.176795845441567e-06,-1.411699522780359e-07,5.985368345031135e-07,3.235938188249618e-07,-2.1189716917273102e-07,4.077218725585035e-07,2.8806384150886204e-08,1.208002708094303e-07,-2.1614783331380624e-07,-7.429680417641811e-08,-3.710257030665304e-07,8.61767980277709e-08
8.10633848997184e-07,1.0345872168064165e-06,9.430099306812948e-07,8.36319096215508e-06,5.955614378668849e-08,1.4287052070958967e-06,3.2855874982904824e-06,-1.2216087483438058e-07,6.498679100861928e-07,3.445029148110952e-07,-7.708865842502262e-08,4.566044475071213e-07,7.191447488113901e-08,5.363341490789489e-08,-1.62233699981867e-07,-5.1074030229121566e-08,3.506640189509443e-07,1.0380487228224489e-08
8.127771260535601e-07,1.536881324285781e-06,5.448314863123571e-07,7.967824449292199e-06,8.099680246028953e-07,1.4661819008378046e-06,3.2432600822055916e-06,-1.0628447976367608e-07,6.817274139017684e-07,3.5665724156345316e-07,6.090340954174433e-08,4.902447984697116e-07,8.508450555009088e-08,-4.741366582600454e-08,-1.2102430713680497e-07,-3.0410736277944745e-08,8.130212990863246e-07,-1.2069893586285152e-07
8.060061902531807e-07,1.906200719616566e-06,6.176857818719353e-07,6.944305621415529e-06,2.7872380431404108e-06,1.482366690664719e-06,3.047968422873576e-06,-9.418173545625711e-08,7.22253785468414e-07,3.579886378754011e-07,1.940096546788503e-07,5.092920268025686e-07,8.61209680714462e-08,-1.5658209416239847e-07,-9.247987931475043e-08,-2.0412132276810963e-08,9.609698738160392e-07,-2.699071804151134e-07
7.919255746304089e-07,2.0817043144406817e-06,1.297076942554111e-06,5.398397405136195e-06,5.447624108679831e-06,1.4774705334674326e-06,2.7622817584018544e-06,-8.724460564680697e-08,7.69400269512473e-07,3.4175621722138286e-07,3.1412320004094454e-07,5.137139336722321e-07,6.67219227436393e-08,-2.5140771376999256e-07,-7.590470215762023e-08,-2.9644314435924684e-08,8.524659602673274e-07,-4.004865104330737e-07
7.66871090196226e-07,1.9117297558107764e-06,2.131333615218794e-06,3.6758362671898514e-06,7.981628433351609e-06,1.4557128488020857e-06,2.422729397335772e-06,-8.510187187957198e-08,8.405359539065606e-07,3.1887052630941817e-07,4.155775303072995e-07,5.035495738600511e-07,4.472187658573516e-08,-3.1428007018070164e-07,-6.931888986203648e-08,-3.976538530760984e-08,6.093265233113408e-07,-4.837596378730914e-07
7.451491899044077e-07,1.4485324486034285e-06,2.9640769517326573e-06,2.399999206106606e-06,9.634729364697283e-06,1.4241578252851535e-06,2.0504598113336837e-06,-8.459142662079746e-08,9.262398218287596e-07,2.9464423501812386e-07,4.945726456691777e-07,4.799877931718424e-07,3.007361481565227e-08,-3.344195375464767e-07,-6.9567319295334e-08,-3.776315331637426e-08,3.5462765271391685e-07,-5.03208574917941e-07
7.36139955434782e-07,1.0680993131909652e-06,3.5895868757997446e-06,2.131059527202429e-06,9.955642016498835e-06,1.388560507058396e-06,1.7978515617451424e-06,-8.144742051144616e-08,1.0079331038974183e-06,2.8092496127455366e-07,5.466597821369997e-07,4.44350719478393e-07,2.8789797282687624e-08,-3.126275084997701e-07,-7.53345464876177e-08,-1.7646064329321875e-08,1.6059369640837872e-07,-4.574701109744942e-07
7.395238292278104e-07,7.897121885557636e-07,4.469185761205028e-06,2.897196801243919e-06,8.924575329615415e-06,1.3517729797215872e-06,1.8774140121097046e-06,-7.344672349943327e-08,1.0725115599525538e-06,2.797736108652364e-07,5.657851801482839e-07,3.9695858181739184e-07,3.585991125174801e-08,-2.636811718777712e-07,-8.905968106015796e-08,1.409356215602918e-08,3.132686005512019e-08,-3.622093876810048e-07
7.343645747988094e-07,8.539104963690355e-08,5.2810890228982966e-06,4.080730378579559e-06,6.95807627557185e-06,1.31149145146152e-06,1.9558284758996464e-06,-6.233567582209823e-08,1.1055699179147897e-06,2.8679241192551203e-07,5.467344785510666e-07,3.382951570587317e-07,5.0427568261390134e-08,-2.1126505030072502e-07,-1.1586487037655746e-07,4.920753525220327e-08,-7.310275512175339e-08,-2.469808716632824e-07
7.203582699756829e-07,-4.896171226639493e-07,5.5712379048289695e-06,4.799436547244459e-06,4.737232841195346e-06,1.2694770417858851e-06,2.4170263464877186e-06,-5.2543524804270745e-08,1.1044292687369856e-06,2.9300801642067585e-07,4.898610896733748e-07,2.711528668177874e-07,6.79126247806777e-08,-1.764008976946739e-07,-1.591947208149187e-07,7.708863806603172e-08,-1.9194372887488925e-07,-1.439223210552951e-07
6.942654552394339e-07,-6.261514164545275e-07,5.473807892175844e-06,4.450997979453227e-06,2.9142414330671924e-06,1.225077024184522e-06,2.8946847053653053e-06,-4.738985506870923e-08,1.069865516088384e-06,2.916060032331557e-07,4.0475779511770674e-07,2.0260506443988065e-07,7.997803420280395e-08,-1.6604809897519445e-07,-2.1513282924329106e-07,8.825960513636407e-08,-3.3212641053710015e-07,-7.188039590699895e-08
6.548414189782985e-07,-6.297992985733642e-07,5.3035738563243284e-06,2.980866465382894e-06,1.882664170332527e-06,1.1838454615376974e-06,3.194502383008746e-06,-4.5881247009995526e-08,1.0074824125513435e-06,2.762948852382061e-07,3.09564406911564e-07,1.4370850558030316e-07,8.363338050771369e-08,-1.6880652190532998e-07,-2.710331945014929e-07,8.328893466757843e-08,-4.621048699892492e-07,-2.6637821104382692e-08
6.138630373544043e-07,-5.052516246680729e-07,4.633777451917696e-06,7.602926686058823e-07,1.7167189566760305e-06,1.1543235319163876e-06,3.2465349618851565e-06,-4.28185101921903e-08,9.267570639449628e-07,2.5949578209573316e-07,2.253680012803281e-07,1.0638309106529715e-07,7.839432997101177e-08,-1.6065520925829168e-07,-3.104801539997525e-07,6.66496851530832e-08,-5.221863632295164e-07,1.3784969100018055e-08
5.780840380207088e-07,-3.527795794907317e-07,4.4493596832307696e-06,-1.694074425255451e-06,2.232646760964539e-06,1.140803680715428e-06,3.164033293111794e-06,-3.2298376226445235e-08,8.439439555084184e-07,2.506563500721229e-07,1.6897307005501037e-07,9.846060970569979e-08,6.860225676181976e-08,-1.2025634410253299e-07,-3.21463556780281e-07,4.3847455604649855e-08,-4.572583646284128e-07,7.191407257711464e-08
5.55992649280331e-07,7.154729486909679e-08,4.526496599665333e-06,-3.8957083099855866e-06,3.0946151953134913e-06,1.1441384028148653e-06,2.993532282395114e-06,-1.212961913271983e-08,7.76372224648266e-07,2.5078645559861136e-07,1.477374408719631e-07,1.1983633425607816e-07,6.321620919356801e-08,-4.529285861594017e-08,-3.023233332593359e-07,1.7852706013805883e-08,-2.730670172727734e-07,1.5434110213077185e-07
5.500839001044911e-07,5.805707527343057e-07,4.514685503874294e-06,-5.433660805556456e-06,3.924708608620837e-06,1.1583852391494792e-06,2.857860055378965e-06,1.4115065306714007e-08,7.351146245457536e-07,2.6127699115570897e-07,1.5769451521273063e-07,1.627605181238832e-07,7.230262031112625e-08,4.251165597180767e-08,-2.6159247280025653e-07,-1.19246308894283e-08,-7.1232721967211e-08,2.432614997857479e-07
5.582785749539534e-07,1.0923037113313209e-06,3.6186070501069404e-06,-6.0299461216694605e-06,4.408292977667493e-06,1.174559108992584e-06,2.845980829859081e-06,3.90461675420124e-08,7.230114226198429e-07,2.76056144676041e-07,1.8584249595110886e-07,2.1598726305722045e-07,1.0244689720544966e-07,1.0950130593606118e-07,-2.1235232377204936e-07,-4.654532927195046e-08,-1.05215017433917e-08,3.0206141189346547e-07
5.727154931421152e-07,1.1895447704347932e-06,2.3628558007537785e-06,-5.6677967641539346e-06,4.3797184963236444e-06,1.1840383017353905e-06,2.9369961308217627e-06,5.60234845340134e-08,7.339756019196425e-07,2.901547663018456e-07,2.1717173863751854e-07,2.7015264101232117e-07,1.5309464247726874e-07,1.3148190603054442e-07,-1.6555551250080326e-07,-8.474290414021884e-08,-2.0571199817813463e-07,2.9605990101415337e-07
5.864950766748258e-07,1.2840200933724961e-06,1.106323029604812e-06,-4.721101383228818e-06,3.847567260301117e-06,1.1835957732643139e-06,3.0986768791437544e-06,6.286065369214725e-08,7.576104466004742e-07,3.0165604356728047e-07,2.432832001303086e-07,3.202863088443857e-07,2.164561337266854e-07,1.0793538889334198e-07,-1.267059210462566e-07,-1.2238594816842093e-07,-6.432613711113067e-07,2.1544847172598813e-07
5.964444706258304e-07,1.5248802262932335e-06,7.663284576849506e-09,-3.883491770858937e-06,2.939980523015918e-06,1.175629692593164e-06,3.3716226362367986e-06,6.162537224445611e-08,7.830243025448732e-07,3.107753085092165e-07,2.6590505265863104e-07,3.64482465140273e-07,2.80578872888475e-07,6.170251837259085e-08,-9.679391675631267e-08,-1.541892512572136e-07,-1.184871000361009e-06,8.28705945455459e-08
5.985449252845519e-07,1.639584120723782e-06,-4.297796176104352e-07,-3.823833197931279e-06,1.8152123359665819e-06,1.1624045310910307e-06,3.7167389405181654e-06,5.497065612871104e-08,8.00426541618923e-07,3.131740723466626e-07,2.9145642986428463e-07,4.013604625319366e-07,3.3330223005806865e-07,2.5577960889308474e-08,-7.535210478562333e-08,-1.7657943095301393e-07,-1.6541488290638777e-06,-5.927250018464846e-08
5.909978064074252e-07,1.4033306543899373e-06,-2.492398451570726e-07,-4.798775512752512e-06,6.025852061908097e-07,1.1445070889754075e-06,4.0367579165947826e-06,4.3064089505750243e-08,8.024643968754193e-07,3.041498621335683e-07,3.21010769131889e-07,4.2822089485211066e-07,3.64743982363057e-07,2.3610631697115418e-08,-6.306282795018623e-08,-1.8967124805663813e-07,-1.9399779536066166e-06,-1.7061027112220948e-07
5.702487183552926e-07,1.052001042500475e-06,2.03141375556322e-07,-6.529746223021528e-06,-5.989615656993923e-07,1.1196083451616397e-06,4.339342171059137e-06,2.4340630741666126e-08,7.861191393408571e-07,2.7954065118730726e-07,3.4500039817538145e-07,4.4195095112076087e-07,3.679107604967258e-07,5.847584704915978e-08,-6.136383289570295e-08,-1.9641976234156116e-07,-2.0432302311706787e-06,-2.2995981385875857e-07
5.370424826237109e-07,6.990767900849572e-07,7.88890966974785e-07,-8.403517933173255e-06,-1.6498106248366617e-06,1.0843323420324714e-06,4.57516169828046e-06,-1.180798901889075e-09,7.539439848028381e-07,2.3897040072877873e-07,3.474928189101497e-07,4.416513599771281e-07,3.3921132295449195e-07,1.1389016744167087e-07,-6.956482064997966e-08,-1.996578702565158e-07,-2.0349753950464917e-06,-2.405281768821513e-07
4.955154481922211e-07,3.859716169535801e-07,1.4066956620695932e-06,-9.780773881251031e-06,-2.269113860072609e-06,1.0381124270468563e-06,4.672013831172883e-06,-2.9479782783757627e-08,7.128280007092443e-07,1.894345284200512e-07,3.165676634727249e-07,4.3052149226457e-07,2.7936871361427076e-07,1.6879457391651695e-07,-8.214593085793528e-08,-1.998059852866776e-07,-1.9690471780573026e-06,-2.2268223209781434e-07
4.5195001721509155e-07,6.656414111564776e-08,1.9053276134082626e-06,-1.0211028015002682e-05,-2.0475259722767135e-06,9.825304033431927e-07,4.591104340213876e-06,-5.2879143892568746e-08,6.712099745286671e-07,1.4123695108767158e-07,2.534205224013451e-07,4.1525733163376845e-07,1.9438050080121785e-07,2.106257106006013e-07,-8.952662913889123e-08,-1.9471830275637823e-07,-1.8295257616522151e-06,-1.9887631036206222e-07
4.1618998401275157e-07,-1.5425513486590064e-07,2.241743703429676e-06,-9.525464582063827e-06,-6.556552770706574e-07,9.234329600065311e-07,4.303179026176521e-06,-6.296655445189836e-08,6.369143285970276e-07,1.0504177164788039e-07,1.744763177550197e-07,4.032315008732871e-07,9.568050670183898e-08,2.389798488186573e-07,-8.314656724263975e-08,-1.813651889221228e-07,-1.5444504177943863e-06,-1.8053584623351562e-07
3.946966577843877e-07,-3.021249534901838e-07,2.41662074461491e-06,-7.85534095904155e-06,1.8735613665461169e-06,8.663794382530895e-07,3.8083313170534482e-06,-5.478174470638995e-08,6.155019736676051e-07,8.919332083770368e-08,1.0533463325113963e-07,3.990384085889908e-07,-1.7368003706050783e-09,2.6096035952089716e-07,-6.098821099657686e-08,-1.5843502337710037e-07,-1.0341856409917026e-06,-1.655559204118054e-07
3.929715111132043e-07,-4.2565746845780245e-07,2.442951884401928e-06,-5.567913042351267e-06,5.0202989702794975e-06,8.148002605515095e-07,3.173599329295526e-06,-2.981559247959697e-08,6.08323659371498e-07,9.192039992816713e-08,6.987558511085889e-08,4.0249681546985336e-07,-8.338872801580458e-08,2.843230195545061e-07,-2.915104361238218e-08,-1.2869417560351704e-07,-2.5668494622415217e-07,-1.4670324889182552e-07
4.024963551831064e-07,-5.17460770085024e-07,2.4032698734966694e-06,-3.102474134757659e-06,7.95428314762838e-06,7.697195290143099e-07,2.5050228790559823e-06,4.5212471297092395e-09,6.1181190786495e-07,1.0725514777015206e-07,8.050640723329131e-08,4.096972044317019e-07,-1.3946856814117348e-07,3.1186851837080617e-07,1.7396576716050264e-09,-9.959066556849628e-08,7.65919045382642e-07,-1.2214567269498417e-07
4.2095999873385047e-07,-5.878704063283865e-07,2.4115887797311127e-06,-7.657837664083335e-07,9.930805490358683e-06,7.304554462417243e-07,1.8833694444521286e-06,3.8870264918523065e-08,6.19640233784049e-07,1.2762325829479736e-07,1.3469670733844358e-07,4.158740608360045e-07,-1.6630668303804104e-07,3.3764024209464056e-07,2.2184231138102792e-08,-8.110697241994744e-08,1.944629346664651e-06,-1.0007682714630267e-07
4.4290715482990916e-07,-6.052031857892873e-07,2.5288869446512986e-06,1.4030973727724205e-06,1.0624814270093293e-05,6.973563277986707e-07,1.3826656344379111e-06,6.652191438634119e-08,6.263704249374668e-07,1.461774336624199e-07,2.181503534694166e-07,4.1822976930240767e-07,-1.6529830891903713e-07,3.469675954629712e-07,2.799215201693269e-08,-8.191739165400234e-08,3.1495142905325318e-06,-9.669086673775518e-08
4.630322352903526e-07,-5.593929806531605e-07,2.7737898720979387e-06,3.5623406267850805e-06,1.0171262616502839e-05,6.725942972569687e-07,1.0422911200784811e-06,8.547546909975447e-08,6.293911750893366e-07,1.5998625722870405e-07,3.107713460942548e-07,4.1694424097892905e-07,-1.416074836432933e-07,3.2340051298907746e-07,2.0807000530327814e-08,-1.0675012043667996e-07,4.255354701069757e-06,-1.3151441805961574e-07
4.815615320352079e-07,-4.742128174166464e-07,3.1741223626638966e-06,5.833865573729567e-06,8.959996187619527e-06,6.589083759736736e-07,8.624576701986244e-07,9.707259422630478e-08,6.28027420498656e-07,1.6780717359621573e-07,3.922502539572195e-07,4.135399050467711e-07,-1.0373567886651179e-07,2.605557617957528e-07,6.032569827173423e-09,-1.5644265517769297e-07,5.17918961097286e-06,-2.213526180182156e-07
4.956591783710014e-07,-3.8230156817761963e-07,3.6754509840575193e-06,8.114585799601378e-06,7.405133810615424e-06,6.555001168748881e-07,8.317719405921222e-07,1.0317867439025466e-07,6.221021664136171e-07,1.683957452497345e-07,4.465486440482308e-07,4.0902318606716416e-07,-6.285522022459671e-08,1.6917541101279646e-07,-9.802528139343068e-09,-2.2918014210372422e-07,5.8902006927116e-06,-3.721128073447004e-07
5.035901172239424e-07,-3.169466334273684e-07,4.159596911906239e-06,1.0076446324887181e-05,5.828994388407983e-06,6.582444009135149e-07,9.286783837541784e-07,1.0487595624907027e-07,6.121429803291955e-07,1.6036099336072168e-07,4.652103262699397e-07,4.031940619741717e-07,-3.0878212901742456e-08,7.290285052889456e-08,-2.141434260239385e-08,-3.2102192686586974e-07,6.389226660197872e-06,-5.71881410070494e-07
5.023372610342894e-07,-3.0416966829461253e-07,4.503124716039677e-06,1.1297534126995343e-05,4.4622668190249736e-06,6.607830307608344e-07,1.124411342048159e-06,1.0352572505673382e-07,6.005062648491346e-07,1.448567463209573e-07,4.4856993661195185e-07,3.9575951638683633e-07,-1.7308542212770196e-08,-3.219697882579384e-09,-2.6313169056997042e-08,-4.2520775053432614e-07,6.659483976590626e-06,-7.896655529536708e-07
4.954835468680487e-07,-3.585654224174828e-07,4.583442811749313e-06,1.1391380125077902e-05,3.4888305861656705e-06,6.56798074638949e-07,1.3838485846165335e-06,1.0223697381005273e-07,5.913886339808361e-07,1.253621843059288e-07,4.0355738000837903e-07,3.8748415130158777e-07,-2.6011679802190608e-08,-4.265034491875298e-08,-2.516380301800297e-08,-5.306328918324759e-07,6.621922661762064e-06,-9.815735009492966e-07
4.863734228467635e-07,-4.824700346202576e-07,4.344574227229883e-06,1.0089181640515696e-05,3.03371798876647e-06,6.433635635742961e-07,1.6576933010091788e-06,1.0559862440693922e-07,5.890956006986502e-07,1.0757482112241313e-07,3.3880142655138327e-07,3.8020880209557754e-07,-5.352095572436499e-08,-4.268739855096127e-08,-2.055535101764705e-08,-6.211750656430788e-07,6.159522854368854e-06,-1.1035640347969588e-06
4.80258742272974e-07,-6.63890712793972e-07,3.787281190120768e-06,7.302332583426697e-06,3.0517805681016e-06,6.218380834878071e-07,1.8961159294033336e-06,1.1740674523455252e-07,5.956332250680793e-07,9.580523943711517e-08,2.6074604497632077e-07,3.758487947160731e-07,-9.028221459225258e-08,-1.7707037566071923e-08,-1.5577563674035082e-08,-6.794591573962667e-07,5.207516457718909e-06,-1.1270398408613282e-06
4.822580859400431e-07,-8.717177059743854e-07,2.9878151440106755e-06,3.232693679231904e-06,3.2257097336815044e-06,5.974876566435717e-07,2.0555891392702636e-06,1.3789162154799506e-07,6.091176760156425e-07,9.178694751167421e-08,1.736372556995454e-07,3.7333584308506804e-07,-1.2472171892824414e-07,2.702821378506526e-09,-1.2847756427348423e-08,-6.958193502195582e-07,3.816814645110182e-06,-1.051194745284814e-06
4.92511604779448e-07,-1.0567138433431842e-06,2.104880021321041e-06,-1.49183895765047e-06,3.0244467448747936e-06,5.756900059096038e-07,2.1048751719939896e-06,1.627825117860006e-07,6.240532606395515e-07,9.306117144858387e-08,8.222840749419407e-08,3.690080900998619e-07,-1.4801728785221888e-07,-1.7387464198300932e-08,-1.4835004992272497e-08,-6.756253570315058e-07,2.14594029804757e-06,-9.055400928946116e-07
5.072744617620746e-07,-1.165050453417084e-06,1.3370325617302696e-06,-5.834848856636386e-06,1.9337906625394823e-06,5.620320005223539e-07,2.0544368659302306e-06,1.8559397302825985e-07,6.336358389676879e-07,9.40619015232777e-08,-7.1324261101581145e-09,3.5972468630695807e-07,-1.5658429460747702e-07,-1.0142617084942471e-07,-2.3660267053531533e-08,-6.367680292173982e-07,4.3177406514997267e-07,-7.381812380940729e-07
5.214470468296016e-07,-1.159204147130705e-06,8.835675732947758e-07,-8.662487187079388e-06,-2.5505241880656995e-07,5.591428336478378e-07,1.9739482864848085e-06,2.0184725585841958e-07,6.327510128525278e-07,9.094896212488194e-08,-8.630932689720464e-08,3.452796699652323e-07,-1.5188709694518937e-07,-2.447745005419259e-07,-3.914735171199411e-08,-5.984125459136009e-07,-1.0349983052088583e-06,-5.942052963200994e-07
5.312587120529341e-07,-1.035206725953751e-06,8.704359318656407e-07,-9.221773125238463e-06,-3.242349261884787e-06,5.669982235884559e-07,1.963500629940549e-06,2.1195156098591012e-07,6.196661040073882e-07,8.341867360742189e-08,-1.4678237144162002e-07,3.297843894358098e-07,-1.3914564282089398e-07,-4.0853939278501907e-07,-5.9222810374530096e-08,-5.705639442015097e-07,-1.963642690033292e-06,-4.971565419101389e-07
5.377999033356742e-07,-8.271723534412217e-07,1.3095149630663355e-06,-7.483851442491524e-06,-6.238707239947656e-06,5.850305686647678e-07,2.092915082401461e-06,2.203343580591095e-07,5.95886355427894e-07,7.463361616451871e-08,-1.8088401230302065e-07,3.1738792812747387e-07,-1.243184264376005e-07,-5.341058332759583e-07,-7.831716147677947e-08,-5.508964109548886e-07,-2.157786787484402e-06,-4.4338923442241494e-07
5.41182813695593e-07,-5.959830197720028e-07,2.0861738157624944e-06,-4.131046856596312e-06,-8.254853758724758e-06,6.109250700576183e-07,2.360327844106566e-06,2.3131444712142523e-07,5.650446251547572e-07,6.749207010278031e-08,-1.851400388599575e-07,3.1239995474404736e-07,-1.1273332875424756e-07,-5.688074328203754e-07,-9.097869624168838e-08,-5.297962430586774e-07,-1.603246451037772e-06,-4.1006104260072966e-07
5.423380248635846e-07,-4.068483660730944e-07,2.9969175788385517e-06,-2.0710831120914797e-07,-8.528907957322436e-06,6.404158017585082e-07,2.705270696937788e-06,2.449976551091528e-07,5.313538699866677e-07,6.234893301857144e-08,-1.638949044003763e-07,3.1569379368839827e-07,-1.0868250563519866e-07,-4.872888302680467e-07,-9.387361412796086e-08,-4.979398528187443e-07,-4.7694059473964e-07,-3.7029336485387395e-07
5.40763565250916e-07,-3.0309258589746423e-07,3.822643075453245e-06,3.3355441780452418e-06,-6.860565855433463e-06,6.671897982947779e-07,3.0417182666223897e-06,2.572045470181637e-07,4.981401055447653e-07,5.649299774298475e-08,-1.3025236633488453e-07,3.2438204199448136e-07,-1.1369078874109096e-07,-3.0129994921980087e-07,-8.561783851873525e-08,-4.5143540029184257e-07,9.400192673227516e-07,-3.0689975258067235e-07
5.338169707099032e-07,-2.852216492347768e-07,4.380732819306899e-06,5.9046416868401415e-06,-3.7041970674099594e-06,6.853229020575526e-07,3.296816293253518e-06,2.633828205859121e-07,4.6749087046923983e-07,4.6818382447399056e-08,-9.966062342885036e-08,3.350720931330223e-07,-1.2439435672596916e-07,-5.2932504546269774e-08,-6.69164547720899e-08,-3.9530600519866615e-07,2.3664766396839907e-06,-2.1842067430003866e-07
5.219157891650601e-07,-3.080710534074874e-07,4.551554815195416e-06,7.290322938954482e-06,-8.190036636259222e-09,6.920356417019473e-07,3.4323457080515957e-06,2.637528496530736e-07,4.4089813667572223e-07,3.3405718203654485e-08,-8.075481349194717e-08,3.4503473248767686e-07,-1.323089637681199e-07,2.0260946337598665e-07,-3.949886692724982e-08,-3.408510740097669e-07,3.5644087124930883e-06,-1.1616788340714837e-07
5.082899195818428e-07,-3.0572836897119546e-07,4.288505712461874e-06,7.568286326200749e-06,3.137797458679494e-06,6.889757267027511e-07,3.4358594531786848e-06,2.6404000289288653e-07,4.195181965823001e-07,1.9539056545105994e-08,-6.897260015438067e-08,3.5327577637255545e-07,-1.2741281079654592e-07,4.169307758620811e-07,-6.355114600373799e-09,-2.9965670283545917e-07,4.33014852571591e-06,-1.545944381858492e-08
4.985830103882343e-07,-2.3041991691566526e-07,3.628506082287489e-06,6.987076056055183e-06,4.919946299897642e-06,6.815016833243521e-07,3.3121510647691167e-06,2.709761811448644e-07,4.036024394969204e-07,9.33044979223499e-09,-5.355033639712944e-08,3.5892330888274166e-07,-1.0374092538360103e-07,5.595453193884746e-07,2.805996443821557e-08,-2.777725292178671e-07,4.489002025064634e-06,7.294400456913534e-08
4.961493035340558e-07,-8.311586715971596e-08,2.7523100444139474e-06,5.871027601766045e-06,5.0928393237290245e-06,6.749485645129214e-07,3.0492301616143623e-06,2.8682653111857466e-07,3.9225946197525335e-07,4.434238552519249e-09,-2.9204891294679405e-08,3.599134127944413e-07,-6.634025371779977e-08,6.189532396085098e-07,5.6762743101536577e-08,-2.7347358343691373e-07,3.929047500536915e-06,1.4529471380099676e-07
5.005739862715045e-07,8.856870046921554e-08,1.7236815241336466e-06,4.547802725637232e-06,4.0174502447751575e-06,6.720569769627196e-07,2.6614018651275157e-06,3.071327669179382e-07,3.845429014004928e-07,2.5732059363027373e-09,-1.2024453873052454e-09,3.523277748597221e-07,-2.794732529125439e-08,5.982465540903246e-07,7.128179529180543e-08,-2.804722239518521e-07,2.6616658128224698e-06,2.0007140608890202e-07
5.077739215497485e-07,2.3132584659580198e-07,7.237320067279801e-07,3.2922649187820967e-06,2.4602234186992856e-06,6.72581689477317e-07,2.207188632989753e-06,3.2348679797755953e-07,3.812656330491832e-07,-2.8923800715339167e-10,1.701245000996922e-08,3.3304590563243064e-07,-2.0832338682117134e-09,5.086950879898005e-07,6.492803291444522e-08,-2.932460433086677e-07,8.609925811521071e-07,2.3049959795675074e-07
5.129267261430746e-07,3.3108888679338486e-07,-5.64150979146478e-08,2.260756243971299e-06,1.2483222319694788e-06,6.748079180484478e-07,1.7614477661449701e-06,3.2905103425756693e-07,3.8575981331899207e-07,-7.0776818839839785e-09,1.1425633419068047e-08,3.0282891119892366e-07,5.0964052156477805e-09,3.663340480245486e-07,3.7087500594967516e-08,-3.0999492781900983e-07,-1.1517696506578023e-06,2.2222797062750863e-07
5.141910007367394e-07,4.236743084792356e-07,-5.334546897964091e-07,1.4389062539163849e-06,9.041315016552562e-07,6.777296654648883e-07,1.374729628743602e-06,3.225920881314778e-07,4.026042028703605e-07,-1.6955743514087897e-08,-2.6136181669242013e-08,2.66139416418565e-07,-1.0759327143319423e-09,1.8999273909749577e-07,-4.390279422137565e-09,-3.3235357647993875e-07,-2.9765868003300383e-06,1.6132607593134166e-07
5.117974578934601e-07,5.615643425402348e-07,-6.512452785481552e-07,6.486759067785417e-07,1.4214557610210443e-06,6.807054780459412e-07,1.028909869763413e-06,3.093701045643737e-07,4.3522549583805464e-07,-2.5865274061721314e-08,-9.320070884401427e-08,2.2941623093307517e-07,-8.051012249048162e-09,-5.713240584579223e-10,-4.6427845948839204e-08,-3.622589488347191e-07,-4.232138658761415e-06,4.7905756975298426e-08
5.079347515135425e-07,7.677713635592691e-07,-4.3960309102726205e-07,-3.6220714556104506e-07,2.3104378369507856e-06,6.830807345589903e-07,6.495903180591187e-07,2.9722831448250257e-07,4.836047760442182e-07,-3.010645839392839e-08,-1.751125577762947e-07,1.9876269659113106e-07,-3.032004493948201e-09,-1.8527280393441225e-07,-7.80291153934289e-08,-3.987645651170735e-07,-4.653549095807801e-06,-9.648545643646276e-08
5.031095770281029e-07,1.0149809150450617e-06,4.5245326572624233e-08,-1.7652867242888056e-06,2.914907473815691e-06,6.825426497397797e-07,1.7225745818908345e-07,2.919801190271433e-07,5.429682619009068e-07,-2.930922439411061e-08,-2.4757687637161347e-07,1.7805975304066356e-07,1.7968965006067005e-08,-3.4486380956944223e-07,-9.622205408110564e-08,-4.379093983748666e-07,-4.162276744227181e-06,-2.363589463241404e-07
4.985686747144404e-07,1.2396682366670534e-06,6.046308624963321e-07,-3.5232938336577217e-06,2.8301605670037043e-06,6.754285541148718e-07,-3.846187157733014e-07,2.950788453912621e-07,6.047829892667257e-07,-2.7169595938843296e-08,-2.867044703317728e-07,1.6923934496638391e-07,4.888651297086944e-08,-4.5964263574127864e-07,-1.0718698298465855e-07,-4.7363250513544085e-07,-2.8907434548702476e-06,-3.403847849533167e-07
4.924344732847506e-07,1.377406721365598e-06,1.3715411387319145e-06,-5.398006796955726e-06,2.130832404530313e-06,6.599156494947898e-07,-9.094503085824176e-07,3.036189059436376e-07,6.599782036416701e-07,-2.867235212044976e-08,-2.7938853800613814e-07,1.718433658998803e-07,7.855282849988924e-08,-5.090549010603429e-07,-1.203140126527103e-07,-4.96832805053624e-07,-1.1563380458393445e-06,-3.96594775115534e-07
4.844332260815749e-07,1.392430528873716e-06,2.2664189199258025e-06,-6.984594865705067e-06,1.2723388645835462e-06,6.366324830071976e-07,-1.2675906501867419e-06,3.132527568955047e-07,7.015039935498945e-07,-3.678368370411686e-08,-2.2900340544869452e-07,1.8399141073326258e-07,9.655014688429941e-08,-4.766154796687849e-07,-1.4095903546103475e-07,-4.974948462006787e-07,6.221263978898003e-07,-4.1436760718110695e-07
4.774576761294008e-07,1.2875968167758331e-06,3.11977798091803e-06,-7.988393081218791e-06,8.10549848864914e-07,6.097853955940469e-07,-1.357262714413889e-06,3.1971661258070424e-07,7.240341619355337e-07,-5.100546281646238e-08,-1.509039608428958e-07,2.0368358126315498e-07,9.96209646882515e-08,-3.562413568397442e-07,-1.6721787917004885e-07,-4.6787666784690664e-07,2.0538810589668572e-06,-4.1277498329506285e-07
4.7440254116597157e-07,1.0943099144062031e-06,3.84508309826229e-06,-8.245078968642375e-06,1.1345961773864697e-06,5.855007029728093e-07,-1.2004939750266788e-06,3.1946864446459243e-07,7.226128341041269e-07,-6.859332982316418e-08,-6.357850083255308e-08,2.2823144258146235e-07,9.22008972909268e-08,-1.5703758215187732e-07,-1.9033281603326426e-07,-4.0730544281973514e-07,2.8856271843278186e-06,-4.050784031173795e-07
4.776100080026716e-07,8.580299345531614e-07,4.287969806779941e-06,-7.4925356010702475e-06,2.315100178239726e-06,5.673762383358145e-07,-9.014141492882438e-07,3.0949953354288725e-07,6.932081181540649e-07,-8.764680523795715e-08,1.7659563518028744e-08,2.54483903569877e-07,8.189582850632265e-08,9.63543107080944e-08,-1.9984519958747088e-07,-3.266069081323093e-07,3.0295114218210415e-06,-3.9278916569428305e-07
4.855424762705905e-07,6.308734462771937e-07,4.426526202038214e-06,-5.5519792337411715e-06,4.134870937143109e-06,5.58196229062907e-07,-5.739151283598024e-07,2.8761707176668223e-07,6.357407374578987e-07,-1.0849224352748198e-07,8.311199472738789e-08,2.795289000084313e-07,7.530485719623679e-08,3.672121512662031e-07,-1.8938047512637702e-07,-2.433501629942959e-07,2.534967594410881e-06,-3.735956630556525e-07
4.939575593260194e-07,4.602098313689262e-07,4.337703107616079e-06,-2.325849437384991e-06,6.268389298683337e-06,5.578276361108477e-07,-3.5002819640639734e-07,2.539375738303744e-07,5.582725289842153e-07,-1.3274210670338312e-07,1.2951694520392275e-07,3.0213355144709293e-07,7.712243158891503e-08,6.133864985963568e-07,-1.5925968663564527e-07,-1.7486536338451012e-07,1.5643311635681847e-06,-3.5205889979197916e-07
4.973338438269531e-07,3.7178509040684485e-07,4.239748561686435e-06,2.2765672873408685e-06,8.445146543083845e-06,5.642373712618507e-07,-2.701613149765223e-07,2.1263449312399468e-07,4.792413914841273e-07,-1.6070974065548126e-07,1.6024694023400332e-07,3.2340288122106927e-07,9.088472124269911e-08,7.977697651006204e-07,-1.148397249825543e-07,-1.2883484530169815e-07,3.7627811115985683e-07,-3.3918127604628005e-07
4.939592803623147e-07,3.625016485275471e-07,4.081246896014199e-06,7.849726684552497e-06,1.0497977126655716e-05,5.760407086555675e-07,-3.2262801100778864e-07,1.7238230373364324e-07,4.2367198658033746e-07,-1.8981753367460365e-07,1.83705823597011e-07,3.462734036535643e-07,1.1809218381679506e-07,8.979219349387233e-07,-6.198457730469102e-08,-1.0052004380810376e-07,-7.189343227962216e-07,-3.405739059623518e-07
4.858176185067646e-07,4.0945919477669316e-07,3.8975868703842546e-06,1.2822310411495753e-05,1.2335802190316431e-05,5.926408489164289e-07,-5.104997557112829e-07,1.4364382104031334e-07,4.1326337997328867e-07,-2.153311022823618e-07,2.129512135135024e-07,3.7303773496495004e-07,1.588612873185538e-07,9.09772537205357e-07,-4.810746742945311e-09,-7.813867601019065e-08,-1.4495307232416208e-06,-3.4605936775426367e-07
4.7609239281247863e-07,4.830872616844136e-07,3.7055539876952847e-06,1.6272815568765235e-05,1.3862997427094172e-05,6.150056345445175e-07,-7.620770158905944e-07,1.341284050889475e-07,4.5609057861948123e-07,-2.3322749331720525e-07,2.566604073636809e-07,4.0235187494905e-07,2.1193990478603665e-07,8.439044581756435e-07,5.177437369739539e-08,-5.020737922202951e-08,-1.684621278061184e-06,-3.324110553275733e-07
4.666550452102667e-07,5.532805239911172e-07,3.4149659196597163e-06,1.6195667910374347e-05,1.4858116598349515e-05,6.387464450071002e-07,-9.206310469801227e-07,1.4458616504386017e-07,5.423500485876287e-07,-2.432354444573376e-07,3.109416018530215e-07,4.2764476305091664e-07,2.742247062540547e-07,7.191176475976696e-07,9.835413187025979e-08,-1.1149048337676968e-08,-1.4757972486162873e-06,-2.7827758771239913e-07
4.561400554363612e-07,5.913950688842765e-07,3.01942220658539e-06,1.3722387569701327e-05,1.4947374123308025e-05,6.603909232185889e-07,-9.052995505667858e-07,1.673895842813755e-07,6.485022316192239e-07,-2.4894499686713004e-07,3.575023193283217e-07,4.376847275374379e-07,3.40328046563622e-07,5.578878090881017e-07,1.223218184349426e-07,3.697229031217287e-08,-9.96905060960364e-07,-1.7968779594837405e-07
4.408933971997464e-07,5.769219168537788e-07,2.505253573736224e-06,1.3043702922436427e-05,1.3807773896760239e-05,6.728378908392667e-07,-4.147025430819873e-07,1.9014153404028138e-07,7.473125459289209e-07,-2.554361222253165e-07,3.710727535470032e-07,4.2228209511111073e-07,4.0165804613583737e-07,3.8124060427531674e-07,1.1507050920825542e-07,8.571587988074749e-08,-4.2855645413621626e-07,-5.540971696351016e-08
4.173776633854735e-07,5.037624911805409e-07,1.8923598665794199e-06,1.2063100352562404e-05,1.1475232577921258e-05,6.696929246218542e-07,2.698027030196405e-07,2.0242702523109378e-07,8.179512457417936e-07,-2.657838667796468e-07,3.3234498601645695e-07,3.765733687321203e-07,4.501051890975904e-07,2.1460458397486502e-07,7.94602952534751e-08,1.2592599317644357e-07,1.2305576461549393e-07,6.047797529320594e-08
3.851855204247794e-07,3.7761283056473757e-07,1.231977584913834e-06,7.734102741231593e-06,8.440311055684848e-06,6.510881230279398e-07,7.395395690788595e-07,2.0124720040668237e-07,8.50831225213688e-07,-2.79081066635924e-07,2.3702388833753438e-07,3.044430193251194e-07,4.78470286174496e-07,8.108283701331367e-08,2.9336663830444537e-08,1.5210315780382295e-07,6.192881126894714e-07,1.3421947793349701e-07
3.4807018672234526e-07,2.0796405244689553e-07,7.020363683000915e-07,2.6083710459414375e-06,5.425058618865023e-06,6.215656900333394e-07,1.5565866462870926e-06,1.9128027250009448e-07,8.460963326426622e-07,-2.917748416895988e-07,9.734563163106579e-08,2.1740661990442928e-07,4.823900231519908e-07,-6.17665246658635e-09,-1.63867692152697e-08,1.6434499278685513e-07,1.0190488888978784e-06,1.4693230630818919e-07
3.110421702702136e-07,5.56247112638369e-09,4.815897024851317e-07,-1.0880496270318007e-06,3.081408081006742e-06,5.898226426804267e-07,2.777493769965331e-06,1.7958645949064969e-07,8.089122845418164e-07,-3.007975865785487e-07,-6.317719818013592e-08,1.3158929049592222e-07,4.637261259912001e-07,-4.651323911826571e-08,-4.4447550794371755e-08,1.6543140023917327e-07,1.2388970085446742e-06,9.956124058379874e-08
2.78766090405285e-07,-2.1180530895914778e-07,6.991308498071464e-07,-3.2984470262770007e-06,1.8542860008861043e-06,5.637212194237792e-07,3.502338238288842e-06,1.6982250716689128e-07,7.459646537963526e-07,-3.05928984310399e-07,-2.161215621218553e-07,6.072891768111177e-08,4.2870571549523433e-07,-5.064801248816614e-08,-5.206614651625251e-08,1.5626164817012587e-07,1.2068010835927628e-06,6.736184558228746e-09
2.5292190162556997e-07,-4.1643803218431156e-07,1.3811675839230311e-06,-3.0376773263432786e-06,1.9526550710581955e-06,5.482295790427556e-07,3.6498868850879467e-06,1.6071079760265427e-07,6.651595693951305e-07,-3.097214127750342e-07,-3.346511277645706e-07,1.3258585096846283e-08,3.8631630244173357e-07,-3.552127479019196e-08,-4.594477544567158e-08,1.3518301349884422e-07,9.466017146058716e-07,-1.1207583109766735e-07
2.32973486279745e-07,-5.779573562694158e-07,2.3839177692041914e-06,-1.3524326352115734e-06,3.3139457522461237e-06,5.439503046201831e-07,3.923204851346304e-06,1.4940675890986003e-07,5.771448873227263e-07,-3.151548120020798e-07,-4.0018248142879923e-07,-8.074393997212305e-09,3.459671546753668e-07,-1.7743642728098697e-08,-3.744325898047953e-08,1.0081153955292006e-07,5.849076979988618e-07,-2.357869445877722e-07
2.182380538228697e-07,-6.797917957395788e-07,3.467940308427375e-06,8.034723136126207e-07,5.581120730722006e-06,5.484682463610399e-07,3.860265319340871e-06,1.3642802440072672e-07,4.960959135509923e-07,-3.2319173759345667e-07,-4.0699129197154334e-07,-5.809030524301641e-09,3.156915775564936e-07,-7.280948487793404e-09,-3.5522503432722336e-08,5.640923862307733e-08,2.829070023501316e-07,-3.4157148377306674e-07
2.081722751794095e-07,-7.277716330566781e-07,4.375616350228611e-06,2.7762148385261667e-06,8.173085185160146e-06,5.597781407563292e-07,3.1992186953817247e-06,1.2748807097906455e-07,4.3758392454792864e-07,-3.324922836407228e-07,-3.627358592160829e-07,1.5217642204658217e-08,3.0007526499730067e-07,-8.583235770988259e-09,-4.177988366474788e-08,1.2064030516930468e-08,1.7984609225466847e-07,-4.081258827123631e-07
2.0242730400857982e-07,-7.362208940256787e-07,4.908201357173958e-06,3.9132504354310756e-06,1.045159394685824e-05,5.752863664994368e-07,2.1997722840423283e-06,1.3038909814849562e-07,4.1283694698105534e-07,-3.4102782310221006e-07,-2.86154510993949e-07,4.8817789979708095e-08,3.0086857235975763e-07,-2.324039409526642e-08,-4.9610802583443365e-08,-2.0374592579943657e-08,3.742293176795415e-07,-4.222396791242765e-07
1.980786651904723e-07,-7.089906739971376e-07,4.974881503929867e-06,4.4217315949134314e-06,1.187551771893947e-05,5.914381520703151e-07,1.3997661469952302e-06,1.4954253821363722e-07,4.2245103219396966e-07,-3.4799836788912307e-07,-2.0174727583542675e-07,8.793450674598222e-08,3.1405637942925315e-07,-5.320522541257919e-08,-4.88396349218933e-08,-3.432350115485017e-08,8.909221913587437e-07,-3.830006326943158e-07
1.92845180690479e-07,-6.400238123442827e-07,4.597863753422701e-06,4.5502299798588225e-06,1.213612893252149e-05,6.037949792996248e-07,1.0888307944535308e-06,1.8289365260281305e-07,4.5503584780766725e-07,-3.5436728541269257e-07,-1.3285145408818614e-07,1.253705615279309e-07,3.319302931657627e-07,-9.968501608318754e-08,-3.1278270848587356e-08,-3.105144781822775e-08,1.6219328180906773e-06,-3.015640013517173e-07
1.8593217484792987e-07,-5.274006644032885e-07,3.897637860742351e-06,4.317658226030393e-06,1.1239799255045216e-05,6.077702238308273e-07,1.067989496240697e-06,2.2377447028940708e-07,4.929552639594127e-07,-3.6128594107833e-07,-9.32556614024709e-08,1.5576873701399536e-07,3.4773482985228603e-07,-1.5730049954847921e-07,4.9072353896681745e-09,-1.628592177378839e-08,2.311117208244611e-06,-1.9822846611127087e-07
1.7621755335492903e-07,-3.845838145879889e-07,3.055552997922838e-06,3.6701167464439475e-06,9.459158524044554e-06,6.027150563704402e-07,1.5205638836483369e-06,2.6509155906105487e-07,5.213102365290199e-07,-3.6795929854629857e-07,-8.25296321144153e-08,1.765587180713999e-07,3.5847364442948895e-07,-2.0982666604600199e-07,5.434213179830928e-08,4.1558861388493574e-09,2.630931547543523e-06,-9.685034847205153e-08
1.6694521645607299e-07,-2.395044729557425e-07,2.251821034275276e-06,2.5975848632953326e-06,7.21367562457395e-06,5.912197359559735e-07,2.245316619719433e-06,3.0309576342750006e-07,5.33913086949593e-07,-3.712601174161371e-07,-8.784729119718395e-08,1.8769270156542045e-07,3.660780956815997e-07,-2.3413590958361665e-07,1.0671362846222536e-07,2.7074950479023495e-08,2.310163222630495e-06,-1.7007522395797296e-08
1.6288658904157657e-07,-1.2157230031060886e-07,1.5996197626109318e-06,1.294952734106696e-06,4.925588795504748e-06,5.799240587092489e-07,2.9318500495496534e-06,3.372347992142447e-07,5.331088691922101e-07,-3.6750373737707507e-07,-9.13028537192831e-08,1.8998814100493032e-07,3.743070605040179e-07,-2.1024120404466448e-07,1.5006153331220937e-07,5.0622177790697655e-08,1.2506082964820007e-06,3.1098378138075793e-08
1.6704621050273504e-07,-4.537426933201311e-08,1.1105424393070699e-06,2.333041808328484e-07,2.8724545131894504e-06,5.763223367378884e-07,3.4244949135056436e-06,3.6780751536044094e-07,5.254202939845652e-07,-3.5512776018193644e-07,-7.843823032899079e-08,1.8379387055757473e-07,3.855855329796497e-07,-1.3364579207844602e-07,1.7419647509686974e-07,7.200834461969046e-08,-4.00825973599372e-07,4.5646002915300935e-08
1.7918989148299246e-07,-3.4456713689320435e-09,7.123584324818179e-07,3.048962037539103e-08,1.1052400237966866e-06,5.849713685037289e-07,3.591156206448589e-06,3.9382699413442855e-07,5.173895039423464e-07,-3.362345266031114e-07,-4.3097060323156395e-08,1.687343570945017e-07,3.9944762524016805e-07,-1.886674771627315e-08,1.7434151076383254e-07,8.850209700751426e-08,-2.2641538897865694e-06,2.9764087348423958e-08
1.9533285333763783e-07,2.6427620896617305e-08,2.9147204794792856e-07,1.1450445751097597e-06,-4.693122966653084e-07,6.062152808692647e-07,3.5239571454301415e-06,4.1257080722330654e-07,5.144478075812853e-07,-3.1551138428073085e-07,1.0847603226017197e-08,1.4519073390833415e-07,4.128849094362673e-07,1.0600587431457607e-07,1.52398954697443e-07,9.941346799137778e-08,-3.8547962577809654e-06,-9.331592754635995e-09
2.0945867261790024e-07,6.726021018134997e-08,-1.5710076702957635e-07,3.6138182406825113e-06,-1.8740087321387276e-06,6.366147119639854e-07,3.382619076525344e-06,4.2200897969716953e-07,5.22339876086928e-07,-2.974203027885956e-07,7.145744943725004e-08,1.1577765796404967e-07,4.2130778333490683e-07,2.1025299560312497e-07,1.1688788842374824e-07,1.0778580453408017e-07,-4.779811733233917e-06,-5.9207069181077507e-08
2.1641295169005644e-07,1.2936784736725477e-07,-5.737268880454173e-07,7.058204414210844e-06,-2.945579456980018e-06,6.713706736858795e-07,3.3096092809744795e-06,4.2349012790613253e-07,5.484677545573366e-07,-2.8391912864164787e-07,1.236087029077111e-07,8.665626458601216e-08,4.205326600772848e-07,2.696261229969817e-07,7.913472234005543e-08,1.1825362300904584e-07,-4.8838248909905e-06,-1.0325810340484854e-07
2.154887417505924e-07,2.0429982881360268e-07,-8.467713522423721e-07,1.0909735858468377e-05,-3.444555514010062e-06,7.060163157912948e-07,3.3497316226858536e-06,4.2194845683243185e-07,6.008115001085112e-07,-2.7451338802356075e-07,1.5634074440576587e-07,6.390319946957399e-08,4.087352284015615e-07,2.7074338681249476e-07,4.790597130862991e-08,1.3343360561658413e-07,-4.268897248320908e-06,-1.2705213954432115e-07
2.075658553747812e-07,2.6755641533230104e-07,-5.725370303797256e-07,1.4586020410711972e-05,-3.264158562024948e-06,7.376830936329394e-07,3.4417301230048837e-06,4.225397303188152e-07,6.837841511526134e-07,-2.6819107664937596e-07,1.67153962199624e-07,5.216221080762231e-08,3.8807262807815124e-07,2.1048189653440744e-07,2.6113469139857843e-08,1.509655788217174e-07,-3.215468080025663e-06,-1.2781988479800868e-07
1.9370236721306214e-07,2.8626304251993603e-07,2.872800721118595e-07,1.750490936526002e-05,-2.532432313010923e-06,7.62702106826679e-07,3.513479746168287e-06,4.265906410305129e-07,7.928802000193779e-07,-2.655842691266152e-07,1.5943605621269547e-07,4.95645888553174e-08,3.617109085007389e-07,9.935939947139935e-08,1.1319990771326242e-08,1.61971104926031e-07,-2.0735158690765193e-06,-1.1788214703620309e-07
1.7410677072734613e-07,2.2776630425312438e-07,7.205094655872404e-07,1.909381461535234e-05,-1.551444845049856e-06,7.758222886120899e-07,3.477206288698651e-06,4.3063848406846276e-07,9.128382159542422e-07,-2.691207345636257e-07,1.3415838323592858e-07,4.961108877343707e-08,3.33704546917837e-07,-3.5577480329764136e-08,-4.353930841797673e-09,1.5626238304275374e-07,-1.161624083308075e-06,-1.1530848919243722e-07
1.4799923364534373e-07,6.827041633690591e-08,1.7340731496213793e-06,1.8977176725019545e-05,-6.484396308703136e-07,7.71929448301086e-07,3.3228109162780614e-06,4.299562050080816e-07,1.0229943867090813e-06,-2.808421302163248e-07,9.172639091728149e-08,4.4936363688675075e-08,3.078441741626643e-07,-1.5408404592396953e-07,-2.8737499546566285e-08,1.2854290913659283e-07,-6.850390646611139e-07,-1.2914107325475244e-07
1.1649992379608758e-07,-1.932829907076798e-07,2.893844846025147e-06,1.7281156789368434e-05,-5.021640519722513e-08,7.487713661660946e-07,3.0863456289209344e-06,4.2208738668071764e-07,1.1066069702906215e-06,-2.998340038941959e-07,3.6476995378054863e-08,3.044020478169145e-08,2.886671471952961e-07,-2.1532683120047415e-07,-6.35452040349772e-08,8.383118449732177e-08,-6.803284121774429e-07,-1.5285763139365138e-07
8.405263032559073e-08,-5.253219599780137e-07,3.340398996047662e-06,1.4775557239851776e-05,1.261235862678179e-07,7.099515434500945e-07,2.794282395136038e-06,4.0812198556416024e-07,1.1565065222979426e-06,-3.2157334360886596e-07,-2.234698407981499e-08,2.542900600030999e-09,2.8210762307221e-07,-1.9508355340694797e-07,-1.0204680263716595e-07,3.510336829395853e-08,-9.965956663733925e-07,-1.6963610215747954e-07
5.6150884221032176e-08,-8.645185207259496e-07,2.7925302175636206e-06,1.2609387955829382e-05,-1.8154321439980499e-07,6.647343737919706e-07,2.457208980636123e-06,3.9139113446810677e-07,1.1740411872355405e-06,-3.3993427030599603e-07,-7.01862860188069e-08,-3.289173891454034e-08,2.929433238357398e-07,-1.0021609585661427e-07,-1.3417311428804e-07,-3.6004280987741233e-09,-1.3436235523564764e-06,-1.637862821174456e-07
3.1875659025998294e-08,-1.141542921896156e-06,2.6156537827525147e-06,1.171654753212954e-05,-9.65513566921307e-07,6.260198180460547e-07,2.087702380804906e-06,3.7467840412531545e-07,1.16470258272391e-06,-3.5035463226337815e-07,-9.602581961550228e-08,-6.589939217381875e-08,3.2270471727346677e-07,4.037879770395847e-08,-1.5163661587492334e-07,-2.291284117267494e-08,-1.4291505186196051e-06,-1.3173650675471643e-07
1.324472678727359e-08,-1.3164068121936156e-06,2.102351173142205e-06,1.2316100099556548e-05,-2.075116357376683e-06,6.033819257519575e-07,1.7319543871332371e-06,3.5888581770859476e-07,1.134539023227702e-06,-3.519907027147356e-07,-9.29596486857732e-08,-9.167230346650106e-08,3.646650799785499e-07,1.7906081970697681e-07,-1.5161955898537856e-07,-2.0264408928635095e-08,-1.122915629248451e-06,-8.658336565620405e-08
