0,1,2,3,4,5,6,7,8,9,10,11,12,13,14,15,16,17
3.909244915814254e-08,-5.739375240141703e-08,-9.014069000516653e-08,2.239929902718244e-08,-6.069404501266361e-07,8.63643565610991e-08,-3.3699948508957283e-07,-1.8252731156953926e-07,-2.168254222856611e-07,-3.322156143227863e-08,-8.369176135758662e-08,-4.0944213065251584e-08,-2.3603521542639225e-07,-3.659902783221627e-07,-3.421024955696435e-07,-6.460728745516005e-07,-6.776874794173047e-08,-4.701772199066881e-08
-3.0573816135302145e-08,-5.960649509553916e-08,-8.053667641502636e-08,-1.5413314323562994e-08,-4.944248699281683e-07,5.8015886995601565e-08,-2.974120881608613e-07,-1.6359989163674043e-07,-1.9958137600310507e-07,-2.383960401925589e-08,-8.82357554175513e-08,-4.8688347710925586e-08,-1.4851767402285887e-07,-3.13335359015912e-07,-2.6389513740580175e-07,-5.423446057146142e-07,-4.6966020646927467e-08,-3.2524629673480104e-08
-8.899790777630913e-08,-5.8968086805324314e-08,-7.52549393218243e-08,-4.977504299015677e-08,-3.8686587906286345e-07,2.8706629311717228e-08,-2.482713532195796e-07,-1.436442932936687e-07,-1.7668950652428818e-07,-1.9450757753385698e-08,-4.8871226116434936e-08,-4.947109509309261e-08,-6.498643217582469e-08,-2.5594837774066996e-07,-1.9239522522223883e-07,-4.295734524334413e-07,-2.779062251671762e-08,-1.8654393712393737e-08
-1.300680110678066e-07,-5.491943092884459e-08,-6.964828210658454e-08,-7.166625262682012e-08,-2.8485997149491285e-07,3.025924228798825e-09,-1.897272184737881e-07,-1.2139347358142126e-07,-1.4808986313277112e-07,-2.1613601485871366e-08,-3.180634620983102e-08,-4.6016021055982475e-08,9.184341261874745e-09,-1.9460471293405156e-07,-1.318591505752161e-07,-3.245437299070363e-07,-1.0758589209411891e-08,-1.2643427929371687e-08
-1.53390548285036e-07,-4.723809378891237e-08,-6.537575493402564e-08,-8.3148765202903e-08,-1.8765257075333037e-07,-1.6716937017543654e-08,-1.2754110940213237e-07,-9.634832173675655e-08,-1.1445242684995101e-07,-2.278867047173139e-08,-3.29961639582903e-08,-3.9899756183508307e-08,6.967975472998399e-08,-1.3260872836597383e-07,-7.436915519216155e-08,-2.245085673047512e-07,3.194671167202657e-09,-7.970118134989261e-09
-1.7068393782607648e-07,-3.7466033657114985e-08,-5.588136836051647e-08,-8.6830519754152e-08,-9.539759715100907e-08,-2.978081492303386e-08,-7.081007225549016e-08,-6.87429828975298e-08,-7.768023249381236e-08,-2.3904476943042153e-08,-3.389380944372752e-08,-3.746771769959358e-08,1.1474808334349131e-07,-7.109344563283492e-08,-2.144814692907404e-08,-1.245533092214273e-07,1.3020774881870058e-08,-3.2149829481192027e-09
-1.80339929512768e-07,-2.572274824630984e-08,-4.194923850285844e-08,-8.27536312495915e-08,-9.152475830039485e-09,-3.770796396158966e-08,-2.006187762191638e-08,-3.915550891484169e-08,-3.9944675212419654e-08,-2.346839763044111e-08,-3.379171680355222e-08,-3.5049668447886193e-08,1.4320076371036913e-07,-1.1778999158702461e-08,2.4275120296900224e-08,-2.0155988142192527e-08,1.8405679525006333e-08,-2.5173291773072604e-10
-1.7496490495012276e-07,-1.2679912655280831e-08,-2.449859526264901e-08,-7.434671040693507e-08,6.996822790117382e-08,-4.083599960154875e-08,2.650424158218185e-08,-8.419539216240246e-09,-2.8049578935520832e-09,-1.9939617470473167e-08,-2.0197218478835245e-08,-2.7218593589344276e-08,1.54541201310117e-07,4.3957166221822544e-08,6.266763630905555e-08,7.572015441733781e-08,1.9707941034359843e-08,4.497125674571382e-09
-1.3972736229979827e-07,1.0431246790333834e-09,-5.224570095286016e-09,-5.7375589554483796e-08,1.397508471836842e-07,-3.9267930324631586e-08,6.750944444604283e-08,2.2721967793476718e-08,3.2487638755057984e-08,-9.831500065684352e-09,2.5741613799480192e-09,-1.1113515559633706e-08,1.474048322668658e-07,9.461560882275226e-08,9.278871684919413e-08,1.6248513606815143e-07,1.7587593820473453e-08,8.971962246799755e-09
-8.136455737779453e-08,1.4142563251433789e-08,1.9262014972770464e-08,-3.228707735490026e-08,1.9742992055129956e-07,-3.391056352562248e-08,1.0202102352183864e-07,5.290548758423341e-08,6.404403536493325e-08,7.692933036580848e-10,2.8816403266203123e-08,3.946579897893527e-09,1.1995118198534978e-07,1.377957108117442e-07,1.1353386251799868e-07,2.3409969385688527e-07,1.3313272404813552e-08,1.2288497604336859e-08
-1.1544899611859483e-08,2.6718526780252225e-08,4.3256454577673114e-08,-8.707520848765745e-10,2.4136633638792605e-07,-2.4969580199679126e-08,1.304242418941895e-07,8.070108547372821e-08,9.197297900555193e-08,1.0133393067974842e-08,4.90685625043074e-08,1.8241236529018947e-08,7.714576518654986e-08,1.7166391930338064e-07,1.2542243070956818e-07,2.85840236166685e-07,8.947501679751218e-09,1.5264966090059356e-08
6.866837458646668e-08,3.900362615540027e-08,6.251857659970243e-08,3.4355948413001635e-08,2.7153885758227977e-07,-1.2985083031584764e-08,1.5359379103210512e-07,1.0545836666580955e-07,1.1713479637346574e-07,2.1477981697581593e-08,6.378664109118591e-08,3.2320165504536e-08,2.5474553220292016e-08,1.9494039058589222e-07,1.2991779481540477e-07,3.1988255922929864e-07,6.422969154697754e-09,1.7855714207679435e-08
1.5291319437498493e-07,5.093523404017214e-08,7.909720100095421e-08,7.075411129168787e-08,2.887295334761953e-07,3.798880797120189e-10,1.7342326270093448e-07,1.2605145297063805e-07,1.3988655392097557e-07,3.187650776662938e-08,7.21159729367325e-08,4.774912843315444e-08,-3.835524572096405e-08,2.0295225601519485e-07,1.2848297893266062e-07,3.303551286892084e-07,6.585120616713718e-09,1.924195688750968e-08
2.317281138411346e-07,6.272546026934019e-08,9.19137300236731e-08,1.0745821643266948e-07,2.940075712472734e-07,1.257956475170736e-08,1.9211972856694903e-07,1.3986972633461815e-07,1.6057825387664984e-07,4.010027160820478e-08,7.044541200941443e-08,6.424945777065122e-08,-1.0399095325748455e-07,1.9400952860968575e-07,1.2335308082637726e-07,3.233700469920013e-07,9.486685316161777e-09,1.8241145085275102e-08
3.0312872441250305e-07,7.420203581929848e-08,1.0152958105681685e-07,1.4319430708785908e-07,2.8900303793052796e-07,2.1766577691153672e-08,2.1123916334589582e-07,1.4714955968900056e-07,1.777506416747876e-07,4.570645795948532e-08,5.429138230436512e-08,7.878948595508636e-08,-1.3609302717129226e-07,1.6999280074415761e-07,1.1654621863382995e-07,3.0448791923356247e-07,1.4865973632947809e-08,1.5129811599301956e-08
3.661250184696442e-07,8.522398258381272e-08,1.109325567723471e-07,1.763057732959838e-07,2.734994820865992e-07,2.5336044965444113e-08,2.3398830713320307e-07,1.489736763352318e-07,1.922135614241389e-07,4.7994281868629865e-08,3.238546229365234e-08,9.057287431487824e-08,-1.333519292400776e-07,1.3543252005567762e-07,1.0908147100314568e-07,2.755116526219281e-07,2.1745797080789122e-08,1.078582791122024e-08
4.189182144144795e-07,9.571527939557757e-08,1.205489273266909e-07,2.049113881330126e-07,2.518329092554767e-07,2.2774153318371324e-08,2.592553351107218e-07,1.4603363437243868e-07,2.0514331346069433e-07,4.6229562784198836e-08,7.433227612816016e-09,1.016478149298314e-07,-1.0999505395055494e-07,9.481072967606791e-08,1.072681150345199e-07,2.500700571901293e-07,2.8291861022642724e-08,5.9123754938373514e-09
4.6069578342240595e-07,1.0550760833675693e-07,1.3041071579198535e-07,2.283615358601713e-07,2.270494923811323e-07,1.4707219789475498e-08,2.872535422051602e-07,1.400345218388304e-07,2.174818605435349e-07,4.515747170531237e-08,-1.5752501780283454e-08,1.1166614340432306e-07,-1.0408530840318647e-07,5.495765571101526e-08,1.082577430706515e-07,2.381501503472436e-07,3.2918715802384785e-08,1.3520459882479134e-09
4.9092158628832e-07,1.1445645444545716e-07,1.408185154791535e-07,2.469357424025679e-07,2.0208950792963676e-07,2.9631887628640693e-09,3.191985939897719e-07,1.328977617012311e-07,2.3070720500401314e-07,4.877054285918664e-08,-3.010824651164145e-08,1.2246538890277567e-07,-1.1196001516373767e-07,2.5634137542288463e-08,1.1287597174847615e-07,2.495712023924323e-07,3.5273090544957794e-08,-3.675857932593383e-09
5.220782678835423e-07,1.2257205910273204e-07,1.5235271162980168e-07,2.606058595791194e-07,1.8253696011694092e-07,-8.957736730000882e-09,3.5388809183202645e-07,1.268050918910878e-07,2.4571404574679745e-07,5.8780159590610976e-08,-3.310864037609475e-08,1.4038534790875683e-07,-1.3682879597796938e-07,1.0309788248379987e-08,1.2280135531589957e-07,2.871668552399347e-07,3.598737209384256e-08,-3.4703008046123266e-09
5.492599152752729e-07,1.3003756600852732e-07,1.644305861472473e-07,2.7473803579511084e-07,1.7018776809677136e-07,-1.8420845762333646e-08,3.9134202654683595e-07,1.2292469553947373e-07,2.619475835798054e-07,7.97871874144752e-08,-4.2320909906765115e-08,1.6612561861901788e-07,-9.794046999275607e-08,1.0521497280121414e-08,1.354792354395681e-07,3.486452757351951e-07,3.628426194988395e-08,2.1575438824848447e-09
5.714928086746386e-07,1.3729715480792638e-07,1.7577222181952307e-07,2.92356125288098e-07,1.6446414329828236e-07,-2.3637750531264527e-08,4.2805604936073116e-07,1.232130029315504e-07,2.780873796323472e-07,1.1244068118166162e-07,-4.326652572676643e-08,1.977295066989968e-07,-1.643724140657185e-08,2.4011268424792855e-08,1.5588087226099666e-07,4.268969279444674e-07,3.812194140471128e-08,1.3782337016094012e-08
5.900160124160151e-07,1.45092513129253e-07,1.8521493914010594e-07,3.173387084580846e-07,1.683461229971966e-07,-2.295541616682635e-08,4.604467216929862e-07,1.2769361308944496e-07,2.9033616032391756e-07,1.6771952659408567e-07,-1.8870924404683887e-08,2.3951438646040156e-07,7.804152399202116e-08,4.5986248957913e-08,1.8892544203217954e-07,5.115028652760516e-07,4.378612938406889e-08,3.3512058691634855e-08
5.886793676998715e-07,1.5438102113900703e-07,1.9125419132894996e-07,3.526948461585311e-07,1.8111643508400582e-07,-1.5662348691710838e-08,4.85885756408905e-07,1.3597179202990705e-07,2.9281467744354966e-07,2.325531352387908e-07,3.2980613913206994e-08,3.005948218322872e-07,2.944203759965817e-07,7.217430516470962e-08,2.355127763148748e-07,5.939541806096394e-07,5.4852628697805166e-08,5.7980493660346563e-08
5.850903665501655e-07,1.6601148722432295e-07,1.9336250097114794e-07,4.005360552894012e-07,1.904177300483326e-07,-2.304677116191572e-09,5.058285996149182e-07,1.477793915754118e-07,2.7957714534145474e-07,3.111842331000607e-07,1.2353735714127996e-07,3.781796856469994e-07,3.837075804431763e-07,8.997101645420234e-08,2.9891301802026787e-07,6.551055605663439e-07,7.109933356965158e-08,8.016912499620233e-08
5.95653419742536e-07,1.802334696559167e-07,1.932593651049083e-07,4.6318670224109264e-07,1.8868475102824373e-07,1.7201409560471058e-08,5.211442941734708e-07,1.606125978273863e-07,2.477217287435194e-07,4.050390419292524e-07,2.1858327271017916e-07,4.652729296129564e-07,4.488936979738579e-07,9.197529524114285e-08,3.684382604129302e-07,6.768277306204186e-07,9.283313031886197e-08,8.768766565507702e-08
6.289234618672111e-07,1.9675263290478453e-07,1.9203359204715548e-07,5.360810702883487e-07,1.7433421019835582e-07,4.1230272454153854e-08,5.356293528862389e-07,1.7021722727935903e-07,1.919911488932705e-07,5.002789966122866e-07,3.097945452034984e-07,5.631525724780483e-07,5.031725933241632e-07,7.167163148360101e-08,4.107832378210509e-07,6.481328820951667e-07,1.1727037156116421e-07,8.22684090278503e-08
6.978827949180439e-07,2.1324046215227117e-07,1.9260874713164862e-07,6.143172420558094e-07,1.4068582734315986e-07,6.441918301080363e-08,5.563068969042384e-07,1.741057115509696e-07,1.1822709162952458e-07,5.505815673271748e-07,3.4494478203867796e-07,6.231065592710297e-07,7.210575802672415e-07,2.3748021841083287e-08,4.277889999469911e-07,5.654991423578297e-07,1.3930339867260496e-07,4.440911872141987e-08
7.963100918625014e-07,2.266058200841968e-07,1.983193336717165e-07,6.699825432720708e-07,8.110436948643495e-08,8.343558080858598e-08,5.88016778922291e-07,1.6802562452577914e-07,3.724980649100158e-08,5.170602580019892e-07,2.6282384954199527e-07,6.029669311188424e-07,8.044043885016099e-07,-2.900216410690114e-08,3.8038919531821506e-07,4.895235078280287e-07,1.5335780191365427e-07,1.5528026110279382e-08
9.267090891197926e-07,2.3352481464150414e-07,2.1116176519461714e-07,6.693166440280157e-07,-2.7464311631260175e-09,9.91013973910763e-08,6.312310321400532e-07,1.6013149308351518e-07,-3.948884111094318e-08,4.542913141242466e-07,2.387773612288577e-07,5.525486743593935e-07,6.89204947054836e-07,-7.974346512871097e-08,2.5349993387518865e-07,4.3044305547000286e-07,1.55269649790927e-07,1.1996249531398786e-08
1.0886045023436909e-06,2.3123834330065956e-07,2.32532187298411e-07,6.301165153282685e-07,-1.0932332077398657e-07,1.0205725718816123e-07,6.875903500889951e-07,1.4777892011118468e-07,-6.059908108494401e-08,3.922586177700805e-07,2.2498786071243367e-07,4.6127656462752784e-07,6.327437536373674e-07,-1.2546411406389514e-07,1.865953802968415e-07,4.2058623966501636e-07,1.456123866922125e-07,-4.839210515289948e-08
1.2208285470521295e-06,2.187032093715118e-07,2.6202402382887335e-07,5.872123405395112e-07,-2.015228325344182e-07,1.1478166395550195e-07,7.532795160021449e-07,1.334456822480848e-07,-4.171915966711145e-08,3.3667890335087637e-07,2.1814916216448973e-07,3.9982812793149556e-07,5.675770563798336e-07,-1.6047555508765937e-07,1.5854288995554055e-07,5.55788904959297e-07,1.2844822829381418e-07,-1.1592449628452568e-07
1.2753635184919827e-06,1.9712126743142633e-07,2.9768111090269906e-07,5.824225769658613e-07,-2.806271831354744e-07,1.1890203603469528e-07,8.402022597536515e-07,1.2210888036470283e-07,-7.1642360693927305e-09,2.91992914931106e-07,2.327687940630921e-07,3.107303997561959e-07,4.836944777958793e-07,-1.372862947799637e-07,1.8088030804701654e-08,7.755541821367688e-07,1.1296139166081989e-07,-1.5451898307740568e-07
1.3684848870856037e-06,1.697706477734964e-07,3.364353860791971e-07,5.864570833297119e-07,-3.480812984012915e-07,1.0709575776436519e-07,9.323172135599614e-07,1.1980983488579306e-07,2.6094658825661512e-08,2.2546500865348255e-07,2.5319233027330396e-07,1.5668522444233034e-07,4.5151447502289417e-07,-6.091733473352768e-08,-1.670189863273408e-07,9.658239697376701e-07,1.0874746589613103e-07,-1.6815146612387968e-07
1.3098521480223405e-06,1.4106794135245954e-07,3.6889082972457597e-07,5.797726849204464e-07,-4.056235456821375e-07,1.0043038388803651e-07,1.009560591688829e-06,1.439088789755969e-07,1.1839999732037437e-07,3.729450837948223e-08,2.39729589633425e-07,-1.4684154305034303e-09,3.5942827556507355e-07,6.129498823238897e-08,-3.05606042555047e-07,1.197430086427402e-06,1.2286057367530183e-07,-1.4075176263413505e-07
1.2279730153792158e-06,1.1445466925235526e-07,3.951224490428473e-07,5.875441560432182e-07,-4.658306161258664e-07,1.1835230021053224e-07,1.0713605382393815e-06,1.889233898282198e-07,2.209200524178877e-07,-1.7349750003349755e-07,2.587553099530044e-07,-1.647764289893955e-07,2.849620607924347e-07,2.7144864768706784e-07,-3.669236837094737e-07,1.4823835968092747e-06,1.5783304197132937e-07,-8.355075515099106e-08
1.2742981692851831e-06,9.196976817986136e-08,4.1784547399586573e-07,6.327929348130216e-07,-4.908725682119461e-07,1.50533073985971e-07,1.1107100050343535e-06,2.751742774460957e-07,3.0370536023953617e-07,-3.411047313363753e-07,3.81436854964339e-07,-3.1215679368942375e-07,2.545129610525846e-07,4.0208335943361117e-07,-4.030045847741829e-07,1.7311621912900052e-06,2.1080136172952578e-07,-1.628132843902379e-08
1.4584840064392839e-06,7.484654390679428e-08,4.383434198105568e-07,6.894219699841992e-07,-4.81856120992167e-07,2.0663961532715214e-07,1.1750949611231478e-06,3.8374052545633007e-07,3.601828874335038e-07,-4.845723204834956e-07,4.828662256667861e-07,-4.0861958741672274e-07,2.8824564995516533e-07,4.855122240180427e-07,-4.449930532590281e-07,1.906317130416688e-06,2.7821696372983446e-07,2.982077527733163e-08
1.5786428889102275e-06,6.286597923400084e-08,4.6679190747119865e-07,7.360155582562259e-07,-4.227392509347274e-07,3.329545380016448e-07,1.2716238182584812e-06,4.421664646035135e-07,3.8045236637301785e-07,-5.284484515984058e-07,5.403148041641303e-07,-4.634343460084854e-07,3.1166988917862893e-07,5.547617540145612e-07,-4.6559356900746157e-07,2.0618332973947134e-06,3.54159382417579e-07,3.61037506916335e-08
1.699087050883186e-06,5.4991396252660266e-08,5.074842501632394e-07,8.080779532799828e-07,-2.9611190598411146e-07,4.281687221395487e-07,1.4423699240888632e-06,4.980898299760208e-07,4.029031550405522e-07,-5.513953084000398e-07,6.211809055056145e-07,-4.745078647042828e-07,3.297851432845516e-07,5.516427429234789e-07,-5.026460659057236e-07,2.1859321937813395e-06,4.3377070383435245e-07,3.5459738062049707e-08
1.8387174078161916e-06,5.662061410174703e-08,5.655291449385586e-07,9.039215214787764e-07,-2.1186358415687058e-07,5.139275124873137e-07,1.6392340291240183e-06,5.612789072907498e-07,4.583634090504051e-07,-5.593037725128974e-07,6.46661270606589e-07,-4.527998003092449e-07,3.3443859210679047e-07,6.125088321270216e-07,-4.194648443916718e-07,2.278780671537007e-06,5.186243688213218e-07,9.209354181547936e-08
1.879293547109012e-06,6.72552348804933e-08,6.233686431079911e-07,9.808944306732374e-07,-1.0916297458734312e-07,5.879686532601777e-07,1.6764893219769679e-06,6.141515347665138e-07,5.494119238898872e-07,-5.49323971549557e-07,6.658665245214411e-07,-4.0888391291786925e-07,3.335784564643986e-07,7.428708766575349e-07,-2.392660081047782e-07,2.3894116159305955e-06,5.975551128038423e-07,2.0891580316516175e-07
1.9373920026153397e-06,7.833159335293008e-08,6.835620245239703e-07,1.01552521906085e-06,5.729572658511704e-09,6.135519999704191e-07,1.6827203248220544e-06,6.620617009071809e-07,6.088626594095777e-07,-5.249492595858002e-07,8.440140307788601e-07,-3.415025932640298e-07,2.816849135099422e-07,9.049668402099367e-07,-8.549997747742603e-08,2.5829523080868216e-06,6.741511981827504e-07,3.146713045528664e-07
2.0354736082509926e-06,9.752870962432341e-08,7.502539978209311e-07,1.0873363995898057e-06,9.692610279643512e-08,6.505380617319116e-07,1.6718944093484092e-06,7.235089911931979e-07,6.111093954991142e-07,-4.784080090119711e-07,9.891240521299996e-07,-2.5572884258258975e-07,3.0530981483068064e-07,1.0391255568458737e-06,-1.8594328090158173e-08,2.7838299178676035e-06,7.573021032937274e-07,3.6705386048034706e-07
2.166564274160814e-06,1.152883156176957e-07,8.140598778950526e-07,1.178258281081801e-06,1.9011147273341872e-07,7.000261273590912e-07,1.7405920485560927e-06,7.749984151177799e-07,5.843132692496238e-07,-4.3327021851854045e-07,1.0811590365366417e-06,-1.9466619208207335e-07,2.8161519453947257e-07,1.1833586921855327e-06,3.810002498312577e-08,3.0098173954422317e-06,8.43163162526953e-07,3.932065367277855e-07
2.3256181258195376e-06,1.25200046034019e-07,9.121022771949341e-07,1.2386161839508854e-06,2.6844241133103366e-07,7.98884904202186e-07,1.8903278956942697e-06,8.529045362033419e-07,5.739931144360538e-07,-4.081563771173254e-07,1.2017881335808525e-06,-1.33521559925914e-07,2.8960275136908664e-07,1.2387403448776082e-06,4.540583011072875e-08,3.1060924838860466e-06,9.09477017761935e-07,4.242916681621693e-07
2.495543463794688e-06,1.3583575793965864e-07,9.94817339287287e-07,1.3240299904848638e-06,3.4870273282444756e-07,8.52103031084494e-07,1.9438818266764906e-06,8.820972650285734e-07,6.443593330625457e-07,-4.228948446888532e-07,1.4186362316907212e-06,-9.333421438298165e-08,2.515910659789045e-07,1.1581981509074396e-06,-5.199154419781689e-08,3.0217454124525826e-06,9.463680379862252e-07,4.4611569150763e-07
2.5542541728049448e-06,1.3772752849921976e-07,1.0752885717115185e-06,1.4059359022850168e-06,4.2759299598020775e-07,8.861817264843189e-07,1.855562518286601e-06,8.884207001000653e-07,6.940458442971378e-07,-4.4711441539673765e-07,1.5555834741742605e-06,-1.005652647189491e-07,2.239324074584765e-07,1.1526962600863368e-06,-1.9901925260807365e-07,2.963142427252333e-06,9.222590842568833e-07,4.67061212932e-07
2.448181843028269e-06,1.2172107787603678e-07,1.0501669166227477e-06,1.41622153265156e-06,4.582817505108788e-07,9.215757246133959e-07,1.877781620480329e-06,9.126179560471842e-07,6.872753942598997e-07,-4.602030020510573e-07,1.5903070741200757e-06,-5.404018757026855e-09,2.2135575721978793e-07,1.1617675115328695e-06,-3.6005093145234443e-07,2.9706569571451893e-06,8.590329446190106e-07,4.6007452230080957e-07
2.404134027124493e-06,1.243277224788807e-07,1.0063155523412733e-06,1.4478279955323216e-06,4.685846278543207e-07,9.631528820728138e-07,1.8956467350878834e-06,9.198770663907033e-07,6.720534846337589e-07,-4.299200290628231e-07,1.6219639910355763e-06,1.0321009115283693e-07,1.635385031637535e-07,1.1477383678673433e-06,-4.531021060355152e-07,2.986759726911983e-06,8.376988321392086e-07,4.223458732296273e-07
2.3792719451145095e-06,1.3330987903278277e-07,9.775830835252776e-07,1.4610402092206285e-06,4.996253125434663e-07,1.0045257649503267e-06,1.8866634721430568e-06,9.264182702949479e-07,6.854326965157007e-07,-2.9093310699276165e-07,1.6517200015646703e-06,1.3726064089138962e-07,1.8606519568953e-07,1.1539110723536536e-06,-4.233928943800221e-07,3.0211910158921575e-06,8.566498373185232e-07,3.82728938207488e-07
2.3785147588800636e-06,1.321913214789446e-07,9.367794699626936e-07,1.4625133153474085e-06,5.198732703332292e-07,1.0460575087116865e-06,1.9172202866454647e-06,9.565974514227402e-07,6.897957452709277e-07,-2.068885193532309e-07,1.686407073524131e-06,1.4191869346627333e-07,1.9703100177086488e-07,1.1523522614443727e-06,-3.904183668986273e-07,3.0924491192789646e-06,8.904938799137363e-07,3.753244941002005e-07
2.4471567638765842e-06,1.2913169744274646e-07,9.106029059996125e-07,1.4858632484883422e-06,5.372966197474065e-07,1.1038226941710628e-06,1.913807767794822e-06,9.835935301997232e-07,7.158947625113392e-07,-1.488589061889942e-07,1.7028824675743011e-06,1.2592595824668148e-07,2.015041749835969e-07,1.0892738571311146e-06,-3.4250885971479533e-07,3.0881289403752353e-06,9.357807661772473e-07,3.490577206869664e-07
2.463059294756093e-06,1.1384761207819034e-07,9.072833211913667e-07,1.5164886870995695e-06,5.017735417809564e-07,1.1482879768967287e-06,1.8735799230720828e-06,9.659482477944307e-07,7.236088262344024e-07,-8.975283488930326e-08,1.599512084137078e-06,1.6753147256440348e-07,1.1452617182387474e-07,9.404062377769314e-07,-2.014567771308044e-07,3.048828261566768e-06,9.540459114968988e-07,3.33795982588862e-07
2.358422610450989e-06,1.0091516628688107e-07,8.821843456144714e-07,1.523587274856108e-06,4.1791988249516167e-07,1.1666245884869781e-06,1.837013052797281e-06,9.677490974748642e-07,6.888205311268329e-07,-2.5798513770447972e-08,1.5586328949668543e-06,2.486995028947968e-07,1.936330507851271e-08,8.295177315183796e-07,-3.6551077023916964e-08,2.8975946300272145e-06,9.052186533434575e-07,3.5166695400241366e-07
2.2863153750084077e-06,1.0010000962772963e-07,8.91659317175393e-07,1.4841212667936944e-06,2.726642674080012e-07,1.1452816661508473e-06,1.806836346179707e-06,9.62295691712335e-07,6.936923899267483e-07,1.0835471718691428e-07,1.6017902992612458e-06,3.2692500056751445e-07,-1.01959200472867e-07,7.817192170353541e-07,1.0556708220460903e-07,2.7661725481963006e-06,8.316149672618439e-07,3.7161894191673657e-07
2.1894665859741334e-06,9.912476977663536e-08,8.880172339973281e-07,1.4564402056005076e-06,1.5466772164612275e-07,1.144235046023921e-06,1.7973638472213197e-06,9.518357450142621e-07,6.607426170262315e-07,2.5392658425070057e-07,1.65036262277379e-06,3.8435325561736507e-07,-1.5853331952054844e-07,7.274789863243819e-07,1.6476273322560623e-07,2.6997199533689722e-06,7.423130952786341e-07,4.1533041792091416e-07
2.141925902209175e-06,1.0127847733568571e-07,8.499469401856454e-07,1.4250565846009917e-06,7.864960909210577e-09,1.1150973659092304e-06,1.7458778916530955e-06,9.059964084870774e-07,6.314387975070976e-07,3.855513652577641e-07,1.728313156622544e-06,3.96346216474093e-07,-1.3214348132191788e-07,6.184209081642404e-07,1.7186824395572797e-07,2.529517343692922e-06,6.411107527935802e-07,4.5118313087999626e-07
2.0373254099509708e-06,9.480893235480768e-08,7.88194700847985e-07,1.4351084006355907e-06,-1.1630215496367535e-07,1.0654911174804435e-06,1.6307426992057167e-06,8.403443277323309e-07,5.961365771620119e-07,4.555381989114354e-07,1.6785983089422315e-06,3.891781177578055e-07,-1.4003155264730103e-07,4.7212523193976727e-07,1.437848726001128e-07,2.4109428119198478e-06,5.636688435878154e-07,4.745540808724482e-07
1.987491197613761e-06,8.341499168158539e-08,7.116231696090516e-07,1.4424695858430928e-06,-9.248983779568247e-08,1.0299657091984682e-06,1.5678477586740157e-06,7.780328724517591e-07,5.186428791466093e-07,5.222704698933833e-07,1.5556973026488755e-06,3.998090664804986e-07,-7.474831948906745e-08,3.368574225462578e-07,1.0636205299992535e-07,2.3425818905894515e-06,5.197635152008548e-07,4.963255804183651e-07
2.0043563038359828e-06,7.613510476095769e-08,6.750136644238118e-07,1.4217484142789353e-06,-1.1138441157199224e-07,9.798514604177791e-07,1.5196283727192028e-06,7.294438360659941e-07,5.07758925635408e-07,5.499315349642806e-07,1.470395018781932e-06,3.8535521529265026e-07,-2.330493919390519e-08,2.3252106580066906e-07,7.706524302915386e-08,2.265285407308463e-06,4.970473417711263e-07,4.974016273991772e-07
2.021146355578371e-06,7.18276009621762e-08,6.67767671388897e-07,1.3871044291325171e-06,-2.396912356147658e-07,9.204560469331539e-07,1.5073113748107718e-06,7.127812424820428e-07,5.03054001165012e-07,5.444146851756511e-07,1.3627644331692244e-06,4.1621842753177614e-07,-1.3358826082690983e-07,1.99633620529456e-07,5.890785871659395e-08,2.2170690581211377e-06,4.786185217023565e-07,4.865556933381409e-07
1.9866124712833048e-06,7.059020414483067e-08,6.598151222331235e-07,1.3413632911587182e-06,-4.3257415417502194e-07,8.340703849604885e-07,1.5004214202457129e-06,7.001818077329892e-07,4.5811630950980306e-07,5.14033950341087e-07,1.264722616925405e-06,3.890303505574659e-07,-2.687714685705139e-07,2.0390728867038247e-07,5.986105334088181e-08,2.1774323231985366e-06,4.5819890022757075e-07,4.6610406866889166e-07
1.933549067005533e-06,7.481818890076801e-08,6.375493222521556e-07,1.2941392302312068e-06,-6.704520287598804e-07,7.139682259138731e-07,1.4796004516353173e-06,6.727021692824772e-07,4.2237361194817023e-07,4.3825291100346137e-07,1.2014221160931141e-06,3.4175577910295717e-07,-2.5121309585881474e-07,2.0467312128471084e-07,7.478441714657489e-08,2.1159373939005162e-06,4.4355239767557107e-07,4.332816650535125e-07
1.8862453489953692e-06,7.14107049241889e-08,6.076581285234928e-07,1.2536988407724364e-06,-9.156939720075443e-07,5.80227745092941e-07,1.4575087791659645e-06,6.504468312915288e-07,3.685577844281424e-07,3.837355762205569e-07,1.130786384308258e-06,3.101794341974071e-07,-2.2436557693679958e-07,2.461741822059546e-07,1.0326279567924569e-07,1.9938536477505756e-06,4.275444918143726e-07,3.8466283399906394e-07
1.9472697419191656e-06,6.263130560766551e-08,5.876881912300261e-07,1.2348180892391927e-06,-1.1115474706926306e-06,4.783926467250838e-07,1.4307995329210614e-06,6.253996559328158e-07,3.2684524949214013e-07,3.001543187119517e-07,1.0356117842373448e-06,2.7263409265639134e-07,-1.8910635621527384e-07,2.7700519541475143e-07,1.3961307746187156e-07,1.9084683773673264e-06,4.201572821885036e-07,3.119824661986208e-07
1.987006787365721e-06,5.8492218702100636e-08,5.990776811615618e-07,1.2497807412319576e-06,-1.2367932963427455e-06,4.347432974196471e-07,1.4672819882583245e-06,5.880608352435593e-07,3.623812776552682e-07,1.8171024618361323e-07,9.512823009671973e-07,2.958615937522595e-07,-2.0397407975940227e-07,2.6529719636387743e-07,1.4679586040490958e-07,1.84520706177367e-06,4.219201052474944e-07,2.7360286456071795e-07
2.0006502635113604e-06,5.5721536846353195e-08,6.636837411730011e-07,1.2375623858430771e-06,-1.2547975593454812e-06,4.538530789553183e-07,1.5220497226728556e-06,5.507891914411222e-07,3.87363334853934e-07,1.3103003785952086e-07,8.301195947510214e-07,3.3127693291414403e-07,-2.2688768790589307e-07,2.4562090121322645e-07,1.1695429084838041e-07,1.7996664451073104e-06,4.185094608916753e-07,2.485647850901556e-07
2.0378020272903058e-06,4.982190519656358e-08,6.962555616884583e-07,1.2190041530720971e-06,-1.1788222555906003e-06,4.919194762762581e-07,1.5324592577970238e-06,5.690350041135713e-07,3.8974595809066536e-07,1.0173347027147839e-07,7.322807744145895e-07,3.4995578915693394e-07,-2.339165008947005e-07,2.523751819612981e-07,6.074500408532983e-08,1.8042668367105986e-06,4.018854530025533e-07,2.2144324308055237e-07
2.0670946425638935e-06,5.103312667484594e-08,6.884081202838352e-07,1.2061773185472168e-06,-1.1084563410624619e-06,4.823278736700205e-07,1.5050532770254466e-06,5.911559141553127e-07,3.9382297178468184e-07,6.28797314713602e-08,7.543967522935412e-07,3.052462940890565e-07,-2.1071345357982512e-07,3.223234144252811e-07,-2.4637718994113728e-08,1.8329291182113422e-06,3.6480710525245026e-07,1.9992898811972657e-07
2.0605177273125344e-06,5.434816777525263e-08,6.689182852936625e-07,1.179501072381706e-06,-1.0538804394475371e-06,4.806573663755097e-07,1.4697478560433215e-06,6.026083281391895e-07,3.8418909091503755e-07,1.3018387185719298e-08,9.114640470202113e-07,2.2906079180175504e-07,-1.2837171512388228e-07,4.4086809494588124e-07,-1.3401831266515014e-07,1.857370768835538e-06,3.2537252710210915e-07,1.3537349564794333e-07
2.044295770265497e-06,6.248050172839664e-08,6.673006078453409e-07,1.1512661603379555e-06,-9.977608746861256e-07,4.966301830849355e-07,1.4844268701845672e-06,6.639097537191922e-07,3.5658684955012677e-07,-4.4278480128049903e-08,1.0614578891226622e-06,1.310957176165552e-07,-3.819656925627242e-08,6.250209479057332e-07,-2.3769959598560789e-07,1.94551290991433e-06,2.9392571770975957e-07,8.640035152288525e-08
2.0635802939863313e-06,7.673881158463721e-08,6.85939203447635e-07,1.1354712106946523e-06,-9.262688163586887e-07,5.210890700091793e-07,1.531244218389677e-06,7.378838665257689e-07,3.736056863648715e-07,-1.6007275304407696e-07,1.1501134598955792e-06,5.299413497585762e-08,3.2629049982536976e-08,7.940741195770531e-07,-3.318803646285577e-07,2.1028638175150424e-06,3.076659924486267e-07,5.326169463525926e-08
2.05767152351251e-06,1.0530605624453837e-07,6.768749262134289e-07,1.1124900433991009e-06,-8.750923304698983e-07,5.621401434780712e-07,1.5287742559964144e-06,7.94622524297836e-07,3.771969204356328e-07,-2.0236917265237487e-07,1.2946463374967297e-06,4.5098420870483146e-08,6.012926031378665e-08,8.722391882296088e-07,-4.848643590426922e-07,2.165883656824617e-06,3.6928333806988e-07,1.4068073655652143e-08
2.0495362582364853e-06,1.19437236923544e-07,6.662877324352566e-07,1.075843176346469e-06,-8.988435490002176e-07,5.605065834337968e-07,1.5304412046237857e-06,8.341121802525252e-07,3.606314950676868e-07,-2.1181009305197734e-07,1.4090066030459917e-06,2.151729649599336e-08,1.103079574661866e-08,8.858351118990117e-07,-6.17834208656921e-07,2.148288723278538e-06,4.0986246909106626e-07,-4.529160248018658e-08
2.0576006249031118e-06,1.2617470606746103e-07,6.686870485348187e-07,1.037144592122928e-06,-1.0084141046412601e-06,4.94712309152651e-07,1.5635913139077088e-06,8.34726290780675e-07,3.5763765724428016e-07,-2.743490353626387e-07,1.3169075733410348e-06,-1.3573148166750896e-08,-3.838101093689093e-08,8.791492504394279e-07,-7.267191022655282e-07,2.2112695818656694e-06,4.233730107791866e-07,-1.0813336104472271e-07
2.036631443274402e-06,1.343624358615515e-07,6.619050978829479e-07,9.94748454291215e-07,-1.096219208197924e-06,4.377196496537997e-07,1.5978226769947558e-06,8.135589951357683e-07,3.3419700507707857e-07,-3.1495613770936275e-07,1.2053618905913035e-06,1.2894243730880687e-08,1.0830333117013419e-07,9.342798249363097e-07,-9.050980194335626e-07,2.253886398935459e-06,4.3616247646202264e-07,-1.1048077698555686e-07
2.012673469202124e-06,1.2981533024077524e-07,6.633888453417083e-07,9.346683259966983e-07,-1.2112210006587482e-06,3.9967096847092035e-07,1.661693983435732e-06,8.265781758677895e-07,3.042083617338833e-07,-3.2438929020496157e-07,1.0898770834248028e-06,3.8362150876736326e-08,2.6665741972843726e-07,9.563623410378208e-07,-9.831184176409398e-07,2.3449975197002294e-06,4.522467047311893e-07,-1.3014530275099703e-07
1.9238506521558334e-06,1.213135738030552e-07,6.430711781054762e-07,8.68878311462687e-07,-1.337636167902975e-06,3.5967878401984666e-07,1.662235640350892e-06,8.551456458015076e-07,3.0190596230152033e-07,-3.0341459750444797e-07,9.710971487644309e-07,1.2677026017920666e-09,3.7584551477746147e-07,8.750246756733471e-07,-1.0339129059880564e-06,2.3550364552893224e-06,5.021226059564086e-07,-1.6527982120107016e-07
1.841182064273617e-06,1.2631931670056765e-07,5.940779129007827e-07,8.060859537435925e-07,-1.4108953120366103e-06,3.073985384678273e-07,1.6209426367293361e-06,8.697506454519989e-07,2.8980753117654953e-07,-2.912928395692966e-07,8.11272192748514e-07,-1.7347903796899975e-08,5.201059174047184e-07,7.581817799325018e-07,-1.3152294758037237e-06,2.2688576015827767e-06,5.317251833476651e-07,-2.0215676002996893e-07
1.7350007248459555e-06,1.344484084717183e-07,5.454676434091175e-07,7.492275800515666e-07,-1.476156912821132e-06,2.402097709359152e-07,1.4820777998405423e-06,8.723797489498098e-07,2.560882918572309e-07,-2.4301586952237667e-07,7.228673661303854e-07,-2.996186003140529e-08,5.93589352442676e-07,6.603697831547773e-07,-1.5494814621701387e-06,2.2327783248752237e-06,5.24943687486642e-07,-2.489519367582406e-07
1.6071318345078681e-06,1.400201163569669e-07,4.720852488418628e-07,6.732943587096654e-07,-1.5473982179624645e-06,1.19035940444319e-07,1.3685192164738873e-06,8.576230416577698e-07,1.8273551004908791e-07,-1.554059252653673e-07,6.711101469248864e-07,-1.330990703080221e-07,4.980811093318604e-07,5.475679374245567e-07,-1.6478699196653926e-06,2.1519037386335077e-06,5.149809548747365e-07,-3.148013328300694e-07
1.4241496926066157e-06,1.5541578413776218e-07,4.479696009761323e-07,6.357050773929636e-07,-1.692194867064946e-06,2.7447891345222542e-08,1.2574793464089152e-06,8.106834215545334e-07,1.2118187507131277e-07,-1.4456046401448766e-07,6.569584949274872e-07,-2.41445871594721e-07,3.743299527881724e-07,4.5294144510244443e-07,-1.721552864687122e-06,2.098474032213857e-06,4.864670112814078e-07,-4.0240332566411824e-07
1.2377438775116018e-06,1.647688000012057e-07,4.26280235842536e-07,5.960854546719542e-07,-1.8169928191101431e-06,-2.368275284204174e-08,1.1353628649724429e-06,7.809530779786616e-07,5.35824482348443e-08,-1.0385134411463138e-07,6.091441638388352e-07,-2.4060018222229193e-07,2.634792826399949e-07,4.382479275738108e-07,-1.728086922490036e-06,2.089476536896121e-06,4.6448533393506933e-07,-4.950383972606352e-07
1.0467983691794645e-06,1.6288558204529663e-07,3.9444629316390563e-07,5.582973403539376e-07,-1.851971120185127e-06,-8.149085141195128e-08,1.0279734375257913e-06,7.272093659440507e-07,-1.6193632920812833e-08,-5.205819136297337e-08,5.726519977400558e-07,-1.7892302267335611e-07,1.3918513498217615e-07,4.331517029701141e-07,-1.7773361435402055e-06,2.078975974273998e-06,4.5605348318224363e-07,-5.224456487245512e-07
8.412718625239278e-07,1.5639191765989934e-07,3.517987824583335e-07,5.482821509495278e-07,-1.948837427691942e-06,-1.7765513330711852e-07,9.059169602929004e-07,6.670811836577332e-07,-5.7992323356419144e-08,-3.5104730667036536e-08,5.841742521136837e-07,-1.0984254496261022e-07,4.439505830313871e-08,4.289940012484281e-07,-1.8655242514876144e-06,2.0899257239192606e-06,4.239019927861116e-07,-5.24370427495135e-07
7.325375316190916e-07,1.5358506814525047e-07,3.0408574584660534e-07,4.862534717829282e-07,-2.0190352161165017e-06,-2.3440961010144808e-07,7.806251867577824e-07,6.048817099580606e-07,-9.282031276041814e-08,3.046828362079426e-09,6.031664694835557e-07,-8.228779609277396e-08,-1.9673824536768926e-08,4.3426697955912114e-07,-1.935079697931352e-06,2.087935299972913e-06,3.4665285359887217e-07,-5.090069582129024e-07
6.457798782969679e-07,1.5401846771965856e-07,2.4875052713040766e-07,4.420898377507038e-07,-2.0417222871387054e-06,-2.7375384333672973e-07,6.590858887795862e-07,5.454097343424514e-07,-1.231152508527632e-07,-2.398057966729273e-08,6.273040724000726e-07,-8.886040654046658e-08,-3.141792612236137e-08,4.3040724517460844e-07,-2.0365813084812702e-06,2.090116942295152e-06,2.7076363126273545e-07,-5.101107441195053e-07
7.364344517070657e-07,1.536969577386296e-07,1.8676004239082122e-07,4.3290816487338064e-07,-2.0504203224845424e-06,-3.368744915896417e-07,5.320836734407186e-07,4.919629977086131e-07,-1.3956070261838166e-07,-5.144480703201007e-08,6.711211731888642e-07,-1.3112215214387373e-07,-7.367110818352922e-08,4.095425352071331e-07,-2.0890571811816645e-06,2.1033806121456706e-06,2.075198840242834e-07,-5.390631009447702e-07
8.599261666578092e-07,1.5053348056509171e-07,1.328758379102963e-07,4.6238548039642795e-07,-2.0739363428692147e-06,-3.47993270485624e-07,4.1361123732313105e-07,4.3919399447810413e-07,-1.4735009230648158e-07,-7.562559788512101e-08,7.338902008675639e-07,-1.4544946596646278e-07,-9.252625338276361e-08,3.8225853720294107e-07,-2.099982119892677e-06,2.1145012366746733e-06,1.5326936838063618e-07,-5.571678872262021e-07
9.604615784184848e-07,1.4256105366917422e-07,8.462659060986267e-08,5.208172222380905e-07,-2.1211649457954803e-06,-3.2506457155068845e-07,3.287219072516417e-07,3.8869122740950244e-07,-1.503497984839044e-07,-9.810410617830269e-08,8.174138948972235e-07,-1.4667478155712735e-07,-2.1046636812115293e-07,3.5666152990751317e-07,-2.0870778528782415e-06,2.105933741770894e-06,1.3554628343630403e-07,-5.744084739241464e-07
1.064355284289683e-06,1.28645846423327e-07,3.615362185002104e-08,5.757513612265195e-07,-2.1516401811870637e-06,-2.948072094371902e-07,2.307752737711866e-07,3.257639067954382e-07,-1.2453114268416548e-07,-6.651197239105408e-08,8.900100661792528e-07,-1.6536055810005471e-07,-3.1010537024551187e-07,3.405599862570755e-07,-2.0391398002075333e-06,2.074017797426854e-06,1.1315447548158789e-07,-5.608536724241988e-07
1.0518304786683008e-06,1.0912424734860643e-07,-5.313076575802119e-09,6.155166227195576e-07,-2.1823945566632376e-06,-2.5772728150097224e-07,1.2079268119542204e-07,2.5510439278620423e-07,-7.883963820330749e-08,7.191889627097901e-10,9.75118698375655e-07,-1.5013978513404027e-07,-3.697402837661457e-07,3.4075795167355956e-07,-2.03326900455978e-06,2.0105291365872305e-06,4.655665306677822e-08,-5.344630587515374e-07
9.899322632637077e-07,8.56770801104499e-08,-4.2710280422213154e-08,6.12416020010198e-07,-2.206207878903316e-06,-2.433599007654566e-07,3.301981275389492e-09,1.763710346773709e-07,-2.3338428676302668e-08,8.672091480815361e-08,1.0762370397044512e-06,-9.93525341487045e-08,-4.5552468136656333e-07,3.5770145378529024e-07,-1.998528070325898e-06,1.8942867537915738e-06,-4.26620979097016e-08,-5.000658084442717e-07
8.93284623798069e-07,6.109237264481041e-08,-7.483687876049827e-08,6.061083439247218e-07,-2.1221209825443373e-06,-2.2793511625189524e-07,-1.3530574651224983e-07,9.802647693420319e-08,-1.7130427729409144e-09,1.8331257711379326e-07,1.178423134186846e-06,-2.478171621882124e-08,-5.548245240107928e-07,3.8903138643772575e-07,-1.9332272679043465e-06,1.731883829053659e-06,-1.5768988768591721e-07,-4.582856861427062e-07
8.149018993750033e-07,3.86888845886508e-08,-9.80326351039038e-08,6.092213421643278e-07,-2.1287365676660447e-06,-2.0433231653441592e-07,-2.724416317187957e-07,2.8105524087905206e-08,-5.92209569028756e-09,2.7711333135942036e-07,1.3141318803063196e-06,9.658964956674116e-08,-6.559829275335566e-07,4.272550401371932e-07,-1.8230000000089158e-06,1.5364931153396159e-06,-2.8396796011332706e-07,-4.417920622535563e-07
7.341465658988141e-07,2.1441691770589314e-08,-1.1280761348140719e-07,6.211113415466037e-07,-2.183385360834148e-06,-1.7560949761319992e-07,-3.759276086021491e-07,-3.2416044996470806e-08,-2.0123253688892576e-08,3.6794339760351175e-07,1.4400190822412034e-06,1.9301241754887686e-07,-7.490880129647583e-07,4.646419630837729e-07,-1.6891948494653484e-06,1.3224307271372056e-06,-4.02949309229535e-07,-4.2915478706984936e-07
6.42681789033769e-07,1.110170825343547e-08,-1.2276559506176542e-07,6.503433274560063e-07,-2.251503083264827e-06,-1.4326344038252512e-07,-4.4565292804965927e-07,-7.115152850374191e-08,-2.9253379909107336e-08,4.5930439379373027e-07,1.5405178059178635e-06,2.598842595831053e-07,-9.089527101362917e-07,4.901730373776783e-07,-1.6488705662862967e-06,1.1113291059626765e-06,-5.116660650926107e-07,-4.2253705461255276e-07
5.71324905061928e-07,7.724463753418226e-09,-1.2847267634288842e-07,6.767996855697363e-07,-2.3573485572317085e-06,-1.1212730869061028e-07,-4.872053826084618e-07,-9.98792409136457e-08,-3.408340153461178e-08,5.443050406735894e-07,1.6208763425253455e-06,3.235618307534607e-07,-9.59310191768938e-07,4.955081918866739e-07,-1.6641251996662974e-06,9.156116827258793e-07,-5.799164786302673e-07,-4.26879202179246e-07
5.049445273902269e-07,9.785884088013845e-09,-1.3066698096728748e-07,7.047570385866388e-07,-2.467600909056046e-06,-7.657221649041058e-08,-5.073364435517914e-07,-1.1460420801566307e-07,-4.643494186482202e-08,6.176622318239167e-07,1.6719294221657466e-06,3.62745215734137e-07,-1.011670296124383e-06,4.756323974587945e-07,-1.713160495301918e-06,7.324951499954052e-07,-6.343399536714866e-07,-4.3239891002734534e-07
4.540028020311541e-07,1.4817011130385317e-08,-1.302471453289192e-07,7.38461225133087e-07,-2.463466982844386e-06,-3.548425684234047e-08,-4.895170605771484e-07,-1.160184023604505e-07,-6.591015937108654e-08,6.770367400257221e-07,1.683913597809239e-06,3.916852663072069e-07,-1.0551013038116753e-06,4.2310172451441394e-07,-1.670647958804346e-06,5.625175089650345e-07,-6.743448830458172e-07,-4.4527187578729355e-07
4.1666710840297347e-07,2.0298967330326995e-08,-1.2582817087685517e-07,7.767995326659628e-07,-2.421342042985692e-06,1.0128376526597138e-08,-4.4285331771901015e-07,-1.0352487216035017e-07,-9.738271796758755e-08,7.200593556982736e-07,1.6695643491301888e-06,4.27443124796571e-07,-1.036667061880859e-06,3.4059114093159957e-07,-1.6724971992229564e-06,4.109469658967313e-07,-6.973752981101717e-07,-4.7016369754468114e-07
3.886776372441749e-07,2.4385067462830768e-08,-1.1650983472086359e-07,8.124537895734745e-07,-2.376265446625466e-06,5.5736377376493315e-08,-3.741449882714838e-07,-9.297000266181884e-08,-1.0183577196661079e-07,7.482473688327677e-07,1.639149224063248e-06,4.5645045337169647e-07,-1.0936622432793266e-06,2.346090252116251e-07,-1.7680226969434577e-06,2.814525740096965e-07,-7.099105688844438e-07,-4.977284179544075e-07
3.553532718162234e-07,2.6157642197705815e-08,-1.0203722833362334e-07,8.423593459474091e-07,-2.317685837575895e-06,9.664948563355067e-08,-2.761964845417945e-07,-8.51478550682088e-08,-8.948359669307682e-08,7.63593881749468e-07,1.5890051689904581e-06,4.585949685022677e-07,-1.157871784150318e-06,1.122593156669066e-07,-1.8811179768987526e-06,2.0375659707280276e-07,-7.313161007692381e-07,-5.200444867195807e-07
3.3083127032779826e-07,2.547933750858194e-08,-8.27238319164678e-08,8.657892913589637e-07,-2.2431613350205965e-06,1.2624629475258932e-07,-1.8840412180642586e-07,-7.670927117008285e-08,-7.394788768248442e-08,7.673875959152367e-07,1.534160221664215e-06,4.835792678793011e-07,-1.303145074057886e-06,-1.639414139469712e-08,-2.0195895446258386e-06,1.9168673030609647e-07,-7.661125922843916e-07,-5.380533274933866e-07
3.14750070092435e-07,2.2750967651727203e-08,-5.907541784293815e-08,8.817910216801498e-07,-2.1548923807598476e-06,1.504175954528324e-07,-1.2855960708055255e-07,-7.274806697397061e-08,-5.750019554112043e-08,7.608747491107153e-07,1.4783115416222733e-06,5.266056549988455e-07,-1.4398925375732091e-06,-1.420080292504854e-07,-2.166757488630105e-06,2.3748152202757764e-07,-8.08288119089436e-07,-5.485132856368562e-07
2.9875812362265236e-07,1.8701546375639497e-08,-3.136286419549012e-08,8.967827789444878e-07,-2.1065500049293317e-06,1.737752005267554e-07,-8.268456152917703e-08,-4.8104327284597075e-08,-4.52468895757229e-08,7.452194113111757e-07,1.4213535520678744e-06,5.456689712335356e-07,-1.5705467768640684e-06,-2.532559646821668e-07,-2.2783386720020904e-06,3.013037505594261e-07,-8.547006589644181e-07,-5.495556220060076e-07
2.911708040839211e-07,1.4187682143384075e-08,1.0122047786765231e-10,9.105543082125321e-07,-2.0696876938843397e-06,1.9475583443977943e-07,-2.5024342964161374e-08,-1.3728608653554301e-08,-3.5299796941164095e-08,7.214025253278197e-07,1.3678412583741194e-06,5.58877391513207e-07,-1.7610568927451428e-06,-3.4782286361522164e-07,-2.36865263372025e-06,3.8888381140184114e-07,-8.997631716001359e-07,-5.427792354877809e-07
2.903896718572788e-07,1.008366667472419e-08,3.4676024996375305e-08,9.22807779551769e-07,-2.031111862416936e-06,2.132827967728374e-07,3.653118510834624e-08,1.415916299191062e-08,-2.794681107561141e-08,6.908280386939699e-07,1.3223945786819738e-06,5.643453394948406e-07,-1.8961268167795073e-06,-4.2556966859944477e-07,-2.4360409967983833e-06,4.754176800813051e-07,-9.477742069505366e-07,-5.291999276639145e-07
2.9605045768642213e-07,7.252536709036315e-09,7.15785360520543e-08,9.353199644225341e-07,-1.9603860493106277e-06,2.2999310164223934e-07,1.0034345453029852e-07,3.7097006647918556e-08,-7.78808142447581e-09,6.557723120645061e-07,1.2841953046893072e-06,5.585101672427522e-07,-1.9990679124309303e-06,-4.881292964316291e-07,-2.466808717670848e-06,5.780327016898564e-07,-9.98199277081529e-07,-5.088582834031997e-07
3.0924705423663597e-07,6.476041366233886e-09,1.0984182206378706e-07,9.484357483146052e-07,-1.8671907816403396e-06,2.4197116517684887e-07,1.577185610051654e-07,6.625050448799392e-08,1.3875780646090905e-08,6.186737674132427e-07,1.2531722985219813e-06,5.548117022526975e-07,-2.099434097207736e-06,-5.405436099134254e-07,-2.480103551078468e-06,7.050385648138461e-07,-1.0417353672586618e-06,-4.85284970242927e-07
3.273491607832039e-07,8.309012707781765e-09,1.482266205119845e-07,9.630099348286879e-07,-1.7878949806048477e-06,2.5107518869290234e-07,1.9898844923726086e-07,1.0101873891653239e-07,3.6208890657187745e-08,5.812538786011457e-07,1.2299306136255421e-06,5.415732590730762e-07,-2.1704957187126403e-06,-5.871861584634346e-07,-2.4797879427636998e-06,7.912286331189779e-07,-1.079340897694385e-06,-4.6109147432014755e-07
3.484758101810504e-07,1.2981941848253073e-08,1.8581515914847336e-07,9.789564409320728e-07,-1.7186943790713543e-06,2.5959085604815207e-07,2.422017571748349e-07,1.4084455444352608e-07,6.3482252770053e-08,5.438948481327357e-07,1.2130216104826562e-06,4.999755208941051e-07,-2.2374042640973404e-06,-6.315804510626251e-07,-2.4640254252440254e-06,8.045436521266655e-07,-1.1060644630194687e-06,-4.368006515708202e-07
3.7267455245367345e-07,2.0396062397636824e-08,2.2267488758172633e-07,9.953620061378265e-07,-1.68121386474809e-06,2.645728992257629e-07,2.9245776437005816e-07,1.8639908236032573e-07,8.780111283596719e-08,5.061051243382692e-07,1.202495702926813e-06,4.411533462198015e-07,-2.3038763420932177e-06,-6.754380693185327e-07,-2.4346252704195023e-06,7.646010473339266e-07,-1.1143093674674399e-06,-4.120295683008009e-07
4.0130185504599964e-07,3.013454592770938e-08,2.597717996660324e-07,1.0111643203401647e-06,-1.660836494514127e-06,2.6683515729947684e-07,3.4624575384744134e-07,2.1877082684524954e-07,1.147035802145661e-07,4.6665957840917883e-07,1.1977005705725864e-06,3.9637562444507814e-07,-2.3143765754917336e-06,-7.209344205668546e-07,-2.3873965475617854e-06,7.508160586565355e-07,-1.1066613436143e-06,-3.8621636930414823e-07
4.362548580872429e-07,4.149954553086987e-08,2.983306150470788e-07,1.0253718712428423e-06,-1.613376929294114e-06,2.6645591889991934e-07,4.001282483947791e-07,2.569863920326337e-07,1.4293566462449098e-07,4.238952291039563e-07,1.196662055065936e-06,3.624856334509525e-07,-2.2813232160331203e-06,-7.681144576594987e-07,-2.317551784075001e-06,7.526838769342526e-07,-1.08911991986852e-06,-3.5940303973685044e-07
4.79482891541752e-07,5.3641376993182366e-08,3.396025576705332e-07,1.0377588801973315e-06,-1.5654800725508236e-06,2.637757469951008e-07,4.38756102734403e-07,3.032851428773911e-07,1.6881361580862204e-07,3.7738645572342275e-07,1.197100428716351e-06,3.395574415787494e-07,-2.197099958819755e-06,-8.061649612810503e-07,-2.221337204662889e-06,7.735417754216416e-07,-1.0617677101835147e-06,-3.3199421779000174e-07
5.322254391546267e-07,6.572770697190058e-08,3.8454752581969115e-07,1.0489735867061234e-06,-1.5419758573848234e-06,2.6115015937524796e-07,4.5889584661075033e-07,3.5275686434806807e-07,1.8465327048057206e-07,3.281043339153544e-07,1.1935290520875216e-06,3.251735645097809e-07,-2.0810535631679913e-06,-8.32859727416131e-07,-2.099979607020039e-06,8.015761134836602e-07,-1.0294067733632301e-06,-3.072363284285841e-07
5.930277932253021e-07,7.699093775716061e-08,4.32888888402854e-07,1.05918529360555e-06,-1.5343808203518371e-06,2.609543024545314e-07,4.7015788084507763e-07,4.0066735032013565e-07,1.9888593662760896e-07,2.7459781697477955e-07,1.1824688179511064e-06,3.0812020989001987e-07,-1.9512021445495107e-06,-8.460109188908621e-07,-1.9587949598806134e-06,8.089850127140617e-07,-9.985936224527732e-07,-2.8808602272321e-07
6.55873164862846e-07,8.666404486285466e-08,4.82433139000713e-07,1.0663635357582353e-06,-1.4988885899666888e-06,2.6206307575554697e-07,4.702344036203319e-07,4.4389557527328585e-07,2.118287493889423e-07,2.159900935174097e-07,1.1587936997613472e-06,2.909329042530601e-07,-1.8129071277078995e-06,-8.41777125770936e-07,-1.8092047682183716e-06,8.393278097995809e-07,-9.697589724468245e-07,-2.768262918241385e-07
7.103167954960367e-07,9.397583027915959e-08,5.296235893865095e-07,1.0658882796217457e-06,-1.440907102993289e-06,2.620236038726317e-07,4.6468697541590006e-07,4.849294159463021e-07,2.2298795743500064e-07,1.5065798782026904e-07,1.1172176524547188e-06,2.6869678315061976e-07,-1.7029439905834204e-06,-8.186909777855507e-07,-1.6663083307635604e-06,9.132009792697265e-07,-9.479428501113968e-07,-2.782431773376494e-07
7.436672032773986e-07,9.828670297575861e-08,5.706215619252417e-07,1.0516386978778246e-06,-1.3598874332526493e-06,2.5614883185569716e-07,4.780616655905041e-07,5.259539702052573e-07,2.3886806953312026e-07,7.122255948480644e-08,1.0505580576388508e-06,2.3131315849272435e-07,-1.5966935760934145e-06,-7.728169362755636e-07,-1.5438440940398199e-06,1.013960463338345e-06,-9.383272425169905e-07,-2.952027155678398e-07
7.441071745133233e-07,9.933117435733295e-08,6.019756283986378e-07,1.0178531673240266e-06,-1.2570166364941317e-06,2.400136335073268e-07,5.085216134588037e-07,5.715523701949939e-07,2.592964080470708e-07,-2.913482910726168e-08,9.509444639331045e-07,1.6324270411366588e-07,-1.47405168845597e-06,-7.111250646484568e-07,-1.4518225332153193e-06,1.1297574175910153e-06,-9.4121556899124e-07,-3.2924828715221086e-07
7.041857921890121e-07,9.749537341198746e-08,6.211567875102676e-07,9.61444041674345e-07,-1.2080356603546257e-06,2.0927816027709063e-07,5.364731202069754e-07,6.159536032716126e-07,2.837790277184124e-07,-1.5603733271032423e-07,8.21070625777183e-07,5.779814770037126e-08,-1.346922865688405e-06,-6.332056827309204e-07,-1.3938411542747577e-06,1.2504866105270947e-06,-9.552026309771764e-07,-3.780663311967558e-07
6.240318277034797e-07,9.401525419914326e-08,6.273203691474606e-07,8.828801782858941e-07,-1.194329233298713e-06,1.6309696801747517e-07,5.662544878679691e-07,6.662978679213871e-07,3.12698066006583e-07,-3.0589253976191095e-07,6.694935826313422e-07,-7.719599246990418e-08,-1.2150427214072349e-06,-5.432011290428308e-07,-1.366391093843212e-06,1.4184684653813176e-06,-9.78308645317494e-07,-4.346386752633428e-07
5.123892584449994e-07,9.084531290897638e-08,6.205430254136252e-07,7.91086498160413e-07,-1.2274672734312138e-06,1.0372105495340127e-07,5.913138836106093e-07,7.190773609282136e-07,3.377779665868663e-07,-4.6584739592080616e-07,5.499372976211878e-07,-2.2738062255219417e-07,-1.1061934141357763e-06,-4.484310447347696e-07,-1.365925089051746e-06,1.609973013676044e-06,-1.0058963162401793e-06,-4.758747777135472e-07
3.846029268476192e-07,9.00816736195341e-08,6.015920474267999e-07,6.978873209877697e-07,-1.2973604269065108e-06,3.836641551737541e-08,6.039174663496805e-07,7.685384015688511e-07,3.579705770715533e-07,-5.989439245699374e-07,5.237512876258186e-07,-3.610101655801185e-07,-1.0413211431592232e-06,-3.560088071095122e-07,-1.3792520621856017e-06,1.8023238800033901e-06,-1.0344412302746386e-06,-4.856962741983387e-07
2.590667976316023e-07,9.322445100540577e-08,5.720648006011237e-07,6.128128529948831e-07,-1.4029349982807366e-06,-2.2916372737013126e-08,6.080775159764672e-07,8.128301482578907e-07,3.787534545608348e-07,-6.521790817330344e-07,5.689441425422044e-07,-4.1320527601910345e-07,-1.02866253414213e-06,-2.7606317171129635e-07,-1.3921783819889309e-06,1.971291300452744e-06,-1.058635136398307e-06,-4.677852808501357e-07
1.5366859563961132e-07,1.0071480837820902e-07,5.350564466924382e-07,5.527984286057774e-07,-1.5329738651593605e-06,-5.459062132962879e-08,6.070559147246163e-07,8.485312380149986e-07,4.052164047747272e-07,-6.660356934618622e-07,6.39002024453587e-07,-3.7966799691548e-07,-1.0721845370412067e-06,-2.134314273695839e-07,-1.393366229296632e-06,2.088735450185933e-06,-1.0716010643582152e-06,-4.482402428016242e-07
8.307882872626506e-08,1.1189336986737725e-07,4.958834671666377e-07,5.385869720478574e-07,-1.6593766003931082e-06,-3.276594566222381e-08,6.014765486278527e-07,8.784183616339573e-07,4.398304583636127e-07,-6.587685585662522e-07,6.529551722301312e-07,-3.375372802521761e-07,-1.1391039524038598e-06,-1.6752396313141895e-07,-1.3732280241322338e-06,2.1594048153895613e-06,-1.0729226394417772e-06,-4.4522879323634616e-07
5.68574590661539e-08,1.252592928435705e-07,4.6130268740566805e-07,4.981270541882175e-07,-1.7719375148825163e-06,1.095890240670422e-08,6.013742144539253e-07,9.075207413819841e-07,4.872663747670419e-07,-6.945483206006627e-07,6.73588513739041e-07,-3.585321097166039e-07,-1.2259952065864636e-06,-1.3109652250673914e-07,-1.3291295349872358e-06,2.194108276322378e-06,-1.0595029929251218e-06,-4.57467504276944e-07
7.893653976172676e-08,1.3893510461293138e-07,4.3805996969827367e-07,5.069346508139055e-07,-1.8238474035237267e-06,4.465924554573527e-08,6.189660745327526e-07,9.315028218783523e-07,5.428570499968638e-07,-7.034862916130684e-07,7.902517841230795e-07,-3.4874246807821623e-07,-1.2687415995490858e-06,-9.621008047162261e-08,-1.2631731844475364e-06,2.2075039882948247e-06,-1.0267506365477603e-06,-4.1073368129160214e-07
1.4814410755399673e-07,1.5120659454363895e-07,4.3115600245403217e-07,5.498225012225022e-07,-1.826744029365722e-06,4.8924085671630356e-08,6.573262106650919e-07,9.544922087965932e-07,5.997490853481858e-07,-6.480766035048492e-07,9.341523127821116e-07,-3.244745822162484e-07,-1.2389298470255025e-06,-6.080253534682833e-08,-1.180180927555542e-06,2.199201828642245e-06,-9.786817132622023e-07,-3.514059836952199e-07
2.585789774607796e-07,1.6089659263982861e-07,4.424249900120571e-07,6.012957337230553e-07,-1.7931001941045193e-06,6.819441980985807e-08,7.172732142697641e-07,9.818495127182413e-07,6.57323263048154e-07,-5.753424038118384e-07,1.043763637110615e-06,-2.58575638342218e-07,-1.1496874366887565e-06,-1.8292383368204695e-08,-1.0854686800491969e-06,2.18820990653819e-06,-9.186506411908551e-07,-2.8374481858207006e-07
4.0006088380199236e-07,1.6747318330286352e-07,4.6992169757366675e-07,6.539869883352855e-07,-1.7342936019224143e-06,1.3629928684693445e-07,7.973527352063378e-07,1.0161840510776132e-06,7.085682119281282e-07,-5.033630392701231e-07,1.0991800501898455e-06,-1.6755899294982749e-07,-1.0032015354099495e-06,3.1411251666405844e-08,-9.863385987770083e-07,2.1884787235781083e-06,-8.496860890750678e-07,-2.0930804654168315e-07
5.593425538277333e-07,1.7099407707054873e-07,5.089097882845739e-07,7.065448104806976e-07,-1.6633824748957058e-06,2.0148516594085765e-07,8.874535131491987e-07,1.0571621992639111e-06,7.515285215304517e-07,-4.3740848040659317e-07,1.0769130438763034e-06,-7.188146331593778e-08,-8.359120668756781e-07,8.330490447389324e-08,-8.885353946542249e-07,2.2074883406429146e-06,-7.773074152564033e-07,-1.545130279911729e-07
7.217470276331815e-07,1.7195540152020778e-07,5.533932425947252e-07,7.505971027822442e-07,-1.588782698490377e-06,2.8105965210015065e-07,9.858705447697582e-07,1.1018315513819439e-06,7.871919099813558e-07,-4.1531744939649914e-07,1.0421411450076468e-06,4.24649669098147e-08,-6.794945580307187e-07,1.3316680611224005e-07,-7.953738025565287e-07,2.254777988834371e-06,-7.036436351627592e-07,-1.1299861559637084e-07
8.726090822563305e-07,1.710403185682821e-07,5.970099561948732e-07,7.798120578456967e-07,-1.5205283229620288e-06,3.7204203100072686e-07,1.0861976182312344e-06,1.1467351421183097e-06,8.160483075194822e-07,-4.288553532361662e-07,1.0503502233341557e-06,1.24502606291556e-07,-6.109901160403843e-07,1.7494309372374815e-07,-7.095709657572631e-07,2.3323311996436064e-06,-6.309652341466064e-07,-8.337774367001148e-08
9.991008696128448e-07,1.6890216832942717e-07,6.3397771934484e-07,7.89441191114618e-07,-1.4658259952272297e-06,4.342083047617886e-07,1.1847364173791596e-06,1.1884866612376155e-06,8.374849588936703e-07,-4.7493521921101514e-07,1.0030307443547057e-06,1.709899582841869e-07,-6.671196624355976e-07,2.1199337494552127e-07,-6.325151973788569e-07,2.407876695493823e-06,-5.63159225934301e-07,-6.504100105846896e-08
1.0928399673044024e-06,1.661171594397572e-07,6.60158185458481e-07,7.778632772583788e-07,-1.44050284513038e-06,4.7483638831314486e-07,1.2841357019497284e-06,1.2269545232952977e-06,8.535399809056038e-07,-5.438951553593323e-07,9.263204797935186e-07,1.9469775904278187e-07,-8.036309444737151e-07,2.4475462841510234e-07,-5.643011502362095e-07,2.4984399576926414e-06,-5.026159204713277e-07,-4.8693869272901086e-08
1.1513624639237358e-06,1.6319216024299302e-07,6.742802469647775e-07,7.473917561264137e-07,-1.4411524043476765e-06,4.965841908785979e-07,1.378866898786097e-06,1.2572864594394906e-06,8.665436779988498e-07,-6.180522606815735e-07,8.231365299488403e-07,1.9205852120043523e-07,-9.511233565749053e-07,2.782733386231359e-07,-5.038913435646993e-07,2.5958882845621447e-06,-4.484397198415656e-07,-3.46480440721793e-08
1.1776142361964527e-06,1.6049237006040393e-07,6.770971596906374e-07,7.032999534884108e-07,-1.4541989875390804e-06,5.018827862468781e-07,1.46589744562449e-06,1.2793288007568727e-06,8.778882470182119e-07,-7.001455676842832e-07,7.122424971311509e-07,1.793301023275443e-07,-1.0830368990750524e-06,3.168369555129305e-07,-4.5183820594594374e-07,2.698090257123534e-06,-3.989046838772519e-07,-2.3181269805745925e-08
1.1783838083375227e-06,1.5818661530718658e-07,6.700959511926664e-07,6.521451866428493e-07,-1.4762719962314456e-06,5.020656885778699e-07,1.5422962310246159e-06,1.2927719935905915e-06,8.887254017574832e-07,-7.520103704028228e-07,6.122348587489735e-07,1.6122127164489903e-07,-1.2263404214149034e-06,3.6026218600442295e-07,-4.049853011832505e-07,2.8138975254392625e-06,-3.513474979543998e-07,-1.2439868894869512e-08
1.1628654964692803e-06,1.563488405041861e-07,6.552151496814661e-07,6.006503134938228e-07,-1.5005808638594615e-06,4.971367505313045e-07,1.605755649592784e-06,1.2967368121163456e-06,8.982108678893545e-07,-7.965968431460938e-07,5.38842500571175e-07,1.431243404714282e-07,-1.3819351430370627e-06,4.0983318815697377e-07,-3.5528722641749687e-07,2.934491327598401e-06,-3.0229073544665006e-07,-5.340519853424258e-10
1.141474062306368e-06,1.551307794671778e-07,6.346515801778377e-07,5.550688589525534e-07,-1.5181142257714998e-06,4.8763271321973e-07,1.6516354199844152e-06,1.2934645287695274e-06,9.047852639504219e-07,-8.100329337547234e-07,5.156180008740932e-07,1.3478490229660165e-07,-1.484501001240237e-06,4.655258567845025e-07,-2.968908866451567e-07,3.0713048839198496e-06,-2.4990036347990497e-07,1.4878499262687237e-08
1.124336392010451e-06,1.548642940990821e-07,6.106562672566657e-07,5.206944489245678e-07,-1.5249565090036565e-06,4.771494564267259e-07,1.6802861767859389e-06,1.2837477482161337e-06,9.078174998815088e-07,-7.798497040250914e-07,5.712156011439713e-07,1.437441394440669e-07,-1.5671392188528224e-06,5.273041576009508e-07,-2.2452299016312562e-07,3.2139026381910537e-06,-1.9240175509134278e-07,3.638919894084531e-08
1.1198869266132894e-06,1.5609845875624318e-07,5.854617281933787e-07,5.017208233161583e-07,-1.5177603151905647e-06,4.696921672791593e-07,1.6911584651128803e-06,1.2683135334658707e-06,9.052459476778587e-07,-7.292402960793542e-07,6.947305586898734e-07,1.7569385792893142e-07,-1.4930519724782308e-06,5.947198243242881e-07,-1.345414291631076e-07,3.3559026905775424e-06,-1.3082526956864244e-07,6.660905300950172e-08
1.1336462699191613e-06,1.5955428757430306e-07,5.610962794655193e-07,5.01294022986358e-07,-1.5064403262869085e-06,4.696986880082402e-07,1.681149726707707e-06,1.2512539692388465e-06,8.96650838140532e-07,-6.531748594145657e-07,7.523039584501267e-07,2.335092829937764e-07,-1.2581869102778952e-06,6.696338746969829e-07,-2.8414364347047586e-08,3.4802692429690836e-06,-6.905178965057523e-08,1.0732729612072903e-07
1.1671140338866707e-06,1.6587451027276308e-07,5.387082313124049e-07,5.21095357466347e-07,-1.4858883401238575e-06,4.805979722871054e-07,1.6507326048747214e-06,1.2331233191177677e-06,8.818369854323917e-07,-5.482160295174592e-07,7.933576850377254e-07,3.1557578864518785e-07,-1.133220017463824e-06,7.526366816127013e-07,9.364842909401273e-08,3.5637597874296897e-06,-1.070496820724578e-08,1.5816747578839068e-07
1.2174431634800195e-06,1.7517339416676933e-07,5.183174528002581e-07,5.606053217636188e-07,-1.460758584111828e-06,5.040253015919547e-07,1.6020834670343094e-06,1.2114849192842484e-06,8.617798925769467e-07,-4.520747385685851e-07,8.554372628887322e-07,4.1554341667949494e-07,-1.084268473248814e-06,8.378586701665132e-07,2.1897269818984618e-07,3.5932742949161603e-06,3.904901385781156e-08,2.1591742761231144e-07
1.2785341438638334e-06,1.8672491318642348e-07,4.994386447365939e-07,6.167323431340292e-07,-1.438353422893601e-06,5.388388408468942e-07,1.536912944295636e-06,1.1850070351809693e-06,8.308896108505201e-07,-4.097355316973019e-07,8.776512420368141e-07,5.238204128182932e-07,-9.468923623412415e-07,9.181529835111215e-07,3.4807943290265356e-07,3.557804644215045e-06,7.495083250791208e-08,2.749402426943718e-07
1.3427060426324428e-06,1.9897693651247272e-07,4.819439701077463e-07,6.838901388196394e-07,-1.4191249883422442e-06,5.815391523898217e-07,1.4637398912064901e-06,1.1520154517863149e-06,7.915986633899365e-07,-2.682447299957628e-07,9.560622781806025e-07,6.290828389771776e-07,-6.589320585636757e-07,9.858101169665525e-07,4.719266002032543e-07,3.4565675621730445e-06,9.079531391156498e-08,3.2812831293067087e-07
1.4018119538582e-06,2.098652666373302e-07,4.664805347784037e-07,7.54403578152784e-07,-1.4078865208333706e-06,6.26700238538646e-07,1.3932993891590799e-06,1.1128164459291437e-06,7.486652300404186e-07,-8.729335408801628e-08,1.0869473640711345e-06,7.197684878968793e-07,-3.324716312809116e-07,1.0326911081735276e-06,4.961766382146076e-07,3.2951595004824465e-06,8.620821852259685e-08,3.6850168240776215e-07
1.448203510037288e-06,2.17372107905139e-07,4.542763289197708e-07,8.197591754417472e-07,-1.4046674356796624e-06,6.680271927324767e-07,1.3358174589451922e-06,1.0696655109365242e-06,7.052580676700511e-07,7.391279512704836e-08,1.2109062097316538e-06,7.868909383039203e-07,-1.4565173320154754e-07,1.0541012862589693e-06,4.849093746221175e-07,3.098457954659896e-06,6.0995398893724e-08,3.916220075321284e-07
1.4759945467104796e-06,2.2019072255551898e-07,4.467439811070515e-07,8.727209592264727e-07,-1.4061223731797524e-06,7.015901963895142e-07,1.3008223236426647e-06,1.0267301837233413e-06,6.680772805499919e-07,2.3394299120995637e-07,1.3139280921367176e-06,8.270260438500556e-07,-3.2679964294709736e-08,1.0496233151315362e-06,4.557033677129517e-07,2.901386791403556e-06,1.9220798570201026e-08,3.973398147281178e-07
1.4817243689759501e-06,2.1820949822952213e-07,4.4491949849896315e-07,9.09009915767048e-07,-1.4044829271285007e-06,7.262532934400679e-07,1.293452661450572e-06,9.88250362309104e-07,6.406117188616273e-07,3.2590121279550325e-07,1.3496968754150052e-06,8.424311297423633e-07,-4.039037519600426e-08,1.0264621673475956e-06,3.933978895066225e-07,2.728059852445937e-06,-2.9425642912130328e-08,3.892240496529313e-07
1.4640871764220282e-06,2.1245573229373585e-07,4.4833378218344897e-07,9.275242739597745e-07,-1.3973111919065023e-06,7.424136630173695e-07,1.3132497786765893e-06,9.582695068511403e-07,6.226536434838655e-07,3.723282433073484e-07,1.3709332075367764e-06,8.387945429167343e-07,2.1235804693216604e-08,9.931625782708687e-07,2.944314659237408e-07,2.5931621454352197e-06,-7.557964599291484e-08,3.7231537413222384e-07
1.4238013674706194e-06,2.0459565778169488e-07,4.551137940741116e-07,9.296756728429482e-07,-1.3832174119733138e-06,7.513422983864323e-07,1.3531350637902987e-06,9.368501217740868e-07,6.10653449087406e-07,3.7851564631499346e-07,1.3914943675244567e-06,8.233421933242469e-07,-3.5611770318216144e-08,9.573764049070434e-07,2.0371614588833567e-07,2.5158897154949645e-06,-1.0942136162749572e-07,3.512694790205209e-07
1.3642739716612288e-06,1.963254107387988e-07,4.6284964482480354e-07,9.186635907516126e-07,-1.3624843738221042e-06,7.543694749746839e-07,1.403432711781457e-06,9.215265742445444e-07,5.998481854238275e-07,3.930083046703751e-07,1.4072857271331621e-06,8.036491249670981e-07,-2.2963507918459175e-07,9.257858469237305e-07,1.6123869830077406e-07,2.5019983121680045e-06,-1.2331918047762617e-07,3.295158679452047e-07
1.291840679063114e-06,1.8886098587906417e-07,4.6947484389584526e-07,8.984641750428035e-07,-1.3445741461630503e-06,7.531258104158587e-07,1.453913516705913e-06,9.099104474037922e-07,5.835855144315148e-07,3.9487454171769107e-07,1.4037034952864876e-06,7.857524305297586e-07,-4.3214921422388687e-07,9.014914409473522e-07,1.3706973747054628e-07,2.5456932806235063e-06,-1.1399506003352637e-07,3.088325545224015e-07
1.2146648903359952e-06,1.8258800051883785e-07,4.7354845087686353e-07,8.725383160419711e-07,-1.3332621990974566e-06,7.48894027341714e-07,1.4969497617737066e-06,8.983302881080693e-07,5.566987965317745e-07,3.7503845964025963e-07,1.3825370306448675e-06,7.724835615148717e-07,-5.309542922457493e-07,8.83762401737e-07,1.308025314941749e-07,2.6293819010624535e-06,-8.498746430705144e-08,2.8948062130309396e-07
1.141090655173253e-06,1.7697574326950693e-07,4.7415543445051794e-07,8.430777798152421e-07,-1.3334844107860851e-06,7.421743098067918e-07,1.5276540519311193e-06,8.844635839922664e-07,5.188794152233994e-07,3.483530170045389e-07,1.3530151068039642e-06,7.635733882109834e-07,-6.534689791265393e-07,8.692884860111083e-07,1.3673023804708386e-07,2.7271604662966465e-06,-4.3836655633184435e-08,2.7118948219832404e-07
1.0781451808013045e-06,1.7087087022237344e-07,4.710769523422757e-07,8.113015328797681e-07,-1.3495459865554235e-06,7.331593923654427e-07,1.5448430682892096e-06,8.679035268104164e-07,4.7202587453722005e-07,3.0300303147457354e-07,1.3149523586733235e-06,7.56634235238435e-07,-6.932310576143228e-07,8.545804486780703e-07,1.3376914154580084e-07,2.8131981144127356e-06,-2.920324833095324e-10,2.540530231871589e-07
1.0295778438141664e-06,1.6302172349008065e-07,4.645521235579268e-07,7.778200166278265e-07,-1.376853015481637e-06,7.222183673649125e-07,1.5514217859164295e-06,8.492835973356903e-07,4.237954111512022e-07,2.5131629469612466e-07,1.2746310761043643e-06,7.47523054964602e-07,-6.820708023226914e-07,8.354149649124543e-07,1.1402494333877029e-07,2.8698027082196425e-06,3.5376202367518044e-08,2.3848701386432976e-07
9.938749271069423e-07,1.5256705398089899e-07,4.547813629932245e-07,7.424931788137543e-07,-1.4144846832509005e-06,7.087967700935796e-07,1.5517880068653069e-06,8.29171566673236e-07,3.8347961603987696e-07,1.9723497243391953e-07,1.2203740863639654e-06,7.311489773145613e-07,-6.937982866457239e-07,8.08124499945695e-07,6.735431372125248e-08,2.892415790638437e-06,5.5639544263771275e-08,2.2490680462394344e-07
9.644768576943905e-07,1.3936490252816675e-07,4.41414715905005e-07,7.046024363627549e-07,-1.456970129312892e-06,6.911737141995014e-07,1.5507315250209843e-06,8.081703359301335e-07,3.576143404271783e-07,1.4444219065638462e-07,1.1537338670380743e-06,7.039503048468794e-07,-7.162708722039783e-07,7.72036257966422e-07,-1.1324021766436491e-08,2.880222608588771e-06,5.738922841862059e-08,2.1388721806501604e-07
9.327731943061511e-07,1.2412916337210795e-07,4.247067429515774e-07,6.636924194170188e-07,-1.495553998018946e-06,6.680665308497726e-07,1.5537075610254007e-06,7.87067177997686e-07,3.5292263255270364e-07,8.423443680357016e-08,1.0825751987596167e-06,6.657169993334213e-07,-8.093704771165269e-07,7.30207163511638e-07,-1.1534727396362512e-07,2.8437159456223398e-06,4.24379978441603e-08,2.0627800263548633e-07
8.917135246774272e-07,1.0828986718869884e-07,4.056085036945517e-07,6.203587438535316e-07,-1.5212923362419743e-06,6.392695924216997e-07,1.5650400522429844e-06,7.67341657103052e-07,3.702503575233227e-07,3.0456063232023747e-08,1.020982437930029e-06,6.196185963474122e-07,-9.464971700835335e-07,6.87729787849779e-07,-2.329778782634443e-07,2.7991220834428472e-06,1.625233882780542e-08,2.027794809559304e-07
8.381395953376237e-07,9.355685563243856e-08,3.8556592525918707e-07,5.76597727882043e-07,-1.527934595779183e-06,6.058115869891093e-07,1.5849460324386131e-06,7.501361222603766e-07,4.064601559711213e-07,-1.3181265853064615e-08,9.760640925062674e-07,5.715565267145452e-07,-1.1646929363709261e-06,6.494953329903175e-07,-3.511078574064182e-07,2.7595830581601027e-06,-1.6071771724763453e-08,2.0362581012105983e-07
7.738102999969987e-07,8.140596670622904e-08,3.6658535463844514e-07,5.361161629621101e-07,-1.5139631689395413e-06,5.70845791396676e-07,1.6106198242831405e-06,7.364802595945093e-07,4.5683424846191433e-07,-4.806565935943034e-08,9.526283983638947e-07,5.298978263829677e-07,-1.3595961039924634e-06,6.199630817126804e-07,-4.570898161041981e-07,2.7305287053409932e-06,-4.8802954586910144e-08,2.0876499372952722e-07
7.050802095984439e-07,7.275386475374757e-08,3.510364193083386e-07,5.043784457257427e-07,-1.4814909710309905e-06,5.426029904560429e-07,1.637533345851101e-06,7.279556901877098e-07,5.140644110293074e-07,-6.648282165924115e-08,9.579220279604635e-07,5.04113039682735e-07,-1.5033674662287025e-06,6.026105939328642e-07,-5.418092783493139e-07,2.710524562574987e-06,-7.693224607115845e-08,2.1788886247494408e-07
6.406672218460935e-07,6.78637781428291e-08,3.4131550880855383e-07,4.874528961457708e-07,-1.4363621696231727e-06,5.280631115004507e-07,1.6605936810233032e-06,7.258213326018105e-07,5.746526984815714e-07,-6.740687284811612e-08,9.95000248215459e-07,5.018859259657113e-07,-1.6145586018184018e-06,5.980343573236344e-07,-6.016453627915234e-07,2.6858777959675497e-06,-9.766102670614019e-08,2.3010234394256615e-07
5.886451060351385e-07,6.64332602183267e-08,3.38965675735753e-07,4.901193388860077e-07,-1.3837639395978303e-06,5.329099684607443e-07,1.6759931797514496e-06,7.309598626525661e-07,6.375554060779032e-07,-4.825042385023068e-08,1.0649633784244157e-06,5.267590106230423e-07,-1.6630439535577687e-06,6.033946056327111e-07,-6.389245520107771e-07,2.6496628804458403e-06,-1.0956417809541e-07,2.439652930436492e-07
5.544229286725273e-07,6.780057737590315e-08,3.445940119463885e-07,5.143539002782955e-07,-1.3287294646881211e-06,5.602124982961395e-07,1.6841951113454915e-06,7.427156873058136e-07,7.003128277139499e-07,-7.559822610192145e-09,1.1626201652249735e-06,5.77188972331683e-07,-1.6830185435633975e-06,6.134419315183161e-07,-6.604038538045549e-07,2.588454513078111e-06,-1.1252411421043999e-07,2.5792805910474164e-07
5.400783802489716e-07,7.115771440392304e-08,3.5789990225907494e-07,5.584643727769109e-07,-1.2746776918962755e-06,6.10799018443159e-07,1.6859297918600527e-06,7.602058724484892e-07,7.625720431373655e-07,5.172727827907896e-08,1.2756475420269623e-06,6.463920749595037e-07,-1.6745661794596823e-06,6.208522354924896e-07,-6.75790796045879e-07,2.4931256234419227e-06,-1.07784094070793e-07,2.7044256993567837e-07
5.444440518805982e-07,7.56660604965682e-08,3.776466725858925e-07,6.169437863915226e-07,-1.2219287045711844e-06,6.828344095156305e-07,1.6869717165331547e-06,7.819778287172346e-07,8.232583415870757e-07,1.2300714291012213e-07,1.3876907139194523e-06,7.233264299278856e-07,-1.6603275554823712e-06,6.16764041344895e-07,-6.950596635302572e-07,2.3659152958546645e-06,-9.810425903034348e-08,2.7988252300215933e-07
5.639317589787262e-07,8.050423273262718e-08,4.01750963989209e-07,6.815164912501236e-07,-1.171714107922825e-06,7.671666227100386e-07,1.6922976835347017e-06,8.056118236097055e-07,8.783936477452452e-07,1.972103578274744e-07,1.4829695711836851e-06,7.938148539917601e-07,-1.6054235353414426e-06,5.940065632084055e-07,-7.232183089274687e-07,2.2066924723402144e-06,-8.613969756316334e-08,2.848578378402641e-07
5.940651007263193e-07,8.492410975421263e-08,4.2816657848210477e-07,7.43201516377821e-07,-1.123528512314178e-06,8.508635921665265e-07,1.7040948385605817e-06,8.292862368275729e-07,9.22678983069556e-07,2.635192345568938e-07,1.5514330418122739e-06,8.483025021684839e-07,-1.5423348537518385e-06,5.507559527436247e-07,-7.612411233197837e-07,2.0356748824551853e-06,-7.33956821117558e-08,2.845173603596838e-07
6.304331608936212e-07,8.829618624873672e-08,4.5523179749912765e-07,7.939434291324916e-07,-1.074693588014821e-06,9.086925161549175e-07,1.7261956118370904e-06,8.532856365528221e-07,9.511834590035737e-07,3.144455175503004e-07,1.5909231946891777e-06,8.809276441984808e-07,-1.468646833639221e-06,4.907662694540399e-07,-8.013993013773705e-07,1.8815727343332307e-06,-6.003199459644211e-08,2.782880952868578e-07
6.68300179646415e-07,9.018187008062517e-08,4.814245157355071e-07,8.27210934480087e-07,-1.0192621249318914e-06,9.189039182139813e-07,1.759360598933454e-06,8.778718777215266e-07,9.586445649460427e-07,3.4485704348632105e-07,1.6059018729211618e-06,8.900092810014362e-07,-1.254137900607852e-06,4.212206976862319e-07,-8.301745832668369e-07,1.8006658328087425e-06,-4.576615313266009e-08,2.6570189505868964e-07
7.016897954489663e-07,9.059284418796448e-08,5.052919558861448e-07,8.385336730759854e-07,-9.56505898098335e-07,8.696607549854971e-07,1.802001931069764e-06,9.03426495718934e-07,9.406667973261642e-07,3.5358160000361074e-07,1.60498879886191e-06,8.755930318590726e-07,-1.1748316163229998e-06,3.5146971988430594e-07,-8.474624912686292e-07,1.8306043593005916e-06,-3.080048879110684e-08,2.4693234770782276e-07
7.227732544719216e-07,9.043427776572017e-08,5.256151975153328e-07,8.264696844913134e-07,-8.853198692388734e-07,8.548038988107272e-07,1.8508133379474128e-06,9.322213469214332e-07,8.991938137241733e-07,3.421063925908814e-07,1.5985800711730396e-06,8.407629502467677e-07,-1.1972869467016171e-06,2.91665719123965e-07,-8.382636014146191e-07,1.925304354881868e-06,-1.6219015419994374e-08,2.232694625451828e-07
7.214264343213272e-07,9.172834912837832e-08,5.411867289294331e-07,7.939430182735651e-07,-8.056944092379588e-07,8.844315897855592e-07,1.9026882016130993e-06,9.646382961892988e-07,8.381578292860787e-07,3.158942071200166e-07,1.5963198691644644e-06,7.916809407434716e-07,-1.259373817629108e-06,2.497022553269704e-07,-7.514279478104496e-07,2.0031835264985703e-06,-4.502372893860021e-09,1.968481501994234e-07
6.859503517448544e-07,9.72207475303466e-08,5.506884984349376e-07,7.455634934077808e-07,-7.228973352671983e-07,8.66407225818258e-07,1.9528353768623263e-06,9.999911628559286e-07,7.633538020393089e-07,2.862653573858067e-07,1.6042070907872813e-06,7.345932869440911e-07,-1.3671633787803259e-06,2.28792978303827e-07,-6.575862401387227e-07,2.0585595998999278e-06,1.9453047124481465e-09,1.703595359270208e-07
6.071323087904601e-07,1.0940482167921339e-07,5.533440399151989e-07,6.876820944468817e-07,-6.433531099385363e-07,8.339458546164514e-07,1.9970896220644314e-06,1.0370317992450678e-06,6.843162928355287e-07,2.626955995698452e-07,1.6291826272582669e-06,6.812119998823067e-07,-1.327944585625231e-06,2.2772283775102144e-07,-5.619104317736489e-07,2.239594708999901e-06,1.3457283222430012e-09,1.4725674372129218e-07
4.849770378534116e-07,1.294200317093074e-07,5.501699462898829e-07,6.283442167665278e-07,-5.739920113850147e-07,7.962326552479753e-07,2.0335452784406695e-06,1.0747944884308757e-06,6.109257000771212e-07,2.5402098285109744e-07,1.6727589574745608e-06,6.407800453785765e-07,-1.2189997683884469e-06,2.4203434356408385e-07,-4.5741663780003327e-07,2.4936796119791745e-06,-4.31756026515815e-09,1.3156393631294707e-07
3.3304430450260957e-07,1.5642396596261716e-07,5.444812645295914e-07,5.759587912379318e-07,-5.198541120367489e-07,7.369721825055846e-07,2.06076661584328e-06,1.1132359989598373e-06,5.517336871816257e-07,2.6825459903588184e-07,1.7345751806237797e-06,6.203420649958751e-07,-1.1141745272483832e-06,2.6473684422436745e-07,-3.5144192705513976e-07,2.7003881102259874e-06,-1.1149949210024378e-08,1.2675992322823418e-07
1.7607507181871016e-07,1.8781270275890462e-07,5.40686659483851e-07,5.38278549871101e-07,-4.837621520376471e-07,6.71078600726829e-07,2.0770242665186437e-06,1.149905714593809e-06,5.140892492901973e-07,3.0832688680767206e-07,1.8120501273938136e-06,6.241653041381858e-07,-1.0173108490376191e-06,2.8798893298349437e-07,-2.5278654167304235e-07,2.9100514609709462e-06,-1.582988710451102e-08,1.345955573115954e-07
4.205989498917056e-08,2.201382540867082e-07,5.420932751741606e-07,5.196791603169643e-07,-4.6457806581048603e-07,6.121766412450135e-07,2.0826628559129745e-06,1.185384886635426e-06,4.920042244774022e-07,3.748877185835733e-07,1.9035941241273172e-06,6.499168350034429e-07,-9.521604212162925e-07,3.0543156823035455e-07,-1.619305769261473e-07,3.0548359713561614e-06,-1.581715545301034e-08,1.545115299306869e-07
-4.657202655441257e-08,2.5006710493477274e-07,5.508141320430466e-07,5.223440474631339e-07,-4.590083564073517e-07,5.839002620224507e-07,2.079272444611482e-06,1.2202825560651117e-06,4.841183958160393e-07,4.5671349903207894e-07,2.004290129868663e-06,6.917561051588496e-07,-9.795005451610655e-07,3.121921164274172e-07,-8.01601342218895e-08,3.121600605515291e-06,-1.0679292222683201e-08,1.817731069423459e-07
-7.872443135009416e-08,2.748598782193671e-07,5.660954114741814e-07,5.443835459184622e-07,-4.625583981099829e-07,5.830623300384939e-07,2.0725893937513896e-06,1.256246408313754e-06,4.860499918016886e-07,5.439712914052383e-07,2.1064076141222677e-06,7.411336305492417e-07,-1.0851339449138563e-06,3.036399786714612e-07,-1.3024444941706528e-08,3.1369588550443148e-06,-2.126098078790965e-09,2.12874372592875e-07
-5.37224646466857e-08,2.924228579067722e-07,5.842782296179518e-07,5.808305541365484e-07,-4.7005967163403623e-07,5.975194958559322e-07,2.0640637588040116e-06,1.2914957117503916e-06,4.909365926683314e-07,6.027946452530474e-07,2.1987699902964795e-06,7.861783197927425e-07,-1.2656119486372218e-06,2.747881527480679e-07,2.8976930461508303e-08,3.0973919752361236e-06,7.053587294152932e-09,2.410577631409469e-07
1.79011951859328e-08,3.012678005197746e-07,6.005912563454086e-07,6.259582033774386e-07,-4.791023526398858e-07,6.209786690986485e-07,2.058820181757544e-06,1.3219489083044437e-06,4.955909316948132e-07,6.037403969518034e-07,2.26395562337854e-06,8.305053656831285e-07,-1.3029208732173688e-06,2.2132936074952007e-07,4.8439311795437806e-08,3.039106651373637e-06,1.5030603121838873e-08,2.5956519619079664e-07
1.226207214405827e-07,3.005282559843003e-07,6.114167182289897e-07,6.74891274976687e-07,-4.870147090689958e-07,6.42867403058485e-07,2.063546686007634e-06,1.3447988412103875e-06,5.037631144028513e-07,5.600138742451882e-07,2.2940074551815963e-06,8.629054693226657e-07,-1.2476828070018363e-06,1.3993769668462817e-07,3.228904872546013e-08,2.989282922477599e-06,2.1055395792076155e-08,2.64725239244904e-07
2.4442497777776176e-07,2.9004778106263806e-07,6.150783630957984e-07,7.209385745191688e-07,-4.946771820520351e-07,6.620129135945136e-07,2.081187161473244e-06,1.3571784732494794e-06,5.179612193031054e-07,5.223025914130287e-07,2.28394434703518e-06,8.689143508436993e-07,-1.1888406604436027e-06,2.849881434254707e-08,-6.993144241982159e-08,2.936358409463696e-06,2.5277561951989665e-08,2.537634758221179e-07
3.6274045595858733e-07,2.7067211161940053e-07,6.119461526112119e-07,7.60235478029187e-07,-5.088687046122954e-07,6.772134279697551e-07,2.1152218325804116e-06,1.3580393333389102e-06,5.393246293281955e-07,5.122814350828041e-07,2.2378211758233015e-06,8.346029910164567e-07,-1.1688953445131724e-06,-1.1118535953467094e-07,-1.8923359775405624e-07,2.9076417654267938e-06,2.856872393256178e-08,2.308650177078236e-07
4.6396706288707736e-07,2.442659093130946e-07,6.045452461666204e-07,7.923822159320686e-07,-5.370096175563874e-07,6.881739281203726e-07,2.1619987848387473e-06,1.3495866532484372e-06,5.723083634084585e-07,4.963869610532898e-07,2.1600529087799506e-06,7.893705959879053e-07,-1.110295050649719e-06,-2.7136219668931514e-07,-3.160670563614519e-07,2.9515265975118957e-06,3.188232988265722e-08,2.0256434682228193e-07
5.37750581111258e-07,2.1585539765005703e-07,5.961604629557694e-07,8.158960180979139e-07,-5.868917449793037e-07,6.94330069982265e-07,2.2046159566039306e-06,1.335087853048365e-06,6.123633703251476e-07,4.015782586296551e-07,2.0632298608455764e-06,7.597548020582429e-07,-1.1432401137269902e-06,-4.382624122717317e-07,-4.468063918838035e-07,3.0493759943627545e-06,3.57580505689327e-08,1.9420111852066995e-07
5.800951525397548e-07,1.906134395347116e-07,5.886653248275471e-07,8.234566638619944e-07,-6.620387548337972e-07,7.02085981994267e-07,2.2171810970071507e-06,1.3199369418320577e-06,6.528076598556304e-07,3.4432016029870755e-07,1.9516735343241877e-06,8.000615227819656e-07,-1.2444312537162452e-06,-5.948612432243139e-07,-5.593055342490339e-07,3.132432105600697e-06,4.0118555481087335e-08,2.1546065126796616e-07
5.855670424082779e-07,1.7345106492686104e-07,5.800708073348563e-07,8.179106954615571e-07,-7.57723187567586e-07,7.212231314021731e-07,2.1919836988300545e-06,1.3106019767917242e-06,6.946548067790675e-07,3.890149345035473e-07,1.8429912101414546e-06,9.191149857521547e-07,-1.2941207945210712e-06,-7.252945927389508e-07,-6.309529452066804e-07,3.1937633495627964e-06,4.432547656614258e-08,2.564387656942014e-07
5.513619489536007e-07,1.7479768982964515e-07,5.64032820001756e-07,8.019090438259993e-07,-8.618993616256237e-07,7.457961711916248e-07,2.0897502091807335e-06,1.3126585608958392e-06,7.169428227893557e-07,4.75161857668621e-07,1.791668427619464e-06,1.0114805262934133e-06,-1.3168652706655496e-06,-8.196022101986429e-07,-6.554710664007823e-07,3.126935982954213e-06,4.773998687332144e-08,3.15633175862203e-07
4.810307602181187e-07,1.9735670753633828e-07,5.329951478740271e-07,7.822449698533629e-07,-9.61003343568404e-07,8.16680949976067e-07,1.9931428191482943e-06,1.330275495087714e-06,6.93899445879629e-07,5.553981164634689e-07,1.8043002244552247e-06,1.0517105006562432e-06,-1.286908047889339e-06,-8.759165971886119e-07,-6.352483045642262e-07,2.8776990801264383e-06,4.962173976291516e-08,3.4266502810359393e-07
3.872301260814155e-07,2.252383387200368e-07,4.834688944314076e-07,7.677448277415832e-07,-1.045610765652548e-06,8.924729034340961e-07,1.9602280538874753e-06,1.3658641689168543e-06,6.88809450697839e-07,6.225314833299658e-07,1.8165157337432791e-06,1.0741527180225919e-06,-1.2791162668490356e-06,-8.981881761713406e-07,-5.808152508347061e-07,2.8131551097305673e-06,5.070086615114463e-08,3.9715649987465723e-07
2.9747184384663806e-07,2.7555191298363925e-07,4.205943280348117e-07,7.61495981145841e-07,-1.1120893579738532e-06,9.538741208762683e-07,1.8051587874625073e-06,1.4209221656358834e-06,6.678597659952071e-07,6.833083002228856e-07,1.8709340832349227e-06,1.096136074946457e-06,-1.2619240226639727e-06,-8.930953028106472e-07,-5.088087150507024e-07,2.788235005690267e-06,5.3855107212609895e-08,4.746616035490603e-07
2.364464910962483e-07,3.3731701931514257e-07,3.5395786611348417e-07,7.539411663067704e-07,-1.1620742577456115e-06,1.036765919558466e-06,1.6005903509894195e-06,1.4870986747984003e-06,5.677116619603983e-07,7.45146607865128e-07,1.948022228129417e-06,1.1640047169350358e-06,-1.2357678859412234e-06,-8.689271053540198e-07,-4.405475657144116e-07,2.685229382078239e-06,6.268407688809379e-08,5.429164386339602e-07
2.0943095070325196e-07,3.8440887304999916e-07,2.9519450431021906e-07,7.207184384132103e-07,-1.200136787475043e-06,1.1054710150595554e-06,1.4966941348079764e-06,1.5608817869005777e-06,4.598936893983519e-07,8.744830822952516e-07,1.9622170251570398e-06,1.2244292429068505e-06,-1.2926000493821082e-06,-8.351698797792883e-07,-3.9158759509937834e-07,2.601335573130252e-06,7.984368456902059e-08,5.751563900306967e-07
2.0048592473951694e-07,3.9758156614171555e-07,2.5459776371141895e-07,6.491829891143775e-07,-1.2237779014454405e-06,1.1012406889272679e-06,1.4600725593537863e-06,1.6361381606617405e-06,3.733274085239845e-07,9.812391195345662e-07,1.818233542639358e-06,1.2403500462631078e-06,-1.361709317969431e-06,-8.010528706807798e-07,-3.762495105768249e-07,2.3702115539550293e-06,1.0525367330433629e-07,5.86667076887735e-07
1.8591015920516588e-07,3.9519683264087803e-07,2.3705125861588828e-07,5.692231122067871e-07,-1.2462953126999207e-06,1.0381083909480497e-06,1.4199933544486824e-06,1.6974590194837294e-06,3.015638601524824e-07,1.0138231440679088e-06,1.6150607312151446e-06,1.2073171156205488e-06,-1.3632734869255257e-06,-7.734477424647399e-07,-3.944003178498028e-07,2.230708383080993e-06,1.3528752728675985e-07,5.967152922323221e-07
1.5427872425247856e-07,3.9289524495160254e-07,2.413007945334061e-07,5.098557168879597e-07,-1.2786264880082074e-06,9.9067445525538e-07,1.3941797880536397e-06,1.7428937598116805e-06,2.4282936425983184e-07,1.0313945013284273e-06,1.5111582271721402e-06,1.2190668180142323e-06,-1.2134176364335995e-06,-7.55107849134398e-07,-4.3412417242758966e-07,2.1892588222375807e-06,1.6358864694531763e-07,6.171131287698966e-07
4.2650516229018645e-08,3.742819831253791e-07,2.5918732155360983e-07,4.400245794275167e-07,-1.3315329906919182e-06,9.60352421152383e-07,1.3307377025850653e-06,1.7743244123499029e-06,1.8947356263919943e-07,1.0543081760508434e-06,1.4467142298852823e-06,1.233001544981034e-06,-1.1063225690138733e-06,-7.435919332015142e-07,-4.830830969215031e-07,2.16900885648316e-06,1.8406413590623953e-07,6.167838444788719e-07
-9.548684743586115e-08,3.3893608598979154e-07,2.806041496344714e-07,3.907483385701819e-07,-1.4178424207573257e-06,9.361580699359594e-07,1.4030728097776585e-06,1.7856970247452352e-06,1.518512435892619e-07,1.0741459196871752e-06,1.3748154484373645e-06,1.2513952984875353e-06,-1.1649119390025746e-06,-7.324402105904596e-07,-5.283338182659162e-07,2.181464922481638e-06,1.9357737754788254e-07,6.164826103100178e-07
-2.3174577818653453e-07,2.939822767013397e-07,2.9607988921112604e-07,3.5330049093661234e-07,-1.5416965832469266e-06,9.300759497104865e-07,1.5021289106404798e-06,1.7858899625193652e-06,1.2827061420085806e-07,1.1198126254215749e-06,1.240631823409681e-06,1.2163418810280435e-06,-1.1972523057533573e-06,-7.14528621510272e-07,-5.617401745796538e-07,2.1532579647180313e-06,1.9255991306151198e-07,5.81129062487633e-07
-3.640612388121291e-07,2.523562029054497e-07,2.999345313611726e-07,2.5499452811205356e-07,-1.7016100139227991e-06,8.826781192593575e-07,1.5501192561476204e-06,1.7739585048483832e-06,1.1753811426611834e-07,1.0744736256437048e-06,1.1490029549375092e-06,1.183730527527082e-06,-1.0611819300826249e-06,-6.84700360309174e-07,-5.798354072103484e-07,2.1151380952197755e-06,1.8399313583079764e-07,5.334322010120574e-07
-5.062009746994009e-07,2.1670815618447104e-07,2.9142172880142247e-07,1.6888518957781447e-07,-1.8872715112617957e-06,7.898463830626494e-07,1.6049148520141304e-06,1.7454059622258786e-06,1.1859616476207795e-07,1.010939371462731e-06,1.0967133838354516e-06,1.135540878518583e-06,-9.626583077370376e-07,-6.413404256257739e-07,-5.827243379978021e-07,2.206979167862905e-06,1.718054194251577e-07,4.845120651962391e-07
-6.355959181565363e-07,1.8814517148413344e-07,2.736309276164587e-07,1.3270270788080922e-07,-2.0835618963086975e-06,7.103384269336804e-07,1.6173917120806165e-06,1.7048200743346762e-06,1.1071369937317708e-07,9.866893055115015e-07,1.1097799051694932e-06,1.104886336739507e-06,-9.662725045201457e-07,-5.868481439189065e-07,-5.704752566153458e-07,2.3541630953168334e-06,1.596345840182254e-07,4.2464370067626565e-07
-7.159815854291742e-07,1.723002274696021e-07,2.5110650945239947e-07,1.0639120915623177e-07,-2.266106658783091e-06,6.956531602527433e-07,1.5868689005033225e-06,1.6708563261261117e-06,9.935483516213652e-08,9.813872117226228e-07,1.1638463267729357e-06,1.1212169181219292e-06,-1.0414750938497956e-06,-5.263353894443396e-07,-5.420017805415551e-07,2.5055355972333396e-06,1.5013518240243167e-07,3.843473187483539e-07
-7.077824686143932e-07,1.6495051074726925e-07,2.2910303106310993e-07,8.253881713489142e-08,-2.4146033286854046e-06,6.546074249113925e-07,1.5334468099020243e-06,1.6416853654478639e-06,8.843999399651467e-08,1.032417716096004e-06,1.1955361016833195e-06,1.050818405556855e-06,-1.101394622463482e-06,-4.6529568031148135e-07,-4.991076393202349e-07,2.6209215045360184e-06,1.4466141952177646e-07,3.6015255104180764e-07
-5.841110114115224e-07,1.6343621524148e-07,2.1218695286066086e-07,9.056975856768955e-08,-2.5197424287291344e-06,6.179539876774363e-07,1.443671975535515e-06,1.6139860255176419e-06,7.574382304789194e-08,1.0795511970883376e-06,1.1522410605417695e-06,1.0058807716954047e-06,-1.1311368985266231e-06,-4.085796246559097e-07,-4.429246068033079e-07,2.6706987627629506e-06,1.430492572194278e-07,3.443813768357935e-07
-3.881528294352909e-07,1.651552150373671e-07,2.013292202615638e-07,5.682313997148581e-08,-2.574036709784915e-06,5.910613944201438e-07,1.3386212965139128e-06,1.5886507339710528e-06,4.557024497317012e-08,1.122812215613589e-06,1.0928117173068226e-06,1.0071785626526806e-06,-1.0493095731672763e-06,-3.6054555592162114e-07,-3.78830266423721e-07,2.6219267940758326e-06,1.4391184456436213e-07,3.4189408334193554e-07
-2.109822332177675e-07,1.6607421626694354e-07,1.9451830498999155e-07,6.702893438135719e-09,-2.5819529365251413e-06,5.865887554535146e-07,1.2226427061831923e-06,1.5474221736946164e-06,-1.1262290388909783e-08,1.146231099503703e-06,1.1099228588697149e-06,9.698919544858336e-07,-7.867044648106018e-07,-3.249393724699211e-07,-3.0712408811294376e-07,2.5398221433938104e-06,1.45666925118712e-07,3.458588478842377e-07
-6.420116349251328e-08,1.6589882558077227e-07,1.8630450819963597e-07,-1.2162957589313066e-08,-2.5534781365932048e-06,5.666873328143845e-07,1.0944115790120834e-06,1.506507572414055e-06,-9.957318868863176e-08,1.1322620664911923e-06,1.1695544464697252e-06,9.617706172896072e-07,-6.883404048823847e-07,-3.048666967414428e-07,-2.2115890226752735e-07,2.4027165463364923e-06,1.4744997889216833e-07,3.567246754327418e-07
5.685008199807376e-08,1.6493517781987693e-07,1.7387296563904598e-07,-1.3515374804464068e-08,-2.4993797275879095e-06,5.030881522891982e-07,9.588687360065716e-07,1.4711372687404017e-06,-2.105346492587413e-07,1.2074197175569101e-06,1.259350777732762e-06,1.0117644750485686e-06,-6.826457864618311e-07,-3.031316995695007e-07,-1.4839948209799664e-07,2.248876583363222e-06,1.4804070555286117e-07,3.7801182526584403e-07
2.1233497826502846e-07,1.6319346485921507e-07,1.506336510998815e-07,1.7001393799780662e-08,-2.452855727488634e-06,4.719350076517024e-07,8.170642828182627e-07,1.4353366094920209e-06,-2.872002965241244e-07,1.2948574172545996e-06,1.3774817656134303e-06,1.0703490561522413e-06,-6.698527460617613e-07,-3.2170076975051075e-07,-6.57442446216874e-08,2.13317966520384e-06,1.4572944405269298e-07,4.107806051627984e-07
3.7360644774645784e-07,1.6065745231608223e-07,1.0954288769494956e-07,7.716905140197891e-08,-2.4255455492030248e-06,4.545594757358882e-07,6.722756586096648e-07,1.3949572737591464e-06,-3.232815859527876e-07,1.377566544872986e-06,1.503519146821877e-06,1.1884481890042217e-06,-7.221106912595744e-07,-3.600816756324976e-07,-2.7281940779688918e-09,1.938882621914307e-06,1.384650484732916e-07,4.543402247672804e-07
5.390882227626787e-07,1.5701579859439888e-07,4.645496051314107e-08,1.3140910571569924e-07,-2.4116300014635818e-06,4.642448543594958e-07,5.293560088445827e-07,1.3535328875035956e-06,-3.4101944506752644e-07,1.5305185768138911e-06,1.6218210213269435e-06,1.298056440978023e-06,-6.694340398951332e-07,-4.154967683247518e-07,2.4521082641143608e-08,1.7202235961661704e-06,1.2365230831726067e-07,5.049404562309315e-07
7.128650873213436e-07,1.5190885507722126e-07,-4.257622603483886e-08,1.8506072713299183e-07,-2.414543733516966e-06,4.924111241541054e-07,3.935836242850408e-07,1.3054324673254997e-06,-3.431869689263808e-07,1.7051699408479677e-06,1.6318352432490627e-06,1.3732622380394447e-06,-5.848491747615903e-07,-4.845267506013455e-07,-2.8806324379366904e-08,1.5941669906810867e-06,9.866884886827162e-08,5.616919957853233e-07
8.038808178726117e-07,1.4551366324902068e-07,-1.5161381349807933e-07,2.4748712590011333e-07,-2.4605961670034923e-06,5.435360726375708e-07,2.715555134721247e-07,1.256991073819228e-06,-4.2220128496576776e-07,1.799411254513988e-06,1.5434776807280045e-06,1.4652082937403554e-06,-6.102309078658057e-07,-5.632681270264936e-07,-1.3401471033558996e-07,1.5532414479700578e-06,6.236242586646311e-08,5.966048661906413e-07
8.044317527790012e-07,1.3916959238997894e-07,-2.674561162274875e-07,2.944886618916529e-07,-2.5338903275349985e-06,5.896176456052751e-07,1.6767841574860036e-07,1.2216854103199412e-06,-5.246416012792974e-07,1.8619662956346711e-06,1.4848523648405703e-06,1.525973516769843e-06,-7.384079858524782e-07,-6.465022070655395e-07,-2.145906378702184e-07,1.495178933993484e-06,1.692860834749258e-08,5.841379858865187e-07
8.771727729852054e-07,1.3544161425537597e-07,-3.5656747938979846e-07,3.2805703543740133e-07,-2.663723972291996e-06,5.814177188237821e-07,8.545847490676115e-08,1.1857578507483576e-06,-5.721950943305541e-07,1.874265303199627e-06,1.4661382001282606e-06,1.5485793749427775e-06,-7.501492033356188e-07,-7.278862558071634e-07,-2.512879221530704e-07,1.3417809751802204e-06,-3.1828889915102667e-08,5.791391679977294e-07
7.972888897661208e-07,1.3718770128724348e-07,-3.844904328368039e-07,3.494152835529687e-07,-2.942206945593318e-06,5.231519932319694e-07,2.41053443614708e-08,1.148447477674157e-06,-5.921187704854829e-07,1.934530195190453e-06,1.5429669737292312e-06,1.6025178159893235e-06,-8.025788634401552e-07,-8.018617366299194e-07,-3.157011024397743e-07,1.0856999006657286e-06,-7.60796852301529e-08,5.628744650585561e-07
6.685125220693738e-07,1.4593749854252103e-07,-3.817983429487852e-07,3.0725647560667844e-07,-3.1107016147747216e-06,4.57014436012498e-07,-1.8809992886960034e-08,1.1108691513476806e-06,-5.986737593037064e-07,2.025068462359849e-06,1.5565018205233339e-06,1.619281518331606e-06,-8.534811280379342e-07,-8.65446132120907e-07,-4.804755807547706e-07,8.667689446509238e-07,-1.0913140985255179e-07,5.424452998210821e-07
6.074068593638346e-07,1.6054408472594776e-07,-3.7560412829332946e-07,2.2768565970965016e-07,-3.2288938651474216e-06,3.9524689806511684e-07,-4.715119094659566e-08,1.0734940745571783e-06,-6.252349615959458e-07,2.0377131614734183e-06,1.54217366467758e-06,1.5591211626087015e-06,-7.9841350896086e-07,-9.199385386918344e-07,-7.068204464277387e-07,7.983828766254379e-07,-1.2854398317167352e-07,5.130932978932403e-07
6.310233654573363e-07,1.7708902528540089e-07,-4.2504919644621966e-07,2.507950406881139e-07,-3.36748748242504e-06,3.552337357222115e-07,-6.743127894104094e-08,1.0387297063592162e-06,-6.504496557765167e-07,2.0895703452954262e-06,1.5165876161692533e-06,1.4736728349439419e-06,-7.726151315077137e-07,-9.702453049859432e-07,-8.977367163885119e-07,7.687226353365965e-07,-1.3708593792975244e-07,4.5746517094249317e-07
6.983316517104905e-07,1.9026639999983487e-07,-3.8122169303687e-07,2.8332255359249253e-07,-3.4748688101906376e-06,3.4845616843726494e-07,-8.71223175175053e-08,1.0079879893146673e-06,-6.546881223528026e-07,2.098855400494943e-06,1.4173952978097963e-06,1.4347581161417288e-06,-7.380105482361542e-07,-1.020322986316596e-06,-1.0845515889981926e-06,8.028342774422481e-07,-1.405544567793782e-07,4.0839291013200033e-07
7.969704894261393e-07,1.9534655175506343e-07,-3.124286609409468e-07,2.9127804168200556e-07,-3.5590996783340247e-06,3.360907742923212e-07,-1.1447404567829424e-07,9.762374200182185e-07,-6.366056291471161e-07,2.089100318169908e-06,1.2833414346975624e-06,1.4028740466102786e-06,-7.184339098444001e-07,-1.069249530792098e-06,-1.2124788760181848e-06,8.262397152307138e-07,-1.4439620049495087e-07,3.460500690106895e-07
8.508514999300518e-07,1.8947797530656403e-07,-2.8343628104924285e-07,2.19859278721102e-07,-3.5936688102895495e-06,3.146240764078744e-07,-1.5461557175897277e-07,9.357001832972183e-07,-5.526775133500042e-07,2.0707100047678203e-06,1.106363043216167e-06,1.3688914211417233e-06,-6.898669725163433e-07,-1.1113531832387743e-06,-1.3115171666223967e-06,7.978012442968008e-07,-1.521412828094958e-07,2.729751088976481e-07
8.456418719603979e-07,1.7201718059466696e-07,-2.585529121616526e-07,1.1867612302044665e-07,-3.630753586882112e-06,2.4468356954614257e-07,-2.0842461411236804e-07,8.792075289787207e-07,-4.840909474898178e-07,2.0288039137475825e-06,9.42179395754914e-07,1.3197327248498283e-06,-7.190430599177853e-07,-1.140181186606345e-06,-1.3884486679746225e-06,6.871815744763976e-07,-1.658365179004671e-07,2.1485961073019197e-07
7.884867341551557e-07,1.4445982864609833e-07,-2.64952663830972e-07,1.9226379040799183e-08,-3.6704869671813655e-06,1.557849423501671e-07,-2.7054089715327073e-07,8.086473812362582e-07,-4.4947991077244975e-07,2.022985117969041e-06,8.716357717649162e-07,1.2515277624292313e-06,-8.59440069913862e-07,-1.1503318709587172e-06,-1.4738539249216872e-06,6.262842094157316e-07,-1.8616556976648048e-07,1.6729709551291696e-07
6.934373753633213e-07,1.1023461625361273e-07,-2.9990401742298474e-07,-7.898732091719413e-08,-3.7659560978730135e-06,9.052007957819524e-08,-3.372839793041793e-07,7.270115917461067e-07,-4.2861919358510386e-07,1.9728349284124975e-06,8.591067753601159e-07,1.178842768757331e-06,-8.859089247367822e-07,-1.140214518820411e-06,-1.530524636787229e-06,6.4447332711125e-07,-2.1223117641943634e-07,1.3518668418068798e-07
5.733551600899819e-07,7.403228299386903e-08,-3.461287702621126e-07,-1.261919227711357e-07,-3.757129274632074e-06,8.503242754870718e-08,-3.987216386769347e-07,6.42706934462207e-07,-4.2741368744204576e-07,1.9044309650916434e-06,8.722351192009826e-07,1.1172558831535747e-06,-9.362039724756734e-07,-1.1130454396402889e-06,-1.5415963112069321e-06,7.692720485028022e-07,-2.4158483439727606e-07,1.1911962588007216e-07
4.3733792511390546e-07,4.0615319606163157e-08,-4.0445970182899515e-07,-1.564721101056115e-07,-3.68984524755574e-06,1.0213085899011726e-07,-4.4607579228482924e-07,5.515095579100823e-07,-4.215656192804772e-07,1.822209050729625e-06,8.116916895097843e-07,1.070497590414398e-06,-1.0317053299637024e-06,-1.0742199661773825e-06,-1.5326312945362243e-06,8.73401396095112e-07,-2.705641843938492e-07,1.1236823978873434e-07
3.0255551459099295e-07,1.3650289986327348e-08,-4.5779904538124885e-07,-1.751860329537847e-07,-3.6699070751157133e-06,1.2033172492651203e-07,-4.746978958279873e-07,4.6870849597968007e-07,-3.872679802854777e-07,1.7224339300376098e-06,7.497107552412332e-07,1.0163636682293903e-06,-1.0378033421369844e-06,-1.0285791458513994e-06,-1.489403815552649e-06,9.270517434323768e-07,-2.950437363305802e-07,1.136921699575762e-07
1.843105848287303e-07,-4.9301946023808484e-09,-5.00612203745453e-07,-1.7755834995646664e-07,-3.6248552398913173e-06,1.5839714525636427e-07,-4.768642405889458e-07,4.1256812494750627e-07,-3.9193357787393243e-07,1.6304380486037842e-06,7.120748167243708e-07,9.860364005746177e-07,-1.0281475448307166e-06,-9.787092405068447e-07,-1.4262886344559564e-06,1.044563359458158e-06,-3.1136503027612987e-07,1.2053125767032148e-07
9.605093016162628e-08,-1.4946137495678418e-08,-5.320077877559732e-07,-1.629960811094258e-07,-3.5738081548156607e-06,1.4722876414868117e-07,-4.506953764821348e-07,3.825036396153166e-07,-4.3883157646885647e-07,1.5423465589221895e-06,7.60707814380048e-07,9.740553306930255e-07,-1.1578761959735184e-06,-9.248927852505644e-07,-1.3542580008973033e-06,1.1348561891386306e-06,-3.1708605015098024e-07,1.295974926097425e-07
4.0775737995576235e-08,-1.751236767762138e-08,-5.509864358109823e-07,-1.309918554238142e-07,-3.5769524609404485e-06,1.1099281162942012e-07,-4.000111652665054e-07,4.063830385646494e-07,-5.25923795013149e-07,1.465279096216835e-06,8.421448674387331e-07,9.693165620039704e-07,-1.2272019728829334e-06,-8.651653037064151e-07,-1.2796373820711773e-06,1.2044329915785534e-06,-3.113529194705086e-07,1.4004518173541807e-07
9.655258158636247e-09,-1.4366734968545654e-08,-5.598030681340102e-07,-8.976751859959714e-08,-3.563992871211246e-06,1.1667254931596503e-07,-3.3124202688301023e-07,4.204695914569055e-07,-5.69312180418929e-07,1.4037989500073033e-06,9.354690653357209e-07,9.778121524291444e-07,-1.2716864932182824e-06,-7.968135123480861e-07,-1.19990910617249e-06,1.286279688538963e-06,-2.950590428867595e-07,1.533457489233501e-07
-8.10952594933516e-09,-7.26850680547074e-09,-5.614111320731783e-07,-4.350066026603658e-08,-3.52472962566155e-06,1.3927484527514362e-07,-2.5229916119732165e-07,4.1165049537191894e-07,-5.725888894369425e-07,1.3933469828398677e-06,1.0560762793074609e-06,9.903455654263573e-07,-1.2596806589038622e-06,-7.185789333672429e-07,-1.13011444203364e-06,1.3583147171932236e-06,-2.7040030539539443e-07,1.7180347926225555e-07
-2.1755562338746156e-08,2.388560165306564e-09,-5.588819700809407e-07,-8.458848239310327e-12,-3.4975117895480103e-06,1.7930611595733593e-07,-1.720418039892297e-07,3.8583676961625734e-07,-5.535861915659718e-07,1.4116311530699145e-06,1.1422563008369701e-06,1.0074243141017373e-06,-1.2501209390693817e-06,-6.319001400794577e-07,-1.0686208962571654e-06,1.446119386267628e-06,-2.401528380674095e-07,1.9677964554813257e-07
-3.459876519517537e-08,1.3728457050658323e-08,-5.545895700546608e-07,4.7801935242727796e-08,-3.3940447406988845e-06,2.3557239398465037e-07,-9.647420108052854e-08,3.8774401265131074e-07,-5.022030541536379e-07,1.4529431213404333e-06,1.2011974060239127e-06,1.0308888419437423e-06,-1.2394324915157202e-06,-5.416427741540609e-07,-1.0053381994913394e-06,1.5557041760132083e-06,-2.0766661016740753e-07,2.2755364392245793e-07
-4.425138134018905e-08,2.6301334448679605e-08,-5.492654345175635e-07,9.941746379729134e-08,-3.2632470982559165e-06,3.0850108286698015e-07,-2.5946951658385046e-08,4.04265701682007e-07,-4.36051148775942e-07,1.512799162187028e-06,1.2520353929891584e-06,1.0639945832674041e-06,-1.2445796989132993e-06,-4.5635886151125473e-07,-9.462013101862338e-07,1.6845227127512138e-06,-1.772067079154381e-07,2.6112593215849815e-07
-4.862088004368719e-08,3.981540410617652e-08,-5.433404441651279e-07,1.5075712325215716e-07,-3.1617276967540425e-06,3.93200375041537e-07,3.4394685221613075e-08,4.3669236770435627e-07,-4.071549869053537e-07,1.5687785958774216e-06,1.2878324540501439e-06,1.0933319313489349e-06,-1.3431112511550038e-06,-3.8679313379811914e-07,-8.940237221798305e-07,1.757683167755432e-06,-1.5294509732242945e-07,2.93146308912983e-07
-4.8257833798123e-08,5.388484860173971e-08,-5.37759205465087e-07,1.9623438819206735e-07,-3.1260419763831478e-06,4.646140428632671e-07,8.100616462731066e-08,4.758433091039693e-07,-3.8383288571199493e-07,1.616681140883382e-06,1.3162403289391075e-06,1.1137616877190813e-06,-1.4336067462036172e-06,-3.426170032880313e-07,-8.557845852087732e-07,1.7783611160252939e-06,-1.3770135927529394e-07,3.1934041426105266e-07
-3.560492403038603e-08,6.7904126782477e-08,-5.336911371439821e-07,2.3269900732692842e-07,-3.096798146657044e-06,5.235616614735738e-07,1.1178583204568355e-07,5.068663548868352e-07,-3.668313096954021e-07,1.649649122684807e-06,1.3342532058526162e-06,1.1233247975965598e-06,-1.4917700055550808e-06,-3.2980048713998116e-07,-8.404940882010748e-07,1.750843868471315e-06,-1.3265195079306958e-07,3.364557152575246e-07
-2.900224938248796e-08,8.102103691849644e-08,-5.329445862852993e-07,2.598207218005933e-07,-3.021021682475281e-06,5.627801317432712e-07,1.2464632368554034e-07,5.109230937241226e-07,-3.6382069509510943e-07,1.6638319650343487e-06,1.3370715794986208e-06,1.1174731717278563e-06,-1.5121613066782923e-06,-3.4986364758455065e-07,-8.518176416561236e-07,1.6880062190594797e-06,-1.3739533919892752e-07,3.4282347750680116e-07
-1.587285597414128e-08,9.223438230294422e-08,-5.368394306460204e-07,2.7736635569516054e-07,-3.0105614280492625e-06,5.848832709483872e-07,1.2310538997189968e-07,4.959982343785601e-07,-3.5878152215131476e-07,1.6530559518530315e-06,1.3258895125197516e-06,1.0986938165615085e-06,-1.4784266076157984e-06,-3.9911539188040705e-07,-8.890241291063512e-07,1.6047703380437036e-06,-1.50221525809208e-07,3.38936443683729e-07
-1.491984371686658e-08,1.0066952033703214e-07,-5.449101737485976e-07,2.873375011428271e-07,-2.9858697037899336e-06,5.982914221501109e-07,1.1210145418408221e-07,4.911743786372616e-07,-3.5013532118133816e-07,1.6282017294138342e-06,1.3039923064535459e-06,1.0696071401698576e-06,-1.430637726509422e-06,-4.69189377494292e-07,-9.468254336870712e-07,1.4932515070893926e-06,-1.6860841177830674e-07,3.2744803634602514e-07
-2.4322155763644596e-08,1.0590045038279884e-07,-5.545188332050662e-07,2.917920405055599e-07,-2.852103124189843e-06,6.091025536324491e-07,9.855503902940756e-08,4.824820145626656e-07,-3.535519543065739e-07,1.5966574392538687e-06,1.274560917759401e-06,1.0334340461604994e-06,-1.4114985933036105e-06,-5.495636690601508e-07,-1.0166530777604508e-06,1.3823130442583105e-06,-1.9026670744808894e-07,3.120259089246723e-07
-2.823550793698843e-08,1.0811514856787e-07,-5.625599662945483e-07,2.934754360474088e-07,-2.7595783687207387e-06,6.049994077167974e-07,8.891675840641575e-08,4.773405154665348e-07,-3.6528353115408143e-07,1.562421455776985e-06,1.2420030065535998e-06,9.943559844813457e-07,-1.4096336346229902e-06,-6.294022624577876e-07,-1.088995594563586e-06,1.2533925297151055e-06,-2.138832043286377e-07,2.962399715838065e-07
-2.70611735995818e-08,1.0807141220840403e-07,-5.660570860234674e-07,2.952489228558729e-07,-2.616289192320938e-06,5.919356665265616e-07,8.708886203415334e-08,4.793154183076977e-07,-3.70873722699048e-07,1.5337889023643629e-06,1.2142925986387596e-06,9.566852127557628e-07,-1.3960423431811888e-06,-6.983517399726474e-07,-1.1543391987322155e-06,1.142655792182438e-06,-2.3910533004666297e-07,2.819096052781151e-07
-1.204853606676392e-08,1.0687080692747771e-07,-5.630216599453676e-07,3.0045677824535087e-07,-2.4809846552567674e-06,5.76042970074611e-07,9.45476963643829e-08,4.85867974947596e-07,-3.738281385495156e-07,1.5103792791590214e-06,1.1971312839658306e-06,9.242921018124248e-07,-1.3892483556418173e-06,-7.479748199246189e-07,-1.2052222313873943e-06,1.0687001880155099e-06,-2.664166321574447e-07,2.711234279343801e-07
1.6716621119546344e-08,1.0560120135060815e-07,-5.51446936858324e-07,3.117364478665205e-07,-2.395954576971371e-06,5.597420523613593e-07,1.0725921106997929e-07,5.028858333349684e-07,-3.675533169082593e-07,1.4946069113759922e-06,1.1946987614864356e-06,9.000498389029069e-07,-1.3621620110314306e-06,-7.734752926548219e-07,-1.2377856920019994e-06,1.022596824328667e-06,-2.967103455648671e-07,2.658869149151649e-07
6.00753834959753e-08,1.0500493873715769e-07,-5.350107217972526e-07,3.302439847042959e-07,-2.3204938052867557e-06,5.494500367534943e-07,1.235251475862187e-07,5.284308605858604e-07,-3.475881724420424e-07,1.4887009595385537e-06,1.2127951799461032e-06,8.84803643389774e-07,-1.3179991554315617e-06,-7.741505667132472e-07,-1.2517714883841448e-06,1.0018708107790703e-06,-3.301190905856781e-07,2.65688277155075e-07
1.107493995248843e-07,1.0533289071894061e-07,-5.135528902998925e-07,3.563789586088525e-07,-2.304661521497878e-06,5.460589882409029e-07,1.4124672763297683e-07,5.595882820866023e-07,-3.2098102271815303e-07,1.4919121802750638e-06,1.2488168803808769e-06,8.772284952917257e-07,-1.2657334545671167e-06,-7.53349493113741e-07,-1.2502079808336698e-06,9.950877878256965e-07,-3.647954941024932e-07,2.700847798544024e-07
1.6991720568935374e-07,1.0638320094280813e-07,-4.886096866098676e-07,3.881539518889149e-07,-2.2625925653583565e-06,5.477273191785818e-07,1.588001236695212e-07,5.89745450233735e-07,-2.910065505076212e-07,1.5021279992831799e-06,1.2963419961753386e-06,8.736983327773596e-07,-1.1974947750905645e-06,-7.184081486980279e-07,-1.2380841105720818e-06,9.977182508162142e-07,-3.9700577305561205e-07,2.785009361041971e-07
2.3248761569170528e-07,1.0767151184394331e-07,-4.6241262062943283e-07,4.2332974961218344e-07,-2.1865060812274547e-06,5.501112957106289e-07,1.7660661847326717e-07,6.230382584568596e-07,-2.460578309236518e-07,1.5155900700248173e-06,1.3439284155711944e-06,8.691746683632249e-07,-1.1408064248878014e-06,-6.787752504922381e-07,-1.2207763908495649e-06,1.002522611634282e-06,-4.223878655533295e-07,2.900857747101237e-07
2.9127308358281844e-07,1.0872639173571722e-07,-4.3436139796783945e-07,4.585323767286231e-07,-2.153471166397388e-06,5.544385584871998e-07,1.9409605247911354e-07,6.580544863308115e-07,-1.8076041631180449e-07,1.5268530620057767e-06,1.3618927147536582e-06,8.593850281025812e-07,-1.0702170178771212e-06,-6.427023548876616e-07,-1.202323300302349e-06,1.0174776233048682e-06,-4.3734062207411195e-07,3.045193961417757e-07
3.4790831457690564e-07,1.0939157489707929e-07,-4.048928018473702e-07,4.90081031725858e-07,-2.1318556635052413e-06,5.571561684064555e-07,2.1278533414606358e-07,6.911679879189688e-07,-9.896707808714008e-08,1.5315278023852813e-06,1.3763492049604213e-06,8.421021732018799e-07,-9.996051788025056e-07,-6.15268696341619e-07,-1.1848434082600446e-06,1.0430670235485192e-06,-4.4003539192417586e-07,3.2096512844813904e-07
3.9659258735218756e-07,1.0990669794375157e-07,-3.7634835876324596e-07,5.168244286643914e-07,-2.128780834689376e-06,5.553292108075365e-07,2.3379241964999224e-07,7.162670118924582e-07,-4.0380404605003e-08,1.5280646299183965e-06,1.3868025333449878e-06,8.168484137486117e-07,-9.415620965960587e-07,-5.986574032228015e-07,-1.1692775600696383e-06,1.078272934616387e-06,-4.301948883447864e-07,3.3660294133762157e-07
4.330550965610453e-07,1.106980005199298e-07,-3.4901501384116634e-07,5.37975839669353e-07,-2.1372201143176725e-06,5.466771758911958e-07,2.5847020818071106e-07,7.343553363701522e-07,-3.841233035456944e-09,1.5147541972689927e-06,1.3886757715507493e-06,7.84988233516355e-07,-8.840003283450507e-07,-5.926593674337166e-07,-1.1560937522362896e-06,1.12603275241701e-06,-4.081140440099663e-07,3.4725330040339637e-07
4.60734727027638e-07,1.1200694356864265e-07,-3.217416720855921e-07,5.533562205865583e-07,-2.144923301584693e-06,5.333387846593089e-07,2.874956140113411e-07,7.567137484914958e-07,8.49664297057376e-09,1.4900961986536883e-06,1.3548112291607517e-06,7.495936451353645e-07,-8.656652187998549e-07,-5.951235484345263e-07,-1.146218763859979e-06,1.1772097423369782e-06,-3.744756244914118e-07,3.4755332153919506e-07
4.629301251851624e-07,1.1348855541333668e-07,-2.943337092463997e-07,5.633610124160916e-07,-2.080287331341319e-06,5.164819309723658e-07,3.234141884738379e-07,7.816618578932882e-07,2.7268628862101403e-08,1.4515973769577152e-06,1.2801063088672146e-06,7.135211464261191e-07,-8.779228335078134e-07,-6.083514200228298e-07,-1.1420186399847876e-06,1.230866345672588e-06,-3.3122051566928545e-07,3.344908605818803e-07
4.768608403537147e-07,1.1390340841132936e-07,-2.6454580558830266e-07,5.679785919015293e-07,-1.9854074656570387e-06,4.978136763440883e-07,3.6809832384856277e-07,8.010103807170193e-07,8.019285099719822e-08,1.3928878071323266e-06,1.1647193359221864e-06,6.782329221389509e-07,-9.171417244692061e-07,-6.353286031291361e-07,-1.1472507822917997e-06,1.2865873056349254e-06,-2.8172677685704374e-07,3.061213194805345e-07
5.26350511308424e-07,1.1108604450363628e-07,-2.32048320376074e-07,5.665374412576877e-07,-1.925766834479432e-06,4.806326302359943e-07,4.2296596212410393e-07,7.995056516190589e-07,1.6193940771750996e-07,1.3097101520619502e-06,9.704649401160195e-07,6.437297579437264e-07,-1.0125791614359039e-06,-6.790087885822791e-07,-1.1651143869245834e-06,1.3345445192760679e-06,-2.2975800283005948e-07,2.6165894658084e-07
6.228218961809563e-07,1.0230796092933929e-07,-1.924198674071379e-07,5.588701930349569e-07,-1.8805657677974924e-06,4.6596530904971497e-07,4.883853108753956e-07,7.757887226428149e-07,2.7077381244258064e-07,1.2005104112054808e-06,8.459683525667923e-07,6.088782621558844e-07,-1.2194484063822378e-06,-7.415257829424821e-07,-1.1963496653478152e-06,1.3804416588040846e-06,-1.7848499923951076e-07,2.038699467323108e-07
7.729802990222357e-07,8.499886668102285e-08,-1.4339520065870256e-07,5.461198643323636e-07,-1.872248857682072e-06,4.5729615617743766e-07,5.606659142716181e-07,7.30089212899443e-07,3.6260492800552066e-07,1.059309641837458e-06,7.77507573088756e-07,5.717535161873242e-07,-1.5062944352565008e-06,-8.204886677949791e-07,-1.2382251443077118e-06,1.4229354836495028e-06,-1.302362240867682e-07,1.4433351901309135e-07
9.929505027817605e-07,5.769685069777095e-08,-8.445386593672975e-08,5.291216358044115e-07,-1.8996901990300122e-06,4.5860962448809624e-07,6.323878321441896e-07,6.797840424374603e-07,4.3614917337320204e-07,9.147486255311417e-07,7.483949877061882e-07,5.30508479665002e-07,-1.8424265676934359e-06,-9.107383991565311e-07,-1.2839939794786863e-06,1.4611552146682252e-06,-8.646254673355924e-08,8.338277017347796e-08
1.2267377340290972e-06,2.0957718064725206e-08,-1.6850729614199253e-08,5.143477565332817e-07,-1.9412124886237666e-06,4.6943276277992475e-07,6.944414515001364e-07,6.968770081079627e-07,4.937133949444498e-07,7.706936386518587e-07,5.717511808702587e-07,4.842254431164008e-07,-2.1893795804652424e-06,-1.004170268564287e-06,-1.3238260767695532e-06,1.5091826974149423e-06,-4.780038410494898e-08,1.6285501474242518e-08
1.5010478148949173e-06,-2.228879866592314e-08,5.612805405390925e-08,5.062303741870746e-07,-1.9929336255601856e-06,4.92822197957757e-07,7.37485239541663e-07,6.817081757551387e-07,5.276058111347579e-07,6.277998571450224e-07,3.3404473190399967e-07,4.329478607095271e-07,-2.45590945705025e-06,-1.0972462926251034e-06,-1.3474074506807396e-06,1.5778232412942498e-06,-1.4487109948134682e-08,-3.0625249670344165e-08
1.7746987611808074e-06,-6.729160733118277e-08,1.2816751178081523e-07,5.081715812544838e-07,-2.0631909701936437e-06,5.158588712720876e-07,7.552930744852037e-07,6.20119211664535e-07,6.074853913647476e-07,4.969899335399636e-07,1.9895042763765242e-07,3.774937553408274e-07,-2.6091507688257484e-06,-1.1736685396150831e-06,-1.3475126713482713e-06,1.673752438384006e-06,1.3742840906397881e-08,-5.2546961938929515e-08
2.018947639128319e-06,-1.0885636642173519e-07,1.9444813854744345e-07,5.224035852776331e-07,-2.126057763302673e-06,5.322186640833028e-07,7.476164498583529e-07,5.63251489501447e-07,6.828326773385054e-07,3.972896167922189e-07,1.0305683914602461e-07,3.2047935634855206e-07,-2.570747917383972e-06,-1.231355228302397e-06,-1.3212214434758493e-06,1.7985493831635046e-06,3.8761726250730605e-08,-3.644832292661754e-08
2.2000021278346335e-06,-1.42908477468672e-07,2.516752541040764e-07,5.410783280147485e-07,-2.184545022015877e-06,5.429308812883563e-07,7.202374293084484e-07,5.189349981498683e-07,7.215906759986214e-07,3.230613715859127e-07,5.749125488714283e-08,2.676209466362829e-07,-2.507941304608852e-06,-1.2125826032424e-06,-1.2693800427124986e-06,1.9493335568790147e-06,6.43832693015243e-08,1.7481725806403972e-08
2.2777682874439963e-06,-1.6752949639468775e-07,2.970682933262259e-07,5.687323408000947e-07,-2.2236475860600646e-06,5.582523703212663e-07,6.81669696196743e-07,5.090044838543498e-07,7.405201511696436e-07,3.021000308553331e-07,2.301525015777723e-08,2.2713448257529382e-07,-2.492817292661566e-06,-1.1056975051645622e-06,-1.1959916014514012e-06,2.1026624580716854e-06,9.499871203630024e-08,2.5711131295544615e-08
2.23159479711875e-06,-1.8318268421949294e-07,3.3305669165725056e-07,6.127272647611957e-07,-2.226877213728647e-06,5.833370129684098e-07,6.447598749360835e-07,5.302816520248146e-07,7.526071561391664e-07,3.7125589493724284e-07,4.373052525027323e-09,2.0761314900033085e-07,-2.5344535903644406e-06,-1.0041351167104971e-06,-1.1074549926290903e-06,2.2392233890849266e-06,1.3310922990328797e-07,-1.1260878929749743e-08
2.089029199450538e-06,-1.921787165471119e-07,3.638506212806335e-07,6.72579627251167e-07,-2.2005760946591585e-06,6.043432471874255e-07,6.20041740172153e-07,5.367000700220919e-07,7.67088203167795e-07,3.599116379079156e-07,4.778397098675217e-08,2.166630173587001e-07,-2.607372622179648e-06,-8.943376586892407e-07,-1.0118265908405e-06,2.3604367540389047e-06,1.778914075277682e-07,-2.6291414313507395e-08
2.0583403460001913e-06,-1.9769023033478141e-07,3.927076593926913e-07,7.191098846598705e-07,-2.148300606187242e-06,6.377125552612707e-07,6.13428899983357e-07,5.527003709296276e-07,7.897276811399494e-07,3.227565820187416e-07,1.2576528415519379e-07,2.5311689201695414e-07,-2.5908275106628802e-06,-7.627054105868516e-07,-9.186123670120906e-07,2.4110199106144977e-06,2.2479392037731222e-07,-1.0323341616882593e-08
2.0981454865899723e-06,-2.0264066372060146e-07,4.217454781282738e-07,7.091371091245207e-07,-2.082515909153606e-06,5.836647531433937e-07,6.262717668745748e-07,5.722266554135657e-07,8.368484812417342e-07,2.708297851947499e-07,2.1366252493878045e-07,3.0574950495449125e-07,-2.466040528086226e-06,-6.517049218364376e-07,-8.385835863780596e-07,2.4025366329277986e-06,2.662644676135584e-07,4.7460321557723884e-08
2.139665803519767e-06,-2.088516841284502e-07,4.50039003365941e-07,6.425309998169049e-07,-2.0461080043256194e-06,4.814132831523014e-07,6.520143392599568e-07,5.84073995574773e-07,8.904269770937424e-07,2.50130872621209e-07,2.1839404314523893e-07,3.5697766343470165e-07,-2.28014021681231e-06,-5.404186861694021e-07,-7.815500214271404e-07,2.3741326903128373e-06,2.9438287934880317e-07,1.1492784627280317e-07
2.2790558627649183e-06,-2.167220833922674e-07,4.7261133289264584e-07,5.493282553911288e-07,-2.045404330557732e-06,4.078407743554655e-07,6.796628185502589e-07,6.250167159924062e-07,9.353253353859357e-07,3.1624498413189553e-07,2.560369030069668e-07,3.5813601306949195e-07,-2.0726056528993195e-06,-4.624262918160669e-07,-7.528270357687626e-07,2.2126356964216713e-06,3.045981704874426e-07,1.499641976667772e-07
2.315115977694076e-06,-2.2553233172372763e-07,4.838867345671026e-07,4.979359024163566e-07,-2.083412169909611e-06,3.611532279169768e-07,6.975096129723567e-07,6.58419975358931e-07,9.786327229979117e-07,4.298582884646726e-07,2.797009173205649e-07,3.1880513425250466e-07,-1.8687519716981493e-06,-4.585242797603742e-07,-7.512421064381936e-07,1.9971771189812025e-06,2.980154418730217e-07,1.776514348322228e-07
2.3248143808524347e-06,-2.3462379396371254e-07,4.77261474626891e-07,4.673182592800598e-07,-2.1640570814194653e-06,3.3262037598219294e-07,6.953957481336959e-07,6.644297702551497e-07,9.989875101796327e-07,4.804244110868517e-07,2.7763516781976456e-07,2.732603849071414e-07,-1.8192421355392266e-06,-4.924129805159214e-07,-7.698435310687804e-07,1.8431306979399595e-06,2.8096193084393726e-07,1.7242550398718038e-07
2.201978027874422e-06,-2.431182770611096e-07,4.5031568254869876e-07,4.184956554823819e-07,-2.272513103511318e-06,2.9127459592175426e-07,6.691964128744457e-07,6.901078492218838e-07,9.597339944659435e-07,4.952831409324564e-07,2.4263679755140927e-07,2.269564854543163e-07,-1.893313683625156e-06,-5.334110579740043e-07,-7.988499426790093e-07,1.7174014847774729e-06,2.630686573837717e-07,2.1010481875987454e-07
2.0588827990671543e-06,-2.5043113664140494e-07,4.0543410521272e-07,3.3913048023056956e-07,-2.3963977335600427e-06,2.323036863366794e-07,6.202567790862152e-07,7.012986732195733e-07,9.151739017821607e-07,5.029643270410848e-07,1.5490836796302665e-07,1.1108206716113832e-07,-2.0271638020310713e-06,-5.752525632539627e-07,-8.296970687275768e-07,1.6550320594495144e-06,2.543229258825942e-07,2.601939108418818e-07
1.834731977723192e-06,-2.5623580715713267e-07,3.474574574379137e-07,2.218353689501172e-07,-2.5184405958333045e-06,1.1543787058119942e-07,5.558694749029776e-07,7.056787576539994e-07,8.972730787975725e-07,4.961416943750912e-07,5.019430770344208e-08,-1.8964889693428028e-08,-2.174491007696241e-06,-6.25285803765951e-07,-8.58795763016981e-07,1.6287586222368588e-06,2.616145245229878e-07,2.33255086506154e-07
