0,1,2,3,4,5,6,7,8,9,10,11,12,13,14,15,16,17
-3.4597346755428835e-08,8.637958679779534e-08,7.52813826169291e-08,2.1349859230116069e-07,4.0609996042625914e-07,-5.648768892871272e-07,-1.1697598645629604e-06,-3.5565347392379016e-08,2.3397618978751223e-07,1.4353471093609497e-07,3.866750422597019e-08,-3.6919560264640444e-08,1.475296327034331e-07,4.1089971903732995e-07,7.400793149456001e-07,1.9926489633112304e-07,2.3880067030375135e-08,8.802575145265141e-07
1.5931726447700772e-08,1.8129808143482308e-07,5.6492641666932775e-08,1.850085069595351e-07,4.1925966896995376e-07,-5.453100790321781e-07,-1.2328411878701594e-06,-5.5032073217514765e-09,2.006941471700652e-07,1.8704295624784188e-07,1.2046404561007216e-07,-5.4280103299587914e-08,1.6993562875354075e-07,3.670266252613586e-07,6.594534511296058e-07,3.145522902937496e-07,-1.2434308752359674e-08,6.574389027260355e-07
7.52161701372775e-08,2.461937005586052e-07,3.9091285648011986e-08,1.5938318157654948e-07,3.803960738693438e-07,-4.82852172051464e-07,-1.2071380270059697e-06,2.6562221471881583e-08,1.651817507337325e-07,1.4948405981716677e-07,1.2513803120568107e-07,-9.538059520017844e-08,1.1015675582582214e-07,2.882798402060138e-07,5.313059539609167e-07,2.7269156260788467e-07,-2.4322924242051167e-08,4.854254129260248e-07
6.464690666780807e-08,2.2053491241943024e-07,1.7826573960839663e-08,1.4294097514172272e-07,2.5430971623813763e-07,-3.8733696778265144e-07,-1.0059460545794364e-06,2.006422858691259e-08,1.2615922651972947e-07,1.3417610348249278e-07,6.788954579667673e-08,-6.780110777376704e-08,3.988365307973473e-08,2.4342678423885465e-07,2.7383921280267274e-07,8.806020387589708e-08,-9.768113743441822e-09,2.8519638752408296e-07
4.163297999403577e-08,1.8935960016336028e-07,-4.958695462031317e-09,1.1301947299578636e-07,1.6290886029808433e-07,-3.284071592823803e-07,-8.553747581053154e-07,-2.9155409937347412e-08,8.250200726681742e-08,1.470807714714029e-07,3.49072370997561e-08,-6.838729564059453e-08,-3.671463969469763e-08,1.9340338109708875e-07,-4.6173959009757565e-08,-1.1096000457779849e-07,7.757387791702064e-09,1.4736288365758915e-07
3.118855960727171e-08,1.752033739186431e-07,-3.2683688336054535e-08,5.3729403008165024e-08,1.0307310551931688e-07,-2.925100729800928e-07,-7.067673485979149e-07,-8.137626078634128e-08,3.4166425104319674e-08,1.4191379547798242e-07,-1.7207840331708987e-08,-6.818115611167058e-08,-7.094713460630112e-08,1.4404393183110074e-07,-3.5104151059002083e-07,-2.2181463402454794e-07,-3.851640182136385e-08,7.606234283418005e-08
4.16653440192497e-08,1.5962013380526575e-07,-6.32264985377761e-08,-2.594449399183892e-08,-1.6142249891501955e-09,-2.795928818515159e-07,-5.589202829153612e-07,-1.0485581067640393e-07,-1.667064896845901e-08,1.3980635065952788e-07,-3.9011445046630306e-08,-3.57748508973003e-08,-6.577662076334849e-08,1.353985370656323e-08,-4.488582970859778e-07,-4.754454136395531e-08,-1.1531671364202592e-07,6.061417328380554e-08
3.0692502078178695e-08,9.06076786260441e-08,-8.296940094071686e-08,-1.1251197626911212e-07,-1.1609393401888683e-07,-2.5913023335441517e-07,-1.5036925234308622e-07,-1.2311028455926046e-07,-6.51747914689868e-08,3.277326728238664e-08,-2.3453329422448015e-08,5.269651747612305e-08,-5.273550788172963e-08,-8.574514608410662e-08,-4.1284745193730534e-07,7.399422099363344e-08,-7.107331370152297e-08,-3.204343248155186e-08
-3.264200295150728e-08,-1.7392700285158114e-08,-8.64206477365434e-08,-1.7040685445524132e-07,-1.9325933497462336e-07,-1.391766042211201e-07,3.273080519791608e-07,-1.0449650252428865e-07,-1.0511389048059198e-07,-3.315432455452628e-08,-2.535373924671212e-08,1.145613586066424e-07,-5.442095512623412e-08,-1.04691737847681e-07,-4.074234834034439e-07,5.3524080576955747e-08,-4.92246425393456e-08,-1.4475905703138204e-07
-6.02159593329975e-08,-6.807624337765106e-08,-7.947927928456554e-08,-2.0191248372284838e-07,-2.1551320051799862e-07,1.2741231378772976e-08,6.40011537474469e-07,-4.879932722197076e-08,-1.3109582676917784e-07,-3.567486342436013e-08,-2.61029549956512e-08,1.0783462207364789e-07,-3.05808384130765e-08,-1.3701891245466507e-07,-4.2431374357309994e-07,8.062199637387852e-08,-5.948371299344494e-08,-1.9468779463642328e-07
-8.362365927427466e-08,-6.927248210317056e-08,-6.638669864625039e-08,-1.9766045348881555e-07,-2.1985940250502345e-07,1.860105310218744e-07,9.626747010193942e-07,-2.052526480863039e-10,-1.4021077596252638e-07,-6.940073644126694e-08,-2.1621826047907877e-08,1.2454067582820477e-07,-1.5465242087579413e-10,-1.854440634722283e-07,-4.24316962791622e-07,-4.12089859486587e-08,-6.972851958225146e-08,-2.947705046200191e-07
-6.663959038810898e-08,-9.662177722598835e-08,-4.103073594045243e-08,-1.3308961777800058e-07,-2.2918710063584563e-07,3.9641471522962665e-07,1.1385649866226088e-06,6.270517082647224e-08,-1.325093933903756e-07,-1.0232822262665059e-07,-1.2291298174174389e-08,9.986039291546536e-08,2.1678056266887226e-08,-2.2908808486848864e-07,-3.267469536560821e-07,-1.1014960576833116e-07,-7.589407288339467e-08,-3.775671889201196e-07
-2.8823624640031416e-08,-2.113693407354325e-07,-2.1740298192411373e-09,-8.476875512918784e-08,-2.3690607586509283e-07,5.875363551466438e-07,1.1821989909077184e-06,1.1767074105930354e-07,-1.1071892339374841e-07,-1.6449200232155178e-07,2.0928696467302145e-09,4.816346839013179e-08,2.500717865588701e-08,-2.624564645233546e-07,-5.832986566292161e-08,-1.596333016993516e-07,3.774938467250866e-08,-3.816376033628253e-07
-2.7838039517702722e-09,-2.752725666952975e-07,4.386421313751549e-08,-2.7051464980639726e-08,-2.1543818577868857e-07,6.30977736225213e-07,9.996815298310712e-07,1.0873831846249586e-07,-7.974033983115249e-08,-1.959267178238246e-07,-9.244656087482884e-09,-1.4058892280821663e-08,-2.0935977217259232e-08,-2.275344778287705e-07,1.4452082034755433e-07,-1.4601071602160302e-07,1.0407991625317855e-07,-4.404038874774359e-07
-6.895142842319893e-09,-2.994496800960576e-07,9.55642585796189e-08,2.120242790124477e-08,-1.640773502503391e-07,6.777871771832213e-07,8.263449529904824e-07,8.784898585161281e-08,-4.589560863405436e-08,-2.27982506873993e-07,-6.267889211511954e-08,-4.524106818649962e-08,-7.869798169078371e-08,-2.0639791552224478e-07,2.3352665949157748e-07,-1.2501866605177258e-07,1.6229230092958365e-07,-3.412953544507972e-07
1.5246941184919788e-08,-3.117422772052082e-07,1.31209319093784e-07,6.45635399315218e-08,-1.3409857578544696e-07,7.877253136575944e-07,8.10332025155298e-07,1.0947773680915288e-07,-1.554954768310338e-08,-2.4685264130872293e-07,-1.5219325211704776e-07,-6.163240563515368e-08,-1.0322659747099971e-07,-2.2224333277677016e-07,3.17326815032304e-07,-1.20368795597105e-07,1.9000366722385444e-07,-3.851927944976802e-07
1.1057460634914407e-07,-3.154391014617514e-07,1.4977081935129887e-07,9.287653938740758e-08,-1.2022953727067676e-07,8.713518473028265e-07,8.668123343979639e-07,1.5218377290069037e-07,6.449306030317564e-09,-2.6634181429049265e-07,-2.0977805477070098e-07,-8.919727704970188e-08,-9.016202900763802e-08,-2.315523413828016e-07,3.404910456584508e-07,-1.8228153324517894e-07,1.454367695066644e-07,-4.0623528031724697e-07
2.161122885439738e-07,-3.1757213227019065e-07,1.761047598757426e-07,1.0910444859002365e-07,-1.128930779362533e-07,9.748485011586523e-07,9.639871213657418e-07,1.9853202791797504e-07,1.7689373609764828e-08,-2.6705839174279527e-07,-2.429578660311023e-07,-1.1003160632384186e-07,-8.441250633216475e-08,-2.4321555319503653e-07,1.210426277131214e-07,-3.567472451440808e-07,1.5421192810834442e-07,-4.747941998457729e-07
2.75216915257001e-07,-2.717535902929797e-07,2.446277159163934e-07,1.4189511239485735e-07,-9.665087330704891e-08,1.0649106780772733e-06,1.0709031494394763e-06,2.7817143713962023e-07,1.8399645926148513e-08,-2.4538372502794907e-07,-3.1263642476871773e-07,-1.1781645139633542e-07,-9.264203300931003e-08,-3.0224829118375304e-07,-1.9099089717061792e-07,-3.990573882458595e-07,1.37761813831221e-07,-6.337953098559149e-07
3.083327596513332e-07,-2.0830148843414767e-07,3.428430802103023e-07,2.01634982895109e-07,-8.815352873359077e-08,1.1152607166455852e-06,1.1777583304623493e-06,4.077873575081007e-07,1.0975608130799528e-08,-2.046927983343068e-07,-3.1616972878762335e-07,-1.2008977681974143e-07,-7.912431814200944e-08,-3.799449259903308e-07,-4.207597538738201e-07,-4.6720366682891694e-07,9.905670830146274e-08,-6.983073448261101e-07
2.9376141854789083e-07,-1.3746337012060718e-07,4.439983660953872e-07,2.7560192643850414e-07,-1.2578417102852176e-07,1.1441693837957646e-06,1.2757782961999728e-06,5.043639355549738e-07,-1.100328418499023e-09,-1.3298307367154248e-07,-2.4379345140748877e-07,-1.1157822051693584e-07,-8.556151182118479e-08,-4.3193646504851427e-07,-4.987369577147284e-07,-3.639946646629917e-07,5.39869772696916e-08,-6.958756952111149e-07
2.529331230260696e-07,-7.89178037628168e-08,5.147177008575758e-07,3.5866084628906054e-07,-9.66056631525824e-08,1.1267185021262699e-06,1.3453320689174463e-06,5.289884289873959e-07,-1.4175534345455384e-08,-5.093548937727652e-08,-1.5584170302235578e-07,-8.175799847380006e-08,-9.608980098538421e-08,-4.699031170007241e-07,-3.853323854663075e-07,-4.1083867156905255e-07,-2.492207207829844e-08,-6.886307425542518e-07
2.3111842759632976e-07,-5.8265549276882794e-08,5.384149852407283e-07,4.0859558985108206e-07,-2.0872529599007423e-08,1.0716902152461082e-06,1.3743354664160158e-06,5.247388618414202e-07,-2.4785189071707497e-08,-3.0778690357847466e-08,-8.724842246582946e-08,-4.754254857182786e-08,-1.1432500005963214e-07,-5.053815053936247e-07,-2.429243731988222e-07,-4.985373633184019e-07,-1.0606305973186851e-07,-5.419315813243335e-07
2.2364749870179612e-07,-7.403106462872596e-08,5.472391232854928e-07,4.417315007673584e-07,3.381614433295823e-08,9.988358318703227e-07,1.3522888377107456e-06,5.252952686140045e-07,-2.9958172593351686e-08,-4.433787104255916e-08,-9.229764698138136e-09,5.547807901423347e-09,-1.6561894111926843e-07,-5.462092596217693e-07,-1.3020401540881462e-07,-4.5150122325036486e-07,-1.5850614144083045e-07,-5.249882620448415e-07
1.6146133907890716e-07,-1.1620776350032748e-07,5.838669522029964e-07,4.812403805022926e-07,5.852332644922479e-08,9.316537153967414e-07,1.2808353511087329e-06,5.239765906252678e-07,-2.765556773279815e-08,-5.0698018285697127e-08,5.8468553014341656e-08,1.203948176829007e-07,-2.2203212044885006e-07,-5.916503411392703e-07,-9.890180822785251e-08,-4.463850176884216e-07,-1.635828349781924e-07,-5.233175818344323e-07
5.7712945368982105e-08,-1.2653242774710992e-07,6.277428525387116e-07,5.259756277153206e-07,9.498856475652082e-08,8.79991506693616e-07,1.1730730468268224e-06,5.097379708446429e-07,-1.7608823459282892e-08,-8.786566603702826e-09,1.1307402985817349e-07,2.4927537991188776e-07,-2.313730727586699e-07,-6.459724263076194e-07,6.78969876442054e-09,-1.999262015416683e-07,-1.2911767346933948e-07,-5.472696353788866e-07
-4.846682118832959e-08,-1.1920783076343088e-07,6.599455706649779e-07,5.595950179874555e-07,1.174542086750959e-07,8.495283736459001e-07,1.050336549731005e-06,4.5971927663542555e-07,7.78324211617834e-13,1.028738427392157e-08,1.643493554020326e-07,3.605401729443075e-07,-2.1630744082304364e-07,-7.078918200261323e-07,1.5700951935654333e-07,-7.964450526644864e-08,-9.014349339287495e-08,-5.002263829288742e-07
-9.095716952529639e-08,-1.086113588727851e-07,6.671690273243095e-07,5.995491429447209e-07,1.9573670809199143e-07,8.428625087578768e-07,9.327392948839336e-07,3.6894998549940674e-07,2.3060712076943293e-08,-1.0376832311804223e-07,2.0529204182305514e-07,4.4336096258982347e-07,-1.7720602096904508e-07,-7.522422762484863e-07,3.886081799154858e-07,7.81354396650988e-08,-3.637006631674355e-08,-3.750429662177887e-07
-1.242985712863808e-07,-1.6135149221836516e-07,6.370265056184066e-07,6.105156146215224e-07,2.794921786959828e-07,8.545199801106747e-07,8.358827047028471e-07,2.9570789717669037e-07,4.838238379535915e-08,-1.705668838137104e-07,2.179891198093693e-07,4.3716203045698225e-07,-1.255126552312463e-07,-7.801943191305207e-07,5.76205757920985e-07,1.4396253347406926e-07,2.13217581060723e-09,-2.7003276657742577e-07
-1.2271394177282457e-07,-1.6911115121080903e-07,6.262793597287425e-07,6.447212984745017e-07,2.995856996890231e-07,8.776249121460268e-07,7.694074929932541e-07,2.3700591607278267e-07,7.247639515292457e-08,-1.5307236851106664e-07,2.1654033659782014e-07,3.8107076593342457e-07,-1.1868830639105612e-07,-7.930786344547602e-07,6.060849579224227e-07,1.2932657182046037e-07,-2.90869565012944e-10,-1.6954905044481096e-07
-1.008436918484938e-07,-9.553986202279381e-08,6.43532729501742e-07,6.917479979011671e-07,3.1803729863498614e-07,9.016143128080345e-07,7.376309944582707e-07,1.7842563324718727e-07,9.135112240780536e-08,-7.919357458143444e-08,2.0432699081738612e-07,3.3218964976780996e-07,-1.4887711824183296e-07,-7.890482655249682e-07,6.601992680876994e-07,1.9252778023430566e-07,3.3063466613770006e-08,-3.7820059812240546e-08
-1.2097266752674675e-07,-6.995292022894101e-08,6.680218215253071e-07,7.242532671452575e-07,3.575818201687969e-07,9.134532722237598e-07,7.419080728664931e-07,1.425061784942906e-07,1.0171386512607918e-07,5.663964518776067e-09,1.9986440078296297e-07,2.92299004488325e-07,-1.7631565805604908e-07,-7.876956519354588e-07,6.63054082938447e-07,2.3494331142339128e-07,-4.573817134391647e-09,1.32865817506956e-07
-1.176783046026466e-07,-4.29769911119061e-08,6.898221483563e-07,7.766655961813256e-07,3.5606242076581495e-07,9.021403485022859e-07,7.809181522504231e-07,1.3380900060972727e-07,1.0150428699705401e-07,8.115840253767846e-08,2.2059995501598055e-07,2.4009597891414957e-07,-2.0556788209214305e-07,-8.071951487114574e-07,6.93095826428351e-07,8.767242175221421e-08,-2.3644702548695054e-08,2.864349202729974e-07
-5.4416014086183406e-08,2.1512077548663688e-08,7.50081356994165e-07,8.384082936647542e-07,3.41614492476191e-07,8.620645001822878e-07,8.488099976135924e-07,1.2404272336620122e-07,9.062535553001546e-08,2.138900650997855e-07,2.834644314417503e-07,2.3935586603953185e-07,-2.4389903093974577e-07,-8.159824260303202e-07,7.090488914661575e-07,9.001443003788019e-08,-2.5043783625705226e-08,3.3235701292750966e-07
1.9962183532026853e-08,4.801042352844672e-08,8.399161630773772e-07,8.827088632637382e-07,3.444981536338396e-07,7.913570246509761e-07,9.298587604741544e-07,9.437593673152736e-08,7.139114632396144e-08,2.874292082352835e-07,3.502643725192928e-07,2.2505676691957947e-07,-3.028668929940217e-07,-8.210565676447287e-07,6.102409318971371e-07,1.031183574966996e-07,-1.0710933129744183e-07,4.1487342040032913e-07
5.4585588327244295e-08,1.206111897568917e-07,9.36923678341052e-07,9.51859100986729e-07,3.0345765798145466e-07,6.989963010866058e-07,1.0066177666309757e-06,1.813154528340416e-08,4.916019614842142e-08,3.5654501433780406e-07,3.969502583578108e-07,2.005691329291209e-07,-3.8364845793620724e-07,-8.082176810659164e-07,5.756514257641268e-07,1.1224979982425144e-07,-1.3911071458595344e-07,4.553080172988564e-07
7.373386710321177e-08,1.734807775210925e-07,1.0038041856123505e-06,1.007258677763537e-06,2.61224704726557e-07,5.975611906370323e-07,1.062317452080094e-06,-7.435604826794754e-08,3.156164722127867e-08,3.917368454987653e-07,3.870180919940655e-07,1.6438936021452762e-07,-5.05057691149176e-07,-7.27354848926343e-07,6.097101033262874e-07,-1.391976616898382e-08,-1.5918074688525375e-07,4.776372846732968e-07
6.137330539306437e-08,2.1563538641555387e-07,1.0441177013868743e-06,1.0364509721398468e-06,2.645613038002788e-07,4.997809372464799e-07,1.0777707675265072e-06,-1.2422750007037407e-07,2.699581403790295e-08,4.693903322866527e-07,2.945338721126426e-07,1.4999793973074388e-07,-6.427320675452899e-07,-6.567685581573862e-07,7.111789627388715e-07,-2.8035930567214094e-07,-1.7338015125630942e-07,6.179729894290349e-07
7.830066573345974e-08,2.4952954989764967e-07,1.0639613233692446e-06,1.0494257792077866e-06,2.426428274755924e-07,4.111430119967257e-07,1.0426734384423051e-06,-1.376845884588915e-07,4.2675315542093365e-08,5.065935631558977e-07,2.2254869178312887e-07,1.582146112461304e-07,-6.969245201076805e-07,-6.50694769483252e-07,7.9123734679129e-07,-3.836888620658245e-07,-2.037560111626001e-07,8.254436342319545e-07
1.54957412264154e-07,3.16801292253363e-07,1.0689604441726327e-06,1.0361761182129897e-06,2.268943072276861e-07,3.2952083242598087e-07,9.560890765165963e-07,-1.4403070520358068e-07,8.225025633971417e-08,4.381544701839922e-07,1.926263600453137e-07,1.3470518893813296e-07,-7.478189556184756e-07,-6.366461629313248e-07,8.905226404937668e-07,-2.996368379754408e-07,-2.278879491677432e-07,9.901760461767931e-07
2.1613947379141504e-07,2.96096280329937e-07,1.0702706685498392e-06,1.022395072746726e-06,2.499192929409564e-07,2.4878973251351253e-07,8.246599296079052e-07,-1.2747285443423562e-07,1.4447929094471935e-07,4.6013685640121835e-07,1.5561252116539148e-07,6.629863849806494e-08,-8.059674416900729e-07,-6.51937912257879e-07,1.0091130469158594e-06,-1.7688586256014513e-07,-2.730127608366747e-07,1.1180576753426357e-06
2.316298435017012e-07,2.6004532808265014e-07,1.07776921400276e-06,9.797952006369907e-07,2.741353719607933e-07,1.6102612066343444e-07,6.631699437034694e-07,-9.807228819936076e-08,2.232707827898073e-07,5.009079563914722e-07,1.460057732211074e-07,2.7236759148303154e-09,-8.395244927757269e-07,-6.380011971857854e-07,1.0023394970170569e-06,-1.422966937951209e-07,-3.6105231636839734e-07,1.2045466389910193e-06
2.6714426998444236e-07,2.8483540788655796e-07,1.0967797202084683e-06,9.389212358392783e-07,2.823632730873119e-07,6.211861047968573e-08,4.910743951595509e-07,-9.0949133659881e-08,3.0857008729932055e-07,6.099978186730922e-07,1.3957034871695104e-07,-3.6537850339272977e-08,-9.008299417144204e-07,-5.855018504413997e-07,8.730057070289698e-07,-1.9479255770276441e-07,-4.975147148572636e-07,1.2823409801410865e-06
2.94077882574021e-07,3.642107122306574e-07,1.125790496933879e-06,9.105918880239378e-07,3.3095192127834817e-07,-4.905160862977608e-08,3.2614147838665397e-07,-1.17744826332371e-07,3.891510002528789e-07,7.060936477064632e-07,1.0148841043209469e-07,-7.653991264051993e-08,-1.0412021973286538e-06,-5.346686121831096e-07,8.486534391719771e-07,-3.6874093991338434e-07,-6.283817718585665e-07,1.4525057293867057e-06
3.1892133224972004e-07,4.7519347819343413e-07,1.158120349143498e-06,8.690395084280286e-07,3.2515448783582315e-07,-1.6955888559705602e-07,1.799830646316611e-07,-2.279887167250833e-07,4.538354005951848e-07,8.699425006991818e-07,7.07243073182703e-08,-1.277465161977926e-07,-1.1842127690815334e-06,-4.915403010272545e-07,8.265955317302327e-07,-5.599113233672413e-07,-7.389612168610832e-07,1.6797461779660367e-06
3.675717374024541e-07,6.475349924236633e-07,1.1843398610847015e-06,8.334290378930949e-07,3.169523635602064e-07,-2.9434340036803325e-07,5.6475636676558605e-08,-3.820242651535347e-07,4.966774910346104e-07,1.024449848953012e-06,1.8791185820431277e-08,-2.5280603801340093e-07,-1.3216521580694295e-06,-4.6351141351202045e-07,8.273872105988759e-07,-6.730542726605465e-07,-8.871435836172431e-07,1.8951509524892397e-06
3.979563620411003e-07,9.363419482471028e-07,1.195702415414718e-06,8.420866226234125e-07,2.783615556595678e-07,-4.166978444106636e-07,-4.940952413763569e-08,-4.697183721243765e-07,5.133708441462745e-07,1.069867455750771e-06,-3.243989280615871e-08,-3.678152869149498e-07,-1.45452889954001e-06,-4.590124341448415e-07,7.825152763346598e-07,-8.215667000189954e-07,-1.0067104404921846e-06,2.0514745330038265e-06
4.6203376840101523e-07,1.160720365472127e-06,1.1869049870211356e-06,8.893445653090343e-07,2.080239881645588e-07,-5.316373529379427e-07,-1.5088882365868555e-07,-5.121020297949525e-07,5.041985597412493e-07,1.1231359236069494e-06,-1.0819290326646626e-07,-4.6596243508798456e-07,-1.5983121628283928e-06,-4.3377349892492433e-07,6.503425662758621e-07,-1.0002230746851715e-06,-1.0913223223074612e-06,2.1662046568656334e-06
5.269868752562143e-07,1.2882207180321724e-06,1.1566470720054157e-06,9.429886840049657e-07,1.3328501149781612e-07,-6.381978393684318e-07,-2.4991074996021535e-07,-5.400679206199832e-07,4.746434992703609e-07,1.1616285491920333e-06,-1.834725622724738e-07,-5.531906751237018e-07,-1.7712643366067205e-06,-4.221145317994028e-07,5.798901256620689e-07,-1.1095622103837807e-06,-1.2278280337463284e-06,2.24505850073354e-06
5.894961885288081e-07,1.3907832473004538e-06,1.107430398064137e-06,9.756058403977532e-07,2.4123417517216358e-08,-7.381487077289555e-07,-3.4963343180209144e-07,-6.263059093696034e-07,4.318473513231075e-07,1.1978602205250163e-06,-2.809515726332089e-07,-6.53271103934646e-07,-1.9257486374773295e-06,-4.3651757038929986e-07,4.900097528262749e-07,-1.3860060960257892e-06,-1.4058045781403612e-06,2.287811051836534e-06
6.654814147194356e-07,1.5002588950224169e-06,1.044741364869838e-06,9.906694109356344e-07,-5.821129775792792e-08,-8.087734074678479e-07,-4.18572204075724e-07,-7.178979064939549e-07,3.8330695243936114e-07,1.2084923168270377e-06,-4.0683831916761824e-07,-7.964287776521561e-07,-2.0697006695878587e-06,-5.036803235910776e-07,3.441580143444434e-07,-1.6652928637627324e-06,-1.5956985529992012e-06,2.3030281418788985e-06
7.279642446397436e-07,1.5025227401195351e-06,9.757102618753182e-07,9.779707084376071e-07,-1.2809889994656458e-07,-8.578496324188315e-07,-4.5764822365947157e-07,-8.040723834576011e-07,3.376138044542881e-07,1.149543454202367e-06,-5.129193347467806e-07,-9.390606991662573e-07,-2.2342078025802843e-06,-5.500743561276563e-07,2.8138147771167836e-07,-1.9042398296719054e-06,-1.785253784761125e-06,2.262497076554512e-06
7.904900443753821e-07,1.4871900315655125e-06,9.069733983962535e-07,9.56296505192357e-07,-1.9536877240288003e-07,-8.90379739233398e-07,-4.973702125031164e-07,-9.046028395886708e-07,3.0231840991021935e-07,1.0700674417325813e-06,-5.615882213076319e-07,-1.082855705363908e-06,-2.337691844859387e-06,-5.912535296608873e-07,3.15785955003029e-07,-2.076365973831546e-06,-1.92405215556154e-06,2.1833568023448563e-06
8.641762291119944e-07,1.5086534399595088e-06,8.436424071491616e-07,9.319233351278977e-07,-2.3348212964024191e-07,-9.188463929514797e-07,-5.164644061939873e-07,-9.482818485972718e-07,2.8285305246092894e-07,1.0014352961395046e-06,-6.429166340430492e-07,-1.206188835513973e-06,-2.388221186411588e-06,-6.301449263049605e-07,3.0368949208232435e-07,-2.2040549608868273e-06,-2.045767802395418e-06,2.097632555777843e-06
9.218424845093093e-07,1.5500330975360838e-06,7.884256892393328e-07,9.06681068269066e-07,-2.5953308986142227e-07,-9.362442068148526e-07,-5.028756620982623e-07,-9.595436809070386e-07,2.8470543408374897e-07,9.370926385556213e-07,-6.953903176472671e-07,-1.3168360508679936e-06,-2.409483471820185e-06,-6.492668842421872e-07,2.1664067325432463e-07,-2.352300498794679e-06,-2.1761339974969866e-06,2.0229229398254633e-06
9.692062787535922e-07,1.603021333646217e-06,7.411697087453068e-07,8.894249682619072e-07,-2.8092544184787103e-07,-9.256562438378548e-07,-4.0588470247034743e-07,-9.606172953517532e-07,3.1207724938857557e-07,9.114772787987498e-07,-7.29958860701845e-07,-1.4097979112126036e-06,-2.3988558868195674e-06,-6.661579321068497e-07,9.549725424743385e-08,-2.4602716118249627e-06,-2.2919425313237244e-06,1.9746772124594957e-06
1.0159912055660938e-06,1.6740000578907406e-06,6.997818235062505e-07,8.755758656234153e-07,-2.958807289797682e-07,-8.794919064278054e-07,-2.5112743967142616e-07,-9.505052650271781e-07,3.678965986718369e-07,9.11507245166915e-07,-8.135571996649344e-07,-1.4907283268234332e-06,-2.424868447298967e-06,-6.836197452586366e-07,-1.008087643158827e-07,-2.6723173524822083e-06,-2.4027409395643173e-06,1.958461115508964e-06
1.0909228900724614e-06,1.7556428139454738e-06,6.615866962339509e-07,8.675702024190387e-07,-3.0937356664205885e-07,-7.898046636579374e-07,-3.1600266705513916e-08,-1.0014335872208505e-06,4.576792041128718e-07,9.316280721839142e-07,-9.113998748180829e-07,-1.5868209247037483e-06,-2.476467972816634e-06,-7.119560011195119e-07,-2.737717405742664e-07,-2.8754620845946704e-06,-2.55038752092862e-06,1.970129493288395e-06
1.13108374595055e-06,1.8246449254076218e-06,6.248620770050709e-07,8.606184349611987e-07,-3.2231026528638363e-07,-7.106316195523456e-07,2.0310781635478895e-07,-1.0521431453063299e-06,5.74164256651061e-07,9.653218177641789e-07,-1.0170781432469978e-06,-1.688532812592739e-06,-2.5337261492982427e-06,-7.451254807100033e-07,-4.547789125369842e-07,-3.019328001044971e-06,-2.6465013747333697e-06,1.9999804374293504e-06
1.1537238475392865e-06,1.8872221930397744e-06,5.900371845902137e-07,8.546818741366975e-07,-3.353556909876433e-07,-6.354147543604676e-07,3.824385801792017e-07,-1.0973258537881975e-06,7.102860543354503e-07,9.9321482093279e-07,-1.120399921563859e-06,-1.787541459223895e-06,-2.5952837615987958e-06,-7.903056194144565e-07,-6.281529433462383e-07,-3.1431003802887693e-06,-2.7054042629472352e-06,2.036746354440468e-06
1.174976359524368e-06,1.95885027852805e-06,5.594116659921141e-07,8.510841991882672e-07,-3.51024347280354e-07,-5.577353637667803e-07,6.634536807179753e-07,-1.1559539387376774e-06,8.625829675340269e-07,1.012361058007872e-06,-1.198577335839275e-06,-1.8824770196596493e-06,-2.651657501770164e-06,-8.263255642387039e-07,-7.635389418686422e-07,-3.198842899605215e-06,-2.759423772949166e-06,2.0670951827122494e-06
1.1744981312599104e-06,2.0267422826633812e-06,5.357680066466754e-07,8.53572052886179e-07,-3.732846109716386e-07,-4.5048319974168577e-07,9.938264629737476e-07,-1.2055595737830628e-06,9.956359520613923e-07,1.0231984723769648e-06,-1.24444471095791e-06,-1.9680152326428123e-06,-2.69652967899216e-06,-8.522066200183892e-07,-8.745659620726797e-07,-3.2439254765028505e-06,-2.7907473497837756e-06,2.083987120968941e-06
1.182530247769663e-06,2.088492833101497e-06,5.208809314988241e-07,8.627822299113487e-07,-4.036617775008016e-07,-3.2653135490255457e-07,1.3143892395710252e-06,-1.2415835974588346e-06,1.099652583559969e-06,1.026694862658905e-06,-1.2742672740633717e-06,-2.047781611199817e-06,-2.712024780610266e-06,-8.725663486990708e-07,-9.534015925586213e-07,-3.2911241690901442e-06,-2.8227871781621536e-06,2.1004190154264018e-06
1.183414780071824e-06,2.1378475463090607e-06,5.147707082973128e-07,8.766291830489744e-07,-4.404444997360683e-07,-2.127317910193003e-07,1.6626827504370314e-06,-1.2768133166670764e-06,1.1714131478116959e-06,1.0274275878102943e-06,-1.2904699562950718e-06,-2.123253434504547e-06,-2.6992288094496823e-06,-8.847234157987879e-07,-1.0077394326441694e-06,-3.417005022691031e-06,-2.862697212270329e-06,2.1264291800259332e-06
1.17692810112156e-06,2.165146421357448e-06,5.159648935601141e-07,8.939703449332581e-07,-4.790892961601923e-07,-1.1646755799893286e-07,1.925800097329485e-06,-1.2936509887767335e-06,1.2057162014645522e-06,1.029264132934247e-06,-1.2982190860884689e-06,-2.1889991697828355e-06,-2.693241634135253e-06,-8.895376751056106e-07,-1.032899965125253e-06,-3.5771740223407125e-06,-2.876119513230112e-06,2.168104016908055e-06
1.1646035797183195e-06,2.1758233946705222e-06,5.224306265936224e-07,9.067418907663019e-07,-5.137028044839227e-07,-4.99564731847486e-08,2.1037665271761654e-06,-1.2811898986985653e-06,1.2103693821616166e-06,1.038638627743423e-06,-1.2997399883685627e-06,-2.2332120515099433e-06,-2.69697855705477e-06,-8.865461338412583e-07,-1.047646770458266e-06,-3.687698745777883e-06,-2.8543088456961956e-06,2.2309127990089998e-06
1.1694362330188836e-06,2.1801364347990324e-06,5.323334285014475e-07,9.169877862267912e-07,-5.370916836663648e-07,3.021578830245983e-08,2.2709871859192945e-06,-1.2876287986094853e-06,1.2027565323578378e-06,1.0588742683038205e-06,-1.3046742094003483e-06,-2.244430940974463e-06,-2.713201347386777e-06,-8.731466190968924e-07,-1.0448016763388687e-06,-3.7751702539597335e-06,-2.8487815769433116e-06,2.300134556710255e-06
1.181778310429422e-06,2.1794481388558173e-06,5.4406715635333e-07,9.257735043819989e-07,-5.442599518373828e-07,1.1780350349553276e-07,2.397344740418873e-06,-1.3113184952469253e-06,1.1829521256837113e-06,1.0885187789730316e-06,-1.317629426082581e-06,-2.230765734478212e-06,-2.7429396106092834e-06,-8.513033243480864e-07,-1.0366673744440212e-06,-3.826795527371213e-06,-2.842873214093476e-06,2.3566559794963506e-06
1.1903099089878969e-06,2.172532999888838e-06,5.563078171445692e-07,9.318610315631265e-07,-5.37488866728616e-07,1.9942936389775121e-07,2.4486272909362554e-06,-1.3477745132998202e-06,1.1357719259998732e-06,1.1224793462155645e-06,-1.3367528455265752e-06,-2.2000421755466203e-06,-2.7743058462531926e-06,-8.308804894111475e-07,-1.034778974487693e-06,-3.854159292830729e-06,-2.8320725336383327e-06,2.382263633789141e-06
1.2032038019051363e-06,2.1640658399339237e-06,5.681557663503074e-07,9.345071542803422e-07,-5.244669192353695e-07,2.433770343573924e-07,2.445619867644591e-06,-1.4056211270647483e-06,1.1023140069407603e-06,1.1525801628240627e-06,-1.3406002212962085e-06,-2.15891804607148e-06,-2.8050167974889516e-06,-8.17788066358231e-07,-1.0121541089229358e-06,-3.883306500160571e-06,-2.8319119697488924e-06,2.3641491017759725e-06
1.2158622735102356e-06,2.1552572530798458e-06,5.791540747998542e-07,9.300037906792033e-07,-5.126088861503958e-07,2.4893211025471686e-07,2.386793181193752e-06,-1.4753559795617476e-06,1.0732595553021742e-06,1.1703928957058772e-06,-1.3473574558440818e-06,-2.1154054032271017e-06,-2.8357959668686463e-06,-8.160932837516318e-07,-9.935958487995e-07,-3.9185405052066605e-06,-2.8378790655284043e-06,2.2998418551242465e-06
1.2336779970664818e-06,2.143994921323498e-06,5.894766301829213e-07,9.173498779322797e-07,-5.074572220581484e-07,2.286591928879417e-07,2.27817184692563e-06,-1.5484508035512673e-06,1.0375124739404787e-06,1.1691785514592227e-06,-1.3589152518854617e-06,-2.0743650399734966e-06,-2.8387115581572612e-06,-8.316159245041323e-07,-9.969496849108922e-07,-3.94812825392764e-06,-2.865659138025878e-06,2.1749687220434157e-06
1.2567231084475296e-06,2.1166214199467356e-06,5.998881579070373e-07,8.961698951068748e-07,-5.132497837475075e-07,1.863742164966333e-07,2.1406514365665872e-06,-1.6072193268714085e-06,1.0016270383113434e-06,1.146835372387133e-06,-1.3379188684379446e-06,-2.0392156178661836e-06,-2.8104609272934515e-06,-8.629658534365312e-07,-1.0216618680751607e-06,-3.9895933651845976e-06,-2.9327693917437963e-06,2.0025111733508106e-06
1.282339736966172e-06,2.080018700874382e-06,6.112370061989789e-07,8.677733203220927e-07,-5.286769878352293e-07,1.3527081742981545e-07,1.9744320827418833e-06,-1.6559216203504543e-06,9.467440707414962e-07,1.104550291897088e-06,-1.3033916477270952e-06,-2.0109184360741036e-06,-2.7595188324388708e-06,-9.065537346962168e-07,-1.076060858715782e-06,-4.071804664773418e-06,-3.043321159929169e-06,1.8044442174848718e-06
1.3024231146841818e-06,2.0255699112676035e-06,6.236620384726217e-07,8.334845678620728e-07,-5.499859445579885e-07,6.765326481945417e-08,1.7673328357776616e-06,-1.687546567777788e-06,8.658285044403837e-07,1.0466694974051446e-06,-1.2562958036412171e-06,-1.9901957820088745e-06,-2.68948830438099e-06,-9.628493708024416e-07,-1.1402033272120132e-06,-4.186085962267346e-06,-3.1794134762609147e-06,1.5935222571872093e-06
1.300152018658735e-06,1.9499617991930375e-06,6.362451964843941e-07,7.934310458656223e-07,-5.723781563416416e-07,-1.1194671635415251e-08,1.528975424097709e-06,-1.7057709391164748e-06,7.739234535394729e-07,9.78704078735689e-07,-1.1973362055618949e-06,-1.975613547297376e-06,-2.611882568810109e-06,-1.025077340200859e-06,-1.2013501231181048e-06,-4.317360492802435e-06,-3.3317255231921767e-06,1.375759533246233e-06
1.2813883215830151e-06,1.8554782745813569e-06,6.469505592963631e-07,7.494908000635555e-07,-5.88349625770256e-07,-9.370771974391526e-08,1.2839958162013528e-06,-1.7032945665267641e-06,6.914882782454279e-07,9.04492953965591e-07,-1.1457256402760507e-06,-1.9659143286371987e-06,-2.5274743466460886e-06,-1.0861845098525472e-06,-1.2518332309358357e-06,-4.424083284877646e-06,-3.4869552264997006e-06,1.136806292985675e-06
1.2568431882647676e-06,1.7487508935403796e-06,6.533950816330069e-07,7.034116766754765e-07,-5.931462721782041e-07,-1.6947581291504425e-07,1.0418529780145508e-06,-1.6833985380198467e-06,5.967513813761869e-07,8.258938633731979e-07,-1.1058559302327935e-06,-1.960883460818437e-06,-2.436922523470493e-06,-1.1426743794074229e-06,-1.2903639564573485e-06,-4.493911566709081e-06,-3.625797061310913e-06,8.916469433873077e-07
1.2214162106229474e-06,1.6382628046902313e-06,6.540075540935018e-07,6.587054855524148e-07,-5.855568219584509e-07,-2.357555299736926e-07,8.197523651766104e-07,-1.6527589410673e-06,5.022764602436806e-07,7.445095593270389e-07,-1.061768160056234e-06,-1.9633722695376544e-06,-2.3460155367831625e-06,-1.1895820159749122e-06,-1.3107038266927638e-06,-4.525162072311672e-06,-3.7402729289488036e-06,6.277357638072785e-07
1.180220486073994e-06,1.52884763262838e-06,6.486513691667775e-07,6.184895904496019e-07,-5.660356380418549e-07,-2.928816434696214e-07,6.331427848497483e-07,-1.608545470969718e-06,4.1758082122157013e-07,6.639590298758222e-07,-1.0064591970077056e-06,-1.9715286761528034e-06,-2.259636471343639e-06,-1.2230123256227214e-06,-1.3028198257678509e-06,-4.511559269735003e-06,-3.8220561194068595e-06,3.405611979607246e-07
1.1313030917745133e-06,1.4305820356807825e-06,6.386458512840439e-07,5.843120385297754e-07,-5.356441592573959e-07,-3.3907175618399763e-07,4.870296003742995e-07,-1.564732331519445e-06,3.376041574053102e-07,5.913617454955907e-07,-9.523410214232294e-07,-1.9813149822862805e-06,-2.1597817048786e-06,-1.2417121309481395e-06,-1.258551281580365e-06,-4.452058470800117e-06,-3.874220805950879e-06,1.1078278493531843e-07
1.0736952327661555e-06,1.3482439392967187e-06,6.263322076739266e-07,5.622674519145418e-07,-4.938046009239709e-07,-3.760879752410657e-07,3.8342459777059826e-07,-1.5142028930614565e-06,2.718290955953134e-07,5.349108631710514e-07,-9.071833263230549e-07,-1.9898852304782236e-06,-2.05553170614675e-06,-1.2399372374581026e-06,-1.1669267596837379e-06,-4.352315707123264e-06,-3.895343315908768e-06,-8.148253468816974e-08
1.0156701530747893e-06,1.2864865411097468e-06,6.142140609342662e-07,5.488493660623481e-07,-4.400382730747282e-07,-4.0583626331203697e-07,3.155372395098613e-07,-1.4660610044066978e-06,2.3073714887018351e-07,5.026192138167536e-07,-8.720836548350321e-07,-1.9930377562645563e-06,-1.958227053923749e-06,-1.217190304890154e-06,-1.0304500123070508e-06,-4.201405656665489e-06,-3.884292568815122e-06,-4.6885851572134707e-08
9.682372387651724e-07,1.24923543110946e-06,6.040612443494927e-07,5.392402513388109e-07,-3.7526831470727296e-07,-4.334620666715788e-07,2.6861004055957904e-07,-1.423000916029565e-06,2.0388222711794725e-07,4.995301270898312e-07,-8.393376197310135e-07,-1.9891813468160585e-06,-1.8748396046662339e-06,-1.176722775838769e-06,-8.494723655499892e-07,-4.00625034485779e-06,-3.844231617469122e-06,1.8777187363341787e-07
9.362796869072032e-07,1.2368288487181006e-06,5.951433140007933e-07,5.294208378159003e-07,-3.017165041478564e-07,-4.672754862061817e-07,2.2521357676969004e-07,-1.3963889063826692e-06,1.814993190697341e-07,5.247589382173897e-07,-8.17169128951506e-07,-1.98088750025983e-06,-1.818800783757052e-06,-1.122573861058797e-06,-6.393164827622745e-07,-3.798519387173669e-06,-3.7773264071803575e-06,3.5545495044154566e-07
9.212799032122368e-07,1.2432485951885485e-06,5.846306304845937e-07,5.138556107188432e-07,-2.2285888875170978e-07,-5.152792227785021e-07,1.7025656149339442e-07,-1.4380775453447498e-06,1.6867931022311e-07,5.711109297827058e-07,-8.317806577858715e-07,-1.9737734357877596e-06,-1.79062101476635e-06,-1.0603798658056937e-06,-4.323232010762141e-07,-3.6036484813759358e-06,-3.6905019639281585e-06,4.1965691679427547e-07
9.23388192653132e-07,1.257395071415767e-06,5.688862989295247e-07,4.9062576138053e-07,-1.4387313973829079e-07,-5.821150109054361e-07,9.553329600483259e-08,-1.4808708075471475e-06,1.5776497875355382e-07,6.268576988276776e-07,-8.375758925358722e-07,-1.973093199327996e-06,-1.784076181769063e-06,-9.961176646098898e-07,-2.489017773936796e-07,-3.4542814891596176e-06,-3.5940541657888224e-06,3.9168240213098655e-07
9.372908299843853e-07,1.2713988668187606e-06,5.453102067125261e-07,4.5972866833607704e-07,-7.027733361210241e-08,-6.677486726935933e-07,1.7362542018454414e-09,-1.521375095506119e-06,1.4643331888208723e-07,6.800908900744614e-07,-8.811896434935478e-07,-1.9825356821553227e-06,-1.8086953169228757e-06,-9.334613083222956e-07,-1.0949663927348084e-07,-3.3598966616267793e-06,-3.4977857236019073e-06,3.5123119982398043e-07
9.58705710722334e-07,1.2873362805819733e-06,5.142691971882358e-07,4.237615143247566e-07,-5.684366714489064e-09,-7.665039918759534e-07,-1.0296840208645925e-07,-1.5785468324726391e-06,1.371040882238628e-07,7.226002556906611e-07,-9.742465695522356e-07,-2.001897246236865e-06,-1.8517855970090488e-06,-8.768883767656917e-07,-2.207201314483224e-08,-3.323837282569668e-06,-3.4054037436162497e-06,5.138750523550872e-07
9.846543012099903e-07,1.2921498848743241e-06,4.790791226294953e-07,3.8598864370810814e-07,4.7083940061589957e-08,-8.690039907048155e-07,-2.0699409210840407e-07,-1.6244759247338289e-06,1.3495560680459144e-07,7.52070561668528e-07,-1.0652203154346847e-06,-2.027837709131063e-06,-1.893984601189824e-06,-8.271887247943572e-07,1.3613688475687733e-08,-3.3374380098441964e-06,-3.322658283588262e-06,8.897637966210087e-07
1.0122537294115017e-06,1.2928468224524216e-06,4.448886554275653e-07,3.5375233751463743e-07,8.706193074040283e-08,-9.654570197044576e-07,-2.9979912702597456e-07,-1.6605063389188492e-06,1.2907342832144908e-07,7.713724539551199e-07,-1.1774511420328574e-06,-2.0557065583166386e-06,-1.9244941336740635e-06,-7.825615686536557e-07,3.23833701302342e-09,-3.385213053168627e-06,-3.25116105442438e-06,1.234772985606724e-06
1.0462011848195216e-06,1.297945066080232e-06,4.1704401354222076e-07,3.3015553105292016e-07,1.1539207159539484e-07,-1.0484020889389732e-06,-3.749998922589737e-07,-1.6830837759392648e-06,1.2281896559621653e-07,7.864509972773523e-07,-1.2749755090544372e-06,-2.0811176016068687e-06,-1.931927903144355e-06,-7.423848967612673e-07,-4.2582938653624374e-08,-3.457087879890624e-06,-3.1866158010531993e-06,1.523575494369135e-06
1.087540334255244e-06,1.3087919266281023e-06,3.9966133758303416e-07,3.193726465230976e-07,1.3373366519608183e-07,-1.1147642173813751e-06,-4.3146303552108066e-07,-1.6884009092516338e-06,1.2015032937206865e-07,8.03654903879467e-07,-1.3447415657054954e-06,-2.1002953823344023e-06,-1.9156366778221826e-06,-7.054063030673029e-07,-1.1061900253915675e-07,-3.547153485237066e-06,-3.127954740612856e-06,1.6721462233126357e-06
1.1347847175215729e-06,1.3330137251485595e-06,3.943827190020927e-07,3.222682653493316e-07,1.4485717163013917e-07,-1.1660015985076493e-06,-4.723579726585833e-07,-1.683819470227555e-06,1.182538132570258e-07,8.274340935704144e-07,-1.3964866632499362e-06,-2.110392104578007e-06,-1.8805989102947445e-06,-6.703041539085841e-07,-1.8500986293999758e-07,-3.6441318639955365e-06,-3.0720231073989843e-06,1.759596127374707e-06
1.1908883248342282e-06,1.3733663110763674e-06,4.0017947008225533e-07,3.359458073000256e-07,1.5233537356376326e-07,-1.2072868192542344e-06,-5.031062097620887e-07,-1.6691963438605885e-06,1.1960384102673484e-07,8.581090278966765e-07,-1.4333261095462855e-06,-2.1114345416025933e-06,-1.8330447280570435e-06,-6.359717202823201e-07,-2.556502875792775e-07,-3.737357112088122e-06,-3.015185108512123e-06,1.866060409398812e-06
1.2541417238117356e-06,1.425848356379655e-06,4.137588854707664e-07,3.5775068119104947e-07,1.5951715638282196e-07,-1.2453984959637572e-06,-5.294725608532853e-07,-1.647951275901749e-06,1.22253545806488e-07,8.918439126595993e-07,-1.455433497046428e-06,-2.10628042611921e-06,-1.775914512156727e-06,-6.018531770854854e-07,-3.155430899619186e-07,-3.821662528853215e-06,-2.956761326855844e-06,1.9864185713522195e-06
1.3207528372470016e-06,1.480191566414281e-06,4.3026988136279654e-07,3.8322007370721456e-07,1.686995093849496e-07,-1.2869239101114067e-06,-5.560606761240926e-07,-1.6208789818860332e-06,1.233157042150021e-07,9.227398411663974e-07,-1.4635411905008599e-06,-2.0989661825103586e-06,-1.7225459911340265e-06,-5.676056403511683e-07,-3.6291751378270085e-07,-3.888299762095323e-06,-2.899168628621507e-06,2.14887228210139e-06
1.3851371712043521e-06,1.5291179059812135e-06,4.4477631589629793e-07,4.0553139765761435e-07,1.8086206430117547e-07,-1.3363368428824477e-06,-5.853223753995362e-07,-1.5929263402226012e-06,1.19468004091706e-07,9.428992859688765e-07,-1.4746229801569262e-06,-2.0941076448361123e-06,-1.6777818014620832e-06,-5.354128929524309e-07,-3.9979983261464003e-07,-3.934275177243326e-06,-2.8447804963538317e-06,2.2537341167557992e-06
1.4399550416453079e-06,1.5632898605887336e-06,4.536396245834217e-07,4.2198713395299884e-07,1.9474989420154408e-07,-1.3944691302008607e-06,-6.17636094924994e-07,-1.569179794710661e-06,1.1153077055297263e-07,9.490210294785824e-07,-1.4919342772402609e-06,-2.094845242298586e-06,-1.642297249359941e-06,-5.075566872694448e-07,-4.297223310598679e-07,-3.963033853152901e-06,-2.796715278777128e-06,2.315397491213318e-06
1.4802826837828893e-06,1.5770863344062278e-06,4.551231976780092e-07,4.316511448835087e-07,2.0747066048171026e-07,-1.459140020048319e-06,-6.521253798893655e-07,-1.5507357636937992e-06,9.865359170724594e-08,9.424240070568109e-07,-1.5138183825754594e-06,-2.1015671900931805e-06,-1.617892053610764e-06,-4.857091707017626e-07,-4.595437373280113e-07,-3.979758849271854e-06,-2.7581113279245085e-06,2.3642147849562523e-06
1.5057620840877242e-06,1.5714641614862897e-06,4.49719952989243e-07,4.328983830233214e-07,2.1683439309347643e-07,-1.5258900355317559e-06,-6.873155062264922e-07,-1.537746072890686e-06,8.028254742956879e-08,9.273538744443848e-07,-1.5397797117087824e-06,-2.1132054120875503e-06,-1.6006372628138206e-06,-4.708275868978175e-07,-4.945344611075264e-07,-3.990960083979134e-06,-2.729047988282404e-06,2.393914490568116e-06
1.5186143686927647e-06,1.5485413200575259e-06,4.3944870985449945e-07,4.2670376175999254e-07,2.216606984707404e-07,-1.5895880574180315e-06,-7.215515606739912e-07,-1.5301267315926737e-06,5.7936021840682285e-08,9.099560218419053e-07,-1.5562270655655697e-06,-2.1274217675413456e-06,-1.587480308104009e-06,-4.622069899845172e-07,-5.373217644749037e-07,-4.004714411318854e-06,-2.7084300639129707e-06,2.4121628084844907e-06
1.5210594140956197e-06,1.5136209038229208e-06,4.268794098708539e-07,4.1543032384501856e-07,2.2096007690700793e-07,-1.6463466765607338e-06,-7.53416674656529e-07,-1.526664652440642e-06,3.2420421310570785e-08,8.953679581503652e-07,-1.5714106245867527e-06,-2.1404579860589276e-06,-1.5749227297685866e-06,-4.5808645895133453e-07,-5.877034217342087e-07,-4.024640822892736e-06,-2.699494120609059e-06,2.402197674720027e-06
1.5175105866825264e-06,1.4738121089180362e-06,4.1450639724575716e-07,3.9990115824544605e-07,2.1416925813787206e-07,-1.6941685249033712e-06,-7.822229281646914e-07,-1.5265878053131416e-06,5.235315764971507e-09,8.86982998513025e-07,-1.587370252826571e-06,-2.1507604763268277e-06,-1.5567933381381158e-06,-4.557598958590101e-07,-6.416317468699477e-07,-4.048888094439952e-06,-2.69745219935846e-06,2.3722004814938654e-06
1.5122503235576278e-06,1.43168987554886e-06,4.043287174232259e-07,3.8180045872275517e-07,2.0195829666563325e-07,-1.7334650158849585e-06,-8.086660785915525e-07,-1.5250817343762686e-06,-2.2343936741856348e-08,8.863651066735157e-07,-1.5963604308645726e-06,-2.156055897567132e-06,-1.5321708739832988e-06,-4.513316832239424e-07,-6.948796309604471e-07,-4.076419840879357e-06,-2.6977066544025776e-06,2.3328779026528733e-06
1.508624626141576e-06,1.3925573817953304e-06,3.976081302986902e-07,3.636301128902808e-07,1.8623337216616714e-07,-1.7667904094052358e-06,-8.350694436898574e-07,-1.5226088626104937e-06,-5.183969002207538e-08,8.940859061863961e-07,-1.6006350600972687e-06,-2.154805699389476e-06,-1.5029735418664877e-06,-4.425193511574731e-07,-7.425764027424493e-07,-4.1054408590335685e-06,-2.692005173236131e-06,2.312957047530665e-06
1.510138111038454e-06,1.3605585934982093e-06,3.948551060808505e-07,3.4561069875072056e-07,1.6929752588994955e-07,-1.7977190401957235e-06,-8.644374937552212e-07,-1.5198422011419923e-06,-8.157310303716464e-08,9.088633472173386e-07,-1.6010355585773256e-06,-2.1481461184251335e-06,-1.471461450784504e-06,-4.28827881592184e-07,-7.821550320148172e-07,-4.1330884017655704e-06,-2.6784293044625347e-06,2.3113375483251574e-06
1.5197918597606445e-06,1.3345016032266026e-06,3.960090361693031e-07,3.2896125455980947e-07,1.5346513552511815e-07,-1.8294499598084191e-06,-8.989000047563998e-07,-1.5177045826185329e-06,-1.1242774194147005e-07,9.277970362153239e-07,-1.6017581766791925e-06,-2.1386383039775208e-06,-1.441486158878075e-06,-4.1181936414326584e-07,-8.144188079982429e-07,-4.161727899031568e-06,-2.659667936020205e-06,2.317856876858264e-06
1.5359918940361444e-06,1.3128447201905229e-06,4.00161156176385e-07,3.1338560668804584e-07,1.4124255984809855e-07,-1.863896773864807e-06,-9.387729820531787e-07,-1.5188725796325156e-06,-1.4573960958514846e-07,9.468381613843541e-07,-1.6064782253935725e-06,-2.1313591743087265e-06,-1.4165916009815688e-06,-3.9582912558382944e-07,-8.428359784814249e-07,-4.200508554270759e-06,-2.6380744527890864e-06,2.3283913911466716e-06
1.5561862033582135e-06,1.2921226618867554e-06,4.0591000914149653e-07,2.9786380186214647e-07,1.327603669517654e-07,-1.9010866103130405e-06,-9.826044187078043e-07,-1.5240978354767138e-06,-1.8092326086270046e-07,9.615085937153597e-07,-1.6188742006416693e-06,-2.1308180355054672e-06,-1.3997815159541044e-06,-3.850892392562336e-07,-8.7214405118879e-07,-4.24903983429891e-06,-2.61921945957497e-06,2.332466442829896e-06
1.577289152939684e-06,1.268302291084745e-06,4.1186951135906613e-07,2.814649782853873e-07,1.2732519840427171e-07,-1.9395237248803564e-06,-1.028069602268463e-06,-1.533615322150512e-06,-2.1765486460259968e-07,9.688403241090552e-07,-1.6390546204186901e-06,-2.1414384149736933e-06,-1.3932428916606422e-06,-3.8235779099300687e-07,-9.055174552408284e-07,-4.305931649206044e-06,-2.6056574785864513e-06,2.3349977581962205e-06
1.596533935139419e-06,1.2384679405065349e-06,4.1679621697180414e-07,2.634804082233525e-07,1.240014069129703e-07,-1.977061206865197e-06,-1.0732195357803378e-06,-1.5477268569369595e-06,-2.5463037313304826e-07,9.680952180653095e-07,-1.6632194558827057e-06,-2.161345193063083e-06,-1.3979480850848827e-06,-3.8795259634107843e-07,-9.434675903175068e-07,-4.368510125236653e-06,-2.599988020313678e-06,2.3348611304560736e-06
1.612568732533937e-06,1.2043174994136855e-06,4.197943095520915e-07,2.43812593837713e-07,1.204407197626707e-07,-2.0116691851340464e-06,-1.1170641766360027e-06,-1.5665004517568273e-06,-2.905215280947035e-07,9.60727531820614e-07,-1.6905455946794781e-06,-2.186520551304942e-06,-1.4110896061636494e-06,-3.993612066507031e-07,-9.834448808559873e-07,-4.42912970642041e-06,-2.6024958981469194e-06,2.3313150860652155e-06
1.625117556045393e-06,1.1672461090128324e-06,4.2062234737928003e-07,2.235689206944966e-07,1.1525178321329241e-07,-2.0418587545917203e-06,-1.1593389188477559e-06,-1.5880857897952275e-06,-3.24165544689802e-07,9.505792325097382e-07,-1.7175505391156061e-06,-2.2112547063677357e-06,-1.428036583187683e-06,-4.121844654041266e-07,-1.0220800301707272e-06,-4.480219287830947e-06,-2.612153008535309e-06,2.3259338047473133e-06
1.6354363014085472e-06,1.130584861223703e-06,4.1961970731751686e-07,2.040060533874601e-07,1.0785273697112547e-07,-2.0672215497269224e-06,-1.200361859581499e-06,-1.6120794255601221e-06,-3.564053165399706e-07,9.413219738719186e-07,-1.7407788092254057e-06,-2.2298474046715445e-06,-1.444443870301755e-06,-4.2246058105418044e-07,-1.0572592806023744e-06,-4.516990422452108e-06,-2.625075467777482e-06,2.317309083113686e-06
1.6445556121183991e-06,1.0985272549002183e-06,4.170923980161891e-07,1.8603127380248742e-07,9.785660121503404e-08,-2.088357525882483e-06,-1.2410767956132655e-06,-1.636839459433252e-06,-3.8865749490635194e-07,9.352125087008423e-07,-1.7583469944920603e-06,-2.2410831498520455e-06,-1.4572520063980716e-06,-4.2851006661251837e-07,-1.0891238993269275e-06,-4.538031093149257e-06,-2.6364854300001177e-06,2.3059840607461435e-06
1.6531668454195536e-06,1.072622909488174e-06,4.1333611103555733e-07,1.7051374423618623e-07,8.498586898262176e-08,-2.1066852878766145e-06,-1.282735615308959e-06,-1.6609912792100626e-06,-4.2261109307076626e-07,9.327297757734039e-07,-1.7709954294325767e-06,-2.246148054221801e-06,-1.4656762237227135e-06,-4.307767577801333e-07,-1.1198370015732659e-06,-4.545094741638173e-06,-2.6454527915951506e-06,2.2897440365310485e-06
1.6612267164555962e-06,1.0530874245070003e-06,4.084388713528509e-07,1.572914306259923e-07,6.953665495845416e-08,-2.123825069640334e-06,-1.326460778275101e-06,-1.684313546235965e-06,-4.598335879635934e-07,9.32551579683171e-07,-1.7807407716074394e-06,-2.2487482580609526e-06,-1.4714133837883225e-06,-4.3153203971891523e-07,-1.1524250310572141e-06,-4.545081492837852e-06,-2.6498458937729493e-06,2.2698682376758975e-06
1.6678187042794396e-06,1.0400725077942688e-06,4.0214592839164716e-07,1.4506751680654223e-07,5.2225750848581086e-08,-2.140501215058102e-06,-1.3729822550625527e-06,-1.7066250985095095e-06,-5.006249638488089e-07,9.325988399110322e-07,-1.7882404409675423e-06,-2.253601513320668e-06,-1.4783334274811498e-06,-4.337814066211579e-07,-1.1896543111571881e-06,-4.546365711345171e-06,-2.648527001538457e-06,2.254422429025654e-06
1.670943337654327e-06,1.0298778461433527e-06,3.9415642034058016e-07,1.3251791811397801e-07,3.398480600155034e-08,-2.157278501204264e-06,-1.42234087611034e-06,-1.7285042517088096e-06,-5.44118913049256e-07,9.310776064578661e-07,-1.7981210851328994e-06,-2.264317169912836e-06,-1.489957567403849e-06,-4.3956382713479535e-07,-1.232657431972416e-06,-4.55553423692499e-06,-2.644013226539002e-06,2.241064569908012e-06
1.6693007959903834e-06,1.0194431107514407e-06,3.843477006671128e-07,1.1832342217143062e-07,1.588921146459711e-08,-2.173839868337215e-06,-1.4738365002527246e-06,-1.7510539206231255e-06,-5.883942597443304e-07,9.271855270166943e-07,-1.813667486037854e-06,-2.282135396516975e-06,-1.5092069438217248e-06,-4.489902174137906e-07,-1.2802864093273323e-06,-4.573776989677687e-06,-2.637905674028644e-06,2.2345929509733372e-06
1.6629798774374296e-06,1.0081061152558859e-06,3.7267871987952983e-07,1.0136582505751842e-07,-2.056027222665633e-09,-2.1893728041785827e-06,-1.5264709214245727e-06,-1.7752318382343652e-06,-6.313690287514135e-07,9.20964263276797e-07,-1.8366616851893853e-06,-2.305745416320585e-06,-1.5373526662605506e-06,-4.602981698270013e-07,-1.329516043538206e-06,-4.59797652342908e-06,-2.632574435526485e-06,2.238484287225449e-06
1.6531008419191272e-06,9.952646169470574e-07,3.59121418352004e-07,8.023584682807339e-08,-2.0654030460622734e-08,-2.2032470772046994e-06,-1.5791521935581066e-06,-1.8019898962451759e-06,-6.714814753561309e-07,9.134128072226159e-07,-1.86783573041016e-06,-2.3314065633441156e-06,-1.5730907513681667e-06,-4.703201340067413e-07,-1.3760671892163129e-06,-4.622942185256811e-06,-2.627689535924814e-06,2.250627319428517e-06
1.6418446734863738e-06,9.82888533544808e-07,3.4406860084938086e-07,5.730822989790528e-08,-4.03170788889566e-08,-2.214590662143678e-06,-1.6303913433457268e-06,-1.831362611414665e-06,-7.076095623299811e-07,9.061172299745087e-07,-1.9054523668814458e-06,-2.3549218514701036e-06,-1.6132591573903313e-06,-4.7530741364266494e-07,-1.4153636607334618e-06,-4.642254016498246e-06,-2.621602033380349e-06,2.2715100809776763e-06
1.6323601842096015e-06,9.734473843834059e-07,3.284552481774551e-07,3.3381919430758206e-08,-6.059188661755002e-08,-2.2225284109913875e-06,-1.6783612519949817e-06,-1.8618178783676777e-06,-7.392296988690772e-07,9.003667481003861e-07,-1.9464640518069167e-06,-2.372445223729021e-06,-1.6545592959550536e-06,-4.727063798078698e-07,-1.443990870737624e-06,-4.65041185664205e-06,-2.613140325349909e-06,2.299631099703146e-06
1.6265856895267468e-06,9.681312286934264e-07,3.133135160121379e-07,1.0579190620192289e-08,-7.961270115583856e-08,-2.2268206023739168e-06,-1.7214344346917086e-06,-1.8911320813567718e-06,-7.66679121946119e-07,8.962315747711626e-07,-1.9886173177134473e-06,-2.3829493809410363e-06,-1.6952431278911498e-06,-4.6265632753224316e-07,-1.4605087954549288e-06,-4.647595774817318e-06,-2.6006599065661356e-06,2.3330200404787085e-06
1.6237810349692522e-06,9.6616831647542e-07,2.994218338065961e-07,-8.635068079537194e-09,-9.483035975542346e-08,-2.2279930262897746e-06,-1.7584671263520537e-06,-1.9170742290908263e-06,-7.907968206774527e-07,8.92458335735122e-07,-2.031078351302558e-06,-2.388666353448757e-06,-1.735197975817658e-06,-4.4723087656125405e-07,-1.4651967536007689e-06,-4.635497187258081e-06,-2.584605804697904e-06,2.366542741591075e-06
1.6229717611267055e-06,9.663752913492827e-07,2.870353604236824e-07,-2.4039123825982e-08,-1.0399300930304962e-07,-2.2268832230316803e-06,-1.788973071709509e-06,-1.9378810740892394e-06,-8.124704235353456e-07,8.866812813691907e-07,-2.0731565632690066e-06,-2.3932229922600685e-06,-1.7754488840922921e-06,-4.2924346745790456e-07,-1.459796378724866e-06,-4.615908191096553e-06,-2.564095835618248e-06,2.3995788712274114e-06
1.6220958295121357e-06,9.664693777740921e-07,2.7544681138927243e-07,-3.6027552587018767e-08,-1.0632994997002224e-07,-2.224780562580325e-06,-1.8135285752988579e-06,-1.9531379393075065e-06,-8.3254832577812e-07,8.77149792727074e-07,-2.1145470918741122e-06,-2.399343441268874e-06,-1.8171320238394081e-06,-4.11418534201106e-07,-1.4473139787710577e-06,-4.591403712716686e-06,-2.5404971580527605e-06,2.430163252147592e-06
1.6190890398495618e-06,9.642614166050897e-07,2.6308915260458946e-07,-4.6643893111117474e-08,-1.0363910815802711e-07,-2.2230383730119473e-06,-1.8337958791349583e-06,-1.963906580703348e-06,-8.515463666277847e-07,8.624147569899099e-07,-2.155201587006764e-06,-2.4086305219847133e-06,-1.8606596679500298e-06,-3.952477953107977e-07,-1.4311023419003698e-06,-4.563620536244892e-06,-2.51508387898072e-06,2.4563157906369302e-06
1.6127349199139822e-06,9.59224471554278e-07,2.4846944495977827e-07,-5.7701983925495926e-08,-9.894664189375138e-08,-2.2222884158701175e-06,-1.8519402190750038e-06,-1.9716122789283707e-06,-8.693279739978533e-07,8.431139617280361e-07,-2.1950013828836903e-06,-2.4196184688331134e-06,-1.9055391796307915e-06,-3.806352613641771e-07,-1.413828192017487e-06,-4.5329952497587735e-06,-2.48793096845718e-06,2.478783514512931e-06
1.6024372198188006e-06,9.522238995463543e-07,2.3099139895511686e-07,-7.05651748518839e-08,-9.495762679858575e-08,-2.2223630301641906e-06,-1.870064779249529e-06,-1.9790006138681965e-06,-8.85444958809228e-07,8.216197965014673e-07,-2.2341784113750237e-06,-2.4300165179864212e-06,-1.9512513048600834e-06,-3.669365032045904e-07,-1.3971275397972096e-06,-4.499350454507737e-06,-2.4588219822787962e-06,2.4974065919792238e-06
1.5888779075599626e-06,9.457069417735427e-07,2.1107270691240146e-07,-8.452086797870114e-08,-9.306673322641845e-08,-2.2224051078829388e-06,-1.8896442024479442e-06,-1.9888795392632664e-06,-8.994780097781999e-07,8.007064566223144e-07,-2.272848472093234e-06,-2.4392438529831928e-06,-1.998108151053768e-06,-3.538156215859999e-07,-1.3814545970551884e-06,-4.4622820122356065e-06,-2.4256942992993593e-06,2.5133504944519985e-06
1.5737474202205643e-06,9.430233320158323e-07,1.9053573502827613e-07,-9.734933566708072e-08,-9.269335996588557e-08,-2.2206592822669578e-06,-1.9107042888460306e-06,-2.002785511749365e-06,-9.107230667049089e-07,7.836757081069095e-07,-2.3110419882205892e-06,-2.4470302366553964e-06,-2.0460409251137287e-06,-3.4099055059761104e-07,-1.3661179106688527e-06,-4.42100635714251e-06,-2.3875195887822183e-06,2.524674510810776e-06
1.5594902927137032e-06,9.468233611441461e-07,1.7205659676391827e-07,-1.066826363318064e-07,-9.182163673549553e-08,-2.2148473464700126e-06,-1.9314823062525637e-06,-2.0204517852920734e-06,-9.180857886782841e-07,7.73399967961152e-07,-2.3471149749700046e-06,-2.453510772892477e-06,-2.094102870687261e-06,-3.2834806392187817e-07,-1.3501510230568369e-06,-4.375969348286812e-06,-2.3425759739174097e-06,2.530134068206663e-06
1.5478424779661366e-06,9.589651953434444e-07,1.5796454809077705e-07,-1.1001821473905605e-07,-8.89759920009929e-08,-2.2029627496199402e-06,-1.949032729580269e-06,-2.039569681574027e-06,-9.20568270958399e-07,7.71480028600329e-07,-2.3787210459610882e-06,-2.458483058913158e-06,-2.1397125244515458e-06,-3.163590380326889e-07,-1.333161823637974e-06,-4.329111295862567e-06,-2.2927119391896688e-06,2.527577863529164e-06
1.5396802679457948e-06,9.801828279631044e-07,1.4923902663353548e-07,-1.0669355235666607e-07,-8.454241622751503e-08,-2.1842678896319877e-06,-1.9601643666446463e-06,-2.0568310016738503e-06,-9.175765826200426e-07,7.774998537224896e-07,-2.4029590700210747e-06,-2.4619081123168664e-06,-2.179361091763542e-06,-3.056649668003196e-07,-1.314976764633917e-06,-4.2856211631848555e-06,-2.2408295666112534e-06,2.51204114688876e-06
1.5347240810552275e-06,1.009925841809528e-06,1.4562620306503662e-07,-9.756301697510075e-08,-8.029937055876306e-08,-2.1595263717401377e-06,-1.9625195688899315e-06,-2.0688056306021365e-06,-9.091796583913155e-07,7.890808324842345e-07,-2.417321115666915e-06,-2.4631753434752037e-06,-2.209302154588447e-06,-2.9662250952079595e-07,-1.2948002246950226e-06,-4.248589437093195e-06,-2.1911265403070454e-06,2.4812657869123075e-06
1.531414150549661e-06,1.0458113998270304e-06,1.4593657440831187e-07,-8.390288664370421e-08,-7.81576325184596e-08,-2.131029578232303e-06,-1.9559526452590507e-06,-2.0732240668623284e-06,-8.968136226854209e-07,8.014421903699134e-07,-2.421370307137423e-06,-2.463309430800066e-06,-2.2272634454020214e-06,-2.8955098497089814e-07,-1.270841261972917e-06,-4.217134035245717e-06,-2.146924887184599e-06,2.436439037701372e-06
1.5270891596826979e-06,1.083658944425138e-06,1.4819119791468034e-07,-6.842631287287698e-08,-7.91220794034383e-08,-2.102351876675876e-06,-1.9432238186974453e-06,-2.0696209428455756e-06,-8.834766877193784e-07,8.081971222246339e-07,-2.416984656134039e-06,-2.4658297697831167e-06,-2.233845844107294e-06,-2.8456664438173934e-07,-1.2403409422371674e-06,-4.1887548157568025e-06,-2.1105054434730945e-06,2.3830062124250974e-06
1.51841948707689e-06,1.1181271108900118e-06,1.5044807812847154e-07,-5.287562239797889e-08,-8.25301549136664e-08,-2.0769922781543835e-06,-1.929064342660842e-06,-2.058938349752125e-06,-8.726847453647584e-07,8.036934626470117e-07,-2.408163200982856e-06,-2.4723428236662393e-06,-2.2316194237182414e-06,-2.808721663376408e-07,-1.2005226600043438e-06,-4.158647908485952e-06,-2.0835833654988816e-06,2.330326472175804e-06
1.502635533496361e-06,1.1432574078615764e-06,1.5139593285159857e-07,-3.843671915046082e-08,-8.550054552443239e-08,-2.058248893071518e-06,-1.918358711429188e-06,-2.0425930401193443e-06,-8.671408545334591e-07,7.85398573199716e-07,-2.3990582991229393e-06,-2.4838583888032632e-06,-2.2242887511592833e-06,-2.7696368491853103e-07,-1.150747011260283e-06,-4.123597341309374e-06,-2.0662912441879223e-06,2.288293561997867e-06
1.4789098678138407e-06,1.1552323736638057e-06,1.506045046919955e-07,-2.5592171913012678e-08,-8.490443704235835e-08,-2.045626911153162e-06,-1.914558717445962e-06,-2.021915443628257e-06,-8.678259586075857e-07,7.554888725473547e-07,-2.3920995066917227e-06,-2.4989364163298205e-06,-2.2158636152885325e-06,-2.7136559989369885e-07,-1.0939397750084718e-06,-4.084782323836685e-06,-2.057925792845767e-06,2.262571885897177e-06
1.448171696237808e-06,1.153555115008588e-06,1.4868539014566595e-07,-1.386792799076904e-08,-7.897550635151728e-08,-2.036464988213576e-06,-1.9187609314135223e-06,-1.997844306502061e-06,-8.734813510712429e-07,7.209278909067071e-07,-2.3886194588438273e-06,-2.5144003649733582e-06,-2.2092031252149263e-06,-2.625720755575916e-07,-1.0356751792634551e-06,-4.0465155407770775e-06,-2.0560678984033257e-06,2.2562813370017502e-06
1.4142793629772158e-06,1.1403968306072642e-06,1.4728285435408165e-07,-2.086867479347649e-09,-6.742364074158436e-08,-2.0271223056449287e-06,-1.9299636504761094e-06,-1.970853836371133e-06,-8.81126729712075e-07,6.914349176389456e-07,-2.3874231868498902e-06,-2.5242890496721788e-06,-2.205171521507637e-06,-2.4893739711195593e-07,-9.821149932428456e-07,-4.013326061989424e-06,-2.0564079761779706e-06,2.270360295431335e-06
1.3816466302187746e-06,1.119434468793532e-06,1.48329884348061e-07,1.1540630151630139e-08,-5.208254870684381e-08,-2.0138734263206044e-06,-1.946407643135743e-06,-1.9415947883323426e-06,-8.876758914217416e-07,6.770120593515458e-07,-2.386111173012939e-06,-2.524055553436334e-06,-2.203145785703618e-06,-2.291709818060728e-07,-9.38341186777261e-07,-3.9897116546611205e-06,-2.05378933191547e-06,2.3037520731147806e-06
1.3547338993029964e-06,1.0965064864531288e-06,1.5324566399662417e-07,2.8478021661909577e-08,-3.6318646065801234e-08,-1.9951006579985497e-06,-1.9664867661355683e-06,-1.911206423603269e-06,-8.910297162654695e-07,6.85268553709717e-07,-2.382473643548609e-06,-2.510833467094424e-06,-2.201270748332807e-06,-2.0244166591326622e-07,-9.073309617804066e-07,-3.9793094846429195e-06,-2.0434791129484453e-06,2.354700541884761e-06
1.3379388645978124e-06,1.077213344710793e-06,1.6286042922750626e-07,5.019186343059882e-08,-2.3401731458851343e-08,-1.970838930825637e-06,-1.988436456829407e-06,-1.880601252605491e-06,-8.899485581884762e-07,7.201859722527094e-07,-2.3746550062963632e-06,-2.4822452161767697e-06,-2.196631318889047e-06,-1.6834155435246596e-07,-8.901420519425676e-07,-3.986148418866233e-06,-2.021213707894555e-06,2.419753733997171e-06
1.3345083025708832e-06,1.0661694306905236e-06,1.7787540146839164e-07,7.776633602573147e-08,-1.5224547960740004e-08,-1.9419803275682995e-06,-2.0099419798199405e-06,-1.8499821202597312e-06,-8.838796440298318e-07,7.816566822900332e-07,-2.360992583184959e-06,-2.4393541334934296e-06,-2.186572761633724e-06,-1.2783309801138517e-07,-8.873727023781888e-07,-4.015178957964906e-06,-1.984075003532937e-06,2.4936302014919325e-06
1.346770810843409e-06,1.0672705863864575e-06,1.9858105572190266e-07,1.1153483864445037e-07,-1.2068929301177554e-08,-1.90958404857332e-06,-2.0285150798507505e-06,-1.8191857617302625e-06,-8.731225226552549e-07,8.652942360834932e-07,-2.341118640838675e-06,-2.3858320846108476e-06,-2.1699256974531225e-06,-8.400779775237876e-08,-8.999472458003988e-07,-4.073568065378597e-06,-1.9329915060411716e-06,2.5679193261580216e-06
1.3750454374108772e-06,1.0831065768056657e-06,2.2476665221691767e-07,1.50965261326942e-07,-1.2531882232396477e-08,-1.8751919030247137e-06,-2.0422568802783704e-06,-1.7880374918477477e-06,-8.587095138635484e-07,9.635826563632278e-07,-2.316190285778002e-06,-2.3271463692121505e-06,-2.147178060703459e-06,-4.121797163466618e-08,-9.281266927040982e-07,-4.167819329621304e-06,-1.8724140685825552e-06,2.632269480393826e-06
1.417582158632358e-06,1.1136396099158493e-06,2.555945330335986e-07,1.9421971791962963e-07,-1.4135929775733203e-08,-1.839865496653704e-06,-2.0507977315246127e-06,-1.7568805104428503e-06,-8.422809318608992e-07,1.0677206867831855e-06,-2.2880434684211224e-06,-2.2691080754916744e-06,-2.1207391257480997e-06,-3.627186790536832e-09,-9.703132086103286e-07,-4.3000968916504565e-06,-1.8084603820000197e-06,2.6792937947250374e-06
1.4701304032814154e-06,1.156985079255178e-06,2.89056687374518e-07,2.3814043181780471e-07,-1.513518765588056e-08,-1.8047772192940893e-06,-2.0561232351884362e-06,-1.727215578204974e-06,-8.261889900715835e-07,1.1695432692780573e-06,-2.2598782198121526e-06,-2.2165395393690826e-06,-2.094362183848142e-06,2.5856918929224688e-08,-1.0228694699142686e-06,-4.465381156124478e-06,-1.74849404084903e-06,2.7058836455809376e-06
1.5277548491927671e-06,1.2097554523263807e-06,3.219709586526968e-07,2.785026449637868e-07,-1.5424442756805444e-08,-1.771760829017084e-06,-2.0622381159304473e-06,-1.701740067628179e-06,-8.130521583833569e-07,1.2627610104957324e-06,-2.2351951334297754e-06,-2.171591802778091e-06,-2.071968133868837e-06,4.648236104323268e-08,-1.0805889880543305e-06,-4.651003579818699e-06,-1.6983253671715226e-06,2.7123899792191827e-06
1.583454818165297e-06,1.2665992722390515e-06,3.509643678636919e-07,3.1166911536646865e-07,-1.6044853998887325e-08,-1.7425186726236638e-06,-2.0735249468192073e-06,-1.6830424064518638e-06,-8.048652563912452e-07,1.3432195680434294e-06,-2.216363514353655e-06,-2.1339347664432046e-06,-2.05639106967348e-06,5.949468274967756e-08,-1.1376833104545712e-06,-4.8387181779885596e-06,-1.6614823430061189e-06,2.7011046906566675e-06
1.630335899246939e-06,1.3216938531579204e-06,3.7356057131165076e-07,3.34992251224268e-07,-1.8165420144644712e-08,-1.7184419639027756e-06,-2.0930980093856437e-06,-1.672896558990442e-06,-8.026926202907664e-07,1.407921517733654e-06,-2.2038991918794454e-06,-2.1026181079737776e-06,-2.0491029463008795e-06,6.643505368318851e-08,-1.1890574509318e-06,-5.007713219284822e-06,-1.6389314923664777e-06,2.6741570123679148e-06
1.6630146020812438e-06,1.369066470132461e-06,3.8860535375389417e-07,3.48819545344224e-07,-2.2189338873516593e-08,-1.700479146383515e-06,-2.1218246468093993e-06,-1.671691531787749e-06,-8.067003940489299e-07,1.4541657536770431e-06,-2.1965757775912645e-06,-2.0788463434764475e-06,-2.050215373995438e-06,6.799017568898207e-08,-1.2309409476246308e-06,-5.140117789694741e-06,-1.6289375613334006e-06,2.6317171790391417e-06
1.6774853773828428e-06,1.4033214591833826e-06,3.9664844237592456e-07,3.5569880187499724e-07,-2.719082147202778e-08,-1.6881917701797393e-06,-2.15783647990138e-06,-1.6773914292361623e-06,-8.158345968781644e-07,1.4799795583226575e-06,-2.1910503449619926e-06,-2.063549145956382e-06,-2.0577054788839233e-06,6.465748753417306e-08,-1.2609100078120129e-06,-5.22390966273464e-06,-1.628325681730034e-06,2.574918981329996e-06
1.6730734565680345e-06,1.42091888633684e-06,3.9980796627004507e-07,3.598331877990823e-07,-3.087717919395123e-08,-1.680062154071347e-06,-2.1968853254167107e-06,-1.6862511794358905e-06,-8.277308602848827e-07,1.4850549536840394e-06,-2.182651964940553e-06,-2.056083856765154e-06,-2.067245572126965e-06,5.770621184498996e-08,-1.2780644563490264e-06,-5.254870436097439e-06,-1.6331726036958299e-06,2.5059185018477484e-06
1.6518938563666998e-06,1.4211607755333686e-06,4.0085659157383674e-07,3.6609359478307813e-07,-3.0768860769750135e-08,-1.6734485574233382e-06,-2.233649207297202e-06,-1.6933034750304446e-06,-8.392690909202143e-07,1.4713940612036902e-06,-2.16743276820611e-06,-2.0539894943783878e-06,-2.0731534706889765e-06,4.957926010903397e-08,-1.282936166046878e-06,-5.23720301358769e-06,-1.6407642943106662e-06,2.4286797371156206e-06
1.6183768252055537e-06,1.4063166166082744e-06,4.0237701564418063e-07,3.779687080889298e-07,-2.5195217418974473e-08,-1.6651260952066257e-06,-2.2631634463241828e-06,-1.6933238162839758e-06,-8.472500108416914e-07,1.4432518005425622e-06,-2.1430527746964376e-06,-2.0529541837380706e-06,-2.069603537034219e-06,4.405727415709717e-08,-1.27676594842526e-06,-5.182080391525782e-06,-1.6488121798665511e-06,2.3506777824247733e-06
1.5786976330593885e-06,1.3806850563717748e-06,4.0638498934838307e-07,3.971887777680104e-07,-1.3351445475502748e-08,-1.6524789682191586e-06,-2.2820629347585135e-06,-1.6821598775714031e-06,-8.492752039826425e-07,1.4073016401023568e-06,-2.1095089165994452e-06,-2.0472142643845933e-06,-2.052311483886271e-06,4.534381092638729e-08,-1.2612732446488878e-06,-5.104808446173244e-06,-1.6558632387721967e-06,2.2812615660432353e-06
1.5417918302985033e-06,1.3498964533762022e-06,4.139600525338782e-07,4.2364528533436817e-07,4.1035090163539436e-09,-1.634198343657527e-06,-2.2897815770287187e-06,-1.6599937021671025e-06,-8.449381051480957e-07,1.3748372779383534e-06,-2.0696783606135345e-06,-2.03089210791471e-06,-2.020728276676621e-06,5.600188571631224e-08,-1.2393104230855282e-06,-5.021932652015761e-06,-1.6610295124706481e-06,2.2295239202161517e-06
1.5152962177127427e-06,1.3240325925630042e-06,4.2511561921496476e-07,4.556129790335978e-07,2.4617101112441755e-08,-1.6118333305840317e-06,-2.2889393348312756e-06,-1.6291605784714492e-06,-8.361395250214681e-07,1.3539712885910798e-06,-2.02867086606312e-06,-2.002397484521964e-06,-1.9786321169243468e-06,7.593230572435903e-08,-1.2152678927754496e-06,-4.948279241658988e-06,-1.662897007562549e-06,2.2023771301781883e-06
1.5018763742054326e-06,1.3108347321216543e-06,4.3941882307281764e-07,4.905009539292712e-07,4.4752815358218036e-08,-1.5884512983700745e-06,-2.28434246950904e-06,-1.5951926182033346e-06,-8.259396827993894e-07,1.3530188664926069e-06,-1.992148922481413e-06,-1.962276667665427e-06,-1.9325902436138353e-06,1.0315787790160731e-07,-1.194985030338361e-06,-4.8953630924521844e-06,-1.6594100726515952e-06,2.2035276681917735e-06
1.5071180270239613e-06,1.319095690751494e-06,4.568149995317763e-07,5.264448202950817e-07,6.187062981189523e-08,-1.5672375709564395e-06,-2.2814579528166825e-06,-1.565735318870722e-06,-8.171110365387038e-07,1.3787238387630339e-06,-1.9650215377396905e-06,-1.9087079892759486e-06,-1.8902759676045292e-06,1.3484184734517695e-07,-1.1856124251267892e-06,-4.870503070303001e-06,-1.6473690177272018e-06,2.232002846779979e-06
1.5346415868672757e-06,1.3569996019667742e-06,4.779414134627724e-07,5.628623590839938e-07,7.528589383783593e-08,-1.5505850169895497e-06,-2.285094551501837e-06,-1.5477009455992988e-06,-8.111435399638113e-07,1.4393209156016158e-06,-1.9507503639797817e-06,-1.840680910051252e-06,-1.858928260745676e-06,1.6812913005891546e-07,-1.1946214058565597e-06,-4.876363133550259e-06,-1.6194824736748466e-06,2.285926898950737e-06
1.5867522517617493e-06,1.4336835354187147e-06,5.039063399703839e-07,6.003181321495527e-07,8.687599429632915e-08,-1.5393112089690836e-06,-2.298207617964167e-06,-1.5467788376153245e-06,-8.075943412833065e-07,1.5433121768963148e-06,-1.9503898897446856e-06,-1.7560324481351134e-06,-1.8429799723461245e-06,2.0112386990226505e-07,-1.2273999991934185e-06,-4.9097387134149e-06,-1.574635897010791e-06,2.3573814014014422e-06
1.6616794066532695e-06,1.5584248873578667e-06,5.355729513492862e-07,6.400911783626465e-07,1.0054878108917384e-07,-1.5327522886253266e-06,-2.3211751024547347e-06,-1.5657601916515835e-06,-8.042980591355739e-07,1.687651336840477e-06,-1.962567292294823e-06,-1.6556755106018611e-06,-1.8439879267207493e-06,2.3300587877781884e-07,-1.2845014813173374e-06,-4.959434246710575e-06,-1.5144342725728948e-06,2.433145371019299e-06
1.7474257264753535e-06,1.7265698492299427e-06,5.720484538427989e-07,6.826928502324597e-07,1.2018222074634563e-07,-1.529768980236247e-06,-2.3518132777794824e-06,-1.6039711123840516e-06,-7.986183079361663e-07,1.8587874866572726e-06,-1.983836582816285e-06,-1.545659249896876e-06,-1.8598364439475882e-06,2.6322206934104525e-07,-1.3593054395465452e-06,-5.0079966462758906e-06,-1.4474381915481413e-06,2.4975106658559033e-06
1.8198895535370617e-06,1.9258680522866243e-06,6.095939768216314e-07,7.265458136019864e-07,1.479425100311219e-07,-1.5300138983978874e-06,-2.3854586792288073e-06,-1.6565241253405251e-06,-7.88712308161441e-07,2.006146003028474e-06,-2.0094662417366656e-06,-1.4516996708384513e-06,-1.8847995496494092e-06,2.911886768267715e-07,-1.436549063901359e-06,-5.034212431131744e-06,-1.3825601029823748e-06,2.5342285320645972e-06
1.8432039333555319e-06,2.0999890600616597e-06,6.420154168046768e-07,7.686171954805892e-07,1.842226189777447e-07,-1.534067773301998e-06,-2.4150052889538064e-06,-1.7157841331240913e-06,-7.743710313788285e-07,2.069975683998306e-06,-2.034736123757591e-06,-1.3983260067889785e-06,-1.91114828385616e-06,3.1640808506666456e-07,-1.4939238240960318e-06,-5.016411412352182e-06,-1.3298541342794087e-06,2.532381048512239e-06
1.8193075499543853e-06,2.1744647116761564e-06,6.621431404460778e-07,8.05140090148174e-07,2.2815471016800774e-07,-1.543533568621505e-06,-2.431728263306919e-06,-1.7719443096838563e-06,-7.576819127779246e-07,2.0059707985271604e-06,-2.0562304760608906e-06,-1.3921796814372213e-06,-1.9314425131079673e-06,3.381323989068435e-07,-1.5086564061162602e-06,-4.938827348666709e-06,-1.2999450365833149e-06,2.4896694030722834e-06
1.7918272305943463e-06,2.1653072879187454e-06,6.640341866892705e-07,8.330679050755205e-07,2.7790124809999075e-07,-1.559977278148777e-06,-2.426910831606613e-06,-1.8151975237637243e-06,-7.427905229782228e-07,1.9366253058093e-06,-2.072518341518042e-06,-1.3916312172050762e-06,-1.940549214888422e-06,3.553070483103062e-07,-1.4670375752833773e-06,-4.79813337105226e-06,-1.2974411539379735e-06,2.4122934870586197e-06
1.7717567074034233e-06,2.1217825165785077e-06,6.455004483128614e-07,8.513365771020971e-07,3.3087583746324676e-07,-1.584024520876446e-06,-2.3937507543681728e-06,-1.8380693131631536e-06,-7.342638904045929e-07,1.8731853750491213e-06,-2.0837249198542886e-06,-1.37334524681978e-06,-1.9359920204242746e-06,3.671289151624075e-07,-1.3717128194056593e-06,-4.607242091062633e-06,-1.3219601503412398e-06,2.311416476090415e-06
1.7809471760623882e-06,2.1218794065247395e-06,6.095503601463487e-07,8.612695383929428e-07,3.837772019581871e-07,-1.6137776189100471e-06,-2.329474685275725e-06,-1.8371419447272528e-06,-7.351151027816396e-07,1.8161139811184064e-06,-2.0906263246787967e-06,-1.3539128351190525e-06,-1.918000549474807e-06,3.7324142814331773e-07,-1.2419487498315945e-06,-4.392713687101729e-06,-1.3653383381791945e-06,2.202548114251007e-06
1.699414462598464e-06,2.116768370116954e-06,5.636701357118937e-07,8.661509081077343e-07,4.3283293906527497e-07,-1.6447573637185795e-06,-2.2368252285815846e-06,-1.8133085044414524e-06,-7.453643150645004e-07,1.7339745462455966e-06,-2.0940674878961663e-06,-1.4113894185932099e-06,-1.8886941025705908e-06,3.7377744901591645e-07,-1.1057624377793125e-06,-4.18474590280839e-06,-1.4165031399590564e-06,2.0984067491442255e-06
1.6296488947838339e-06,2.0207953461780773e-06,5.178200115926384e-07,8.704234077991214e-07,4.7486441183085225e-07,-1.670945456900748e-06,-2.1236196174922157e-06,-1.7715326020314878e-06,-7.613399210641726e-07,1.5869292180507552e-06,-2.093987670366034e-06,-1.4803027446821784e-06,-1.850748610078521e-06,3.6984322353447713e-07,-9.884958652378114e-07,-4.004701022055429e-06,-1.4644382429935268e-06,2.004258253281531e-06
1.5979447959397845e-06,1.8956778082744498e-06,4.821035518086371e-07,8.79064799097714e-07,5.080032911233997e-07,-1.6864131706292e-06,-2.0009932448407522e-06,-1.7188132136671853e-06,-7.765063681353626e-07,1.3809510488003268e-06,-2.0888419416058825e-06,-1.5399787705685443e-06,-1.8062079989322747e-06,3.635509624093821e-07,-9.049051489553488e-07,-3.859134506424984e-06,-1.5018833152843095e-06,1.9192472578806246e-06
1.570646130246781e-06,1.833190684019161e-06,4.6438242857052275e-07,8.963580918255267e-07,5.309673331247898e-07,-1.686358345850012e-06,-1.8819558115467554e-06,-1.663123211772694e-06,-7.839576066261577e-07,1.2802091714648118e-06,-2.0749099241979764e-06,-1.5916907947098767e-06,-1.7564585782183565e-06,3.5743632792876424e-07,-8.576700814845457e-07,-3.742473387174965e-06,-1.5255060743350899e-06,1.840555425817696e-06
1.5642096655270362e-06,1.8162414549725906e-06,4.684779460693558e-07,9.246480861466793e-07,5.423683447383543e-07,-1.6694724882466748e-06,-1.7801967581257914e-06,-1.61193849230264e-06,-7.789703319027251e-07,1.2093134492391091e-06,-2.051324902227845e-06,-1.5903799609326413e-06,-1.7028676760369483e-06,3.543050205386794e-07,-8.402489513521523e-07,-3.644326771602486e-06,-1.534125155036515e-06,1.7701302893871803e-06
1.5213419714898852e-06,1.7896727715764284e-06,4.938026508753052e-07,9.637897752425261e-07,5.413626224260458e-07,-1.6384950969597185e-06,-1.708198306813224e-06,-1.5707552366574148e-06,-7.604166763953464e-07,1.1029478004092453e-06,-2.0190082110701588e-06,-1.5653508872960235e-06,-1.6472540000062514e-06,3.5705177566688986e-07,-8.414239530049709e-07,-3.555546864228157e-06,-1.530030356444332e-06,1.713823527217166e-06
1.5662000101081394e-06,1.7849915220672934e-06,5.358260767116133e-07,1.0113194617588891e-06,5.286691156844568e-07,-1.5974804768077932e-06,-1.6745723186144697e-06,-1.5423979602796484e-06,-7.310705441866282e-07,1.1218044692734807e-06,-1.9800276797392842e-06,-1.5130246404332588e-06,-1.5924812101993209e-06,3.676278349058509e-07,-8.497866911334635e-07,-3.472187104826889e-06,-1.5183189188336057e-06,1.6762041695093287e-06
1.6567279502133597e-06,1.9203719873641462e-06,5.871733118272484e-07,1.0631287248196815e-06,5.070414963672921e-07,-1.5531928654941781e-06,-1.681029309274179e-06,-1.5258259276011918e-06,-6.965385468023274e-07,1.2195245287027006e-06,-1.937559705074323e-06,-1.445624676237679e-06,-1.540618483829042e-06,3.8619633246796075e-07,-8.569092880028645e-07,-3.397094180717318e-06,-1.5040790961919081e-06,1.6594460371596017e-06
1.7218664515816598e-06,2.092395611409212e-06,6.396008068682282e-07,1.1146472632199964e-06,4.810183823604431e-07,-1.5109443365755916e-06,-1.7201996483876477e-06,-1.5159558855671795e-06,-6.62944373100122e-07,1.3065233677175706e-06,-1.8934965942763846e-06,-1.3819118879183987e-06,-1.4915243572709813e-06,4.110303649301514e-07,-8.593459895823246e-07,-3.340003965223778e-06,-1.4935744996484684e-06,1.6577798350712251e-06
1.7938016388393348e-06,2.220810575273128e-06,6.861477326158615e-07,1.1619715987977565e-06,4.554917395237967e-07,-1.4725720391807905e-06,-1.7763672087379462e-06,-1.503515553936228e-06,-6.348841182851242e-07,1.350546092789423e-06,-1.847099209805308e-06,-1.3284884108434483e-06,-1.443052836095706e-06,4.383222651407403e-07,-8.598936901148622e-07,-3.316662951380168e-06,-1.4926087138973895e-06,1.6617428517097634e-06
1.8302532953321516e-06,2.238696420115555e-06,7.225662553492378e-07,1.2023038396622152e-06,4.337929091373314e-07,-1.4374027581556942e-06,-1.8294790087453213e-06,-1.4803942758597928e-06,-6.146397239304479e-07,1.3620203693091352e-06,-1.7965210760601754e-06,-1.2893178989003988e-06,-1.3921603236106692e-06,4.623806153846461e-07,-8.668513989459893e-07,-3.3457085359943546e-06,-1.5077724061191155e-06,1.6629220951985373e-06
1.8257624541000934e-06,2.1959278073904434e-06,7.478894020617199e-07,1.2341677118343396e-06,4.1708338518316e-07,-1.4026676363327883e-06,-1.8603866052560183e-06,-1.4406211182764052e-06,-6.023088865134919e-07,1.3362699712161758e-06,-1.7402542769183402e-06,-1.26639774211841e-06,-1.3362886351118268e-06,4.77146046964181e-07,-8.902806010395631e-07,-3.4413891429998555e-06,-1.5445917460720045e-06,1.653384346754745e-06
1.795628486863429e-06,2.136309763778868e-06,7.641340491411637e-07,1.257629188495617e-06,4.0515300059170336e-07,-1.3650361110190746e-06,-1.8554131925816343e-06,-1.3819959703426488e-06,-5.965116901464767e-07,1.2788718832749085e-06,-1.676757808498561e-06,-1.2570695240594772e-06,-1.2741973064358258e-06,4.782145641530986e-07,-9.366321620475758e-07,-3.6026553099498986e-06,-1.6057835375150634e-06,1.6247674827068508e-06
1.7372437806273078e-06,2.1009825960929833e-06,7.751368097844065e-07,1.2741652070051454e-06,3.9751287653728493e-07,-1.3219105405037412e-06,-1.8094357297901571e-06,-1.3077896783798429e-06,-5.95279958051862e-07,1.202404866996985e-06,-1.6053374350071914e-06,-1.2557706029004437e-06,-1.2065206226112472e-06,4.644951260966052e-07,-1.0039958802124623e-06,-3.8046754721862788e-06,-1.6906929349357844e-06,1.5666730075781582e-06
1.6722032621920936e-06,1.939508635009878e-06,7.852861861957635e-07,1.2863701333647354e-06,3.944837935318044e-07,-1.2720038230231912e-06,-1.7269946805254763e-06,-1.2247635468745251e-06,-5.966042045065513e-07,1.1207585204658565e-06,-1.525803849888414e-06,-1.2552522211259672e-06,-1.135623705743217e-06,4.3911441100532517e-07,-1.0804016823064155e-06,-3.999042913251501e-06,-1.7939198165952632e-06,1.4707370404139321e-06
1.6088199067793747e-06,1.7547014588494134e-06,7.984221248075969e-07,1.2973910474492429e-06,3.976741089399186e-07,-1.2150261311311716e-06,-1.621395457725229e-06,-1.1418124869950426e-06,-5.989392585141611e-07,1.0452158694856447e-06,-1.4391947621062442e-06,-1.2488616477979858e-06,-1.065521466203711e-06,4.08446009666116e-07,-1.147443542524333e-06,-4.1271903955389205e-06,-1.9071900232361215e-06,1.3359362058636864e-06
1.5489238094440284e-06,1.605840647354136e-06,8.166251372568665e-07,1.3095715579720122e-06,4.0895299408283413e-07,-1.1532179093502404e-06,-1.5119412946239403e-06,-1.0684882886829194e-06,-6.018620167782898e-07,9.826460405014266e-07,-1.3485774452369125e-06,-1.2324207450314152e-06,-1.001468423631757e-06,3.7943301557078536e-07,-1.1879307467371845e-06,-4.143303330494302e-06,-2.019113799383748e-06,1.1765963279078472e-06
1.4951223619601224e-06,1.4904454821361108e-06,8.394761081123571e-07,1.3232151679753287e-06,4.2897310350094597e-07,-1.0921345344798685e-06,-1.4193081215384477e-06,-1.0132126861753777e-06,-6.06006942529565e-07,9.363138111930482e-07,-1.2598592484910044e-06,-1.2045846188274463e-06,-9.487224572702666e-07,3.574594529082732e-07,-1.1923228361620533e-06,-4.0340150730090825e-06,-2.117458350533708e-06,1.0236069224667966e-06
1.4486576728764915e-06,1.4023451915918207e-06,8.644116853487659e-07,1.3365973495970842e-06,4.5681742665282165e-07,-1.0397556874128607e-06,-1.360271792663579e-06,-9.806421696086295e-07,-6.121716783799525e-07,9.078715816081299e-07,-1.1813135282156673e-06,-1.1659046492090612e-06,-9.112657035580942e-07,3.456920737619295e-07,-1.1603424791643464e-06,-3.8234039076800705e-06,-2.190635748817586e-06,9.169369836000022e-07
1.411622044347159e-06,1.344073152037535e-06,8.87646486023696e-07,1.3470203395338012e-06,4.90528349197132e-07,-1.004848224634648e-06,-1.3440218350764349e-06,-9.724743722338904e-07,-6.206782374944271e-07,8.984834027867828e-07,-1.1223884236643719e-06,-1.1177501123748178e-06,-8.912387005711342e-07,3.451364478743696e-07,-1.0985140898386938e-06,-3.5615558848514405e-06,-2.2298757881012275e-06,8.925293240301774e-07
1.3868019555251888e-06,1.3126963108356631e-06,9.052554031945357e-07,1.3519683086494957e-06,5.279724366667255e-07,-9.944495363440524e-07,-1.3709844263181226e-06,-9.873119194382447e-07,-6.312178827814436e-07,9.086325927366318e-07,-1.090740324081926e-06,-1.0622780217630547e-06,-8.886264291115575e-07,3.5536902438568633e-07,-1.0162570774812248e-06,-3.303887986337605e-06,-2.2317372001335123e-06,9.67379413214112e-07
1.3766459333975517e-06,1.304374274483885e-06,9.142923525146332e-07,1.3501187813106778e-06,5.678263036437549e-07,-1.0114607054180275e-06,-1.433774083809965e-06,-1.020813173479693e-06,-6.428734290378672e-07,9.37501117213688e-07,-1.090175802523016e-06,-1.001510875785134e-06,-9.010181246760105e-07,3.754530253113755e-07,-9.231696702132278e-07,-3.0929767351112568e-06,-2.197911932985966e-06,1.1342772560299227e-06
1.3818016437523264e-06,1.3147442721483398e-06,9.136218958729319e-07,1.3417601361762547e-06,6.09743901123156e-07,-1.0540890852528917e-06,-1.5199798981750893e-06,-1.067202929845551e-06,-6.546534991261705e-07,9.824321374786934e-07,-1.1197190334786617e-06,-9.375541326960196e-07,-9.243657323038737e-07,4.036976077214528e-07,-8.286348043988234e-07,-2.9508230458060207e-06,-2.1360338257605553e-06,1.3652976292272374e-06
1.4008787075854278e-06,1.3386081822582134e-06,9.039014941843085e-07,1.3282651983275898e-06,6.534921879338205e-07,-1.1160380065736639e-06,-1.6159217233354274e-06,-1.1202561312025439e-06,-6.66303663518869e-07,1.0386387507059124e-06,-1.173787612800288e-06,-8.734322246011637e-07,-9.548022951918704e-07,4.368547370189267e-07,-7.421645466774626e-07,-2.881429436741106e-06,-2.055563601910729e-06,1.6236674618984367e-06
1.4304359994667092e-06,1.3701200873676516e-06,8.871853932255385e-07,1.3114939138535262e-06,6.981902660124618e-07,-1.1890259061377027e-06,-1.7098033571854705e-06,-1.1742446431107294e-06,-6.785389492737972e-07,1.0995573917258413e-06,-1.2443649103253713e-06,-8.129764972774705e-07,-9.889566260200988e-07,4.7030708564563895e-07,-6.726556057227357e-07,-2.8765594030411213e-06,-1.9672247810954686e-06,1.8757691883201835e-06
1.4662964944427482e-06,1.4041672201949564e-06,8.662708712181776e-07,1.2934866675390045e-06,7.420587172217826e-07,-1.2651424722916795e-06,-1.7934687589245803e-06,-1.2250170182196736e-06,-6.927084328099533e-07,1.1578893233562886e-06,-1.3231541448703945e-06,-7.606199072023683e-07,-1.0244955936049235e-06,4.990651735688684e-07,-6.268368929076696e-07,-2.922205328096376e-06,-1.880284760867448e-06,2.09677510602504e-06
1.5035607665683236e-06,1.4362575265904864e-06,8.438876931719145e-07,1.276121710660878e-06,7.825480567957616e-07,-1.3381365384318637e-06,-1.8627857187909668e-06,-1.2698810802070071e-06,-7.101790106517127e-07,1.2071655013717862e-06,-1.4029817857411914e-06,-7.202111538576316e-07,-1.060502120391613e-06,5.190005559928397e-07,-6.078071622464331e-07,-3.001800188211766e-06,-1.802615451039607e-06,2.272911400093415e-06
1.5376622926831674e-06,1.4634924487437637e-06,8.223087409410927e-07,1.2609212511416017e-06,8.172512152404722e-07,-1.4038337298977485e-06,-1.9168454225791514e-06,-1.30742538051385e-06,-7.314055148044615e-07,1.2433384842804404e-06,-1.4784546316582236e-06,-6.93739556991647e-07,-1.096948017599441e-06,5.281031379319167e-07,-6.142445724653279e-07,-3.096924043464676e-06,-1.7389237359882806e-06,2.4003410668195605e-06
1.56512391868054e-06,1.4848274387381854e-06,8.033572683631527e-07,1.2490631028286907e-06,8.450265913331505e-07,-1.4594526387303748e-06,-1.9567044892789617e-06,-1.3374766225789733e-06,-7.552811232173548e-07,1.2654864826462115e-06,-1.5460513702890232e-06,-6.813376291511563e-07,-1.134263580012439e-06,5.268746476766681e-07,-6.409126482851426e-07,-3.189441245641884e-06,-1.6897564233368134e-06,2.4817175503907132e-06
1.5836668709992177e-06,1.5005151548810517e-06,7.883584874745535e-07,1.2411576107011902e-06,8.661466568218484e-07,-1.5029891098143545e-06,-1.9843754323461936e-06,-1.3606295351077962e-06,-7.7930000771486e-07,1.2753313688121637e-06,-1.6035657184272122e-06,-6.807144385354235e-07,-1.1727379231387142e-06,5.177404516063599e-07,-6.801395829914275e-07,-3.263475923179728e-06,-1.653166254440898e-06,2.5224723795724874e-06
1.5927105543388383e-06,1.5117627318369893e-06,7.781258333596424e-07,1.2371278531906372e-06,8.819238831071011e-07,-1.5338735480066814e-06,-2.001893290885043e-06,-1.3778490219101695e-06,-8.000578101030329e-07,1.276277099636543e-06,-1.6495521067152329e-06,-6.87101205272783e-07,-1.2114124815238698e-06,5.044611378344182e-07,-7.233399282993765e-07,-3.3077046751252696e-06,-1.6249234133558987e-06,2.528873364243091e-06
1.593565678388823e-06,1.520672194250038e-06,7.732221658683472e-07,1.2366132378576448e-06,8.944640145658174e-07,-1.5525266890568424e-06,-2.0105475980148554e-06,-1.3896372642094173e-06,-8.139826314609011e-07,1.272377744981223e-06,-1.6827677225525834e-06,-6.941750177129328e-07,-1.2474184581361383e-06,4.913715568481642e-07,-7.625689470627348e-07,-3.31776187784137e-06,-1.6006934728896118e-06,2.5069513145526306e-06
1.5890143967301355e-06,1.5297012096360997e-06,7.738579935343345e-07,1.239153983366523e-06,9.059632255778967e-07,-1.5602262989460602e-06,-2.010991436949986e-06,-1.3961055302545592e-06,-8.186113919285207e-07,1.2672480443595533e-06,-1.7027183736506332e-06,-6.959204564815666e-07,-1.2768754542594692e-06,4.820741739078968e-07,-7.920409360655476e-07,-3.2976032593897796e-06,-1.577364247295233e-06,2.463592169944825e-06
1.5825663965415958e-06,1.5409087361409307e-06,7.793641751186256e-07,1.2439206249674045e-06,9.177691498756088e-07,-1.5595238549275091e-06,-2.0039992253487292e-06,-1.3971802387680806e-06,-8.136356964756726e-07,1.2633315562920442e-06,-1.7105000066105932e-06,-6.876382395728917e-07,-1.2961698061895214e-06,4.786678999105729e-07,-8.087985248087884e-07,-3.25818223010673e-06,-1.5534625548396353e-06,2.4080407746195732e-06
1.5777377994258572e-06,1.5558257034290717e-06,7.878606129507303e-07,1.2495758780700969e-06,9.300784541697513e-07,-1.5537208266658035e-06,-1.9910369194913823e-06,-1.3931934680379554e-06,-8.009735602420507e-07,1.2617496154153153e-06,-1.709123503522547e-06,-6.675592658139849e-07,-1.303135632188583e-06,4.817798128181549e-07,-8.126369246441762e-07,-3.2140218369851612e-06,-1.5285474695665388e-06,2.3515006117381486e-06
1.5770296855694013e-06,1.574814263065982e-06,7.962772128114672e-07,1.2542200928147562e-06,9.420315428846485e-07,-1.54677716458815e-06,-1.9744585496884135e-06,-1.3850974639516793e-06,-7.842867328754982e-07,1.2623327280286127e-06,-1.7036618839849682e-06,-6.371807266732095e-07,-1.2982976180316455e-06,4.905217430534622e-07,-8.059258103015869e-07,-3.1789908790764236e-06,-1.503160800671132e-06,2.3051637864714138e-06
1.5814049074693917e-06,1.5969440311588969e-06,8.008823623551389e-07,1.2555361187584503e-06,9.520518174378686e-07,-1.542538128636672e-06,-1.9571336797510008e-06,-1.374642244415032e-06,-7.680655159378555e-07,1.263941387400789e-06,-1.6994010347160113e-06,-6.007253479712547e-07,-1.2850428581342357e-06,5.027962647514537e-07,-7.929281782111468e-07,-3.163113507278038e-06,-1.4784607098674903e-06,2.2768755867159384e-06
1.5905105115268356e-06,1.6204443353181259e-06,7.985620448631321e-07,1.2515710400259738e-06,9.587703785517218e-07,-1.5436838049376679e-06,-1.9413875069767793e-06,-1.363961137345384e-06,-7.561961864530559e-07,1.2653446341913277e-06,-1.7008595050869755e-06,-5.636927703366643e-07,-1.2683583723067748e-06,5.163007299815526e-07,-7.78473081170517e-07,-3.170103945859995e-06,-1.4550647122992715e-06,2.2690325959544104e-06
1.6030996729468973e-06,1.6433680256993877e-06,7.880581766577828e-07,1.241581556164849e-06,9.61898394139474e-07,-1.5511750185595697e-06,-1.928126516878727e-06,-1.3548778844742662e-06,-7.508382775771929e-07,1.2661556892020626e-06,-1.7107962660213876e-06,-5.311298189174404e-07,-1.2534413945284935e-06,5.291186862103586e-07,-7.668454989941737e-07,-3.1972997196444974e-06,-1.4329141280138772e-06,2.278434602010699e-06
1.6176598925732382e-06,1.6641676604272914e-06,7.703156913124875e-07,1.226228895679208e-06,9.62459320005606e-07,-1.5635393647952653e-06,-1.9167608095701654e-06,-1.348772386868385e-06,-7.520797041255318e-07,1.26733831940195e-06,-1.729843076723535e-06,-5.067016157830833e-07,-1.2449650636920286e-06,5.398049328699885e-07,-7.611476147798256e-07,-3.2375624829184008e-06,-1.4119055002398452e-06,2.2972587438417796e-06
1.6327589025030718e-06,1.6822825054492154e-06,7.480781985840029e-07,1.2074420371464749e-06,9.62724543145343e-07,-1.5777839815655823e-06,-1.9054719528593786e-06,-1.346158709850166e-06,-7.58003703768536e-07,1.271147957029989e-06,-1.75672065967673e-06,-4.917590441234621e-07,-1.245917208624182e-06,5.4763143270857e-07,-7.631009758850866e-07,-3.2819692462491074e-06,-1.3912417786359297e-06,2.3167780009060832e-06
1.6469380771937942e-06,1.698295328243454e-06,7.249725373652562e-07,1.1879637983840236e-06,9.654743159906912e-07,-1.5902318964100056e-06,-1.8917387038126963e-06,-1.3468275824976506e-06,-7.653133009415856e-07,1.2802653803760183e-06,-1.788865687289935e-06,-4.855127247661154e-07,-1.2569529831465238e-06,5.524249575255148e-07,-7.737399171968011e-07,-3.3224311396981975e-06,-1.3701957280172583e-06,2.329103555992491e-06
1.6596165208056052e-06,1.7138403059261297e-06,7.041275726104758e-07,1.1702075290674428e-06,9.722352035937897e-07,-1.5976022393033199e-06,-1.8733296706490045e-06,-1.3495592909056905e-06,-7.70531009754965e-07,1.2964030989992636e-06,-1.822930583462032e-06,-4.859673055503117e-07,-1.2767102783526586e-06,5.54012248101048e-07,-7.944224766759695e-07,-3.3538816788813497e-06,-1.3483251544944238e-06,2.328221069159213e-06
1.6703571722808012e-06,1.7307272391851364e-06,6.871993384624701e-07,1.1552553502564987e-06,9.82014606717518e-07,-1.5979456359893053e-06,-1.8492011781459813e-06,-1.3529612143051357e-06,-7.709174748146851e-07,1.3194504834987778e-06,-1.855225719859136e-06,-4.90539341011976e-07,-1.30206541222713e-06,5.523691611665717e-07,-8.26889971874609e-07,-3.375403044548527e-06,-1.3259549490763507e-06,2.311808611180765e-06
1.6786520012193283e-06,1.7500410961232532e-06,6.743783723159861e-07,1.1427816663741972e-06,9.916670367785694e-07,-1.5906281117190605e-06,-1.819944276454034e-06,-1.3556897394563256e-06,-7.649733783467987e-07,1.3475860422695452e-06,-1.8826999267189261e-06,-4.961446274946769e-07,-1.3288587436915315e-06,5.481734355499705e-07,-8.723359612057386e-07,-3.3894556360263515e-06,-1.3043104896190496e-06,2.282606931809235e-06
1.6841571456437624e-06,1.771539821668861e-06,6.64708230918797e-07,1.1313543164060032e-06,9.971300750699796e-07,-1.576434044536728e-06,-1.7879869815303923e-06,-1.3567725966230262e-06,-7.530184369518035e-07,1.3778602706902006e-06,-1.903819898469058e-06,-5.005258723881947e-07,-1.3533908409056293e-06,5.430077578287115e-07,-9.299544589799453e-07,-3.4000212112034688e-06,-1.2850123649051177e-06,2.248748104941275e-06
1.6862799347093296e-06,1.79326791832241e-06,6.564251205364792e-07,1.1188934256590494e-06,9.950663196980756e-07,-1.5571993820855177e-06,-1.7571530570028432e-06,-1.3559212645504643e-06,-7.373289407428607e-07,1.4068655782444985e-06,-1.919134839072423e-06,-5.025479901515161e-07,-1.3734915814648698e-06,5.395680233583689e-07,-9.954382591956231e-07,-3.409189685235498e-06,-1.2694316162848989e-06,2.2216859377618087e-06
1.6843597182918263e-06,1.8117855719092014e-06,6.475140243268171e-07,1.1034657831212741e-06,9.8454734894387e-07,-1.5356257507732744e-06,-1.7314413433054064e-06,-1.3531870426441635e-06,-7.214691456312585e-07,1.4312045545939947e-06,-1.9306887513334023e-06,-5.019538724241024e-07,-1.3887826369333315e-06,5.412730092976702e-07,-1.0611120428396751e-06,-3.4146687602114544e-06,-1.2577020679779006e-06,2.21224724966569e-06
1.6777494823093258e-06,1.823121751459206e-06,6.361105775271086e-07,1.0837303047085906e-06,9.672810818978133e-07,-1.5148157447971146e-06,-1.714041487756671e-06,-1.3488819644569714e-06,-7.095690759006662e-07,1.4476651050610299e-06,-1.9414484664895334e-06,-5.00200622886832e-07,-1.4011402350902257e-06,5.503318545128438e-07,-1.1187606089987281e-06,-3.4114481997478413e-06,-1.2493760964556484e-06,2.2255386758460156e-06
1.6660342277691669e-06,1.8236041574887424e-06,6.206243523155475e-07,1.05877081366712e-06,9.461988832548129e-07,-1.4980759769133889e-06,-1.7069817994766776e-06,-1.3439347397950534e-06,-7.056185120813826e-07,1.4537026904576586e-06,-1.954718646636923e-06,-5.008718632555038e-07,-1.4144802494146042e-06,5.660212607055019e-07,-1.1630434217662647e-06,-3.3963910619612014e-06,-1.2436187370020652e-06,2.259163213508055e-06
1.6491941882056947e-06,1.8111507343810394e-06,6.001006985259887e-07,1.0281520082121554e-06,9.241977253277305e-07,-1.4885889105030036e-06,-1.7108120099479955e-06,-1.3396372184637876e-06,-7.123239214469406e-07,1.4485974196837854e-06,-1.9734346937271884e-06,-5.080021457367869e-07,-1.433160864813389e-06,5.851742128820644e-07,-1.1928122409149525e-06,-3.3715854729323743e-06,-1.2394048751240574e-06,2.3055722510438444e-06
1.628062017905032e-06,1.78613430303709e-06,5.746227668704502e-07,9.922422177185888e-07,9.036978357565599e-07,-1.488035710298844e-06,-1.724301101985031e-06,-1.3377033562396542e-06,-7.301607007803657e-07,1.434269154071707e-06,-1.9994852558880646e-06,-5.243493074452265e-07,-1.460467222646109e-06,6.039692391021363e-07,-1.210134376715829e-06,-3.344131412603565e-06,-1.2357547609725985e-06,2.355732468910964e-06
1.6041726225142342e-06,1.7510623894909326e-06,5.452246023480418e-07,9.521979605545423e-07,8.864306628991955e-07,-1.4960573493263458e-06,-1.744365010951341e-06,-1.339107126243691e-06,-7.571849231664795e-07,1.4147954902882863e-06,-2.033555321397678e-06,-5.504364428502609e-07,-1.4978130385509843e-06,6.196249117417648e-07,-1.2181277329346766e-06,-3.3225419298080956e-06,-1.2317038890832344e-06,2.4019789381955495e-06
1.5791896720589042e-06,1.7098842618749835e-06,5.136331337093458e-07,9.098181264530096e-07,8.734821605009605e-07,-1.509976933526366e-06,-1.7661504455782485e-06,-1.343387505557096e-06,-7.893265235291259e-07,1.3949558296891692e-06,-2.0745574256091565e-06,-5.84025200190497e-07,-1.5442802928405314e-06,6.315042001865485e-07,-1.2189471430414842e-06,-3.3123525153654245e-06,-1.2263816392734345e-06,2.438876073797425e-06
1.5546896220462543e-06,1.6670790365988843e-06,4.81889729573928e-07,8.672380296751026e-07,8.652854203086504e-07,-1.5252768769299058e-06,-1.783868431044894e-06,-1.3490264092911694e-06,-8.21412162534097e-07,1.3786196605324407e-06,-2.119830671722692e-06,-6.211034010623762e-07,-1.597085586504935e-06,6.408099099172383e-07,-1.2133907981281925e-06,-3.3139233000517914e-06,-1.220144456980938e-06,2.463255141586882e-06
1.531778983008201e-06,1.6262952054092637e-06,4.515554661993767e-07,8.25995552630357e-07,8.610154716560757e-07,-1.5376530078548697e-06,-1.7927362072057108e-06,-1.3543811908862443e-06,-8.49014781182676e-07,1.3677669568620771e-06,-2.166458838324386e-06,-6.576778220223241e-07,-1.6528597568792194e-06,6.492138066218194e-07,-1.2020592146848816e-06,-3.32379378193616e-06,-1.2124355371868469e-06,2.4742074103777796e-06
1.5111299533219049e-06,1.590342067076597e-06,4.230604758418805e-07,7.862418625304737e-07,8.583933179009289e-07,-1.5444120609301626e-06,-1.7906387292690753e-06,-1.3587285251908806e-06,-8.698211693764364e-07,1.362680086088504e-06,-2.2120732789599045e-06,-6.904312639121735e-07,-1.7078462815539818e-06,6.581855914239935e-07,-1.1865040708763927e-06,-3.3383959104781923e-06,-1.202977840256396e-06,2.4725489358406004e-06
1.4937159802458546e-06,1.561151323477775e-06,3.959622904876556e-07,7.471120803999775e-07,8.547054975350034e-07,-1.5446501370119756e-06,-1.7782303432559944e-06,-1.3619023732011928e-06,-8.836883885589087e-07,1.3628937096712237e-06,-2.2550184615874008e-06,-7.165195636240043e-07,-1.7579492610081358e-06,6.690322111745744e-07,-1.1696647734952462e-06,-3.35695134636458e-06,-1.1906565876573199e-06,2.4606457969784597e-06
1.4804617005802288e-06,1.5393077520680332e-06,3.6962479591084817e-07,7.076477742433215e-07,8.478772217886893e-07,-1.5387929593882274e-06,-1.7580448166697954e-06,-1.3640850366991022e-06,-8.920782766963999e-07,1.3679510045737306e-06,-2.2944684303245143e-06,-7.338925975595853e-07,-1.7993900986888872e-06,6.824959456098696e-07,-1.1557066267962176e-06,-3.3828931150304122e-06,-1.1751563441560445e-06,2.441915936100871e-06
1.4726384769814369e-06,1.5253284213759582e-06,3.4371404320021185e-07,6.674020187818609e-07,8.368472915181287e-07,-1.5281538377651954e-06,-1.7334671273765547e-06,-1.3651873750294625e-06,-8.973351089404803e-07,1.3777504813709316e-06,-2.330501369443343e-06,-7.420768946892067e-07,-1.829605295274327e-06,6.984292413763549e-07,-1.1490625014050016e-06,-3.423093979048141e-06,-1.1562496981157986e-06,2.4199580673626175e-06
1.4718787448558004e-06,1.5198837517946326e-06,3.184461603243425e-07,6.26681051848362e-07,8.216621862505737e-07,-1.5145054996282808e-06,-1.7078472925081325e-06,-1.3651092059157033e-06,-9.019609261555285e-07,1.3925170498418113e-06,-2.364018649643284e-06,-7.421543518869021e-07,-1.8480228358622373e-06,7.159477238965626e-07,-1.1531410867787805e-06,-3.4848002348166955e-06,-1.1333313088097602e-06,2.3972553346636434e-06
1.4792979622885464e-06,1.5232871388689478e-06,2.9427531117326535e-07,5.861111659948526e-07,8.03164536785584e-07,-1.500115156296585e-06,-1.6841233161053815e-06,-1.364294680211946e-06,-9.084168737717687e-07,1.4121322606582195e-06,-2.3969245468810402e-06,-7.372131818393438e-07,-1.8568275563540328e-06,7.332002642310177e-07,-1.1696321599509303e-06,-3.5722793344531972e-06,-1.1068041977516342e-06,2.3735138444780184e-06
1.4946471526428662e-06,1.5346707707086919e-06,2.7119159927881875e-07,5.457852730102835e-07,7.8246941322843e-07,-1.4876891786920726e-06,-1.6647984442408924e-06,-1.3639735037153082e-06,-9.191232783435472e-07,1.4352455889168912e-06,-2.4318885052241576e-06,-7.323111314317845e-07,-1.8607679631115582e-06,7.473121802713183e-07,-1.1981680576116394e-06,-3.6843881504552017e-06,-1.0776671743309815e-06,2.3452409462479004e-06
1.5153350148389991e-06,1.5513558099510886e-06,2.484938185386482e-07,5.050544500560763e-07,7.612005805774551e-07,-1.4798873711284206e-06,-1.6515800545331215e-06,-1.3655237539242493e-06,-9.358081146346661e-07,1.4590622421025774e-06,-2.4713080446664365e-06,-7.328824341362438e-07,-1.8656209082645947e-06,7.555921547446005e-07,-1.2359364268397776e-06,-3.813770913811546e-06,-1.048251303823393e-06,2.3077240761706746e-06
1.5371228750291629e-06,1.5681165675670686e-06,2.250707150455655e-07,4.6301667286684195e-07,7.420190961374081e-07,-1.4785567753151112e-06,-1.6448161812915153e-06,-1.3695989557844924e-06,-9.586837434230716e-07,1.4798197950183862e-06,-2.516146453293695e-06,-7.424789761591394e-07,-1.8757278825058591e-06,7.57005384827848e-07,-1.2778257191889532e-06,-3.9480015098670725e-06,-1.0213307501123128e-06,2.2581841243784114e-06
1.5544147596062598e-06,1.5776050371212004e-06,1.9952670882753304e-07,4.18838476956384e-07,7.282156088727893e-07,-1.4843990772422125e-06,-1.6432448064249983e-06,-1.375688835552751e-06,-9.86306696383931e-07,1.4935533195826665e-06,-2.5655062122319866e-06,-7.618294417698666e-07,-1.8925416445815842e-06,7.528641026766519e-07,-1.3172484484560432e-06,-4.072278897404853e-06,-9.997180180606368e-07,2.197864437781899e-06
1.5614662315770999e-06,1.5718711975556792e-06,1.703964412973669e-07,3.720268547479556e-07,7.228335719157304e-07,-1.4969154144769156e-06,-1.6439127763342017e-06,-1.382300120362963e-06,-1.015958379195297e-06,1.4971286023255864e-06,-2.6168384063071374e-06,-7.885029740786252e-07,-1.9142838035494443e-06,7.469023915181417e-07,-1.347309981581228e-06,-4.172693900960732e-06,-9.849683561954218e-07,2.13187134986147e-06
1.5540935887858154e-06,1.5443633436814188e-06,1.3675066851728868e-07,3.2295567264445596e-07,7.279482535260285e-07,-1.5147519443516714e-06,-1.6424958430051294e-06,-1.3873587548550128e-06,-1.0444946764466107e-06,1.4892274707656858e-06,-2.6675323970808412e-06,-8.173723678336089e-07,-1.937004292219876e-06,7.441912267964571e-07,-1.362568018792165e-06,-4.239512663978366e-06,-9.7686569868684e-07,2.066688385169931e-06
1.5308846156430477e-06,1.492515429223949e-06,9.85917164093829e-08,2.7291326347094455e-07,7.435956916886085e-07,-1.5359330035063213e-06,-1.6346727661709536e-06,-1.3893703673171308e-06,-1.0696505237336274e-06,1.4707486629384277e-06,-2.714864595495934e-06,-8.43417355597016e-07,-1.956640241843303e-06,7.488588877756924e-07,-1.3609219682280035e-06,-4.269262019059159e-06,-9.731171682517046e-07,2.0071919546383124e-06
1.4938307202364095e-06,1.4191399058675707e-06,5.689889128654287e-08,2.2352451636096526e-07,7.669161294874833e-07,-1.558188376976041e-06,-1.6179248128018103e-06,-1.3883949527334848e-06,-1.090674964499688e-06,1.4447683428397373e-06,-2.7576146418799585e-06,-8.630762561417771e-07,-1.9708354346513216e-06,7.626143283124517e-07,-1.3441429616600007e-06,-4.264808759527922e-06,-9.707600435657268e-07,1.9554009511801005e-06
1.4476652442780602e-06,1.332110433946755e-06,1.3749269487806879e-08,1.763731070987421e-07,7.927880434552611e-07,-1.5793190313207862e-06,-1.592516029152865e-06,-1.3858003763906016e-06,-1.1077574389385392e-06,1.4161639563849288e-06,-2.79577402516332e-06,-8.740157458158261e-07,-1.9788600697576385e-06,7.848993354737305e-07,-1.3167229193187282e-06,-4.233372070627773e-06,-9.660105054918865e-07,1.911119582342572e-06
1.3987873846871763e-06,1.2424272668148948e-06,-2.7805758356736925e-08,1.3291389314471656e-07,8.156506948572585e-07,-1.596383229253357e-06,-1.5614461678413204e-06,-1.3835857713383722e-06,-1.1213837850357792e-06,1.3904421220773807e-06,-2.8289690719333935e-06,-8.751221942000361e-07,-1.981349722595089e-06,8.133966168266255e-07,-1.2838207338413195e-06,-4.18368142203899e-06,-9.557963296437363e-07,1.8730843320115893e-06
1.3530410816035032e-06,1.160809992905679e-06,-6.440313485316039e-08,9.443116861117967e-08,8.316784090258944e-07,-1.6068365285742178e-06,-1.52949765090831e-06,-1.3834796224600218e-06,-1.1321783704410022e-06,1.3719759777353275e-06,-2.856974989171507e-06,-8.665520722818332e-07,-1.980106656472656e-06,8.447230682865495e-07,-1.248731221238291e-06,-4.123316213125463e-06,-9.387101840207247e-07,1.839864124954857e-06
1.3140886721592088e-06,1.0945460733818535e-06,-9.31531290281517e-08,6.223179241367261e-08,8.407154365703093e-07,-1.6093216932461599e-06,-1.5015240596494e-06,-1.3863506162707939e-06,-1.1407439511454438e-06,1.3625990068036459e-06,-2.8793698274378612e-06,-8.493033820146821e-07,-1.9771274378179543e-06,8.755906029513899e-07,-1.211106860925345e-06,-4.0572561897338205e-06,-9.151697009413089e-07,1.810429802308963e-06
1.2827543411466217e-06,1.0460130503395536e-06,-1.1242102850327926e-07,3.760230044534128e-08,8.464598357316141e-07,-1.6039012493636537e-06,-1.4809849035062261e-06,-1.3912318429703097e-06,-1.1476423858004713e-06,1.3611602918622194e-06,-2.8956511488803894e-06,-8.252342774280193e-07,-1.9741218786437953e-06,9.033346264146911e-07,-1.1679250643218439e-06,-3.988555439993674e-06,-8.871889212048758e-07,1.7845901591171292e-06
1.257275784790526e-06,1.0127145301374527e-06,-1.2256394071257065e-07,2.106917637559886e-08,8.542320012455442e-07,-1.5924728541810029e-06,-1.4694502704904896e-06,-1.3965229701615082e-06,-1.1536273888610254e-06,1.3643305697697838e-06,-2.9059712569326533e-06,-7.973162760956897e-07,-1.972451851410701e-06,9.257079568159579e-07,-1.1168721631980772e-06,-3.920712908412017e-06,-8.583499469562806e-07,1.7631461080723392e-06
1.2346930376044021e-06,9.893039259281604e-07,-1.2584793406768328e-07,1.190632589707461e-08,8.682847983072008e-07,-1.5781402766653763e-06,-1.4665273308304926e-06,-1.4007793814382073e-06,-1.1595181395699226e-06,1.368495303195387e-06,-2.911633333718956e-06,-7.687956468914592e-07,-1.972711009712129e-06,9.411415649148667e-07,-1.0594369975592288e-06,-3.859739484802073e-06,-8.331888873115632e-07,1.7476171008928881e-06
1.2126445062079448e-06,9.704954198454984e-07,-1.2535070953388108e-07,8.564973427547932e-09,8.903449099195836e-07,-1.5640036305945026e-06,-1.4699825757372337e-06,-1.4028298927974645e-06,-1.1658721002319396e-06,1.371474477257647e-06,-2.91417161211416e-06,-7.419695037435178e-07,-1.9742227346958462e-06,9.492588631312861e-07,-1.0017116980491262e-06,-3.813660109387577e-06,-8.156379883402676e-07,1.7392587313031793e-06
1.1907127339814543e-06,9.5302946085618e-07,-1.238567478944992e-07,9.214816077370968e-09,9.192071375617164e-07,-1.5523590636372263e-06,-1.4765629916370133e-06,-1.4024907181163346e-06,-1.1730798805597047e-06,1.3729561179581118e-06,-2.914870000694326e-06,-7.177780723128864e-07,-1.9754329257640437e-06,9.50997295325042e-07,-9.525368895532069e-07,-3.789675121052894e-06,-8.085131519757378e-07,1.7379400629801016e-06
1.1695236254710727e-06,9.358360242071469e-07,-1.2327618317178172e-07,1.2047729736652351e-08,9.505177715839043e-07,-1.5444985223193123e-06,-1.4832063484647371e-06,-1.4004456832364977e-06,-1.1814670282125005e-06,1.3737431305415207e-06,-2.915259080782933e-06,-6.955309089413181e-07,-1.9742322181550564e-06,9.487141429522277e-07,-9.200094595116096e-07,-3.791043750276818e-06,-8.128539011755469e-07,1.7418575989563617e-06
1.1499902941972928e-06,9.191524704835589e-07,-1.2445967280185567e-07,1.5614967360815585e-08,9.806383835780972e-07,-1.5403507529878153e-06,-1.4879431344218658e-06,-1.3975931195983814e-06,-1.1911312605398757e-06,1.3749911710322256e-06,-2.916029780004435e-06,-6.733234247156503e-07,-1.968604978473296e-06,9.457943738819907e-07,-9.086578358200194e-07,-3.8160065631434515e-06,-8.264447302696009e-07,1.7481964614956661e-06
1.1326190740055454e-06,9.033836186558013e-07,-1.2750683086559742e-07,1.88647466354806e-08,1.0061520004564018e-06,-1.538928610612418e-06,-1.4904559818631946e-06,-1.3948250162988759e-06,-1.2021031518847316e-06,1.3774812490488876e-06,-2.9173548215108893e-06,-6.495807249505605e-07,-1.9579784609131247e-06,9.451159690247472e-07,-9.187461093029324e-07,-3.859233373998805e-06,-8.452236721363144e-07,1.7540611500363089e-06
1.1169958557830533e-06,8.882900505986379e-07,-1.3225869964434208e-07,2.0966811233469684e-08,1.0244340611909537e-06,-1.5392216236144883e-06,-1.492076199201625e-06,-1.3933576080858504e-06,-1.214592848224345e-06,1.3815057882223013e-06,-2.9195658652511505e-06,-6.24155152102321e-07,-1.943815712380213e-06,9.478773231151197e-07,-9.468766571309318e-07,-3.9139730709026035e-06,-8.645645611461897e-07,1.7572504872956164e-06
1.1022765853895844e-06,8.728587773178955e-07,-1.383123862308719e-07,2.159877741531364e-08,1.034930953744844e-06,-1.5403717218486854e-06,-1.4920665818411159e-06,-1.3939486006022555e-06,-1.2274171623313274e-06,1.3872003338955206e-06,-2.922536223156364e-06,-5.979714174991261e-07,-1.928636885601423e-06,9.539304756161796e-07,-9.8693164847496e-07,-3.973272001229819e-06,-8.798296173334298e-07,1.7568401396480572e-06
1.0877812433134708e-06,8.560692056751215e-07,-1.4474756098063282e-07,2.137607490398601e-08,1.0387622813779116e-06,-1.5404973920485347e-06,-1.4926778820463396e-06,-1.396545127924026e-06,-1.2407286275556399e-06,1.394810442771794e-06,-2.9258760825605872e-06,-5.722067255864419e-07,-1.9148860141962355e-06,9.624751901685453e-07,-1.0314400539897676e-06,-4.0305599759837705e-06,-8.878402708472233e-07,1.7532443317606915e-06
1.07332363683439e-06,8.372143988266617e-07,-1.502119133199962e-07,2.1735514009521406e-08,1.0397671737930662e-06,-1.5388169879669873e-06,-1.4950604221515284e-06,-1.4003961238122993e-06,-1.2533234891991475e-06,1.4046045502386488e-06,-2.928862969208424e-06,-5.48153315871406e-07,-1.9042464941977794e-06,9.724446163478128e-07,-1.0730564938437458e-06,-4.08022808655742e-06,-8.871315252073502e-07,1.7477266267932707e-06
1.0592904231032493e-06,8.16195519939745e-07,-1.5315273739051474e-07,2.4531543965444455e-08,1.0413737773099922e-06,-1.5345394841582153e-06,-1.4980056509184199e-06,-1.4041836496891747e-06,-1.2630722988237443e-06,1.416497304379584e-06,-2.930698827951439e-06,-5.270548746939061e-07,-1.8973676262703686e-06,9.82822425545749e-07,-1.1056907226615826e-06,-4.118450378346516e-06,-8.777765582490686e-07,1.7416778417479527e-06
1.0466222302144813e-06,7.938846870959354e-07,-1.5240497712643774e-07,3.133480291006623e-08,1.0475762732125446e-06,-1.527250183532816e-06,-1.500170780434831e-06,-1.406666987046568e-06,-1.2685850917984347e-06,1.4297743615150235e-06,-2.9311859846811474e-06,-5.102176904002587e-07,-1.8941779912449394e-06,9.92564535263267e-07,-1.1255149797144677e-06,-4.143997759605708e-06,-8.61671889675615e-07,1.7360004913614372e-06
1.0363847455117017e-06,7.71474379429292e-07,-1.4799288650194212e-07,4.2352333587092404e-08,1.0608792764688593e-06,-1.5180834432494805e-06,-1.4991953394916938e-06,-1.4073061290038076e-06,-1.2687875621624794e-06,1.443196880220925e-06,-2.9312301737995513e-06,-4.990144705735535e-07,-1.894463699879238e-06,1.0005993847796323e-06,-1.131693730225583e-06,-4.157788754243386e-06,-8.415303441127313e-07,1.7308796453879883e-06
1.0292783712025332e-06,7.499807960548315e-07,-1.4132789630248447e-07,5.603300835556777e-08,1.081458733826211e-06,-1.5088485913335716e-06,-1.493224565452551e-06,-1.4060029390770128e-06,-1.263113402305513e-06,1.4558521365189645e-06,-2.9326789936937965e-06,-4.938888774946078e-07,-1.8974107945909349e-06,1.0067071264609338e-06,-1.1264629540772022e-06,-4.16406805085542e-06,-8.196488955424357e-07,1.7256204768945964e-06
1.0259944815321952e-06,7.303894239861017e-07,-1.3439113335837547e-07,6.993633528171336e-08,1.1086064764910443e-06,-1.5014298886880594e-06,-1.481174506327795e-06,-1.4025620698259938e-06,-1.2528741316747346e-06,1.4678904024763219e-06,-2.9376343882732324e-06,-4.934189850540714e-07,-1.9010620498315358e-06,1.0120381597699674e-06,-1.1150399329577193e-06,-4.171080453944467e-06,-7.963528506939178e-07,1.7180944193014835e-06
1.0274633986608334e-06,7.135898511615179e-07,-1.2882247894329406e-07,8.182241295484265e-08,1.1403149916289965e-06,-1.4981141880918227e-06,-1.4660554263969892e-06,-1.396563782698769e-06,-1.2384671122826045e-06,1.4803759687504448e-06,-2.9480426726263544e-06,-4.94838685397173e-07,-1.9028432921644522e-06,1.0182073764255639e-06,-1.105454495065701e-06,-4.1907802879515e-06,-7.701265979335516e-07,1.7042632715997686e-06
1.0349523242243554e-06,7.003432666870734e-07,-1.2545031932966818e-07,9.028794386010362e-08,1.1733017704751644e-06,-1.499403196460176e-06,-1.4471281575443547e-06,-1.3874396438383032e-06,-1.2201229864032704e-06,1.4947743804919047e-06,-2.965053717036056e-06,-4.958836264025108e-07,-1.9002011217429512e-06,1.0263033828929817e-06,-1.107416439457876e-06,-4.238071789191721e-06,-7.380211080851557e-07,1.6789817998457333e-06
1.050076360494621e-06,6.913392064031118e-07,-1.2390635435645408e-07,9.518528836902478e-08,1.2030648317513976e-06,-1.5038984838766128e-06,-1.4244286446661885e-06,-1.3744595271334771e-06,-1.1989235109202715e-06,1.5127073006339046e-06,-2.988416227127356e-06,-4.947926826949507e-07,-1.891222976009734e-06,1.0365842436386148e-06,-1.1301415192322367e-06,-4.326601693514175e-06,-6.963760090962662e-07,1.6382938365937256e-06
1.0742274888449672e-06,6.871321122375021e-07,-1.226028501361782e-07,9.758331616359114e-08,1.2252142375053428e-06,-1.5095368438951466e-06,-1.3998112293768673e-06,-1.356963105030551e-06,-1.1753935492455671e-06,1.535651495253458e-06,-3.0162317243863913e-06,-4.909682101955953e-07,-1.8757099614060292e-06,1.0482100734616044e-06,-1.1798581469105993e-06,-4.462978581411371e-06,-6.423924893858017e-07,1.5817841496817095e-06
1.1079991388378724e-06,6.879574647967888e-07,-1.1915380878963027e-07,9.931723273371347e-08,1.2362391072220747e-06,-1.5129815636043323e-06,-1.3743206820175653e-06,-1.334902108619584e-06,-1.1499812607874285e-06,1.5643232853722996e-06,-3.0448753667702766e-06,-4.854277107953308e-07,-1.8554690048097729e-06,1.0594424958571796e-06,-1.2574100549434821e-06,-4.6419684269218355e-06,-5.750544244124915e-07,1.5133137989494766e-06
1.1502028002521583e-06,6.938607698853405e-07,-1.1089857539010122e-07,1.0275661255271679e-07,1.234257981688142e-06,-1.5106837219454104e-06,-1.3500662993714932e-06,-1.3088081334364126e-06,-1.122794515410389e-06,1.597810657140176e-06,-3.0695416798286202e-06,-4.803616257999547e-07,-1.833292310546809e-06,1.0684369851689397e-06,-1.357148564653179e-06,-4.845297850343652e-06,-4.965311613294549e-07,1.4393343296214116e-06
1.1975812193334503e-06,7.045440297184393e-07,-9.559702884935223e-08,1.10345571722563e-07,1.220154804158645e-06,-1.4999266835873392e-06,-1.3284720283562852e-06,-1.279658000870857e-06,-1.0934391140602835e-06,1.6327360381013919e-06,-3.0851578098015573e-06,-4.78422644325009e-07,-1.8119271040285633e-06,1.0731914298340112e-06,-1.4686668939520478e-06,-5.045760257096727e-06,-4.1269993338932107e-07,1.3650354397457136e-06
1.2448044006333312e-06,7.188660710379859e-07,-7.231847148692432e-08,1.235937824096737e-07,1.1961991670173476e-06,-1.4793788533672993e-06,-1.309768628436004e-06,-1.2487458114882296e-06,-1.0609011439467648e-06,1.6630126109349878e-06,-3.0874453110843704e-06,-4.836732349062581e-07,-1.7935899101618287e-06,1.0707883180824057e-06,-1.5803139783884597e-06,-5.215328547613807e-06,-3.3311691970632987e-07,1.2903331795463902e-06
1.2848235433741136e-06,7.348438802781717e-07,-4.170460304074613e-08,1.4252959143072662e-07,1.1647738984078765e-06,-1.448811163592065e-06,-1.2930362505069367e-06,-1.217226978927588e-06,-1.0244243925454044e-06,1.6808697613766226e-06,-3.0730008908104577e-06,-5.010363345629307e-07,-1.7791878515992501e-06,1.0575571033117426e-06,-1.6815376899421007e-06,-5.331875236078614e-06,-2.6968782091388037e-07,1.208280310649165e-06
1.3099709644821213e-06,7.501728523237576e-07,-5.346601272672436e-09,1.6622751057811867e-07,1.1282865010157592e-06,-1.4088758294629345e-06,-1.2757591693455998e-06,-1.185492435345473e-06,-9.818628053242202e-07,1.6788881156348183e-06,-3.039145761659286e-06,-5.337792297689159e-07,-1.7676769229227405e-06,1.0301494961248542e-06,-1.762909531818878e-06,-5.3818796399780745e-06,-2.346810988746677e-07,1.1075587974654208e-06
1.3134846607736634e-06,7.635963080731139e-07,3.4962475082442426e-08,1.9366229630223297e-07,1.0887174200859183e-06,-1.3595235009482195e-06,-1.2539262359299058e-06,-1.1533502010267018e-06,-9.305643267603076e-07,1.6525798000456844e-06,-2.9837493813841635e-06,-5.8203924129292e-07,-1.7560452498339276e-06,9.868678518705148e-07,-1.8150577386257342e-06,-5.3592440169565914e-06,-2.3826050914545897e-07,9.786965351979873e-07
1.2916839022967047e-06,7.766529426816744e-07,7.770906689535858e-08,2.242914643664674e-07,1.0482230663927465e-06,-1.3000611072422486e-06,-1.2227006921068682e-06,-1.120824633038129e-06,-8.683995218996874e-07,1.6028987373040792e-06,-2.9063594703004455e-06,-6.419183202989345e-07,-1.7400020087480643e-06,9.290534009123089e-07,-1.8286588398719682e-06,-5.264544469113471e-06,-2.8623527896693064e-07,8.215600988596078e-07
1.245974034508361e-06,7.946995828170123e-07,1.2182951613494306e-07,2.58222336087446e-07,1.0083253009246978e-06,-1.2306302735541587e-06,-1.1771737051836354e-06,-1.0887435932128963e-06,-7.940826067545867e-07,1.5368728961402462e-06,-2.81032040635769e-06,-7.068910687229089e-07,-1.7154789399027316e-06,8.61241456818155e-07,-1.7972597392486132e-06,-5.1069318017267016e-06,-3.779285015734294e-07,6.504272780924844e-07
1.18363656051787e-06,8.260935651672508e-07,1.6621659265214024e-07,2.956642201278774e-07,9.689666670079755e-07,-1.1531026157779382e-06,-1.1131757796836989e-06,-1.058940963846063e-06,-7.083470329078749e-07,1.4652466343871698e-06,-2.703798378598321e-06,-7.713921348098417e-07,-1.6805602804648008e-06,7.893457862022426e-07,-1.7221828707147672e-06,-4.907230893924466e-06,-5.051822263706612e-07,4.961371796644555e-07
1.116103634112959e-06,8.795800016154423e-07,2.0919319073475874e-07,3.363201030427893e-07,9.256762991775006e-07,-1.0716317603241795e-06,-1.0276058509346182e-06,-1.0333237502288644e-06,-6.137022492333897e-07,1.3987438567975576e-06,-2.5987463055520884e-06,-8.334194569125348e-07,-1.6360751843963846e-06,7.187347865429304e-07,-1.6161996416466552e-06,-4.697730496987163e-06,-6.53018280123599e-07,3.871033740330358e-07
1.0574792334114907e-06,9.617042894852625e-07,2.490312483982709e-07,3.796877134214669e-07,8.735631911237545e-07,-9.90912394370837e-07,-9.174746895289968e-07,-1.0123187036903666e-06,-5.122730502346387e-07,1.3452773922483448e-06,-2.5072894984906556e-06,-8.941810390529736e-07,-1.5843713979970094e-06,6.534872535268097e-07,-1.5033524308284773e-06,-4.5156013840395416e-06,-8.026125451808735e-07,3.4991044795454993e-07
1.0186102220661206e-06,1.0755375586449675e-06,2.8517535917375675e-07,4.2575556046462813e-07,8.080794942111404e-07,-9.129591635014968e-07,-7.773925848027625e-07,-9.936965101345304e-07,-4.049913047687048e-07,1.3084217965955797e-06,-2.4375378702646685e-06,-9.566644093201779e-07,-1.5280907560688476e-06,5.960500597619184e-07,-1.4143318843620422e-06,-4.390846177575078e-06,-9.362222506996734e-07,5.238910988034119e-07
1.0004910410549754e-06,1.2202119659177054e-06,3.189256483045921e-07,4.750697635011811e-07,7.222826827623776e-07,-8.34420922505917e-07,-6.008469009954611e-07,-9.730765821617158e-07,-2.921115734094616e-07,1.2867777135689013e-06,-2.3910614597717757e-06,-1.023799256799616e-06,-1.4696436826211195e-06,5.472272932121386e-07,-1.378038668877282e-06,-4.333591295233848e-06,-1.041847708271283e-06,6.589986297301902e-07
1.0264861986244574e-06,1.3905312517950476e-06,3.528862536669664e-07,5.280412294982591e-07,6.095350485357977e-07,-7.501371583439389e-07,-3.7987733149111605e-07,-9.456966081675187e-07,-1.7131325468686422e-07,1.2747661590949624e-06,-2.363349953272233e-06,-1.0972041312206768e-06,-1.4113509019697153e-06,5.067747097706584e-07,-1.4120133418189083e-06,-4.3293948429192875e-06,-1.1154392041653964e-06,9.781573465411586e-07
1.0685424245912266e-06,1.5764632654992786e-06,3.893097284758186e-07,5.837433873496483e-07,4.714959939376627e-07,-6.542286194533333e-07,-1.0292281058753281e-07,-9.081874161274298e-07,-4.390705878761104e-08,1.2654089316823694e-06,-2.3468670738359654e-06,-1.1762998674165946e-06,-1.3564711610222608e-06,4.739228087301579e-07,-1.515951884078129e-06,-4.3458023076339635e-06,-1.1598044779695164e-06,1.3107902130222382e-06
1.1327803767951545e-06,1.7631602326852972e-06,4.283665476099899e-07,6.389146996035188e-07,3.2424004516905486e-07,-5.431421684943375e-07,2.2745667319171246e-07,-8.603151025096802e-07,8.475124041948339e-08,1.254284306970673e-06,-2.3347722805598887e-06,-1.258104180760411e-06,-1.3100368647625593e-06,4.4791338517327275e-07,-1.6710442557456972e-06,-4.346054301975829e-06,-1.1812406803637051e-06,1.6341397018456894e-06
1.206541467698633e-06,1.93275880382694e-06,4.6778045405936116e-07,6.884066494972137e-07,1.7782231728378346e-07,-4.182534000555832e-07,5.976638519095823e-07,-8.049232121165715e-07,2.0651588693721943e-07,1.241935924932174e-06,-2.3235962991356806e-06,-1.3375270425405865e-06,-1.2777721895524994e-06,4.287341276377767e-07,-1.8456223978792886e-06,-4.303212963125212e-06,-1.1861191329465368e-06,1.9149619118291287e-06
