0,1,2,3,4,5,6,7,8,9,10,11,12,13,14,15,16,17
-1.4135580878388469e-07,2.0205487610245546e-07,3.187394649733603e-09,2.512470064514402e-07,2.084373962380566e-07,1.1434054571081387e-07,9.833845978535821e-07,1.85206459140169e-07,1.9330137197417164e-08,-2.998115356009922e-08,-6.011992915700464e-08,-1.6965432639693294e-07,1.0766529247271288e-06,2.0019294321323576e-07,5.611805312656338e-07,5.075186116179973e-08,1.87897147443753e-07,-1.8552001352344723e-07
-1.6116384650127552e-07,1.7474466559968431e-07,3.970802506487797e-09,2.213701822485208e-07,1.06102485075982e-07,8.305301845148945e-08,9.266610264687642e-07,1.9103764426345194e-07,2.4581372688101124e-08,-4.399642366993897e-08,-7.226913058292722e-08,-2.0779271494669313e-07,8.995525520391813e-07,1.4372064973447608e-07,5.659671038525971e-07,7.83295007916718e-08,1.9049631934741454e-07,-2.0986713264550955e-07
-1.8399448891070674e-07,1.474702456210017e-07,-2.3198977753402445e-08,1.8434735103855313e-07,2.0904830690284663e-08,5.532553540733233e-08,8.591203823323507e-07,1.5371700679720472e-07,2.9498202455471025e-08,-1.040389492698698e-07,-8.453023442663155e-08,-2.3969283831653735e-07,6.62253149512963e-07,9.985469277151849e-08,5.270195558044629e-07,1.1431253383560811e-07,8.779972783174993e-08,-2.1485707816132028e-07
-1.2619696166356108e-07,1.1892054214183796e-07,-2.864597215475568e-08,1.3613230790143871e-07,-3.796028878136634e-08,3.235240819387996e-08,7.945355442747751e-07,2.5306748599070843e-08,3.567689993173886e-08,-1.845067396052477e-07,-5.36503977317008e-08,-2.7318590440044085e-07,4.828072099115632e-07,7.843538187777321e-08,4.652384472917834e-07,1.5204496750103587e-07,5.404431153912625e-08,-1.920436631074345e-07
-1.312596931173617e-07,8.606912589568877e-08,-2.5061254220329188e-08,7.436092726043686e-08,-6.495365016220968e-08,1.3399651802826991e-08,6.965462629925299e-07,-1.3385466567420972e-08,4.146319564272153e-08,-2.3527764466028548e-07,2.5606378972213795e-08,-2.955504488809149e-07,3.9786894758679927e-07,7.568411977600337e-08,2.556894104926342e-07,1.7695027454337962e-07,6.60190472182457e-08,-1.3754967843459043e-07
-2.0972289149511292e-07,4.904202749217523e-08,-3.012457306983996e-08,2.246149381817159e-08,-6.221688619797158e-08,-3.6920595207505155e-09,5.077722114872599e-07,1.1883945210429813e-08,4.4870022787987635e-08,-1.9945723768602675e-07,1.390089637845574e-07,-2.4292747634784273e-07,1.7371338552304103e-07,9.798608306298563e-08,1.5960470511894137e-07,6.8879592833404e-08,5.8151214181992795e-08,-5.572233429751955e-08
-2.8371987264195093e-07,5.970437729479217e-09,-2.44042495413753e-08,-1.8177787050619484e-08,-3.991143727895846e-08,-2.10826359080171e-08,2.1847767360330823e-07,5.202969516311602e-08,4.457360138405417e-08,-7.727682819160435e-08,2.2346498652328774e-07,-1.8784285134835737e-07,2.579292398371493e-09,1.1613655625082497e-07,1.389006621234431e-07,4.605870890733751e-08,1.0236545165235984e-07,3.8638487305929346e-08
-3.532905684288505e-07,-3.761071634922023e-08,-1.7489414889556594e-08,-3.368325260916321e-08,-1.3350982231840924e-08,-4.035400976378316e-08,-9.170974114709339e-08,1.1181886800181792e-07,3.838376190721967e-08,-1.6027184630620126e-08,2.2468182384503233e-07,-1.244761018585698e-07,-1.0535830895939371e-07,1.230905684131495e-07,1.0377401672210844e-07,7.142955031695767e-08,1.5468086552936602e-07,1.2304802181939612e-07
-3.1085060826500933e-07,-7.661912028998876e-08,-2.5273374737905693e-08,-6.273970132158738e-08,2.4599251875256063e-09,-6.138779015862209e-08,-3.6892567814478435e-07,9.990765442291943e-08,2.5410284756226163e-08,-8.794993759561485e-08,1.7147085613763144e-07,-3.9843823153456604e-08,-2.4505665220624414e-07,1.242248577272792e-07,1.3249750052669254e-07,1.2002356069505743e-07,8.711025055979671e-08,1.760124476442137e-07
-1.938283746710802e-07,-1.0470049051602339e-07,-7.359689132523643e-09,-6.389981868878058e-08,-3.868883301668844e-10,-8.091937831138131e-08,-5.685736990763557e-07,2.0686641206755766e-08,5.483411361299368e-09,-1.7140981431328814e-07,9.645284161579325e-08,5.3121949176590346e-08,-3.7507710668374403e-07,1.0554602025904109e-07,9.716710331427664e-08,1.8260970674382734e-07,3.009887282034058e-09,1.8670437864000745e-07
-8.84305592745167e-08,-1.17737236950344e-07,-3.5621386536297953e-09,-8.119130940110897e-08,-1.9340340207457615e-08,-9.390169086192384e-08,-6.493613823687625e-07,-3.474971095001243e-08,-2.0180434537137366e-08,-1.1090672269732813e-07,5.83577552273805e-08,1.363685563145251e-07,-5.046608455804535e-07,5.8643871824783206e-08,-7.909049291503745e-08,9.304507693040961e-08,-2.635363677441684e-08,1.5962041813818038e-07
8.45709639174666e-08,-1.1548743143839708e-07,6.058115320395302e-09,-1.0444092860132474e-07,-4.3754833270028346e-08,-9.349162939441841e-08,-6.621319151531256e-07,-3.866325253935389e-08,-4.693877803676859e-08,7.412576421548722e-09,2.8050029296793663e-08,2.0535481301216134e-07,-5.600403768130483e-07,-1.6256111974677387e-08,-3.299948674327318e-07,-4.594444141457108e-08,-1.2274447428808827e-07,1.1215360651317588e-07
3.073490555524875e-07,-1.1288748303153358e-07,2.134403921448467e-08,-1.158209012378991e-07,-5.670931929775871e-08,-7.263999209318227e-08,-6.435825427551932e-07,-6.771065375987845e-08,-6.707114802434252e-08,1.4403640573202445e-07,-3.318993438987605e-08,2.633656638919774e-07,-5.266771314371641e-07,-1.2215190191358086e-07,-4.7249291257081036e-07,-1.365601105982621e-07,-1.6612891157182203e-07,6.649556434342985e-08
5.407582937154277e-07,-9.575490759602723e-08,4.2312704298274766e-08,-1.281681545309041e-07,-4.5251346411845495e-08,-2.6094133871044056e-08,-6.527869264592286e-07,-1.3801644402081714e-07,-7.319329482734731e-08,2.9210354402460675e-07,-9.823055441329416e-08,3.1750092651027774e-07,-4.945337463309434e-07,-2.4854391240521e-07,-6.131866971448268e-07,-2.0728926528306801e-07,-1.9887109964931187e-07,3.974971725279354e-08
6.298834538460587e-07,-7.382592129967967e-08,5.191450885564946e-08,-1.322141035969851e-07,-6.394437968653956e-09,4.80510028275092e-08,-6.787992013912546e-07,-2.3620851197129662e-07,-6.25903494520045e-08,3.824926836564143e-07,-2.2228141489290505e-07,3.731912215418454e-07,-4.714271456471239e-07,-3.6854049404189815e-07,-7.222718867350329e-07,-3.146421434367438e-07,-2.0939504572112423e-07,3.773323866211946e-08
6.212519067218694e-07,-4.9648613111109516e-08,5.6332079308292755e-08,-1.4958331168018875e-07,5.2325772946409455e-08,1.4704115748927433e-07,-6.706266125167716e-07,-3.2286062299615606e-07,-3.929688523463648e-08,4.347834260453286e-07,-3.4282203980835094e-07,4.320633552023673e-07,-4.125961480409337e-07,-4.6802332457570396e-07,-7.900021797141316e-07,-4.4999937352784413e-07,-2.680810545810754e-07,5.540401985057503e-08
6.891208420362165e-07,-2.6859957209948676e-08,7.91696524591237e-08,-1.5046698012184257e-07,1.1616766964277807e-07,2.6459449130223576e-07,-6.740162645087137e-07,-3.0615165004699707e-07,-1.0610805451577824e-08,4.910012866930685e-07,-4.490484925130041e-07,4.900802127004245e-07,-3.7769436431150165e-07,-5.359599019473593e-07,-9.199625547683609e-07,-5.463242414288923e-07,-4.1365934496350137e-07,8.206305355936504e-08
7.315185324403284e-07,-5.57748326477959e-09,1.2043472889563435e-07,-1.4701318020951655e-07,1.7063743635026328e-07,3.924809389955366e-07,-6.248426059192974e-07,-3.6491591780275083e-07,1.6563181356828467e-08,5.639743377326101e-07,-5.515632233309123e-07,5.418391682408836e-07,-3.466272853075891e-07,-5.900021044287811e-07,-1.1915228589806338e-06,-6.244771111716588e-07,-5.408409971102333e-07,1.077272649489624e-07
6.792754836941153e-07,8.347067788600214e-09,1.3221542471902816e-07,-1.1250949467926826e-07,2.07212411912187e-07,5.235149872012063e-07,-5.941164937498971e-07,-3.9910304783133474e-07,3.897755588559909e-08,6.26986960073789e-07,-6.094750216618931e-07,5.842623676548729e-07,-3.002806464266976e-07,-6.350392054167725e-07,-1.4562578669250093e-06,-6.558673789799059e-07,-7.194222732500435e-07,1.2768438529501254e-07
6.708597689335156e-07,1.6956198398190652e-08,1.1848368853720603e-07,-6.823743121339463e-08,2.2719217406514256e-07,6.514259847831078e-07,-5.407520262867224e-07,-3.84113823282313e-07,5.810494053620936e-08,6.775475200551937e-07,-6.48783802348939e-07,6.189370638263968e-07,-2.4945352603381713e-07,-6.656261084187964e-07,-1.6407588930222963e-06,-6.394089042913091e-07,-8.018566155838579e-07,1.4330951422376616e-07
6.667711043765547e-07,2.515912925436893e-08,8.608440884297996e-08,-2.645675937506993e-08,2.386820351258564e-07,7.7123562426781e-07,-4.518643321635234e-07,-4.040359114267481e-07,7.853420925096877e-08,7.179216574710303e-07,-6.808570959789353e-07,6.505005139741599e-07,-1.9062342055251923e-07,-6.918895524929389e-07,-1.7709078743308115e-06,-6.095953486969832e-07,-8.321896656271175e-07,1.595708940806856e-07
6.60737715739844e-07,3.4875544126569686e-08,3.641845144740304e-08,1.5588819293327298e-08,2.53001336361009e-07,8.784317546389408e-07,-3.9086704999683575e-07,-4.4125105199349967e-07,1.0189351130201042e-07,7.463929199419656e-07,-7.010426833190969e-07,6.834565296483663e-07,-1.3141209599996746e-07,-7.111392788796105e-07,-1.8541599671776996e-06,-5.692746651917809e-07,-8.427734697149403e-07,1.815308482786106e-07
6.727104449573061e-07,5.9156342685265034e-08,1.743610638873861e-08,4.980839202279592e-08,2.797094168617413e-07,9.690626182667433e-07,-3.341352045627419e-07,-4.975097366753994e-07,1.2807091424793487e-07,7.78448684054643e-07,-7.179483404056121e-07,7.198576476453585e-07,-7.732509176590852e-08,-7.154939991873153e-07,-1.916456457405599e-06,-5.716456588128022e-07,-8.409966771217699e-07,2.117823989692538e-07
6.569193125915446e-07,9.084864321040478e-08,2.6696281700337194e-08,8.669740339137772e-08,3.226323984583998e-07,1.0406683790175541e-06,-2.783050558285949e-07,-5.619429966929261e-07,1.5497274900167534e-07,8.190198563872326e-07,-7.177303023695502e-07,7.573318250645365e-07,-2.789428391098022e-08,-7.101271484739086e-07,-1.931240420028811e-06,-6.097602240985754e-07,-7.75902500581652e-07,2.499338910410567e-07
6.19143560240945e-07,1.2828585006904713e-07,4.245043114957547e-08,1.1152996160434727e-07,3.7966101114487854e-07,1.092756480843537e-06,-1.995166707231356e-07,-6.201651825245763e-07,1.757479385790543e-07,8.570014927850281e-07,-7.101312594067001e-07,7.917931823185026e-07,2.2477327495230642e-08,-6.895214877774465e-07,-1.8861328553200255e-06,-6.533744854857675e-07,-6.793065378236026e-07,2.942643335755469e-07
5.83183953760973e-07,1.6801568398864992e-07,6.288928522457432e-08,1.3067691735195367e-07,4.4626901399334905e-07,1.1264618971607532e-06,-9.787521385151791e-08,-6.533728691546395e-07,1.8872721331145518e-07,8.96354402015784e-07,-6.967509640253649e-07,8.193388045683409e-07,7.008586398104535e-08,-6.565956266567341e-07,-1.8705626117044245e-06,-6.992318171849246e-07,-6.375593003589791e-07,3.439932252584091e-07
5.464985932390482e-07,2.0855828668090198e-07,7.741397536107802e-08,1.1991065741879391e-07,5.183109649978982e-07,1.1470819800031152e-06,2.019152782219678e-08,-6.380278553271193e-07,1.937736368082281e-07,9.499090015658535e-07,-6.745692372999682e-07,8.381180978382068e-07,1.0918119677777702e-07,-6.186141311633407e-07,-1.8801057135245873e-06,-7.276396705909642e-07,-6.422866635615299e-07,4.003462941409751e-07
5.197054960816202e-07,2.4797408856181845e-07,7.438553127092246e-08,8.114486125690372e-08,5.940034179614448e-07,1.1613568362395762e-06,1.1055003393431425e-07,-6.266422733234304e-07,1.9190876813468076e-07,9.985995998657312e-07,-6.46776705258647e-07,8.49238596185604e-07,1.3546399504795647e-07,-5.804518222817227e-07,-1.9192840981162753e-06,-7.435521557711775e-07,-7.157006798229429e-07,4.658833225543658e-07
4.703746202910861e-07,2.7991051555278586e-07,5.3131748088729125e-08,3.035454241176412e-08,6.759425699045301e-07,1.1753990404493498e-06,1.7600998313653514e-07,-6.06234652837414e-07,1.855387177396218e-07,1.0404509131922415e-06,-6.122625910481611e-07,8.556590018046135e-07,1.4126532802303923e-07,-5.508352202684031e-07,-2.004259392576364e-06,-7.513109846607587e-07,-8.580146455474479e-07,5.42315371695171e-07
4.1228923612811953e-07,3.049532830141676e-07,6.503424530723038e-08,-2.3460980201674132e-08,7.672394409743181e-07,1.1941620823033138e-06,2.3359233638791898e-07,-5.832430383426687e-07,1.752739700328954e-07,1.0737539656727474e-06,-5.740763850236468e-07,8.59684703178323e-07,1.3055346652601925e-07,-5.294002964451125e-07,-2.1091124593677942e-06,-7.449830545171441e-07,-1.0256219194875055e-06,6.27974259521528e-07
3.632697919858146e-07,3.2338025126891833e-07,3.9499422822270386e-08,-7.095383366572768e-08,8.677271268246242e-07,1.2195787312682045e-06,2.8403877158195704e-07,-5.779530499846659e-07,1.6217158371609894e-07,1.0830599467399195e-06,-5.369902552616697e-07,8.626418607104155e-07,1.105973537743341e-07,-5.172442492054036e-07,-2.225777427998581e-06,-7.031937167401831e-07,-1.1779572863531783e-06,7.170837339318134e-07
3.3017480770434317e-07,3.3976825514145366e-07,-1.2229633187770333e-08,-1.0278111101620674e-07,9.739100589826812e-07,1.2517640858495284e-06,3.403509036852226e-07,-5.719124184671422e-07,1.4660365350528956e-07,1.0694655429698998e-06,-5.070369048507051e-07,8.638076751163059e-07,8.724574477189944e-08,-5.145302883314863e-07,-2.380502859529297e-06,-6.471567922095537e-07,-1.3340023927769933e-06,8.014542434535849e-07
3.2325112283444655e-07,3.616975943092203e-07,-4.381403588915938e-08,-1.1717687960639962e-07,1.0797916899027542e-06,1.2891619042033325e-06,3.9230007670758305e-07,-5.613297844423851e-07,1.3120453600710536e-07,1.037239898561699e-06,-4.839598752575255e-07,8.621298086473551e-07,6.583102160487666e-08,-5.199356710087855e-07,-2.541709865513721e-06,-5.90048116098779e-07,-1.460262685312916e-06,8.729673331918319e-07
3.241972305773453e-07,3.847843387595568e-07,-5.5595881964922234e-08,-1.3117946850584889e-07,1.178883080988337e-06,1.3288738306479927e-06,4.41234228273186e-07,-5.376882251380947e-07,1.1947338878176364e-07,9.891493043494637e-07,-4.681665681323461e-07,8.574383134589503e-07,4.6377834871913534e-08,-5.336697645270462e-07,-2.6936096185404624e-06,-5.356645686658584e-07,-1.5370059900352916e-06,9.255660138079146e-07
3.2421990046736206e-07,4.117489688787352e-07,-6.212883931785971e-08,-1.3178023673437737e-07,1.265980120081131e-06,1.3662914862111308e-06,4.807218218707992e-07,-5.462443070377013e-07,1.1398221104126593e-07,9.381267411457957e-07,-4.593528353855892e-07,8.51223049510733e-07,2.676071946929217e-08,-5.510880064040622e-07,-2.8433732332645457e-06,-5.015150837005007e-07,-1.5842870192541804e-06,9.563800604943671e-07
3.209648089566963e-07,4.4049412296069944e-07,-6.473367701607358e-08,-1.236308925690657e-07,1.3385754749805482e-06,1.396682961589928e-06,5.144270125512308e-07,-5.731916124245773e-07,1.1420638595279349e-07,9.053885762519064e-07,-4.5399270032746347e-07,8.464893368374004e-07,5.682308013693019e-09,-5.692585246229472e-07,-2.9835734444583146e-06,-4.915594866188699e-07,-1.6062813135515134e-06,9.655366682721332e-07
3.181692181500392e-07,4.674753420948264e-07,-6.608065854615586e-08,-1.1810163584701154e-07,1.3954488526750331e-06,1.4163134315023604e-06,5.402321434548768e-07,-6.16147853288111e-07,1.1720329578680883e-07,8.90992019160564e-07,-4.5179673875529333e-07,8.445793436943213e-07,-1.4430017111628738e-08,-5.811300312948716e-07,-3.1203019954777153e-06,-4.969212277130985e-07,-1.612583089346468e-06,9.55145265408956e-07
3.1679710675435967e-07,4.928475822111107e-07,-6.688231038901649e-08,-1.2157814422394778e-07,1.435649829988037e-06,1.4226088867981867e-06,5.549153482779782e-07,-6.514555159462575e-07,1.1760697989455793e-07,8.924333156409182e-07,-4.5232547652566815e-07,8.479325267621662e-07,-3.1384625699238565e-08,-5.867258148177861e-07,-3.246892585771753e-06,-5.18547592767039e-07,-1.6072384407824945e-06,9.287046139352961e-07
3.1945000429934047e-07,5.103031566002845e-07,-6.918155249437984e-08,-1.331575743176914e-07,1.458318436907935e-06,1.41513750812829e-06,5.617393747589612e-07,-6.595094115341709e-07,1.092959786297726e-07,9.083324858110582e-07,-4.5533993744539616e-07,8.564360366017918e-07,-3.984009214579182e-08,-5.873552772518203e-07,-3.3504114584815276e-06,-5.508426619603871e-07,-1.5730097416401698e-06,8.90811921178077e-07
3.200957181034109e-07,5.261158572847551e-07,-6.737931159477118e-08,-1.459439867312996e-07,1.4625414340895646e-06,1.3954105957090485e-06,5.629500993120208e-07,-6.409437213713773e-07,8.924386811723481e-08,9.313190459812972e-07,-4.6041574622659764e-07,8.698624210270037e-07,-3.574926182233379e-08,-5.809872140088644e-07,-3.40656781496121e-06,-5.858732902283265e-07,-1.4958770628720926e-06,8.464925360213246e-07
3.206651102180241e-07,5.406890043496788e-07,-6.221906194765376e-08,-1.5469994770307964e-07,1.4479850716275473e-06,1.3661882874228208e-06,5.626009343964344e-07,-5.878960550511107e-07,5.840854394287228e-08,9.50325345194635e-07,-4.667138075303116e-07,8.85861719473543e-07,-2.110125001831315e-08,-5.719593190711567e-07,-3.416621947748501e-06,-6.214949555857325e-07,-1.3792078300472779e-06,8.007477874595444e-07
3.272893636456717e-07,5.544887440154896e-07,-5.292068633024875e-08,-1.5372656510271256e-07,1.4163738418062678e-06,1.3311472360258278e-06,5.598796775933233e-07,-5.102967150338452e-07,2.1282904432658357e-08,9.68961872822597e-07,-4.727339442531733e-07,9.016228526270465e-07,-1.1432839082985954e-09,-5.593807303550538e-07,-3.397714422392854e-06,-6.579980407678006e-07,-1.2432779058881594e-06,7.584922097331365e-07
3.412358262561947e-07,5.646006458501882e-07,-3.750172370891352e-08,-1.4842776790368567e-07,1.3718366963503437e-06,1.2939488052776493e-06,5.527612618822121e-07,-4.0767350489834785e-07,-1.760056840133278e-08,9.926625739225738e-07,-4.770859962142727e-07,9.162605543446502e-07,1.6108160249092695e-08,-5.439139211510752e-07,-3.37059436173107e-06,-6.992934895590303e-07,-1.1234948458491242e-06,7.237248088575306e-07
3.610548799381965e-07,5.687612920929113e-07,-2.0368685036560732e-08,-1.4174173297863217e-07,1.3194629207261376e-06,1.2571096647686808e-06,5.376482160160152e-07,-2.890848905954006e-07,-5.413058000850329e-08,1.0230928389261001e-06,-4.790511904002767e-07,9.280841988388113e-07,2.360940787971953e-08,-5.285642951593347e-07,-3.3677885293291925e-06,-7.50246979828209e-07,-1.0438511590165305e-06,6.981446666257574e-07
3.848266418922411e-07,5.677528531082649e-07,-3.252836782924038e-09,-1.366457957645076e-07,1.263357622149868e-06,1.2219554115794671e-06,5.101764049593241e-07,-1.8358153602900905e-07,-8.670052950804822e-08,1.062997243442166e-06,-4.790553468938326e-07,9.379071805041158e-07,1.843804147977644e-08,-5.15594079910969e-07,-3.3989015126310736e-06,-8.139523195339129e-07,-1.0327016385107705e-06,6.808650951879605e-07
4.1301586540092225e-07,5.607347246822977e-07,1.1609585846041084e-08,-1.3304218842576432e-07,1.2034921411234883e-06,1.1891099335954363e-06,4.6754954322553365e-07,-1.0365819670481096e-07,-1.1582157475423577e-07,1.1103469259579221e-06,-4.788657530406609e-07,9.459508038182261e-07,2.740510422996482e-09,-5.065200105706749e-07,-3.460490721831939e-06,-8.8982995637036e-07,-1.0763289784152264e-06,6.692480449458996e-07
4.457814043726658e-07,5.49669750102351e-07,2.668909957136152e-08,-1.294784578524882e-07,1.1403855582153162e-06,1.1590591235646797e-06,4.13894654456392e-07,-5.3026207311282965e-08,-1.4263496172153183e-07,1.1631652854618196e-06,-4.803314803799655e-07,9.518034883342022e-07,-1.9341609248654065e-08,-5.014476602796263e-07,-3.544010868970544e-06,-9.796494991905754e-07,-1.153413794897574e-06,6.597616618814445e-07
4.899694813378513e-07,5.338507832270522e-07,4.018534553693984e-08,-1.2624146116759373e-07,1.0738423330487196e-06,1.131941600776754e-06,3.5620554025542644e-07,-2.6460460569432736e-08,-1.682306698560446e-07,1.2169064878335707e-06,-4.848755948564951e-07,9.55626062621687e-07,-4.43420546573194e-08,-5.003033140841802e-07,-3.63999027039158e-06,-1.072673375040103e-06,-1.239149424390509e-06,6.490879263460495e-07
5.438158347223739e-07,5.128870487432978e-07,5.0535236870738916e-08,-1.1929232440903085e-07,1.0031678126107765e-06,1.1082330653476831e-06,3.0303754357461977e-07,-1.187168893657539e-08,-1.927163227140698e-07,1.2715126458350098e-06,-4.925201106423141e-07,9.569114016624414e-07,-7.095481065798484e-08,-5.015660916968353e-07,-3.714068014103707e-06,-1.1596473430939715e-06,-1.3116984468598532e-06,6.356206403045615e-07
5.905063680901485e-07,4.900188780987965e-07,6.243644056918451e-08,-1.0404146574849656e-07,9.308262452089784e-07,1.0881519549689257e-06,2.597942854069295e-07,1.951042693907187e-09,-2.151980568983628e-07,1.3249424712178073e-06,-5.022649574649356e-07,9.566382436017593e-07,-9.982461984173913e-08,-5.044498730331327e-07,-3.7729220502220536e-06,-1.2352144280356824e-06,-1.3695914105223616e-06,6.200000615848478e-07
6.312505909689853e-07,4.6630772769518663e-07,7.524969675348487e-08,-8.099236820753654e-08,8.594267504915522e-07,1.0729785196460505e-06,2.2963228363789373e-07,2.1691177913597573e-08,-2.3387459370341849e-07,1.3736609597438724e-06,-5.124278942287266e-07,9.559697707605114e-07,-1.3307708206358976e-07,-5.096144834960409e-07,-3.8107745434580315e-06,-1.292566778731475e-06,-1.4181762297720977e-06,6.04233515292328e-07
6.666586164087898e-07,4.433139281297551e-07,8.880532270226853e-08,-4.911398004005884e-08,7.91551442834358e-07,1.0627681614918469e-06,2.113072135454329e-07,4.5372653472044186e-08,-2.481472746547091e-07,1.4137900212199391e-06,-5.217130340471709e-07,9.545584114463446e-07,-1.7276183579453396e-07,-5.16894494481986e-07,-3.824329309657196e-06,-1.3331183177845931e-06,-1.4689960112487525e-06,5.905294442539868e-07
6.96003365045428e-07,4.225368561748696e-07,1.0565999106424952e-07,-1.2840596882430711e-08,7.287744604273135e-07,1.0562850956793841e-06,1.998987986245884e-07,7.549462350204525e-08,-2.596756764442226e-07,1.4437839502604453e-06,-5.299612577863984e-07,9.531038576738504e-07,-2.1871010791724218e-07,-5.27235452744745e-07,-3.828640627859979e-06,-1.3492540267327655e-06,-1.5237907975916634e-06,5.802042841720197e-07
7.219823583245482e-07,4.032164149993074e-07,1.228589986064356e-07,2.1895555010114328e-08,6.702833145835375e-07,1.053832102758936e-06,1.904121148895339e-07,1.011865179214776e-07,-2.706688810810913e-07,1.4645170675041763e-06,-5.377521445365678e-07,9.506863783619114e-07,-2.674004984754957e-07,-5.402272396227516e-07,-3.82643116385946e-06,-1.3505758953785527e-06,-1.5820543573436321e-06,5.726594954467912e-07
7.351769222398598e-07,3.852238080140437e-07,1.3813906724625804e-07,5.277444523839117e-08,6.1177308367075e-07,1.0527190239905474e-06,1.781024077055492e-07,1.2053985654268077e-07,-2.831896688075934e-07,1.4762408066992189e-06,-5.464185319473752e-07,9.451412274846145e-07,-3.1345823916058937e-07,-5.552167575776251e-07,-3.834812871042373e-06,-1.3425952847695763e-06,-1.6399035803928598e-06,5.655649237227405e-07
7.340668004107939e-07,3.6640785274923664e-07,1.5156285817636076e-07,7.805822649443721e-08,5.467981084735197e-07,1.0507236441399355e-06,1.5977791193655497e-07,1.3672085584759935e-07,-2.9744907227970545e-07,1.4801224422118916e-06,-5.573275759726732e-07,9.33301897930871e-07,-3.5077686724722185e-07,-5.71855511966379e-07,-3.851125380390668e-06,-1.3381549999744266e-06,-1.685953483186752e-06,5.563606496672868e-07
7.173085402828853e-07,3.4614206553392656e-07,1.6383209643621915e-07,9.820399397073607e-08,4.6936894604942703e-07,1.04692368144332e-06,1.345558322926225e-07,1.5132971594600561e-07,-3.1391209438048054e-07,1.4767955960980086e-06,-5.710855743455853e-07,9.118003466502249e-07,-3.748402070560752e-07,-5.88905912488505e-07,-3.85141791403129e-06,-1.344697022134324e-06,-1.7195211757906412e-06,5.43127420462375e-07
6.84355981949898e-07,3.241032692479032e-07,1.7311994564177687e-07,1.0545700667872849e-07,3.7598330732853453e-07,1.0404804104325186e-06,1.0229449282269154e-07,1.6942688797533116e-07,-3.3396811131013534e-07,1.4604494861171897e-06,-5.877743966502701e-07,8.768178369111634e-07,-3.8505056982485865e-07,-6.071445428563301e-07,-3.829311284443625e-06,-1.3617500218886785e-06,-1.7359461855764302e-06,5.242521360665541e-07
6.32602358250949e-07,3.013805232810922e-07,1.805225514556694e-07,1.0386297630750745e-07,2.645724889055151e-07,1.0304805547735356e-06,6.482959473047294e-08,1.928813471894067e-07,-3.586205749691687e-07,1.4235437963879225e-06,-6.070676356624752e-07,8.248223524712592e-07,-3.842581530928993e-07,-6.276080985740982e-07,-3.7836048787665074e-06,-1.3907576367677023e-06,-1.7436326013146093e-06,4.987579418650741e-07
5.592209916709133e-07,2.788893182151165e-07,1.8530130321794212e-07,9.468738160189085e-08,1.3517350444723707e-07,1.0165239894074085e-06,2.477024194262496e-08,2.2213909696520517e-07,-3.880782799588412e-07,1.3599415835694419e-06,-6.279910092113193e-07,7.559614943530866e-07,-3.7678506171362415e-07,-6.50692987075598e-07,-3.7135244572437217e-06,-1.4262022992045798e-06,-1.7548250603702355e-06,4.6653344901289565e-07
4.6636775009432093e-07,2.5696577817809047e-07,1.860728709662644e-07,7.51542806155291e-08,-8.053777879589147e-09,9.994989466370189e-07,-1.3817408341550705e-08,2.605849705797603e-07,-4.2312618560622956e-07,1.268583220041606e-06,-6.486692354123258e-07,6.73597469717587e-07,-3.6707311031271675e-07,-6.758599143579942e-07,-3.6235747590108225e-06,-1.4612286023486335e-06,-1.7654494702024408e-06,4.287384934643445e-07
3.559879444206089e-07,2.3688728631758563e-07,1.8476875248602788e-07,4.8116617925938136e-08,-1.5848417310884937e-07,9.80638429629264e-07,-4.679254629464039e-08,3.099916827229003e-07,-4.6046533483254636e-07,1.1564906517256785e-06,-6.668398495549721e-07,5.859441688221959e-07,-3.5908793133140813e-07,-7.01337736708822e-07,-3.5150627662392667e-06,-1.4838244985077105e-06,-1.7762004756271355e-06,3.875719420612699e-07
2.3776460601511486e-07,2.1916780229334386e-07,1.8259551196836086e-07,1.602262756955326e-08,-3.0856191731174923e-07,9.62636693471012e-07,-7.276262335087981e-08,3.700447056778946e-07,-4.974785510471493e-07,1.0378292192463325e-06,-6.808000625541871e-07,5.043754177967176e-07,-3.55474698962257e-07,-7.241168773341891e-07,-3.384189794105106e-06,-1.4835043370461428e-06,-1.7803624470499419e-06,3.462737315011668e-07
1.2136095153424806e-07,2.0461877821321895e-07,1.8314827369555233e-07,-1.7208137575542925e-08,-4.5006026853861037e-07,9.487842585988116e-07,-9.085860588986097e-08,4.377803850771277e-07,-5.312255586914552e-07,9.30430193443121e-07,-6.895855979063035e-07,4.401795359321003e-07,-3.5727176577388024e-07,-7.412416295689321e-07,-3.2325198451277214e-06,-1.4473979904871337e-06,-1.7691962342910725e-06,3.0897886567975814e-07
1.831418279967127e-08,1.9368071511349519e-07,1.900370213238194e-07,-4.5622275048016446e-08,-5.74819772982051e-07,9.422645099117551e-07,-1.0030685577480444e-07,5.123438853745126e-07,-5.57737066981471e-07,8.483292364435858e-07,-6.932180368461493e-07,4.0094485150614434e-07,-3.643918639311364e-07,-7.506003974397791e-07,-3.078234587518379e-06,-1.3716940289001507e-06,-1.738764308905489e-06,2.788665833967476e-07
-5.686704124980057e-08,1.8640033876343258e-07,2.0470424171142883e-07,-5.998295754895265e-08,-6.768327178600983e-07,9.457176619785099e-07,-1.0154700666315316e-07,5.909393166240132e-07,-5.749033590217213e-07,7.990037632892778e-07,-6.930541243507781e-07,3.8718906245914533e-07,-3.7507441974251287e-07,-7.513144038833358e-07,-2.924206759979851e-06,-1.2623941967451121e-06,-1.691203682924709e-06,2.5735572289567685e-07
-1.0203724078072366e-07,1.823801736493286e-07,2.2713590747397516e-07,-6.28025955374966e-08,-7.525624978648267e-07,9.598462276345638e-07,-9.317112409647057e-08,6.70146919310838e-07,-5.81895400799203e-07,7.817902734194787e-07,-6.910381695476668e-07,3.9349958808720533e-07,-3.8697600989705455e-07,-7.454252966157012e-07,-2.7789844177085457e-06,-1.1349765197827577e-06,-1.6291011961844508e-06,2.436348235973308e-07
-1.2429048599291086e-07,1.812011941463451e-07,2.561948474526001e-07,-5.680357506107632e-08,-8.021637074432256e-07,9.83894626816637e-07,-7.55171817903221e-08,7.486450945726358e-07,-5.791172277651146e-07,7.870219164116498e-07,-6.890534421479187e-07,4.1182953458557453e-07,-3.9795882875130243e-07,-7.346180275309865e-07,-2.6507069562945812e-06,-1.0023310910012495e-06,-1.5584266170663588e-06,2.3508699993637697e-07
-1.2982654491750834e-07,1.821706083042521e-07,2.878728124107751e-07,-4.33983807582554e-08,-8.299865491436098e-07,1.015322011327265e-06,-5.053515757756311e-08,8.218490688189662e-07,-5.682307824013556e-07,8.058115916681494e-07,-6.882444384482854e-07,4.3638761629692797e-07,-4.0656004979635176e-07,-7.216455594872105e-07,-2.5364493980633e-06,-8.790520541235547e-07,-1.489230025818937e-06,2.2811460550527138e-07
-1.2268836430031232e-07,1.8388074713817054e-07,3.189341676143381e-07,-3.2666802458938565e-08,-8.453332704562277e-07,1.0495016233049623e-06,-2.2209596135712203e-08,8.872619603789134e-07,-5.527449441847905e-07,8.301224432385105e-07,-6.892078492186259e-07,4.608990146731042e-07,-4.1203238100064096e-07,-7.087482521499885e-07,-2.437494525986032e-06,-7.720308914617807e-07,-1.422072699791636e-06,2.1939901440708222e-07
-1.1105332012016997e-07,1.8514217210036665e-07,3.470033644780434e-07,-2.7326818272891694e-08,-8.563395956824295e-07,1.0818555988764706e-06,4.704837689668737e-09,9.434792049141306e-07,-5.364033699265642e-07,8.551954745989088e-07,-6.916118070517768e-07,4.819500110469094e-07,-4.146402633342449e-07,-6.966444654118968e-07,-2.3480471308188304e-06,-6.828825573517097e-07,-1.371747472044531e-06,2.0714252398668463e-07
-9.983378750213814e-08,1.8443448383654755e-07,3.6930894605848445e-07,-2.3373357163551532e-08,-8.700804699635231e-07,1.1088727352264381e-06,2.6142671417405603e-08,9.913021808447987e-07,-5.236886665154566e-07,8.797321851135177e-07,-6.949481113846878e-07,4.991483844120394e-07,-4.165287870946849e-07,-6.857875526972767e-07,-2.269865290563765e-06,-6.113286485061576e-07,-1.3296421972532508e-06,1.9103087079869406e-07
-9.16244783850754e-08,1.8042874063535186e-07,3.842369100082406e-07,-2.4342757818259728e-08,-8.899720680999249e-07,1.1280260226852903e-06,3.9376865655295746e-08,1.030064629395381e-06,-5.187810320031334e-07,9.020990684772273e-07,-6.984453776221887e-07,5.115940970921484e-07,-4.208040867302065e-07,-6.762454263953514e-07,-2.210232957364621e-06,-5.565423068460055e-07,-1.3062426663454754e-06,1.7196668739588824e-07
-8.878093749338871e-08,1.7236659329120503e-07,3.9528570774373387e-07,-2.9135912332850016e-08,-9.168819157526175e-07,1.1383545378649067e-06,4.4728773077225635e-08,1.0596418947115667e-06,-5.247752731022903e-07,9.22262589443019e-07,-7.012356986677662e-07,5.177566971926144e-07,-4.312705901745133e-07,-6.683838538217631e-07,-2.175570509639434e-06,-5.184279089892626e-07,-1.3167265930849846e-06,1.5161614851686817e-07
-8.72809831324342e-08,1.5999573465515e-07,4.01405224488657e-07,-3.617400809701592e-08,-9.495522834931429e-07,1.1405185461273693e-06,4.322608966908768e-08,1.0809714520280907e-06,-5.42709771464544e-07,9.339944367181114e-07,-7.021076489214837e-07,5.142142524532271e-07,-4.5093275896585994e-07,-6.626796530913991e-07,-2.172410982791377e-06,-4.943570371154175e-07,-1.3607053838160676e-06,1.3151515887258948e-07
-8.170831826458167e-08,1.4355522730677934e-07,4.0050665064627015e-07,-4.5743337475370606e-08,-9.85087969812538e-07,1.1358798477570442e-06,3.654365277740096e-08,1.0937172883493482e-06,-5.712414450498156e-07,9.383596525809212e-07,-7.009669747637527e-07,4.956391582542848e-07,-4.813603110499474e-07,-6.60732514032089e-07,-2.204160346623605e-06,-4.837710222421532e-07,-1.4518998144101776e-06,1.1240936507594281e-07
-6.876408473352061e-08,1.2367632677842033e-07,3.942732518707209e-07,-5.664934403088381e-08,-1.0217673861352082e-06,1.1261398483766923e-06,2.5412358978128492e-08,1.0955603930633927e-06,-6.061936862666955e-07,9.317891959925424e-07,-6.983658409529865e-07,4.5588599670296193e-07,-5.214708345219377e-07,-6.641872684143621e-07,-2.265742963104674e-06,-4.835109053095842e-07,-1.5634326858856621e-06,9.427574075491713e-08
-4.854918748982622e-08,1.0164564147754291e-07,3.8337633542527875e-07,-6.561906525317698e-08,-1.0564533198894224e-06,1.1141126148807307e-06,1.189172687359018e-08,1.089287424962972e-06,-6.40504561531146e-07,9.054516927288081e-07,-6.949942015591525e-07,3.9261657772422964e-07,-5.667520202855106e-07,-6.740831860395896e-07,-2.3496339363452004e-06,-4.871065563384997e-07,-1.6861806093140492e-06,7.628320504385807e-08
-2.2538236360331676e-08,7.927944561914054e-08,3.6782102059771093e-07,-7.337553831173949e-08,-1.0867058502557764e-06,1.103214887041126e-06,-2.224654213400234e-09,1.0787864467905472e-06,-6.645506905720141e-07,8.524007478603883e-07,-6.920919906699795e-07,3.083366474995173e-07,-6.105068426257005e-07,-6.906559545184584e-07,-2.437277603926659e-06,-4.859700186058684e-07,-1.802776658272966e-06,5.558953843131352e-08
5.014954305648809e-09,5.822085201989815e-08,3.5106190493210226e-07,-8.289974305888785e-08,-1.1099961995335035e-06,1.095962862803871e-06,-1.5421386570108085e-08,1.064299023315748e-06,-6.693400143584187e-07,7.673556555113909e-07,-6.908405559218529e-07,2.1024064903409422e-07,-6.459721164361133e-07,-7.125392342785678e-07,-2.505583898816323e-06,-4.739250849268895e-07,-1.7917902703835672e-06,2.6705715503849475e-08
3.0503299707324674e-08,3.93256746294494e-08,3.2802261745658725e-07,-9.598054157623068e-08,-1.1246472457262913e-06,1.0921029883548297e-06,-2.625839297641862e-08,1.0449292886443957e-06,-6.500806135547172e-07,6.596690406550469e-07,-6.923875200066401e-07,1.115698324445688e-07,-6.682817499380419e-07,-7.365042749652624e-07,-2.553787352518511e-06,-4.4663096311145024e-07,-1.6688622357460865e-06,-1.6750384931959334e-08
5.752229212772942e-08,2.2587937186718434e-08,2.950184902026135e-07,-1.1455680812801156e-07,-1.1235193541274099e-06,1.092151511477696e-06,-3.147137759642276e-08,1.0189824416528227e-06,-6.066427744986352e-07,5.493563734261281e-07,-6.969907789868656e-07,2.901158148406793e-08,-6.751170080439816e-07,-7.591077570628037e-07,-2.5751404094035685e-06,-4.0313449525021886e-07,-1.507662212540587e-06,-7.960228846994308e-08
8.202720398955383e-08,7.655085842197834e-09,2.5095766556299164e-07,-1.389586434996323e-07,-1.1016047169117326e-06,1.096184017293777e-06,-2.5867397044902527e-08,9.857804949580698e-07,-5.435249584919535e-07,4.935369893143609e-07,-7.050223713525645e-07,-2.183252591769379e-08,-6.670665980713411e-07,-7.75646188621788e-07,-2.5855965382600423e-06,-3.476220148921638e-07,-1.339212469891189e-06,-1.629785479184774e-07
1.0891461126992352e-07,-6.08340754837716e-09,1.9500960203967456e-07,-1.6926841879249979e-07,-1.055364738439034e-06,1.1039274604386701e-06,-4.698238361075001e-09,9.463751444282005e-07,-4.682731476641195e-07,5.403109057289321e-07,-7.156451781144128e-07,-3.093852041039251e-08,-6.475814826212595e-07,-7.828027276084838e-07,-2.6059141468281257e-06,-2.911513439001978e-07,-1.0452671491870079e-06,-2.624781031376751e-07
1.4176066452038742e-07,-1.9402176914031593e-08,1.2957710440616752e-07,-2.049865742370111e-07,-9.858180275044308e-07,1.1158876612492655e-06,3.4197066221532864e-08,9.027420226222101e-07,-3.8868561046503483e-07,6.302578350892018e-07,-7.282154040213528e-07,2.5639386933009497e-09,-6.218485680363807e-07,-7.794558683766442e-07,-2.651555823290906e-06,-2.501281453906252e-07,-7.349933482464529e-07,-3.6723264558311654e-07
1.7855679672517543e-07,-3.219754514171494e-08,6.0660196831121e-08,-2.403052023633536e-07,-8.994099859432059e-07,1.1321212901370504e-06,9.033004951487677e-08,8.572236800303492e-07,-3.104447831748893e-07,6.702083757523992e-07,-7.416857634432252e-07,7.230766094261402e-08,-5.95400895328355e-07,-7.666948113636853e-07,-2.7347928807647446e-06,-2.336394563724035e-07,-5.825588855758172e-07,-4.6215425755185226e-07
2.205338297413472e-07,-4.356971154023139e-08,-3.3607678229060356e-09,-2.706672987561635e-07,-8.062529228526424e-07,1.1531150631446408e-06,1.5912908819524792e-07,8.107456334672624e-07,-2.3683737427055775e-07,6.69009951296585e-07,-7.546311945733246e-07,1.657587286720613e-07,-5.723711266034284e-07,-7.481729809403684e-07,-2.8449701521138285e-06,-2.456892905609051e-07,-5.230857640623998e-07,-5.332410605479138e-07
2.640403150626428e-07,-5.257502526258907e-08,-5.7158431331400836e-08,-2.945803452196963e-07,-7.165257567994708e-07,1.1780508179719714e-06,2.3356793842504932e-07,7.615497905178876e-07,-1.7140665339984006e-07,7.793303591957944e-07,-7.660188990905531e-07,2.673738314088605e-07,-5.5404334436941e-07,-7.286462953970078e-07,-2.9763268533941537e-06,-2.8700203651941536e-07,-4.2193345223487085e-07,-5.722344169358126e-07
3.0250488882621607e-07,-5.811766512658912e-08,-9.660002649470789e-08,-3.103412737648614e-07,-6.272391664329962e-07,1.2059981923252824e-06,3.0685963963105246e-07,7.080296268865087e-07,-1.1632932731663004e-07,9.534167412058615e-07,-7.745975759561101e-07,3.6355503142000873e-07,-5.382161152660141e-07,-7.118539678976718e-07,-3.1284794385260337e-06,-3.547610397593654e-07,-3.8213510468107403e-07,-5.785421491751359e-07
3.2851874629427813e-07,-5.9013428319100596e-08,-1.211915976814575e-07,-3.1767136265834633e-07,-5.500558719491472e-07,1.2346828759311855e-06,3.7416099960486065e-07,6.496258606605178e-07,-7.564417269449923e-08,1.0715617610353405e-06,-7.79175718995795e-07,4.447377785458275e-07,-5.201841168674651e-07,-6.997972560846126e-07,-3.2859484044116034e-06,-4.448042935341808e-07,-4.0118350985221173e-07,-5.58847508446861e-07
3.364227680350176e-07,-5.499044539721268e-08,-1.327588988111187e-07,-3.2131980215907193e-07,-4.836771565189047e-07,1.2607995649342913e-06,4.29514612433497e-07,5.864549877311653e-07,-5.496580025831726e-08,1.2013495135381223e-06,-7.791536763177433e-07,5.054482987800417e-07,-4.953917039436806e-07,-6.932926683766375e-07,-3.434658489871384e-06,-5.534203850982529e-07,-4.6319700430112535e-07,-5.247784981154194e-07
3.2112538180329083e-07,-4.704320998434956e-08,-1.3493732959874924e-07,-3.2491960609251524e-07,-4.374118273984936e-07,1.2807553078952082e-06,4.660670065002737e-07,5.197393871011225e-07,-5.847729334428772e-08,1.2835298814113513e-06,-7.765047507097664e-07,5.434275281392964e-07,-4.609897222709872e-07,-6.912875381836542e-07,-3.5650132210133435e-06,-6.758769884303954e-07,-4.985570200994207e-07,-4.885614521748035e-07
2.8365036084016326e-07,-3.704791486032065e-08,-1.322017702197963e-07,-3.299381646523603e-07,-4.854936607538302e-07,1.2915560293416826e-06,4.7843667056819e-07,4.533319269534256e-07,-8.487289110552701e-08,1.3176786737578109e-06,-7.702275950950181e-07,5.599293976883933e-07,-4.16631064335653e-07,-6.918564345419481e-07,-3.6685312292620836e-06,-8.007654528283168e-07,-5.167768363141621e-07,-4.592977765639725e-07
2.3191717995473608e-07,-2.6875698658972838e-08,-1.283167482788356e-07,-3.3731497824966984e-07,-6.046642850327907e-07,1.2930107969255389e-06,4.6392158621061704e-07,3.9108450663844967e-07,-1.306302409841534e-07,1.3326190168141603e-06,-7.611162058597989e-07,5.583530134583208e-07,-3.6426245063138397e-07,-6.927212424523453e-07,-3.7336131373219753e-06,-9.237315318277721e-07,-5.274930917099615e-07,-4.414597626276777e-07
1.7633123762174834e-07,-1.7759559786974933e-08,-1.252167099010216e-07,-3.4402650176211456e-07,-7.274438127875115e-07,1.2856066030534615e-06,4.26925888056015e-07,3.3693160093112746e-07,-1.8788290689248759e-07,1.3221231313173622e-06,-7.488068666791436e-07,5.451233965675545e-07,-3.075686798086017e-07,-6.910973948373068e-07,-3.7699090929438243e-06,-1.0449253866668594e-06,-5.322428872931581e-07,-4.3484408986822206e-07
1.289661853159314e-07,-9.706633489489978e-09,-1.2335861004208933e-07,-3.449977705528647e-07,-8.412399681459943e-07,1.2751178216699747e-06,3.766301943391237e-07,2.960954481262187e-07,-2.4543538819901013e-07,1.3154270008118752e-06,-7.321647823043629e-07,5.278296374549419e-07,-2.499390295641114e-07,-6.842798543988367e-07,-3.7867108037952864e-06,-1.1527333524753272e-06,-5.321583089318603e-07,-4.3536844671486435e-07
9.93594538696341e-08,-1.3909114315173984e-09,-1.2017331225699133e-07,-3.3585154614757556e-07,-9.37927086015282e-07,1.2694262890322356e-06,3.245816190448854e-07,2.705979472989611e-07,-2.944890972684806e-07,1.3206851121140658e-06,-7.109686977493793e-07,5.141070533764113e-07,-1.955109146849683e-07,-6.700500246132868e-07,-3.7851847376663322e-06,-1.2415061830795395e-06,-5.307458423746002e-07,-4.369676687444215e-07
9.050953115493077e-08,8.900213113427623e-09,-1.1177710218982192e-07,-3.183093154193253e-07,-1.0077085093942036e-06,1.2757300128049332e-06,2.815899606425416e-07,2.591568355509859e-07,-3.3068215184569634e-07,1.3370784508457813e-06,-6.84560426207572e-07,5.099232890848153e-07,-1.4266551238550425e-07,-6.464065791106641e-07,-3.7744336744844353e-06,-1.3071794292584007e-06,-5.26981207596363e-07,-4.344422994609152e-07
1.0314683366521179e-07,2.2582945064997255e-08,-9.448702409716924e-08,-2.8917849797053003e-07,-1.04116489496416e-06,1.2989510268553402e-06,2.56259230017782e-07,2.6249257173306416e-07,-3.536088141995308e-07,1.3649548359005157e-06,-6.53361480693817e-07,5.176095385331617e-07,-8.97510345830473e-08,-6.130181740538019e-07,-3.755483162897766e-06,-1.344999909875333e-06,-5.211047803423474e-07,-4.2532443763999666e-07
1.2762936004979844e-07,3.994905388875958e-08,-6.68895652960152e-08,-2.490819844117256e-07,-1.0556393888899198e-06,1.3394218075665707e-06,2.5211202360222685e-07,2.7730837015096907e-07,-3.662577946435118e-07,1.4022817193385307e-06,-6.17922049011409e-07,5.355518744333515e-07,-3.696897570113664e-08,-5.715697895056876e-07,-3.7312123106566923e-06,-1.3599787054898e-06,-5.156077856924208e-07,-4.105137192146513e-07
1.5504002420934496e-07,6.047510940634157e-08,-2.943683867752545e-08,-2.0341810647581664e-07,-1.0549133356111305e-06,1.3932340029236792e-06,2.675810857612903e-07,2.98407495140964e-07,-3.7242979369932374e-07,1.445927635561624e-06,-5.829926876935915e-07,5.584192828862434e-07,1.3115123116127626e-08,-5.256546171474021e-07,-3.7045003837360412e-06,-1.3599255113043286e-06,-5.104331282085341e-07,-3.935745046372288e-07
1.7564306940566022e-07,8.27786277638929e-08,1.4988718682499033e-08,-1.5632827773330402e-07,-1.0409055746392593e-06,1.4532801343037042e-06,2.9802745053270335e-07,3.219220113238085e-07,-3.73658725613303e-07,1.4898240831087905e-06,-5.520367148973562e-07,5.804022635263101e-07,5.747081890839667e-08,-4.797665085769886e-07,-3.691894830831815e-06,-1.352866557904692e-06,-5.062273519098417e-07,-3.789094853549869e-07
1.8136219846079552e-07,1.0526362372475489e-07,6.120410238121178e-08,-1.1511148715564061e-07,-1.0210245757490083e-06,1.511803222686826e-06,3.374321886359191e-07,3.443431155389432e-07,-3.6953256626997586e-07,1.5279375999882663e-06,-5.278804713157236e-07,5.969224620641807e-07,9.00823356268503e-08,-4.380264376139449e-07,-3.6966121432636013e-06,-1.3456680019073827e-06,-5.006849333108499e-07,-3.7009016971844845e-07
1.710377838906788e-07,1.2691114239293215e-07,1.0482979790555931e-07,-8.59808600660102e-08,-9.95655974422327e-07,1.5610999271915146e-06,3.804024208743814e-07,3.6352520032431285e-07,-3.5951448924954655e-07,1.5561177293221036e-06,-5.129083823044684e-07,6.054149788821847e-07,1.049350542268144e-07,-4.034533582475762e-07,-3.71984279195536e-06,-1.345064007252431e-06,-5.103639141063784e-07,-3.688875159832481e-07
1.4452664961561715e-07,1.475912849693756e-07,1.4334196473631747e-07,-6.874424114697018e-08,-9.698397002622766e-07,1.5972858406334178e-06,4.2357689115857683e-07,3.7997829346857047e-07,-3.4523579192303416e-07,1.5732408916099758e-06,-5.066800659079273e-07,6.06659026123489e-07,1.0437679494264677e-07,-3.767947903516801e-07,-3.7525974915156522e-06,-1.3511183754475681e-06,-5.284222474661138e-07,-3.746877058219295e-07
1.0717770876852556e-07,1.6821745115529669e-07,1.7547745046619912e-07,-5.961677935600659e-08,-9.471334743329945e-07,1.6199948438603117e-06,4.665750165749726e-07,3.9536222119773807e-07,-3.3131305228413416e-07,1.5816556064051025e-06,-5.074809739204721e-07,6.047881942914517e-07,9.437705443990972e-08,-3.564610760731745e-07,-3.7810500971216566e-06,-1.3597989505255787e-06,-5.442611002427638e-07,-3.845451392501087e-07
6.656018492438316e-08,1.900077553378302e-07,2.0185115469762692e-07,-5.260149025434204e-08,-9.298932178376615e-07,1.6323315888337877e-06,5.088428014471163e-07,4.1250579020378285e-07,-3.245523647208386e-07,1.5829416390935187e-06,-5.120850248509316e-07,6.060768270390885e-07,8.519805321098286e-08,-3.386850734951891e-07,-3.798636165075174e-06,-1.3663944813827237e-06,-5.523190689607625e-07,-3.9461759657074815e-07
3.324337461314592e-08,2.1395009874960618e-07,2.287592459641028e-07,-4.008982996087779e-08,-9.234098240347299e-07,1.6386479400212988e-06,5.508745973239608e-07,4.2929202007682353e-07,-3.329851460024253e-07,1.5879058331378478e-06,-5.164364543261466e-07,6.169514571389536e-07,8.892683797921848e-08,-3.1921327667496936e-07,-3.7945113154402512e-06,-1.3655299279775858e-06,-5.414846474249441e-07,-4.01969968368051e-07
1.5574557630495658e-08,2.3958453923418765e-07,2.5764701552274814e-07,-1.697287646242917e-08,-9.341518515088478e-07,1.6437473702356756e-06,5.924046573520111e-07,4.4761744022533926e-07,-3.6404169474281865e-07,1.6050178114260614e-06,-5.171412908120572e-07,6.418842417346107e-07,1.1467374677826678e-07,-2.9354588809034045e-07,-3.7649229013006193e-06,-1.3567524464342407e-06,-5.157015936339298e-07,-4.053210152140639e-07
1.787913502210699e-08,2.6538138221678664e-07,2.871584645479399e-07,1.923940258269054e-08,-9.691449738425002e-07,1.6537517696808932e-06,6.313901115464081e-07,4.65139200869765e-07,-4.2061348823389444e-07,1.6391450483492724e-06,-5.115827096878367e-07,6.816666895882996e-07,1.665611661201598e-07,-2.586806842377689e-07,-3.7022860994229915e-06,-1.3412446144705825e-06,-4.800190770946383e-07,-4.052107356570533e-07
4.062445548142644e-08,2.890563542176227e-07,3.167447790566081e-07,6.743481592849966e-08,-1.032910815155671e-06,1.6693776580430997e-06,6.636877867860962e-07,4.778098340594617e-07,-5.018692398000436e-07,1.691504461228151e-06,-4.995937638980887e-07,7.320448772081317e-07,2.416613412774181e-07,-2.1512034864217218e-07,-3.6158371961492544e-06,-1.32223418789111e-06,-4.43270933677769e-07,-4.0395022523085754e-07
7.52898406209116e-08,3.0752846614999815e-07,3.428635522843811e-07,1.2192792277135697e-07,-1.1234655145730978e-06,1.6883286522001816e-06,6.835914369234067e-07,4.819526588452548e-07,-6.001442708225566e-07,1.7572788859316008e-06,-4.83013127670277e-07,7.850799285696732e-07,3.3007802301872396e-07,-1.6568411916819962e-07,-3.5250662252535937e-06,-1.307829355680549e-06,-4.116554630267211e-07,-4.0484456596358373e-07
1.0927315380878563e-07,3.1816338612995787e-07,3.6284543702814417e-07,1.7208798671488848e-07,-1.2333586369519424e-06,1.7076807471272916e-06,6.859122442274444e-07,4.7402839010763015e-07,-6.991547191258818e-07,1.8212130695128157e-06,-4.6502796146640783e-07,8.315783307315025e-07,4.169098952761378e-07,-1.1560428415496434e-07,-3.4395838279910077e-06,-1.3041627386098316e-06,-3.967943364252082e-07,-4.1105624464817784e-07
1.2966556606167388e-07,3.1958775179145966e-07,3.7540325310961594e-07,2.1443810004087148e-07,-1.3483503374786484e-06,1.72382011426341e-06,6.68161263109104e-07,4.556653922564632e-07,-7.7946935406851e-07,1.8688022155584851e-06,-4.498764344324409e-07,8.637767066384479e-07,4.857407363468033e-07,-7.049440060737907e-08,-3.366596811313687e-06,-1.3147150985987858e-06,-4.095899930824801e-07,-4.2475037423825117e-07
1.309782297009097e-07,3.1209496876186877e-07,3.781418419094868e-07,2.398620229136998e-07,-1.4535884570611667e-06,1.7355126657111727e-06,6.32765714540247e-07,4.30806900076283e-07,-8.276277460714477e-07,1.8918383403628194e-06,-4.39655994385629e-07,8.779606432325768e-07,5.249899641148493e-07,-3.47328014917933e-08,-3.3153407880357448e-06,-1.340135482795174e-06,-4.478499329490483e-07,-4.4636234850951597e-07
1.0947439331397023e-07,2.977427103252046e-07,3.732790558451144e-07,2.446277477292137e-07,-1.5364789539717702e-06,1.7449169273012417e-06,5.868052180774122e-07,4.0565309406419126e-07,-8.384865620658787e-07,1.8860145618293118e-06,-4.3523831227744325e-07,8.757666779030041e-07,5.304544494066836e-07,-9.957838427188213e-09,-3.2866581728531876e-06,-1.3753852646060456e-06,-5.08475852745225e-07,-4.7397174942524426e-07
6.36467347302411e-08,2.798315639328646e-07,3.6555317055322686e-07,2.3397375809673746e-07,-1.5887291628826082e-06,1.7553233534039651e-06,5.442294538076925e-07,3.883127351835681e-07,-8.166290407561162e-07,1.8583415320617304e-06,-4.347478364202844e-07,8.62544199265495e-07,5.070325709035849e-07,5.132842212659513e-09,-3.2727101967415805e-06,-1.4121914100152519e-06,-5.804102149043425e-07,-5.038377293452998e-07
6.016391537963894e-10,2.621647722419775e-07,3.5866422137262046e-07,2.173802103083901e-07,-1.6079021926061243e-06,1.7688399869112655e-06,5.154702187866118e-07,3.8726212052818614e-07,-7.739417703270887e-07,1.8189441931367215e-06,-4.353350748256712e-07,8.446867362179054e-07,4.6399924397873443e-07,1.3739104079790816e-08,-3.2636942547394126e-06,-1.4424242936169007e-06,-6.547563045441117e-07,-5.319069207582194e-07
-6.342443943892035e-08,2.476407499408878e-07,3.538753013842275e-07,2.0118674629809346e-07,-1.5963366958420855e-06,1.7872610009704147e-06,5.082198410296865e-07,3.9706763273002443e-07,-7.218084522404868e-07,1.777934102205874e-06,-4.3413994708204675e-07,8.275953364808132e-07,4.12649842513301e-07,1.959687089683199e-08,-3.2556807654966375e-06,-1.4599409293319314e-06,-7.282616907010401e-07,-5.550488975362811e-07
-1.2468134248909715e-07,2.3773777435778225e-07,3.5086641121887757e-07,1.8803788102275435e-07,-1.5600862797899527e-06,1.810236890197698e-06,5.219070150540165e-07,4.1379389588590503e-07,-6.702714840623022e-07,1.744277028027978e-06,-4.285266437776318e-07,8.145047513369948e-07,3.6506445185694245e-07,2.5758871230132652e-08,-3.2358158877497408e-06,-1.4599694434654088e-06,-7.957161381750863e-07,-5.720128611399677e-07
-1.7889967191511422e-07,2.327781575925442e-07,3.4682185604827e-07,1.7851859310527218e-07,-1.5057047979030076e-06,1.8336713972508823e-06,5.477028482873615e-07,4.299992549138394e-07,-6.275391969019609e-07,1.720860436977589e-06,-4.181169122614012e-07,8.059739264990094e-07,3.2545420105841424e-07,3.3294481791510366e-08,-3.2397688744704013e-06,-1.4421301958960748e-06,-8.594903977786335e-07,-5.842501022310235e-07
-2.233602304502488e-07,2.3139252136618033e-07,3.3716987414378026e-07,1.685965388504448e-07,-1.4467559179959912e-06,1.8544333613752648e-06,5.723090027042178e-07,4.3565004725723414e-07,-5.995397472640014e-07,1.7051564160176794e-06,-4.0465056962839263e-07,8.006183404831952e-07,2.93778935440291e-07,4.086421209037729e-08,-3.2702779019367655e-06,-1.4094264763276083e-06,-9.227552512011033e-07,-5.957348022942159e-07
-2.619114834763413e-07,2.3105337313604577e-07,3.269271846880037e-07,1.5112435030082475e-07,-1.3868587859685175e-06,1.8692823796388015e-06,5.981312751879897e-07,4.10082560600188e-07,-5.911288474266193e-07,1.69188513917117e-06,-3.9217430066318305e-07,7.967162753233889e-07,2.671483383826202e-07,4.5621049118242756e-08,-3.2999300330051423e-06,-1.3657479052673106e-06,-9.879801602302192e-07,-6.11650958940734e-07
-2.95549791847879e-07,2.2934709242322304e-07,3.1474668277915963e-07,1.2452522805875838e-07,-1.3253869845917976e-06,1.8759248593087685e-06,6.201201160234942e-07,3.7630041267795396e-07,-6.005155401726832e-07,1.674973983435415e-06,-3.829335441318555e-07,7.934678278485972e-07,2.40793295576456e-07,4.417109254688663e-08,-3.3340160201640235e-06,-1.3156859546920334e-06,-1.0574183192741684e-06,-6.365457515176951e-07
-3.2466712106748766e-07,2.2423095899668035e-07,2.915949214806807e-07,8.842556879029531e-08,-1.2643135215646581e-06,1.8742091620815225e-06,6.373597463687261e-07,3.1523953651665565e-07,-6.213768435479174e-07,1.649898611525588e-06,-3.8153788784292534e-07,7.91545374804135e-07,2.11760378328282e-07,3.473583278732411e-08,-3.3589895416651013e-06,-1.2647609646577838e-06,-1.1303497470792733e-06,-6.728974174978188e-07
-3.5201101424186085e-07,2.1447176091195905e-07,2.6592166381496003e-07,4.3854309876398494e-08,-1.1967739327758411e-06,1.8646452501985574e-06,6.603532229774476e-07,2.1882829251794758e-07,-6.557761423212559e-07,1.6175664506893345e-06,-3.895007937109585e-07,7.92946229703633e-07,1.803814820091297e-07,1.837105936812179e-08,-3.3804931838979227e-06,-1.2162448189149464e-06,-1.205162594550858e-06,-7.194801415522049e-07
-3.820091400855674e-07,2.00722773714402e-07,2.4803037946262624e-07,-4.0351959756225695e-09,-1.1254024058551255e-06,1.8491504466317558e-06,6.850561765235402e-07,1.7075578193040198e-07,-6.873881261564725e-07,1.5843316492857872e-06,-4.0457396050970705e-07,7.996623548784422e-07,1.5068786441800739e-07,-2.0054468151484304e-09,-3.383111906580974e-06,-1.172910467748295e-06,-1.2795616411864674e-06,-7.7096381588552e-07
-4.1488537693982153e-07,1.8550224322980088e-07,2.3228057866920385e-07,-4.953378373220529e-08,-1.0544123203218838e-06,1.8300841124430163e-06,7.274471904883868e-07,1.9939038070134608e-07,-7.252832519510785e-07,1.559537881020343e-06,-4.239383482995082e-07,8.121281391149127e-07,1.2815909554675945e-07,-2.295042951040204e-08,-3.352436068748632e-06,-1.1426891653216841e-06,-1.3582088856299195e-06,-8.19332333566795e-07
-4.518963504022614e-07,1.7201716047828975e-07,2.469209101261523e-07,-8.783825603065179e-08,-9.871442699245007e-07,1.8087958250629351e-06,7.952152530273422e-07,3.718379075252375e-07,-7.785101203426812e-07,1.5557080543219415e-06,-4.4218995582541943e-07,8.275638788918295e-07,1.1952717118148165e-07,-3.76371308359027e-08,-3.2493181029498634e-06,-1.1328317207079233e-06,-1.441456458933106e-06,-8.548206072205848e-07
-4.947804814038452e-07,1.6363980888537495e-07,2.896035605855622e-07,-1.162470826037051e-07,-9.264181147297452e-07,1.7839100450774238e-06,9.246231370576378e-07,5.576438094144647e-07,-8.440093549038541e-07,1.5842231237509427e-06,-4.554217650085664e-07,8.402639215644354e-07,1.2759384001754878e-07,-4.027949594039859e-08,-3.12603285654448e-06,-1.1479921283959918e-06,-1.5231231011657973e-06,-8.680798108283453e-07
-5.437124789017865e-07,1.6478428021235898e-07,3.1681250937505093e-07,-1.2425545968842502e-07,-8.721801892930863e-07,1.7540302617522521e-06,1.1433151988191099e-06,7.36499766366252e-07,-8.990376816453604e-07,1.6483854686003104e-06,-4.621120312050884e-07,8.433848224832025e-07,1.5227364984241628e-07,-2.9253539020758607e-08,-3.0220054944740287e-06,-1.1854514330474345e-06,-1.6025365782796156e-06,-8.523156061723377e-07
-5.940207245146655e-07,1.7546888173244817e-07,3.2701081351910737e-07,-1.1155541111267921e-07,-8.239092415197207e-07,1.7186744892700966e-06,1.4328797495380472e-06,8.602639695286639e-07,-9.14292621258391e-07,1.7437306029002188e-06,-4.638212643832293e-07,8.318043683857377e-07,1.9250929752210847e-07,-6.146318423653239e-09,-2.878998956852984e-06,-1.233342325344447e-06,-1.671639811180369e-06,-8.04714715498515e-07
-6.390211914688661e-07,1.9621790787371371e-07,3.314457651905211e-07,-8.302230923507422e-08,-7.771440677331059e-07,1.6795940898383335e-06,1.7006216092980283e-06,1.0392772474435682e-06,-8.571601959285505e-07,1.8591016152039708e-06,-4.620936709723703e-07,8.050489854721883e-07,2.4441640373251805e-07,1.9011716126561268e-08,-2.8228170184801245e-06,-1.2701615537743822e-06,-1.7185660975983795e-06,-7.267761644309785e-07
-6.741117008613389e-07,2.2818760404929914e-07,3.2619477485722163e-07,-3.354398275979529e-08,-7.156529057059599e-07,1.6398140135409625e-06,1.921417352034992e-06,1.2865186564788229e-06,-7.812442741758784e-07,1.9802944272776313e-06,-4.590009226956861e-07,7.6926348960841e-07,3.0524843323323136e-07,3.755715684895911e-08,-2.7391788963332275e-06,-1.2702951881807029e-06,-1.7308445870457066e-06,-6.238190507233072e-07
-6.908362694024223e-07,2.677151269249369e-07,3.334882704598227e-07,3.1345396486248555e-08,-6.33063313706395e-07,1.6065275121592746e-06,2.1056979913870712e-06,1.530795534512208e-06,-7.342606950673792e-07,2.08548974384714e-06,-4.5576381234433293e-07,7.345302937961659e-07,3.719419023002473e-07,4.563054981908615e-08,-2.6247293506514967e-06,-1.2134323276780555e-06,-1.6955424021566096e-06,-5.043770794692962e-07
-6.795711349785302e-07,3.171437594230685e-07,4.048255647271772e-07,1.0497158823711307e-07,-5.308989548446088e-07,1.58321528812578e-06,2.1749955870461588e-06,1.6476636122992075e-06,-6.906454461472234e-07,2.1665205646797236e-06,-4.510597004136946e-07,7.109865368056761e-07,4.4494246901407204e-07,7.146639609185055e-08,-2.5943952752061005e-06,-1.0901157711176847e-06,-1.5992549960978095e-06,-3.7891170383954886e-07
-6.370244734317639e-07,3.733931693858391e-07,4.846881156170148e-07,1.8579794272171253e-07,-4.1736202859103103e-07,1.571687972008213e-06,2.1740361747796786e-06,1.7674886679079612e-06,-6.614796193931977e-07,2.2239277140897414e-06,-4.42313923882217e-07,7.072896176445218e-07,5.250008509983012e-07,1.2813056498412063e-07,-2.416630853369702e-06,-9.063691153936384e-07,-1.4458748802266263e-06,-2.58074794504717e-07
-5.649026062541376e-07,4.2994089541366857e-07,5.045425773128561e-07,2.6865819530349766e-07,-3.070716611303286e-07,1.5733855080756347e-06,2.2089025561614475e-06,1.7985689812999774e-06,-6.415990124023722e-07,2.253391212560499e-06,-4.26108248935421e-07,7.283730552032554e-07,6.10566778037189e-07,2.0666501977343173e-07,-2.2002287879859595e-06,-6.804789162770696e-07,-1.2505903901753509e-06,-1.5019075602398224e-07
-4.7040663124864493e-07,4.864304688180988e-07,5.557141063873883e-07,3.4434329764204597e-07,-2.1476525198077245e-07,1.5867322031485107e-06,2.3152233985449258e-06,1.8278414842988915e-06,-5.488944180573203e-07,2.2636997885906912e-06,-3.9955922888456844e-07,7.762185849529916e-07,6.990864616750835e-07,2.820921254552667e-07,-1.967028395922628e-06,-4.3644691439639696e-07,-1.035739776491749e-06,-5.943530867126978e-08
-3.660862124068756e-07,5.369109624541551e-07,6.220884944059556e-07,4.0953186503060127e-07,-1.4755068373587153e-07,1.6097640376590356e-06,2.3967031821494405e-06,1.8592081095069831e-06,-4.380452554497197e-07,2.2601659227509767e-06,-3.6209952296109245e-07,8.50235807119461e-07,7.870128827888439e-07,3.5549077540239266e-07,-1.678284556326133e-06,-1.9607157751597638e-07,-8.207935270852288e-07,1.4657753585855634e-08
-2.682448494219184e-07,5.800996759117877e-07,6.452066518222816e-07,4.645340991083391e-07,-1.0452623115809667e-07,1.6393983629669094e-06,2.4164921134656667e-06,1.853642995286435e-06,-4.3746150729033787e-07,2.2455903361836416e-06,-3.1474905557922103e-07,9.469765497328198e-07,8.719005023113227e-07,4.2773889752981335e-07,-1.4125459451334955e-06,2.6973584263803422e-08,-6.184781956272589e-07,7.586505852460178e-08
-1.8313055929445884e-07,6.157059818355118e-07,6.824251033935824e-07,5.065719539894217e-07,-8.322015569018177e-08,1.6718780547168593e-06,2.3700128589975575e-06,1.8336671704282552e-06,-4.62778274372221e-07,2.2293602000657563e-06,-2.596595237510161e-07,1.0603376760704002e-06,9.5270815717327e-07,4.904107411661388e-07,-1.1411374579575284e-06,2.2787880529332863e-07,-4.3713710663883415e-07,1.28775112003912e-07
-1.1322393246231694e-07,6.434076098516401e-07,6.972443219396325e-07,5.376813555877267e-07,-7.269181206481439e-08,1.7042437892382346e-06,2.3395272689253204e-06,1.7958393840912167e-06,-4.797735749645415e-07,2.2225822988398527e-06,-1.9946729094847347e-07,1.182118314922178e-06,1.0305702288133506e-06,5.446758918496192e-07,-8.73938458652018e-07,4.086524382823743e-07,-2.75863697411396e-07,1.7621339089048815e-07
-5.5306989984378857e-08,6.647518389222127e-07,7.029506739164691e-07,5.604066619351033e-07,-6.384189520449822e-08,1.7344429163480561e-06,2.329630018153657e-06,1.737696085487976e-06,-5.164901538676876e-07,2.2284055472215313e-06,-1.3693853723309552e-07,1.3021940256622352e-06,1.1047189468028031e-06,6.123672357591805e-07,-5.999240865548229e-07,5.734241122811555e-07,-1.3259202095497427e-07,2.1679549157061945e-07
-6.316848169061259e-09,6.778558383903746e-07,7.252763846074821e-07,5.78498023886627e-07,-5.537919460410003e-08,1.7600351377214488e-06,2.2789997560129237e-06,1.6754551013901819e-06,-5.381501234801119e-07,2.244637955016984e-06,-7.626676902452651e-08,1.4087400878893668e-06,1.1719139951475915e-06,6.689434576942368e-07,-4.2366158862955413e-07,7.213391849978834e-07,-1.53070956125626e-08,2.4370526159036525e-07
3.3292020739086325e-08,6.830176218367875e-07,7.172634025452511e-07,5.888374269382851e-07,-5.5162704722211354e-08,1.7776058172968386e-06,2.2651111736816035e-06,1.6258210936236775e-06,-5.629014681191013e-07,2.2682409165060572e-06,-2.276188771875726e-08,1.4898842829658512e-06,1.2273682059460834e-06,7.102333960540675e-07,-3.1523567205015947e-07,8.441069827410198e-07,6.818783166987529e-08,2.460604143013459e-07
6.816858197996897e-08,6.793047936574357e-07,6.992037037799659e-07,5.88977015435637e-07,-6.67104032773985e-08,1.7831808040708064e-06,2.248905110600851e-06,1.5902888349742833e-06,-5.652989828519974e-07,2.285025371125941e-06,1.5302496810675897e-08,1.534932677566713e-06,1.2637651234092589e-06,7.331657872828703e-07,-2.496365094744368e-07,9.269921804044389e-07,1.0993209019115484e-07,2.1209873305249805e-07
9.142153632958725e-08,6.661955562364363e-07,6.778979933657455e-07,5.752250871120005e-07,-9.624296313984834e-08,1.7732322072507705e-06,2.2178787099420617e-06,1.5372664151392784e-06,-5.678783108953006e-07,2.2812223610255965e-06,3.211448994810565e-08,1.5359948603406493e-06,1.272709178153738e-06,7.144462465923917e-07,-2.2241223226877233e-07,9.545630676262264e-07,9.88232585836805e-08,1.3352318410329218e-07
1.0131961981007943e-07,6.474514004076349e-07,6.425029059605936e-07,5.451813207298983e-07,-1.4660649111977823e-07,1.7463725134651764e-06,2.1458972493342127e-06,1.471879710636339e-06,-6.035271566674325e-07,2.247937182659253e-06,2.395568551288282e-08,1.4906608928872653e-06,1.2491098413152958e-06,7.299132962185722e-07,-1.9601341604326715e-07,9.188704189622596e-07,2.984487477329119e-08,1.0512729857459452e-08
9.078078578731675e-08,6.210503083275501e-07,5.994414811703007e-07,4.834093828398205e-07,-2.165288749961138e-07,1.7065482484245958e-06,2.0211046129575735e-06,1.3923700621822277e-06,-6.40752700048144e-07,2.1794598370521136e-06,-9.555551793995128e-09,1.403194177101843e-06,1.1924404371766956e-06,7.745452315224795e-07,-1.7732392459587322e-07,8.260876356401421e-07,-9.248418203786321e-08,-1.4815028735892163e-07
3.200128581025529e-08,5.848493525150588e-07,5.462778558113508e-07,4.0309429223037295e-07,-2.996775683543158e-07,1.6549576643734596e-06,1.8715924802911591e-06,1.306816611227193e-06,-6.948283480570201e-07,2.1023195183652063e-06,-6.264986626003502e-08,1.2845830775960008e-06,1.1088683536828008e-06,8.221428546689564e-07,-1.4878733510075464e-07,6.973228167811086e-07,-2.5593037637095006e-07,-3.2652466953792827e-07
-5.808613700965149e-08,5.418900588764354e-07,4.910334423479952e-07,3.2302010571953675e-07,-3.8631024848932683e-07,1.5988034606997256e-06,1.7252682134478812e-06,1.2333520408823076e-06,-7.290009126200844e-07,2.020422937235319e-06,-1.2831149179341825e-07,1.1508149147220634e-06,1.0082678977716028e-06,8.067315201408753e-07,-9.643321366455487e-08,5.627382578859214e-07,-4.4306776259292745e-07,-5.045785015852738e-07
-1.7196642823969816e-07,4.983131512702978e-07,4.399123861325556e-07,2.476960218715563e-07,-4.694135701581059e-07,1.548144214441347e-06,1.6169733222673062e-06,1.175863418167636e-06,-7.547329413773634e-07,1.9421621818763858e-06,-1.961551714961491e-07,1.0189500221298903e-06,9.038567866092947e-07,7.564597545228678e-07,-3.427547797130699e-08,4.5328326548447445e-07,-6.312843934737273e-07,-6.634992044431166e-07
-3.0324261479182357e-07,4.640906071107739e-07,3.995069431746572e-07,1.8415826547931067e-07,-5.138917289725021e-07,1.5109796885478482e-06,1.53485436515911e-06,1.1357876849649677e-06,-7.594745665867657e-07,1.8927770850478316e-06,-2.5481336946768165e-07,9.037601427074147e-07,8.072269094294662e-07,6.944791218835279e-07,2.730358678781351e-08,3.908181498705816e-07,-8.03204997441535e-07,-7.902672823540544e-07
-4.344828081425925e-07,4.4200232773881087e-07,3.7568638369782386e-07,1.3371895335241565e-07,-5.32954780087345e-07,1.4910792252967583e-06,1.4792251024579127e-06,1.1115090711199575e-06,-7.28277826317023e-07,1.8442067467220136e-06,-2.9643807521688943e-07,8.119228639156117e-07,7.257012998671823e-07,6.257053921263592e-07,7.043982514777648e-08,3.836366183719903e-07,-9.474923210279923e-07,-8.811186409691683e-07
-5.567130313293285e-07,4.3331989577254107e-07,3.6166805367117923e-07,1.1082984146605277e-07,-5.303518380600458e-07,1.4893488619668472e-06,1.4165536517596158e-06,1.0927031192215835e-06,-7.039188168379738e-07,1.8066377950274898e-06,-3.15826294207122e-07,7.448996708734477e-07,6.610341689052554e-07,5.811372475253459e-07,7.249906600787925e-08,4.260303413527563e-07,-1.0587417605628386e-06,-9.422105533514678e-07
-6.580662715651469e-07,4.2885013835931445e-07,3.5224941058078913e-07,1.1635360942042075e-07,-5.070022964088622e-07,1.5063633683227634e-06,1.392444980906217e-06,1.068624172878569e-06,-6.859370197859019e-07,1.8273048965224946e-06,-3.1971725308601063e-07,6.947744586308888e-07,6.128182574648571e-07,5.565104654512286e-07,3.1565182657539134e-08,4.999669589776163e-07,-1.135306631684423e-06,-9.86261820999071e-07
-7.250428512338777e-07,4.25396792317722e-07,3.3683330625153597e-07,1.4330854207764138e-07,-4.948639663373956e-07,1.5411824074735825e-06,1.4114427847012473e-06,1.0337212549066537e-06,-6.805845587545785e-07,1.8853241935854115e-06,-3.175004211735906e-07,6.574542299886682e-07,5.804354101516094e-07,5.265204022906478e-07,-3.093114922292214e-08,5.857703287592756e-07,-1.1777979859907678e-06,-1.025916541235466e-06
-7.393036046680078e-07,4.213311308497147e-07,3.0671756700843406e-07,1.9829225295841188e-07,-4.973823709603615e-07,1.6036411931748147e-06,1.4659886811642077e-06,9.901190959136605e-07,-6.983381095984439e-07,1.948292374928661e-06,-3.201007252603771e-07,6.336880560500771e-07,5.652363810248026e-07,4.950885505254654e-07,-9.281595719531643e-08,6.688111805657483e-07,-1.1900033984122985e-06,-1.0675627405749174e-06
-6.94962723085713e-07,4.0899503994115273e-07,2.701045149466251e-07,2.6846688559111263e-07,-5.180729252558212e-07,1.7016681321844454e-06,1.5784582357459055e-06,9.50157699676643e-07,-7.33912214865476e-07,2.0376541676227325e-06,-3.36158726594981e-07,6.283086942863655e-07,5.731365374232429e-07,4.803095365872138e-07,-1.273857068947699e-07,7.393911876470163e-07,-1.142301369459356e-06,-1.1095745650271096e-06
-5.859489853802818e-07,3.8727012023027153e-07,2.2791336923845584e-07,2.8420465789967437e-07,-5.513054919613794e-07,1.8359658060268468e-06,1.6477178175310842e-06,9.286552299143693e-07,-7.684717908561512e-07,2.138623346023916e-06,-3.6724119772781645e-07,6.512402049060021e-07,6.110089334068651e-07,4.845194513476572e-07,-6.866008766808965e-08,7.977077028227053e-07,-1.041397423688393e-06,-1.1441516989227773e-06
-4.311297021091992e-07,3.5456287185047704e-07,2.1211555419297334e-07,2.911895810218137e-07,-6.006272015129291e-07,2.009529861645178e-06,1.6763359695184393e-06,9.503982022190504e-07,-8.087875465990401e-07,2.1054866429000873e-06,-4.101181481822458e-07,7.103088953032685e-07,6.876437224654836e-07,5.109097322774964e-07,7.402300652418896e-08,8.489671589916779e-07,-9.076707117601222e-07,-1.161890390074002e-06
-2.572331753368952e-07,3.1055390659893283e-07,2.502465188132606e-07,2.662679624966336e-07,-6.665495279476234e-07,2.2158291799808774e-06,1.664066604895672e-06,1.026855256068988e-06,-8.661624176817672e-07,2.0625388822482187e-06,-4.601983109637812e-07,8.088478762532094e-07,8.012765485499513e-07,5.571504555626189e-07,2.7094983197757454e-07,8.973369852460187e-07,-7.5161237249795e-07,-1.1571127615034132e-06
-8.343937194930548e-08,2.5939081050288285e-07,2.9573319486619903e-07,2.8267268885726334e-07,-7.12346065508574e-07,2.438429018641888e-06,1.7975793283389336e-06,1.1244043897938763e-06,-9.452526768605474e-07,2.1201331291570294e-06,-5.117690258732939e-07,9.427086112204008e-07,9.254533401441804e-07,6.123079367820907e-07,4.537609851084838e-07,9.448728577001309e-07,-6.014772739570349e-07,-1.129226949025101e-06
5.841598341540947e-08,2.1034033372538192e-07,3.351285472417616e-07,3.6599240578591994e-07,-7.341871563395975e-07,2.656347073160906e-06,2.019533154726283e-06,1.2300949764124308e-06,-1.0532174110865495e-06,2.2391338637297926e-06,-5.557462283989271e-07,1.101398462008297e-06,1.044867746384957e-06,6.662846869609155e-07,5.909746280067672e-07,9.89782581044687e-07,-4.775423206965865e-07,-1.0844513021498458e-06
1.0803454607627563e-07,1.6747627384022883e-07,3.2862483792593704e-07,4.550156744498205e-07,-7.366611989049959e-07,2.852911046942981e-06,2.1279098577907544e-06,1.3253906576269627e-06,-1.1540293781073595e-06,2.270378133272773e-06,-5.850064108926485e-07,1.2670882767095897e-06,1.14068055173198e-06,7.158218507011904e-07,6.637096287141151e-07,1.0284636164011117e-06,-3.8256391296508156e-07,-1.0346309318517324e-06
1.2205598691397316e-07,1.3478445754055272e-07,3.2844937192193877e-07,5.06933882863761e-07,-7.155510386391045e-07,3.017223387861349e-06,2.1832478727903907e-06,1.3880963487263672e-06,-1.186923358892061e-06,2.314387483613546e-06,-5.946380640332968e-07,1.4190086052878685e-06,1.2033837131978829e-06,7.507566610258331e-07,6.341103908034033e-07,1.059540897993914e-06,-3.573289069799309e-07,-9.939075437319759e-07
1.6792297097202964e-07,1.1710019096985718e-07,3.5403027728204847e-07,5.387048136818355e-07,-7.03322336606975e-07,3.144210385278181e-06,2.224344407916581e-06,1.4105575387588056e-06,-1.134105547737652e-06,2.3240757616045045e-06,-5.843693493742637e-07,1.5389547928617484e-06,1.2259376348525208e-06,7.618063099867376e-07,5.727022686060688e-07,1.0863186247230569e-06,-3.6854558529074393e-07,-9.744708539049541e-07
1.6754824110096062e-08,1.0809010916838907e-07,3.745326130858164e-07,5.282060306162729e-07,-6.801201580082103e-07,3.190264841439353e-06,2.273693684802722e-06,1.3912595223619698e-06,-1.0583158448557476e-06,2.2318233513694365e-06,-5.559459601902664e-07,1.6144548161701416e-06,1.2032194714644745e-06,7.539107321743737e-07,4.615611868686238e-07,1.11368525913255e-06,-4.2614784191949047e-07,-9.823515071676927e-07
-1.6519588933809253e-07,1.0796497064193387e-07,3.718232032027932e-07,4.931347024552286e-07,-6.767947374189044e-07,3.1695905473148936e-06,2.3373344491000087e-06,1.3307699922117909e-06,-1.0126875653140338e-06,2.2433098898765452e-06,-5.135040693037014e-07,1.6414990815399414e-06,1.1394005191220533e-06,7.27709663400893e-07,3.332234885339214e-07,1.1463231395562437e-06,-5.066907718806545e-07,-1.0162959230611946e-06
-2.782182674827224e-07,1.1253834003438026e-07,3.505783597562895e-07,5.151052049812006e-07,-6.787059489277025e-07,3.1019031245492414e-06,2.362664925904672e-06,1.2254339922290748e-06,-9.672364167994075e-07,2.267355648981907e-06,-4.640545195373495e-07,1.6245568059599517e-06,1.0405450228910478e-06,6.870658921941927e-07,2.024821867233684e-07,1.1870828707286238e-06,-6.001043667209118e-07,-1.0683207051937105e-06
-3.347081906198868e-07,1.202005270167381e-07,3.24296117314114e-07,5.367788244865884e-07,-6.787185365591728e-07,3.010711318146672e-06,2.3458961506027525e-06,1.1270156769117989e-06,-9.228546631973557e-07,2.233004576848918e-06,-4.161930060163508e-07,1.5737958818853742e-06,9.191092596495084e-07,6.313260313362128e-07,9.17422218157883e-08,1.2357992699982532e-06,-6.817581177870458e-07,-1.1261163394995957e-06
-3.346177496193261e-07,1.312633768802064e-07,3.060460705612129e-07,5.439493075164176e-07,-6.915164907463744e-07,2.9351498685214607e-06,2.3470692474397103e-06,1.0631116682769573e-06,-8.451113500041123e-07,2.1998465350267692e-06,-3.71436841608803e-07,1.5021854623894503e-06,7.808660103018443e-07,5.751699902295946e-07,8.988835369594024e-09,1.2918831107545952e-06,-7.399656191035949e-07,-1.1761263473475925e-06
-3.067314533498316e-07,1.3700002316205291e-07,3.1696028442599936e-07,5.181791753143641e-07,-6.675223254174041e-07,2.925727886623566e-06,2.4007223599304005e-06,1.1043854749428154e-06,-7.153158609599322e-07,2.1250158478732e-06,-3.3132092086656085e-07,1.4233872824482857e-06,6.319598684606661e-07,5.206804207052521e-07,-7.012175085681098e-08,1.3521178465183724e-06,-7.395660698140731e-07,-1.2070124131328023e-06
-3.4815289613636566e-07,1.3848325326586114e-07,3.130451086951962e-07,4.5828885237268256e-07,-5.539918367695231e-07,2.9060360787005725e-06,2.5392455122055212e-06,1.2120862076625496e-06,-6.591503985927648e-07,2.0280735830193184e-06,-2.900621659583684e-07,1.349226191138012e-06,4.794564906417492e-07,4.675163548995528e-07,-1.2435958663774505e-07,1.410101233281096e-06,-6.660248839278626e-07,-1.2123450873985392e-06
-3.9078733880926444e-07,1.3992673945067504e-07,3.166698065114828e-07,4.0500186950236724e-07,-4.4249262339175583e-07,2.876292712828264e-06,2.66089227734295e-06,1.293853348106408e-06,-6.304674202455633e-07,2.0017312867426777e-06,-2.407352428938462e-07,1.289949291860355e-06,3.702257520869808e-07,4.2161042995984646e-07,-1.5200377144425248e-07,1.457879377536068e-06,-5.825147709716942e-07,-1.186901488369638e-06
-4.6942135237125704e-07,1.391203063221342e-07,3.396324262442545e-07,4.1341962469901655e-07,-4.107780357626278e-07,2.846077916417951e-06,2.836514349827504e-06,1.312691600200124e-06,-6.238961309466049e-07,2.059952974312324e-06,-1.9947727329969722e-07,1.2549926989511528e-06,3.240696091435248e-07,3.8277884070252803e-07,-1.8637309917879676e-07,1.4877031395067813e-06,-4.865533476548344e-07,-1.1351730542156296e-06
-5.691941779411108e-07,1.3820803563082682e-07,3.6141699050354473e-07,4.498743599667067e-07,-4.028672742923751e-07,2.7150530397556403e-06,2.966247961094309e-06,1.3169970392731146e-06,-6.573284756077763e-07,2.0197134461829106e-06,-1.6966671990554457e-07,1.2439669828880956e-06,3.7240836587577477e-07,3.8045539938675577e-07,-2.0021133391601376e-07,1.4959235828084327e-06,-3.8628193437444125e-07,-1.064225809298431e-06
-4.930979774543003e-07,1.4955241791705874e-07,3.6409135604506355e-07,4.520691887573015e-07,-3.4414075186287546e-07,2.660968395526825e-06,3.0428509392650427e-06,1.372201529824806e-06,-6.705483646487963e-07,1.990617062084671e-06,-1.5155858320135973e-07,1.2516999443382044e-06,4.477719524997541e-07,4.2719177444183073e-07,-1.8970114639152614e-07,1.4805128459422663e-06,-3.018510714135933e-07,-9.830149550217608e-07
-4.438190056521965e-07,1.7119646482666052e-07,3.5829047700497415e-07,4.35347352216153e-07,-4.186373785788935e-07,2.671956169262694e-06,3.1003661529221775e-06,1.329633762685628e-06,-6.713989257971784e-07,1.9734128176969567e-06,-1.5212782021725618e-07,1.2713948624382273e-06,4.5222442480641715e-07,4.864624890775169e-07,-1.247364342115112e-07,1.4598745812947994e-06,-1.8685446342129688e-07,-8.933860359441448e-07
-4.401779190968382e-07,1.8791637275500803e-07,3.645739236052009e-07,4.0140745194856293e-07,-4.0706574681276827e-07,2.70415948634789e-06,3.163292528183838e-06,1.308198244414033e-06,-6.536904303686667e-07,1.935829924050808e-06,-1.760774623615039e-07,1.2924659319247813e-06,4.0075298486365635e-07,5.745049811466666e-07,6.688673302571358e-09,1.4564995464400247e-06,-5.021222370621855e-08,-7.940503583401515e-07
-4.32269237682386e-07,2.0405267721462433e-07,3.6043170475057696e-07,3.6839224090219846e-07,-3.626741527150831e-07,2.685779620433723e-06,3.245543107058228e-06,1.3275077392705245e-06,-6.15686405115269e-07,1.9154900575791113e-06,-2.0811000627618446e-07,1.3146964950042265e-06,4.594849668499441e-07,6.895116380820632e-07,2.013869787033701e-07,1.4577246740470889e-06,8.623891682359305e-08,-6.802154479639384e-07
-4.617708875283634e-07,1.937183026049235e-07,3.491728431022797e-07,3.4971194285053895e-07,-3.272573148990616e-07,2.574879674989394e-06,3.2737735124808898e-06,1.316916143879358e-06,-5.866183873716986e-07,1.9710112043494297e-06,-2.5190836535664903e-07,1.335843562630067e-06,5.529924102412418e-07,7.396876856456734e-07,3.955285926042026e-07,1.5387163138383066e-06,2.4660582445161076e-07,-5.597379324651943e-07
-5.019456495478392e-07,1.821966869665758e-07,3.460808086779666e-07,3.538909192617605e-07,-2.920413169544296e-07,2.603348119929541e-06,3.246352021434717e-06,1.3339721937456915e-06,-5.644722873759636e-07,1.9190599864699604e-06,-3.152099586819179e-07,1.3484841288302798e-06,5.67612546241414e-07,7.484347071358555e-07,5.69771816792353e-07,1.7389402435036004e-06,3.5322839398313673e-07,-4.849836290791535e-07
-5.357296888045141e-07,1.778174345605917e-07,3.424479000646954e-07,3.426298018408457e-07,-2.166374128725561e-07,2.6803981760079057e-06,3.249626729313873e-06,1.3712047223574272e-06,-5.012322635102249e-07,1.8091678552796805e-06,-3.484066336268093e-07,1.3668780318689967e-06,4.861819636049287e-07,7.361848905322626e-07,7.107068404305859e-07,1.9672266080823036e-06,4.234093426915268e-07,-4.6792539012122067e-07
-5.279781437495648e-07,1.8008174211128502e-07,3.411889291502609e-07,3.5922231148086725e-07,-1.3725239425046398e-07,2.666747880882762e-06,3.2805434668208343e-06,1.4172368813985769e-06,-5.067195314529959e-07,1.697206102018644e-06,-4.3139064892159797e-07,1.386450967573963e-06,4.374570386665667e-07,7.292805458347269e-07,7.886326468332145e-07,2.1960648518301784e-06,4.765501081044324e-07,-5.583290454089269e-07
-5.92413209686836e-07,1.9287742955502253e-07,3.4296542388744005e-07,3.769859793044808e-07,-7.490310097736393e-08,2.692385775991882e-06,3.293480714349213e-06,1.4872907692288543e-06,-4.921868445216832e-07,1.6528703875979211e-06,-5.961901817441343e-07,1.4907606017075172e-06,3.985620332864222e-07,7.136664672443398e-07,7.440488157219945e-07,2.4592212943378756e-06,5.35261002806154e-07,-7.649641858854856e-07
-5.94656249213229e-07,1.9288251114271073e-07,3.457546178959348e-07,3.612261347802314e-07,-3.984721149941642e-08,2.747378344564911e-06,3.353989940657482e-06,1.5586022520770875e-06,-4.707318360466697e-07,1.5803898078843267e-06,-7.072815228355386e-07,1.6498276843458731e-06,3.5408006318841207e-07,7.28045978900632e-07,5.743561033968983e-07,2.606081418413368e-06,5.672753593387826e-07,-8.739675474383821e-07
-6.17059798904431e-07,2.0203480053706125e-07,3.5140666544434546e-07,3.574511540591595e-07,-1.1768668827008074e-08,2.7763578730868964e-06,3.355322981560713e-06,1.6188346167488625e-06,-4.921391344533872e-07,1.5497562107742374e-06,-7.925736114024907e-07,1.9581520668774e-06,3.855957029565977e-07,7.430482432521907e-07,3.389000412001762e-07,2.6184645592363166e-06,5.131046303159508e-07,-8.973929706422589e-07
-6.433071303755107e-07,2.0546792159890473e-07,3.6682517873130166e-07,3.4452009877019166e-07,2.9067675160595983e-08,2.8595722564349945e-06,3.33786452069157e-06,1.6730589201334451e-06,-4.706444826261962e-07,1.5168412558691505e-06,-8.770812418360157e-07,2.1927032236316754e-06,3.6544545603926147e-07,7.341164521504624e-07,1.787479268300841e-07,2.6311797336698027e-06,4.664117125480485e-07,-9.913496607885662e-07
-6.571837973493112e-07,2.0482448317822342e-07,3.7575585901549756e-07,3.1777997851581125e-07,8.138821552656285e-08,2.9594510436552284e-06,3.3267069476672415e-06,1.713174617465011e-06,-4.540988639525377e-07,1.4840864877523555e-06,-9.303709749038967e-07,2.359766085949436e-06,2.925895973803254e-07,7.316686999805644e-07,1.3218891366869365e-07,2.6340020851347553e-06,5.726962460706222e-07,-1.1900249120730142e-06
-6.772398373117308e-07,2.1795839739509008e-07,3.7972566637802654e-07,3.3368918284447635e-07,1.4888628514302445e-07,3.0652936790393834e-06,3.2830622376766845e-06,1.7336980673635536e-06,-4.5712642464314604e-07,1.4521113148079265e-06,-9.85614683946336e-07,2.387516033031577e-06,2.3556294213220136e-07,7.352156095173717e-07,-1.7160281697419655e-08,2.4901777532401143e-06,5.299587850135564e-07,-1.4016732968108784e-06
-7.021787884992058e-07,2.314095975106298e-07,3.887890698410947e-07,3.5061274292627704e-07,2.1946961262609156e-07,3.1439690968651578e-06,3.2496561394372374e-06,1.7573846566195992e-06,-4.099229207665915e-07,1.4979983917931283e-06,-1.0380728311450329e-06,2.294283275047371e-06,2.6793560838082284e-07,7.212635635967995e-07,-1.5398049774796525e-07,2.3104037756513605e-06,5.058246642151957e-07,-1.446915694957234e-06
-7.274129732942665e-07,2.3834835195792413e-07,3.882676360133365e-07,3.475988768297482e-07,2.848507730677073e-07,3.1574874599217592e-06,3.2017878128439284e-06,1.7775832538423707e-06,-3.5710817705490854e-07,1.4781885738331912e-06,-1.1059079420708692e-06,2.2385885898136794e-06,2.972818278582551e-07,7.045845270950488e-07,-2.525901177467823e-07,2.1721836022370957e-06,5.181635384875753e-07,-1.5012216709759621e-06
-7.568455378009665e-07,2.4478121956390946e-07,3.880456963416161e-07,3.0427267828366915e-07,3.2977235703555833e-07,3.1487884318237386e-06,3.200213103934168e-06,1.7550185494216682e-06,-3.1552176601618114e-07,1.4251633637515076e-06,-1.1733261663725021e-06,2.198491368247704e-06,2.769123636706162e-07,7.008492178978694e-07,-4.416287897415539e-07,2.0841134860354522e-06,5.311294818766867e-07,-1.5565225561744675e-06
-7.837533766633616e-07,2.401361670156363e-07,3.9203549147811443e-07,2.838608321490083e-07,4.1256567665574853e-07,3.1501448446181458e-06,3.195594586924606e-06,1.7562693637248158e-06,-2.85583762094262e-07,1.4142540500457628e-06,-1.2287080222410009e-06,2.133664126651658e-06,3.359000422720573e-07,6.789344739967716e-07,-5.561350257966912e-07,1.9747641076724112e-06,5.386226068189395e-07,-1.5800154315430206e-06
-8.087626637249569e-07,2.3052308461802408e-07,3.930770465353416e-07,2.672656154958015e-07,4.933871103592654e-07,3.144815227268447e-06,3.218996296423974e-06,1.804692261237343e-06,-3.1316244982307427e-07,1.3647016556071935e-06,-1.2624578689315493e-06,2.055035805398153e-06,3.2139847213751863e-07,6.691630661759642e-07,-6.160446016687998e-07,1.8373883503285199e-06,5.537997844673118e-07,-1.6145306585465215e-06
-8.482782762024871e-07,2.2336730739594634e-07,3.993919405382345e-07,2.5092697984281434e-07,5.629842929102761e-07,3.1718016301611426e-06,3.2629716727843547e-06,1.8168690775804876e-06,-3.271747655915828e-07,1.3509338180890788e-06,-1.2557622874564777e-06,1.8039518326225783e-06,2.2911064000890566e-07,6.786012460812279e-07,-7.31670662118e-07,1.6873710580157004e-06,5.617272571939106e-07,-1.5545548121014041e-06
-9.13920925046659e-07,2.163946144836907e-07,4.0575767219725764e-07,2.603609146370188e-07,6.637565081792822e-07,3.185741012548654e-06,3.238011614357764e-06,1.8227823914783541e-06,-3.131847666017027e-07,1.3370846594479259e-06,-1.2330523664898645e-06,1.6095380209629569e-06,8.154911381595991e-08,6.399246002102908e-07,-9.067331992123433e-07,1.5383659952163364e-06,4.951171909546619e-07,-1.381291804967219e-06
-9.714575085059702e-07,2.134775133580583e-07,4.103511865818776e-07,2.5054250652551735e-07,7.357512489476262e-07,3.188701985809183e-06,3.222366181345502e-06,1.835479598300578e-06,-3.171900439747835e-07,1.2639476448118778e-06,-1.2208732751195426e-06,1.436623425521055e-06,-4.233562816152025e-08,6.043087780139448e-07,-1.1248154393889245e-06,1.4301376804485873e-06,4.827245337408891e-07,-1.2075176693458553e-06
-1.0173493464870938e-06,2.0311109914561178e-07,4.145284688523359e-07,2.397870691918874e-07,7.639254883587923e-07,3.1961821825622244e-06,3.214252635031546e-06,1.8402404092425603e-06,-2.7345872081406926e-07,1.234608718102201e-06,-1.2091381779311576e-06,1.276866737087543e-06,-1.8484018234100433e-07,5.898118318235918e-07,-1.292231948961422e-06,1.3798335610432254e-06,5.037536173769332e-07,-1.0489995060333762e-06
-1.0497080680610026e-06,2.0268587182831752e-07,4.1891279351130043e-07,2.5309349144384787e-07,8.018936372271896e-07,3.19414914056529e-06,3.2007784336007064e-06,1.8630122377858547e-06,-2.3564140879093137e-07,1.1739146561634237e-06,-1.1618063690205522e-06,1.2018481288975218e-06,-2.0392724039768768e-07,5.83352944649437e-07,-1.3852165531077376e-06,1.3833464299023636e-06,4.881972662673324e-07,-8.653971709860655e-07
-1.0646077181510565e-06,2.053397905532258e-07,4.2272686680596407e-07,2.7767349919508954e-07,8.396983008515542e-07,3.2056859943351166e-06,3.217273910639665e-06,1.8743012376273784e-06,-2.2524402819854958e-07,1.199981222685166e-06,-1.068891310640865e-06,1.2752941603422056e-06,-1.3678199339652557e-07,5.789065188715183e-07,-1.2677796262834672e-06,1.4251685140086097e-06,4.5429339087354417e-07,-7.219345671893086e-07
-1.1177065576676304e-06,2.192684554155732e-07,4.2533497690979974e-07,2.7379836805920944e-07,8.403935496781943e-07,3.219933167739773e-06,3.2397635070287506e-06,1.881488667208616e-06,-2.2455599416713307e-07,1.2045165907463882e-06,-1.0145003876909066e-06,1.3723288999050055e-06,-7.495730771921531e-08,5.94394290681785e-07,-1.1176519265260375e-06,1.486291867180789e-06,4.1247235990699305e-07,-5.861029099090336e-07
-1.1356552312103497e-06,2.3266274447892081e-07,4.2718156475172226e-07,2.545247888908418e-07,8.504072366603807e-07,3.233619861714903e-06,3.2467004146266737e-06,1.8804772952026674e-06,-2.1048689159988954e-07,1.1602383013602703e-06,-1.0019308567972833e-06,1.4378152466845475e-06,-1.9806020181085723e-08,6.003853765917193e-07,-1.1552374974231604e-06,1.5577103576881585e-06,3.769715085700249e-07,-4.416617625322968e-07
-1.1913753744828206e-06,2.460834607369828e-07,4.240807159122207e-07,2.411602836000282e-07,8.513111005334201e-07,3.2207471591458337e-06,3.2629202588435298e-06,1.8876965142203967e-06,-1.977453280367574e-07,1.0739603257562246e-06,-9.638117159615827e-07,1.4782294670349926e-06,1.6998870196180914e-08,5.961784328209495e-07,-1.1945517014566518e-06,1.6368799019988414e-06,4.026173885112712e-07,-3.0729434971151344e-07
-1.3099115116822345e-06,2.7464649945098093e-07,4.2340247968219455e-07,2.2710373553036376e-07,8.331270511342612e-07,3.1793158492928942e-06,3.292871224239248e-06,1.9025995726301969e-06,-2.052183672600109e-07,9.767069198417624e-07,-9.388775617592533e-07,1.5292737447683999e-06,7.504528752189128e-09,5.622148723977546e-07,-1.1762944554649431e-06,1.7248243432741203e-06,4.1271847143291263e-07,-1.7839943458357406e-07
-1.2523765714882307e-06,3.0438050138198104e-07,4.2141202770095963e-07,1.9130554415434975e-07,8.250002885746244e-07,3.1443532693304844e-06,3.308359660935526e-06,1.925268090816918e-06,-1.6559804031744612e-07,9.507616151144607e-07,-9.158781771240731e-07,1.6066178517462287e-06,-4.09920211585927e-08,5.554220805115133e-07,-1.190796007922254e-06,1.8265590531729002e-06,4.066328562910987e-07,-6.219648612774472e-08
-1.1627905763000763e-06,3.313310582638383e-07,4.23785805484819e-07,2.1194228782371303e-07,8.071383907198937e-07,3.124055373244177e-06,3.323296569962822e-06,1.9657901019256104e-06,-1.1825601055906838e-07,9.660689794004829e-07,-8.506434656097216e-07,1.7139841433356038e-06,-6.395276636068306e-08,5.899313118543895e-07,-1.2383534640322305e-06,1.940653918608189e-06,3.487864287776079e-07,4.4080506224791894e-08
-1.1152803155844445e-06,3.555517798023471e-07,4.1478627715563565e-07,2.0967197569727754e-07,7.955019791564382e-07,3.1002773132528096e-06,3.344545584063432e-06,1.982327679248607e-06,-1.3401092036706397e-07,1.0548716770915074e-06,-7.851209849937388e-07,1.8447958838314197e-06,-5.773828857257815e-08,6.166929351033332e-07,-1.1709660372449793e-06,2.061063423667983e-06,2.2769534630190924e-07,1.530809980750638e-07
-1.2303527166638126e-06,3.709490604129634e-07,4.185391488752519e-07,2.136242776883884e-07,8.161058816376633e-07,3.0985772684317776e-06,3.38309658335351e-06,1.9544003298549113e-06,-1.6150562494244724e-07,1.1156389154506806e-06,-7.052716490968591e-07,1.984954627702415e-06,-2.8327571943722466e-08,6.525081870389797e-07,-1.1155581717374501e-06,2.1776785449319696e-06,2.3517550633018162e-07,2.7289412253715116e-07
-1.2860610706637175e-06,3.824187219067043e-07,4.0027997869918113e-07,2.415334309486347e-07,8.400514260228905e-07,3.131564508624493e-06,3.3995815142050575e-06,1.9647413901101126e-06,-1.5544931466160857e-07,1.1502064055744224e-06,-5.989448084429611e-07,2.1182187176783433e-06,2.873655005040223e-08,6.824955903706924e-07,-1.0007058043258535e-06,2.27738699436373e-06,2.2146256189220564e-07,4.04523168631198e-07
-1.3049888895811483e-06,4.1176810082382835e-07,4.135052919819353e-07,2.27648969338681e-07,8.517722920727885e-07,3.150474649567308e-06,3.392978569426389e-06,2.0007376933120016e-06,-1.4572124703514203e-07,1.2089758160973596e-06,-4.96414530737345e-07,2.2321052365895194e-06,6.732879937984424e-08,7.071883924324574e-07,-9.665944171267578e-07,2.347222232748168e-06,1.9718198471805897e-07,5.376368264105538e-07
-1.3182741815858755e-06,4.3823651932890375e-07,4.2358057948068656e-07,1.9385851075258879e-07,8.735416409736418e-07,3.1380821965168933e-06,3.3677407060252628e-06,2.092563888034923e-06,-1.1774017832925534e-07,1.2029841723265786e-06,-3.986691516977601e-07,2.3119103943250693e-06,1.0668218584820115e-07,7.41533049641941e-07,-9.229891227140841e-07,2.3743466814241718e-06,1.1136900609242688e-07,6.648027427141038e-07
-1.3646981487416876e-06,4.570741080984011e-07,4.078312219330134e-07,2.050762906954379e-07,8.438868027711596e-07,3.1472698697274325e-06,3.341131608844101e-06,2.1287636286808138e-06,-9.965918119257101e-08,1.1734101250434357e-06,-3.176325219965996e-07,2.3525266913891852e-06,1.4360069534512974e-07,7.380482028995271e-07,-8.482608944749207e-07,2.3534220121595632e-06,-6.5205612864571245e-09,7.788681735002641e-07
-1.4000722982288247e-06,4.649246671841072e-07,3.893043840640787e-07,2.493969488017115e-07,8.570503509686831e-07,3.1560112099999667e-06,3.3210091380454543e-06,2.108203790046753e-06,-9.952016229674044e-08,1.152167609059709e-06,-2.5997939356359185e-07,2.352235009286977e-06,8.894227269178921e-08,7.351405611764761e-07,-9.17876568910647e-07,2.281944313427731e-06,-2.4354842293502188e-08,8.692357314810277e-07
-1.4908677480316304e-06,4.7167762001387805e-07,3.88891865276991e-07,2.924954858230911e-07,8.860611751616609e-07,3.150205979636153e-06,3.2929378883592822e-06,2.096162005619762e-06,-8.524547348314767e-08,1.1164075895367088e-06,-2.2302340322736112e-07,2.3114286913263643e-06,7.839323055832046e-09,7.494750707096047e-07,-1.0178478254452043e-06,2.1608692907778262e-06,-6.438401207339664e-08,9.24563006188424e-07
-1.4965690077986819e-06,4.902067338166435e-07,3.9466742790314296e-07,3.441688239804222e-07,8.997232515951609e-07,3.1465917529969614e-06,3.2570524058008304e-06,2.0670838537448315e-06,-6.474410222950985e-08,1.082757239469502e-06,-2.067539883227369e-07,2.2192390147641327e-06,-6.074645888142299e-08,7.6881556920114e-07,-1.056376564489318e-06,2.0147524098263215e-06,-1.0491963258313385e-07,9.37778035315394e-07
-1.377921452792724e-06,5.092527313711039e-07,3.9952176266269275e-07,3.426150484850164e-07,8.847844769012887e-07,3.1132862056678865e-06,3.2137094807186608e-06,2.0374396084711005e-06,-4.38771569686841e-08,1.07737751552874e-06,-2.1482066613131144e-07,2.0714147464187546e-06,-3.048776348370382e-08,8.092165080078886e-07,-1.1498597952747776e-06,1.8472547773851487e-06,-7.473087546243182e-08,9.067671015359418e-07
-1.2835307836221989e-06,5.282401159817928e-07,4.0230093416897275e-07,3.2929824570351804e-07,8.625282137813034e-07,3.0823460874491563e-06,3.1752848421521413e-06,2.044284936059331e-06,-2.944441246540091e-08,1.0594498939274028e-06,-2.5455379193136106e-07,1.8687700616507652e-06,1.5370866283786824e-08,8.307683792916898e-07,-1.2475839856301478e-06,1.6672735457671357e-06,-2.2245011905061238e-07,8.362131134544708e-07
-1.2087557524197552e-06,5.293461601044289e-07,4.044054816731257e-07,3.261833769069176e-07,8.781354339575143e-07,3.0592984540091024e-06,3.1540132225197196e-06,2.050915567008555e-06,-1.98093022208943e-08,1.0602284595229844e-06,-3.1791261801782283e-07,1.6104627631503962e-06,2.1373761803926193e-08,8.494990091861666e-07,-1.3977548776264955e-06,1.4895920334449313e-06,-4.423748353017094e-07,7.317489453086125e-07
-1.1621609366651898e-06,5.311465944429724e-07,4.0862908095140157e-07,2.705867134384615e-07,8.69259484146853e-07,3.055253680306529e-06,3.1545373334900906e-06,2.0532751096217134e-06,-1.7196959953666648e-08,1.1062288259219949e-06,-3.9786074003807786e-07,1.3690560222649888e-06,5.3891304063313946e-08,8.514830529153771e-07,-1.5609322333028351e-06,1.3389321027952494e-06,-5.747973634328961e-07,6.01206924078896e-07
-1.278142774728e-06,5.187382674385105e-07,4.117042700495652e-07,2.230732719351351e-07,8.684680791961085e-07,3.0600368322254515e-06,3.140339062196953e-06,2.0457524576138738e-06,-7.423030302957463e-09,1.1308576408872798e-06,-4.852565713915585e-07,1.1918135286164703e-06,5.7336167917171486e-08,8.511553914515828e-07,-1.8279594840338213e-06,1.3486039007053384e-06,-6.021996754045147e-07,4.52422161271611e-07
-1.3641257304418994e-06,4.87691610489142e-07,4.141628335727641e-07,1.7953144206477442e-07,7.991193949815996e-07,3.074767905555978e-06,3.1039276068591443e-06,2.0388094799467965e-06,3.5684545164144168e-09,1.156979717825158e-06,-5.714458869610595e-07,1.163094992933647e-06,4.152670749001284e-08,8.232289040279029e-07,-2.0288170533814205e-06,1.4674134125906762e-06,-6.329031841907764e-07,2.9766386097546867e-07
-1.4064449024484502e-06,4.683556611672518e-07,4.1913077980308876e-07,1.0379153977737763e-07,8.13222275674938e-07,3.061892543628529e-06,3.08831228937423e-06,1.9927418067676226e-06,1.62526442090848e-08,1.1464662340707506e-06,-6.42534932510157e-07,1.168737708437268e-06,-4.9144354698652515e-08,7.845000219807954e-07,-2.0278906398185795e-06,1.5266247386882084e-06,-5.787757326272124e-07,1.5321900718451214e-07
-1.5600765137204711e-06,4.5993728376570176e-07,4.188331238764292e-07,6.305129906212399e-08,8.026364740339145e-07,3.0418572559690477e-06,3.065611023047298e-06,2.0336469964199624e-06,2.9509427892956973e-08,1.0831386164195233e-06,-6.909922571107997e-07,1.1886501293933837e-06,-1.1354762657187273e-07,7.593923557443153e-07,-2.12076301901092e-06,1.7187069594708642e-06,-4.944748454717474e-07,2.983550760185774e-08
-1.623907787900791e-06,4.456397012333395e-07,4.0659567768324604e-07,2.8736827774420408e-08,7.865635138532158e-07,3.0149706305029795e-06,3.036032800234826e-06,2.0736708929962255e-06,4.050916658474888e-08,1.0084941481055976e-06,-7.158398282300338e-07,1.186393799984109e-06,-1.8435048865303144e-07,7.29561687266615e-07,-2.2535413092943723e-06,1.9900496728055908e-06,-4.4438420990947164e-07,-5.5476985866172914e-08
-1.6768503713202465e-06,4.305556116298449e-07,4.0441423649456673e-07,-4.313417600178877e-09,8.029076657594738e-07,3.0508788707251293e-06,3.021881547540733e-06,2.0842822038078657e-06,5.717078619915634e-08,1.0050256069344536e-06,-7.105175305643001e-07,1.2330712960562391e-06,-2.583565022800973e-07,6.950006934652281e-07,-2.310112643131951e-06,2.081698103418576e-06,-2.518519579292652e-07,-9.618622081750455e-08
-1.7134696329824173e-06,4.3916232710762824e-07,4.0971378710933735e-07,1.143894878242736e-08,7.673802803600359e-07,3.0778225775501115e-06,3.006123745024452e-06,2.112625141859353e-06,7.140926130596172e-08,1.0177007116048478e-06,-6.764592849902801e-07,1.3813514056767656e-06,-2.964664877235628e-07,6.72214783353505e-07,-2.3855136638359626e-06,2.050199237174563e-06,-2.1462967850728957e-07,-8.183704740905617e-08
-1.6606890809367768e-06,4.546995628766557e-07,4.112606416949028e-07,3.4928797319443414e-08,7.40493613434281e-07,3.064310655168265e-06,3.0082166825302032e-06,2.1182964040202244e-06,8.698483116277803e-08,9.953071708862472e-07,-6.199660874577854e-07,1.5231682636733095e-06,-2.870518677295273e-07,6.579317924582414e-07,-2.4001777223473e-06,1.937219994748909e-06,-2.958474942540399e-07,-1.9135992784583608e-08
-1.553401756174814e-06,4.647152224650947e-07,4.144801160019429e-07,9.886588029361158e-08,7.718011120972895e-07,3.0717295916692967e-06,3.045339381519442e-06,2.173420016366957e-06,9.793969192996433e-08,9.803410539675495e-07,-5.499821957928434e-07,1.5890965524010235e-06,-2.1577928337270967e-07,6.185490828835893e-07,-2.385054554599175e-06,1.9380044199380453e-06,-3.087259092584439e-07,8.386463984343147e-08
-1.4379024446060466e-06,4.6375238078771e-07,4.186884020456418e-07,1.4879164928772896e-07,7.40673362729921e-07,3.1864113180379524e-06,3.0760221519113993e-06,2.2282218619019216e-06,1.1349689956969377e-07,9.38500110205606e-07,-4.903154799850971e-07,1.6510850900190206e-06,-1.490557348069734e-07,6.065857698535153e-07,-2.408104362009253e-06,1.9037319416642104e-06,-3.17749286368132e-07,1.9737157282607038e-07
-1.3968861284705342e-06,4.6297597298727384e-07,4.234326872662587e-07,1.6378235501840184e-07,7.148898194319444e-07,3.2711228459498654e-06,3.0458707595873397e-06,2.1928923370348777e-06,1.2075858171645098e-07,8.722346949866595e-07,-4.5543598253997905e-07,1.6890363362841875e-06,-1.2121820677698626e-07,6.365532449479474e-07,-2.5624823785855114e-06,1.7293008447381013e-06,-3.6888288166460034e-07,2.859727943038077e-07
-1.2963521847199435e-06,4.566305303300781e-07,4.4029632003568373e-07,2.1146910594717687e-07,6.491356417823036e-07,3.3339184680678055e-06,3.0145117859281046e-06,2.148192839484558e-06,1.3426249543028594e-07,8.854489437721931e-07,-4.4369280617361114e-07,1.601164648678278e-06,-1.2894012574660588e-07,6.44694969991065e-07,-2.642965424310506e-06,1.5730153947338263e-06,-3.477847814842618e-07,3.357662626518226e-07
-1.2620562342427963e-06,4.507717766641398e-07,4.27416640240726e-07,2.3035134085602064e-07,5.912534312637771e-07,3.38935753787005e-06,3.0353680739159385e-06,2.134278333952032e-06,1.5654302510276226e-07,9.40607890221538e-07,-4.5224033394918017e-07,1.478474724906362e-06,-1.671506629553489e-07,6.48697993662808e-07,-2.567166228799293e-06,1.4632896041703386e-06,-4.1541886200161195e-07,2.9933182787327824e-07
-1.2444382153227e-06,4.4193740609278416e-07,4.2698162276285575e-07,2.650291472469594e-07,5.457099977816616e-07,3.3911010990668897e-06,3.034394068279583e-06,2.1401285998354533e-06,1.5247114085174088e-07,9.779489800947718e-07,-4.4455745423024397e-07,1.3906353495260607e-06,-1.8854688181572893e-07,6.770413426915176e-07,-2.451535351143633e-06,1.409638789024531e-06,-4.105001614628372e-07,1.5881653678223537e-07
-1.2096837734936484e-06,4.2942715085564805e-07,4.405268980871403e-07,2.8129992723242956e-07,5.439957738748458e-07,3.407628390542229e-06,3.01845460038022e-06,2.1580204438373065e-06,1.4996477799666234e-07,9.771366825920032e-07,-4.347574498760871e-07,1.374936606536249e-06,-1.544261478094712e-07,6.741729144474501e-07,-2.3839172563809993e-06,1.5359138635115327e-06,-3.3155100345361924e-07,1.1437653650170114e-07
-1.2324915351121444e-06,4.3934268343333095e-07,4.356306139465242e-07,2.8427543743162874e-07,5.687382543684227e-07,3.4056909777445717e-06,3.0203045421193837e-06,2.178539429484786e-06,1.5489493001439262e-07,8.941845482450461e-07,-4.3191667696651666e-07,1.3862230913903193e-06,-1.3707792561651176e-07,6.771369300509592e-07,-2.39004774389669e-06,1.7834450041269117e-06,-2.449642217837115e-07,1.4097287699828198e-07
-1.2777942179109587e-06,4.445698437026617e-07,4.309041060237556e-07,3.160243006851062e-07,5.753356897783441e-07,3.3658191833626854e-06,3.020615524288782e-06,2.180813338183516e-06,1.5145507049669987e-07,8.135064358458325e-07,-4.203493566620416e-07,1.423996098774404e-06,-1.18188017745727e-07,7.078679659520758e-07,-2.42752399183905e-06,1.961467291431081e-06,-1.9883695980481622e-07,2.0260937558362348e-07
-1.349750858738843e-06,4.5128168137806523e-07,4.2164839524429216e-07,3.2914258727024126e-07,5.764275799824166e-07,3.375293995822937e-06,3.0470161229332893e-06,2.180022031399766e-06,1.561372367591141e-07,7.186387146028777e-07,-4.142374214879826e-07,1.5050053375332964e-06,-9.899897830297884e-08,7.452686874061796e-07,-2.1358724837476065e-06,2.142960655223718e-06,-1.3712787921108217e-07,1.7685136456849243e-07
-1.4188894407812927e-06,4.551172897752078e-07,4.137757795998178e-07,3.437820296688278e-07,5.791606867904719e-07,3.3734065017755535e-06,3.0596059543621486e-06,2.1844952858557868e-06,1.6364481642764658e-07,7.012384399149681e-07,-4.618225705820226e-07,1.5738327424256926e-06,-8.284020088032971e-08,7.925148875630475e-07,-1.995202967441086e-06,2.291827573004064e-06,-3.9446692519412015e-08,2.4760436125194604e-07
-1.4885345724372054e-06,4.5072679711211766e-07,4.0549554053027756e-07,3.297700434910515e-07,5.691791263127645e-07,3.3744767051965215e-06,3.060641054474513e-06,2.1873261098147245e-06,1.7423228480907618e-07,8.00851656662344e-07,-4.683426014265098e-07,1.644866797015114e-06,-7.075854066516405e-08,8.111346525745637e-07,-1.9442696192357345e-06,2.3775628746661615e-06,5.5785026756955633e-08,2.6495088734120895e-07
-1.4933499558836942e-06,4.455412328524892e-07,4.0145506970797783e-07,3.120560232817105e-07,5.603767294885977e-07,3.3973644416483384e-06,3.067536463906453e-06,2.2153382295888762e-06,1.8802991051254307e-07,8.763294129476181e-07,-4.5234789825703463e-07,1.70542079698211e-06,-8.941438873231699e-08,8.176121965442914e-07,-1.856436286839993e-06,2.4552490488899824e-06,1.1856131196023606e-07,2.56724105359883e-07
-1.4524019067092389e-06,4.4577492868642664e-07,4.156595905548146e-07,3.048800216167871e-07,5.505004875216509e-07,3.39346838802728e-06,3.0548543720976056e-06,2.2516206474101713e-06,2.0328821986615034e-07,8.99910285393483e-07,-4.830717229908468e-07,1.7107574246753247e-06,-4.1664427471847627e-08,8.213174864141286e-07,-1.803431440521223e-06,2.505044896482615e-06,1.926059045931858e-07,3.2111952423121615e-07
-1.5217730333119534e-06,4.4336756849802917e-07,4.1697729279864713e-07,2.9961349034441744e-07,5.365866088583619e-07,3.393208179827651e-06,3.039017672136654e-06,2.275503160802476e-06,2.2111177830652345e-07,8.954579024716605e-07,-4.919862804527564e-07,1.6982637608897452e-06,-3.15755818755863e-08,8.254527429274217e-07,-1.7563690487633154e-06,2.6307012975004076e-06,1.9591883708507132e-07,4.2253930726603775e-07
-1.5512703984360442e-06,4.466009611202667e-07,4.3400734814479623e-07,3.0678667047816e-07,5.207207204617371e-07,3.4309251535357917e-06,3.022150446103795e-06,2.2994272819869405e-06,2.3930310198514676e-07,8.944369331762486e-07,-4.583140061952753e-07,1.673747532012541e-06,-1.8467063206134116e-08,8.413242397688507e-07,-1.737770879689797e-06,2.7942152894050085e-06,1.8172146839248573e-07,5.528099671756288e-07
-1.5111126893769667e-06,4.5857953297282064e-07,4.4687841315749614e-07,3.0108583129374607e-07,4.935400528608944e-07,3.4602258901541765e-06,3.0116143597692416e-06,2.3248132606969167e-06,2.5440962055972944e-07,8.755323653150945e-07,-4.2094659359447133e-07,1.6085637647992112e-06,-4.5282204847236176e-08,8.516145882245455e-07,-1.7966997116264452e-06,2.7741925390614745e-06,2.2095376396596666e-07,5.533925476218042e-07
-1.4582247143256288e-06,4.700934464961522e-07,4.388731658180496e-07,2.975618429539158e-07,4.736089673175101e-07,3.4975259532501377e-06,3.005256929801248e-06,2.3480489549881513e-06,2.7226949887064825e-07,8.368747652243949e-07,-4.168321743961178e-07,1.4911944865289025e-06,-7.366674889720388e-08,8.503411719113875e-07,-1.756953420994929e-06,2.7078917249088003e-06,2.512711236068011e-07,5.108950181757515e-07
-1.4324044867753947e-06,4.805363455290342e-07,4.387926854551448e-07,2.9191440881897607e-07,4.47586888063073e-07,3.5283326732439387e-06,3.0066348151696344e-06,2.3729153138521936e-06,2.91350784756653e-07,8.110075934027903e-07,-4.198607665889113e-07,1.4196645633129315e-06,-6.644254136374746e-08,8.527338753472991e-07,-1.6987991674121683e-06,2.6749395613420305e-06,2.3913656497826396e-07,5.233637389639863e-07
-1.402473981771665e-06,4.894776126665856e-07,4.308964937015909e-07,3.072881205476404e-07,4.2470198094448136e-07,3.5493317347394676e-06,3.004316002302969e-06,2.3994156728959317e-06,3.110252231109218e-07,8.118844640711339e-07,-4.0765307713168235e-07,1.3009552501912063e-06,-4.6996250883678014e-08,8.498953638859892e-07,-1.6476498759360583e-06,2.6135992826930927e-06,2.590336408749975e-07,5.07784176920746e-07
-1.338527974081026e-06,4.957627886074217e-07,4.231308664493596e-07,3.1654849900602904e-07,4.217776636695567e-07,3.5660630098820463e-06,3.0043694685907947e-06,2.4165121155470445e-06,3.2728698839199017e-07,8.185237789234512e-07,-3.848446330752587e-07,1.1531475405552937e-06,-2.2958878189419485e-08,8.398361499521108e-07,-1.5206721084773735e-06,2.6539188623047e-06,2.996784948894205e-07,4.6260375425407546e-07
-1.3847572275038252e-06,5.084379966430961e-07,4.267645343653956e-07,3.136017303998734e-07,4.1212273984304157e-07,3.6016582887319636e-06,3.0026639813890437e-06,2.3953584013526505e-06,3.2131962661451514e-07,7.808380619376512e-07,-3.167455628177675e-07,1.0480096297979707e-06,1.4167579942094217e-08,8.341148065673812e-07,-1.2749294943938122e-06,2.7324858538003114e-06,3.2450299616422967e-07,3.7672722313320006e-07
-1.3814100537821476e-06,5.212346757055832e-07,4.2643760768710085e-07,3.150131702430755e-07,3.9471480097541833e-07,3.6497683218505307e-06,2.9871635074431683e-06,2.3837097501180837e-06,3.220040166785219e-07,7.835994340708103e-07,-2.488901403997681e-07,9.935449828412534e-07,-3.52638581638693e-08,8.294371487442608e-07,-9.925802683352942e-07,2.6373709177670826e-06,2.830104711507403e-07,2.8063715318215316e-07
-1.363877443510932e-06,5.339979249685819e-07,4.317524776668562e-07,2.981350273582356e-07,3.7168194868051154e-07,3.6872241400725576e-06,2.949601818228649e-06,2.435978944298079e-06,3.449125668040414e-07,7.76124693713521e-07,-2.0001450338541268e-07,9.47426184557731e-07,-5.854304092263425e-08,8.259891441213807e-07,-6.995252305960064e-07,2.562310228165664e-06,1.5889855869090432e-07,1.4968113079589754e-07
-1.2469547972740036e-06,5.514767627065278e-07,4.391890674841908e-07,2.728479912809197e-07,3.4448479839511515e-07,3.7112565435564112e-06,2.9169182698919774e-06,2.4733920172467806e-06,3.607057499275211e-07,7.798685018141722e-07,-1.5442689655451526e-07,8.866886478339122e-07,-9.020855864327051e-08,8.450914804595506e-07,-4.5555926291995503e-07,2.4716974053386423e-06,1.1297357656751815e-07,5.6167296736568036e-08
-1.2046263740308642e-06,5.642727871878894e-07,4.4593702797490924e-07,2.629218263491416e-07,3.220712146142242e-07,3.7327718598294928e-06,2.8928508774136793e-06,2.4629346191409963e-06,3.6098428017544324e-07,8.051374704660968e-07,-8.997736050918641e-08,7.839845794858819e-07,-1.144250293133328e-07,8.599544580026802e-07,-1.7848159109495906e-07,2.4814189053711562e-06,2.577752331858529e-08,-9.684804311369762e-09
-1.1438221885913935e-06,5.76954061921473e-07,4.496934739487894e-07,2.381237070389446e-07,3.000382380332992e-07,3.7595842251054215e-06,2.8663544597662322e-06,2.460731157547896e-06,3.5689831140362056e-07,8.441268050172598e-07,-5.725380025256456e-08,6.972792759972044e-07,-1.5450745816451097e-07,8.716558159316986e-07,2.0518755099044633e-08,2.51238968583568e-06,-8.220071048101242e-08,-8.559010209685532e-08
-1.0821794956205783e-06,5.929410755928806e-07,4.5057592155772644e-07,2.123567279445325e-07,2.7965483793183287e-07,3.786846015170107e-06,2.843967139337948e-06,2.4743080499888975e-06,3.4931095186577546e-07,8.538708875257521e-07,-4.773384626842484e-08,6.282717788177865e-07,-2.3244571420322746e-07,9.039598193879625e-07,-2.2074270810329544e-08,2.4050776186330233e-06,-1.3013842422192697e-07,-5.298064472829052e-08
-1.0851917631132249e-06,6.104921116825317e-07,4.521187108924253e-07,2.0130884921033213e-07,2.468255401697127e-07,3.8100531712752033e-06,2.819613497928227e-06,2.4863382705788644e-06,3.462470318566921e-07,8.532049137103827e-07,-3.759532319390497e-08,5.671450650978509e-07,-3.0508577742480716e-07,9.027785418407623e-07,-1.5981737086543966e-07,2.3962606676281177e-06,-1.8734560605937536e-07,-8.99245031286314e-08
-1.0626132782403154e-06,6.242711732238872e-07,4.3700409426583233e-07,1.8484415285259317e-07,2.060636916132746e-07,3.817209424905175e-06,2.799316755560909e-06,2.4966104844932327e-06,3.5327014839096965e-07,8.314018710111623e-07,-8.056065703917414e-08,4.823403415824181e-07,-3.520162720210219e-07,9.160345583432042e-07,-3.0444116243068557e-07,2.4136565428354294e-06,-2.3518420573101842e-07,-1.3286404165896742e-07
-9.914160549227094e-07,6.432683511472543e-07,4.393635068015829e-07,1.725547699368168e-07,1.902267821527157e-07,3.7926567260977265e-06,2.7871836741004895e-06,2.51294981840605e-06,3.5003523813580984e-07,8.19135501630464e-07,-1.2146766201805033e-07,4.403002923344256e-07,-3.55492053258164e-07,9.38206459789188e-07,-4.677848149811733e-07,2.369251947849778e-06,-2.3447207966439674e-07,-1.8304990833472203e-07
-9.839784229639177e-07,6.570253828957358e-07,4.4620911876025876e-07,1.7562462948120478e-07,1.8433351370336827e-07,3.7868423772823552e-06,2.776506682569516e-06,2.4967818795109624e-06,3.5469418693994203e-07,8.183263213102544e-07,-1.947641136870298e-07,3.9457936151188127e-07,-2.737018972373489e-07,9.715106358552687e-07,-6.118648378278046e-07,2.3135253106314377e-06,-1.386315615592173e-07,-2.2633126227794493e-07
-1.0962653013409155e-06,6.691722081024597e-07,4.236827507874581e-07,1.860116414829092e-07,1.843688678047757e-07,3.793983974121235e-06,2.7438223274764477e-06,2.485677225197044e-06,3.7690960627800305e-07,7.849822133325998e-07,-2.5247623209761444e-07,3.971384378207154e-07,-2.584693782562074e-07,1.011916266242272e-06,-8.382932539918639e-07,2.2153151149701104e-06,-3.4866700606908504e-08,-1.8729132122554164e-07
-1.1338237199003848e-06,6.82255533412223e-07,4.066080851937837e-07,1.859720685352144e-07,1.9886934627404607e-07,3.819611833893926e-06,2.716968136567069e-06,2.4985459817008725e-06,4.287907855520596e-07,7.640249847375409e-07,-3.1055398128101766e-07,4.770433464250582e-07,-3.233823671028545e-07,1.072162637692101e-06,-9.9362083370772e-07,2.0427296902784306e-06,8.779707783343041e-08,-1.972972611764418e-07
-1.1520418083300243e-06,6.891841824843185e-07,4.01771090542201e-07,2.042553980958128e-07,2.134596761619598e-07,3.911092378019705e-06,2.72185226488014e-06,2.486431382353815e-06,5.038597884612353e-07,7.389504933153306e-07,-3.1267475617416014e-07,5.002835398688095e-07,-2.7486002098351106e-07,1.09251506636925e-06,-1.0893470241668835e-06,1.839334216023456e-06,1.4387198819121937e-07,-3.1325033480290107e-07
-1.1699365290215867e-06,6.86106536714938e-07,3.863388891056244e-07,2.1932824116583652e-07,2.448788271092898e-07,3.950252818261186e-06,2.7304954682785964e-06,2.469130720378145e-06,5.470465008539379e-07,7.083606835382074e-07,-2.8919661282057827e-07,4.667830218067176e-07,-2.460588796939818e-07,1.07383656911362e-06,-1.221295652161259e-06,1.6774693594574134e-06,2.101429344147363e-07,-4.859704015025753e-07
-1.1299944801661437e-06,6.9561260062235e-07,3.717750215505169e-07,2.586640195890488e-07,2.733821103834188e-07,3.926457000193485e-06,2.7168578258754636e-06,2.4965246472256147e-06,4.925435734990541e-07,7.462449937690163e-07,-1.9531681286290704e-07,4.773161978735303e-07,-2.506487544790124e-07,1.0536536255769345e-06,-1.3207600402880708e-06,1.567563409482083e-06,3.057540217055265e-07,-6.381202490103845e-07
-1.15352766928004e-06,7.250060454755617e-07,3.780183453693528e-07,2.6743818353896367e-07,2.476166329850109e-07,3.7732271082026097e-06,2.5995083286441855e-06,2.506448573598197e-06,4.5476723346100426e-07,7.765254143388178e-07,-1.3198037588182245e-07,4.036247135814566e-07,-2.2241713334521471e-07,1.055183380870563e-06,-1.4822408513550834e-06,1.4906831065777412e-06,2.843011503781362e-07,-7.261253759212209e-07
-1.1479814229228606e-06,7.579334276109957e-07,4.304775421057526e-07,1.9223207941860426e-07,2.724009397355772e-07,3.6620697060644686e-06,2.5146517883044138e-06,2.4928400845355665e-06,4.773513939751619e-07,7.395031687147435e-07,-1.5572940387362717e-07,3.8027251564596736e-07,-2.1730377024292718e-07,1.0496996064693803e-06,-1.6475501735059373e-06,1.461272019065862e-06,3.644972840759111e-07,-7.618232518473822e-07
-1.0833988753441276e-06,7.850318689060604e-07,4.5823262020386227e-07,7.251779725014732e-08,2.6352770062899655e-07,3.670316704190539e-06,2.419443062330324e-06,2.4637806391189562e-06,5.27766125020268e-07,7.15774097212647e-07,-1.5316700295449368e-07,3.858334324997913e-07,-1.692158986968687e-07,1.0480370677855583e-06,-1.7405296556821142e-06,1.4625653736146963e-06,4.079450470971565e-07,-7.445014074314193e-07
-1.0813710288426234e-06,8.13500709471254e-07,4.7545445897743813e-07,-3.4899866137781124e-08,2.6614364390557945e-07,3.714496535075378e-06,2.368994239775035e-06,2.4463037539907233e-06,5.294827413143063e-07,6.861776624862838e-07,-1.6011214907669432e-07,3.773557708622817e-07,-1.386012027157304e-07,1.0603658130510092e-06,-1.7965530773119036e-06,1.2974702041946911e-06,4.012539044107428e-07,-7.493235083152499e-07
-9.88321191732508e-07,8.409352764830003e-07,4.763993740850575e-07,-6.179800032603196e-08,2.9193489802038017e-07,3.7426207624559435e-06,2.3326925400695013e-06,2.388869472465169e-06,5.031296372885458e-07,6.459225722065612e-07,-1.5239332428053714e-07,3.7614782793095935e-07,-1.0457689540688018e-07,1.080110182794485e-06,-1.9166513208004337e-06,1.1613200263553411e-06,3.7551944602733515e-07,-8.635016830646355e-07
-8.330278106701687e-07,8.639751297004347e-07,4.370119584581901e-07,-9.452706010493287e-08,2.8855203815440993e-07,3.7470107974763548e-06,2.2522056706542858e-06,2.3177042525344765e-06,5.450509637343461e-07,6.46564294926439e-07,-1.2746010494916636e-07,3.4835643721668667e-07,-8.43990409422494e-08,1.0821522690677702e-06,-2.0510006668040596e-06,1.0265792763992137e-06,3.5379526063411186e-07,-1.0651822878723086e-06
-7.38550884944457e-07,8.84543867482458e-07,4.129657659033721e-07,-1.2602976273542003e-07,2.97735312311387e-07,3.851418768504703e-06,2.16813291037011e-06,2.3138101182931787e-06,5.898278381909344e-07,6.465300803068805e-07,-1.2657344304392085e-07,3.063219288850525e-07,-7.094925127564323e-08,1.0856045645630345e-06,-2.15939394078093e-06,8.708303711523981e-07,3.0995357140253957e-07,-1.2328674890594969e-06
-6.477585709974671e-07,9.008375509562201e-07,3.886164574581213e-07,-9.583723416476582e-08,3.071035693519096e-07,4.014861193265266e-06,2.0833139227601756e-06,2.3569867113048135e-06,6.128077763043922e-07,6.401708869939206e-07,-1.2711056852471632e-07,2.696333195729193e-07,-6.325475345816348e-08,1.0905969938433248e-06,-2.176724107246031e-06,7.881315250951839e-07,3.2014454111790504e-07,-1.370103617778863e-06
-6.617814227862757e-07,9.113892809365197e-07,3.359297240597791e-07,-6.74986478514683e-08,2.8066710370274905e-07,4.066694195682084e-06,2.0359247662213574e-06,2.3927362720209186e-06,6.239167647567759e-07,6.180131540171819e-07,-1.13098994440962e-07,2.2053323324147533e-07,-5.766002273235075e-08,1.0848140465916122e-06,-2.214296029240126e-06,7.487766666222901e-07,3.373483465068332e-07,-1.4643485151438353e-06
-6.450413592159513e-07,9.419305097979836e-07,3.070862371163814e-07,-1.0566138437285326e-07,2.3372963121442861e-07,4.028289769612562e-06,2.1055431568980284e-06,2.386259426935803e-06,6.31771234657625e-07,6.070898232244233e-07,-1.1706928120760107e-07,1.780763321736379e-07,-4.834465786830843e-08,1.0887989343634635e-06,-2.2332047016756185e-06,7.561416402065273e-07,2.7716675080241803e-07,-1.529257343686586e-06
-6.021305206835686e-07,9.86064636430733e-07,3.2346912505940896e-07,-1.5811278482221384e-07,1.6278599525582255e-07,4.0974302410292775e-06,2.151549169320007e-06,2.3371113787136596e-06,6.450538345868656e-07,6.290398386056891e-07,-1.4678889424987262e-07,1.4162082544131443e-07,-3.0182881076792104e-08,1.1035070184017712e-06,-2.3140267089702043e-06,7.569244587375699e-07,2.6234925197727236e-07,-1.5012594090637104e-06
-5.783824327195583e-07,1.0321835106452737e-06,2.874291398521801e-07,-1.9320302385897565e-07,8.365870576684154e-08,4.129276070103356e-06,2.160913656161064e-06,2.270521985332888e-06,6.639257256238868e-07,6.569699613512342e-07,-1.719291301422521e-07,1.0775145688171972e-07,-1.1318484428440095e-08,1.1166746818709089e-06,-2.3902887058297584e-06,7.176158523998682e-07,2.7122286109060644e-07,-1.4421543319520324e-06
-5.458540971633073e-07,1.0810789481854727e-06,2.932685698760322e-07,-2.2182195737712248e-07,4.9417845432665005e-09,4.160459526208905e-06,2.1605026029457197e-06,2.217580354924717e-06,7.159295288926443e-07,6.113726703925181e-07,-2.0252303453835546e-07,9.024117835046314e-08,-2.027615286669008e-08,1.1286442177099155e-06,-2.428937527193625e-06,6.973741918724477e-07,2.7555738600842973e-07,-1.3657293280280524e-06
-5.21571344273395e-07,1.1079434049867025e-06,3.3829982510151786e-07,-2.5640552187820287e-07,-6.387315161340606e-08,4.230586545615278e-06,2.0293405666871175e-06,2.245238308966934e-06,7.83110791595819e-07,5.815436737391305e-07,-2.253727017339803e-07,7.98011444300763e-08,-2.525140981859892e-08,1.1299729212578787e-06,-2.4094881035846104e-06,6.82611545928708e-07,3.045756092462593e-07,-1.3164319859276848e-06
-5.204777435362983e-07,1.1023088753718332e-06,3.8068548621643353e-07,-2.962055050444089e-07,-1.1512504612626485e-07,4.1638350967425295e-06,1.889920446991696e-06,2.308972893042688e-06,8.680057995510459e-07,5.4786681680536e-07,-2.1507434943268161e-07,6.858543413464051e-08,-2.537296167657653e-08,1.125838616317858e-06,-2.4817918062576033e-06,6.93726372768538e-07,3.9951637290880186e-07,-1.2916432063085388e-06
-5.663350895687409e-07,1.0846578856309417e-06,4.094045651880018e-07,-3.3789125860421775e-07,-1.2896506019953115e-07,4.094559542448701e-06,1.805862140890135e-06,2.3590907839299e-06,8.87196243926631e-07,6.082063745450599e-07,-2.163701201515585e-07,6.794499461045301e-08,-1.7401140260649868e-08,1.1538791207798503e-06,-2.553235881972762e-06,7.27043311057599e-07,4.767374082973877e-07,-1.3794362719613253e-06
-6.215920684705142e-07,1.0654708359211623e-06,4.190061418715772e-07,-3.4165656965758937e-07,-1.6679108970546876e-07,4.076172779167791e-06,1.7280354405734485e-06,2.3541926027309067e-06,8.538416398860736e-07,6.394144779894072e-07,-2.1821934721062715e-07,5.4083088659057804e-08,-1.66422437474511e-08,1.1810084226321687e-06,-2.5860117864580556e-06,8.640160306170709e-07,5.522782161393485e-07,-1.3681246348432834e-06
-6.690656756899449e-07,1.0612708075267842e-06,4.075452888006555e-07,-3.155385629647274e-07,-1.8236458228195037e-07,4.063394331720154e-06,1.6203320589034396e-06,2.39171743608077e-06,8.33502567396765e-07,6.5080478942903e-07,-2.1714666435863164e-07,4.15905159427112e-08,-1.4225578482574194e-08,1.183099972556089e-06,-2.6205337535541862e-06,1.012378909919491e-06,6.859745662682716e-07,-1.3190233185523346e-06
-6.898979532279825e-07,1.0719135723401989e-06,3.75580718458898e-07,-3.126014788980948e-07,-1.6839303853277356e-07,4.029479719652138e-06,1.5392948243890476e-06,2.377308555850631e-06,8.40451873000555e-07,6.960950382410624e-07,-1.8573184400432974e-07,3.030166504776753e-08,-1.3450396140598693e-08,1.1901396981735008e-06,-2.6367890102241766e-06,1.1428330985200976e-06,7.294310372368958e-07,-1.233927522937891e-06
-6.558087603113711e-07,1.0889331134899154e-06,3.3872941773480915e-07,-3.1460287403365163e-07,-1.3060086962765157e-07,3.988998686187415e-06,1.5288950023508488e-06,2.3288287676705285e-06,8.732502945367087e-07,6.841492886918441e-07,-1.606724448067703e-07,1.9555519527515492e-08,-1.2505468960008847e-08,1.2036065399985717e-06,-2.604483071287412e-06,1.272789298736734e-06,8.171404503735002e-07,-1.2114280483238678e-06
-5.78508704741762e-07,1.112537657093695e-06,3.036801710934009e-07,-3.079804951242202e-07,-8.826946112083628e-08,4.038894866640074e-06,1.5268993616036192e-06,2.2385711352537635e-06,8.828603780875656e-07,6.738234744040488e-07,-1.5351676633985533e-07,1.0778581424987858e-08,-5.560350280489194e-09,1.2154423808720474e-06,-2.5907142562924014e-06,1.413341663012163e-06,9.066705960121553e-07,-1.2800818317552303e-06
-4.5442253903548164e-07,1.1397737426048579e-06,2.7490353218666177e-07,-3.713211415075518e-07,-1.1294338908036221e-07,4.161982152948205e-06,1.5421849362240326e-06,2.143445461315592e-06,8.734453003256281e-07,6.890311837324101e-07,-1.366169397472379e-07,1.5575994286797373e-08,-4.004828696308755e-09,1.2220949905860205e-06,-2.559505177303399e-06,1.5381172645284711e-06,9.73300847968473e-07,-1.295144298118946e-06
-3.108065830241716e-07,1.1723487626111392e-06,2.552527781071102e-07,-4.0158828822965823e-07,-1.7343685921473872e-07,4.245404526049781e-06,1.545286257381921e-06,2.093278715086888e-06,8.10597023019145e-07,6.246430346268722e-07,-1.3189763435158702e-07,2.44580225292477e-08,-4.698539169431501e-09,1.226459171493231e-06,-2.501925590502522e-06,1.6840773765307436e-06,1.0063561307482802e-06,-1.2575514277093356e-06
-1.711178045465342e-07,1.2036872189706282e-06,2.418373906095815e-07,-3.9192911775134985e-07,-2.2949860310379753e-07,4.357749269020943e-06,1.5225423585634344e-06,1.973872162627926e-06,7.608232923164771e-07,5.503147404667838e-07,-1.5099187419799665e-07,3.0407672601600325e-08,-2.4005472586313613e-08,1.2273264544500588e-06,-2.5057881763539074e-06,1.7393259971204517e-06,1.0785787698499094e-06,-1.234862942452755e-06
-5.3497517268368746e-08,1.2303975598028765e-06,2.3693656859837554e-07,-3.8462280479812184e-07,-2.66371360689825e-07,4.498053759026638e-06,1.4745090967915038e-06,1.8682784918965602e-06,7.310609165203262e-07,6.000951674323791e-07,-1.4399329261264097e-07,4.384669283337272e-08,-3.483621090260543e-08,1.223071568093399e-06,-2.5058903884864517e-06,1.656987256798334e-06,1.153481254611647e-06,-1.1357617289009026e-06
