0,1,2,3,4,5,6,7,8,9,10,11,12,13,14,15,16,17
7.33932651040408e-07,2.2266297415988775e-06,1.3528669739553244e-07,2.096508410116339e-07,3.228705178684287e-07,5.275791465558817e-07,6.733358132554609e-07,4.973297572017346e-08,1.649926595945884e-07,3.644389341310792e-07,3.951876645667981e-07,2.995450419430115e-07,7.2300144539392e-07,4.046498607250052e-07,2.4526832732637153e-07,7.735093297836664e-07,5.482639755817532e-07,6.259052268282609e-07
2.2192216135020193e-07,1.2367565638358028e-06,1.8786642911320502e-07,2.4524324460777034e-07,3.8066724873279086e-07,4.5446735114238925e-07,6.896545014396289e-07,2.1616083363968992e-07,1.8035991584241595e-07,3.2752952770453686e-07,4.063834916486219e-07,3.4307215134320794e-07,6.014195002578842e-07,4.1393111163595113e-07,2.864439029507921e-07,7.83780810326293e-07,4.290151776596978e-07,5.666716064324537e-07
-3.052387505660808e-07,-7.427598189631489e-09,1.6671799478409615e-07,2.1419120296200667e-07,3.547785913553475e-07,3.830121496021109e-07,6.297291656084029e-07,2.3317425945815277e-07,1.9898860774275153e-07,2.859959168770619e-07,3.4561276429969577e-07,3.3938902828292107e-07,5.447956302305727e-07,3.929375779860733e-07,2.9491181535528194e-07,6.482180150483588e-07,2.442544190171042e-07,4.799519814664907e-07
-4.026599775624618e-07,-1.1254340690726941e-06,1.3867974789651783e-07,1.7204784726097613e-07,2.9209645968520634e-07,3.2389625302050476e-07,5.50185434399099e-07,3.5227185828373505e-07,1.9667610766459666e-07,2.5537749121121974e-07,2.6030068354003455e-07,3.364432862137393e-07,4.781657619471517e-07,3.389553334622419e-07,2.718120565498584e-07,4.501720569941541e-07,1.8416673940445e-07,3.7621487930185265e-07
-3.138939201660236e-07,-1.6535871552971237e-06,1.2585488236387514e-07,1.524885056993807e-07,2.599502296452691e-07,2.5806025513670497e-07,4.860481905167523e-07,4.0819001899376506e-07,2.0201842039363277e-07,2.130359664100427e-07,2.413917790571964e-07,3.0571889967630334e-07,3.696137840959239e-07,2.538818726129753e-07,2.2284633425751554e-07,3.5942135915840996e-07,2.0749852087365123e-07,2.662195407817297e-07
-2.553375597922529e-07,-1.332456546586869e-06,8.202530171107336e-08,1.4959140099871082e-07,2.783904508909728e-07,2.2001222838360302e-07,4.6856667695342884e-07,3.2715988795191986e-07,2.7276771982263973e-07,1.8198987293026983e-07,2.3176727839335068e-07,2.752796369289826e-07,2.3554354822606508e-07,1.4554936411613748e-07,1.5706789825722735e-07,3.5611838985306845e-07,1.7143871448535888e-07,1.5904940920665599e-07
-4.0997083029956776e-07,-1.2082365211473422e-06,7.645449127628564e-08,1.5234748883870784e-07,2.560194258942455e-07,1.9125751776725269e-07,4.929230876132791e-07,1.6349679961899848e-07,2.6341856121384764e-07,1.0463185668206795e-07,1.8240431017749804e-07,2.2496060880513373e-07,7.789261521694269e-08,2.736593054841489e-08,8.462988777741266e-08,1.9863159384422168e-07,5.862183968910882e-08,6.077293373819375e-08
-5.738410497845418e-07,-1.3945234677364198e-06,9.507082794554913e-08,1.3179040001328022e-07,1.6095097653272937e-07,1.302609189815612e-07,3.7773255203088867e-07,3.766146322693447e-08,2.1416955804012025e-07,-1.9954266385295627e-09,8.667518520553825e-08,9.716104690506226e-08,-7.318968388077133e-08,-8.616335975337586e-08,1.4377034171974728e-08,-3.72367802125797e-08,-7.30063433887784e-08,-2.6015059957626585e-08
-5.447842172200382e-07,-8.050807210032434e-07,8.090599813181017e-08,4.682400162040182e-08,1.2273145622235237e-08,-2.1160509153824537e-08,6.582139382655472e-08,-5.383159761798737e-08,1.1352978615097717e-07,-8.461183605290975e-08,-2.431233167063976e-08,-5.99428011071162e-08,-1.556604475314092e-07,-1.7852249278530674e-07,-4.840315345191213e-08,-1.9934182945011876e-07,-1.455143856680912e-07,-1.0184929791000733e-07
-2.0645064704638952e-07,1.67538156289268e-07,9.420912009454172e-09,-4.9117378583144885e-08,-1.2509101499650678e-07,-1.1667036208018085e-07,-1.9693745533189059e-07,-1.213274355460617e-07,2.1336305127589838e-08,-1.5224011221862855e-07,-1.4232956485054333e-07,-1.7323243571882034e-07,-2.4360646554614523e-07,-2.2672762917212474e-07,-1.0188202832384638e-07,-3.286799636779878e-07,-2.0230155821945988e-07,-1.6943054079765903e-07
8.872601029717066e-08,7.282094345578958e-07,-5.9138332929934414e-08,-1.319783011994567e-07,-2.4470852905420464e-07,-1.8848632233500062e-07,-3.3056266703467197e-07,-1.62454329147411e-07,-1.13834937424526e-07,-2.413513268600354e-07,-2.5341062353006123e-07,-2.8574278550013596e-07,-3.518362730270213e-07,-2.7570602945683305e-07,-1.4692896249343168e-07,-4.4124409175693984e-07,-1.8747459004701864e-07,-2.3221744791042908e-07
3.9291704785012735e-07,1.0317075275803856e-06,-1.256891962063221e-07,-2.151586912080186e-07,-3.2172321263767505e-07,-3.461945401974524e-07,-5.945698898535685e-07,-1.8994414824840928e-07,-2.0783809294188799e-07,-2.779642297423331e-07,-3.2773459828762315e-07,-3.279241262400858e-07,-3.953345270266057e-07,-2.7609656016706127e-07,-1.858442763807111e-07,-5.338515372120108e-07,-1.8192242678401046e-07,-2.926962928343667e-07
5.326967468888062e-07,1.1324532179116645e-06,-1.8841176209006974e-07,-2.5562522203875964e-07,-3.632277741892144e-07,-4.0994661370765017e-07,-8.06614555148632e-07,-2.2071286870676032e-07,-2.7997994405071584e-07,-2.684846700929459e-07,-3.670701963802538e-07,-3.433597334590817e-07,-4.3542529667540195e-07,-2.6546719002236763e-07,-2.210499596982486e-07,-6.000811531330872e-07,-1.9858508065229623e-07,-3.5150906821400077e-07
4.839098972429431e-07,7.949349346607501e-07,-2.1215319150463162e-07,-2.684966197759596e-07,-3.916939804688312e-07,-4.236752638651207e-07,-8.591092565938559e-07,-2.6887503955311364e-07,-3.4104815465196886e-07,-2.3700584516634186e-07,-3.666894289836584e-07,-3.4661568088751277e-07,-4.639522464103529e-07,-2.454139210727489e-07,-2.548956558126878e-07,-5.643759097516441e-07,-2.4811706163502437e-07,-4.0706855281012364e-07
3.4244036694572943e-07,3.231303479874149e-07,-2.391145689411544e-07,-2.7109603684229497e-07,-4.17399168781242e-07,-4.6029062881820016e-07,-8.190213899710877e-07,-3.4027170274500634e-07,-4.0343254729540193e-07,-2.264386743809021e-07,-3.471989357775126e-07,-3.4301159822934293e-07,-4.645193256017663e-07,-2.2233108836088327e-07,-2.8979422232213443e-07,-4.5995324725910607e-07,-3.0129842398149226e-07,-4.5657067386604113e-07
2.156320708219692e-07,-1.1461384538873589e-07,-2.7377623095528703e-07,-2.8270268336523436e-07,-4.5415336609955047e-07,-5.221215804325784e-07,-8.271816017097926e-07,-4.304309753286229e-07,-4.8212396522866e-07,-2.429074447936522e-07,-3.209774774084412e-07,-3.417405389562676e-07,-4.4690801966898623e-07,-2.0084278029609814e-07,-3.2855899816345877e-07,-4.0508704255470213e-07,-3.0503951633495407e-07,-4.974286434553839e-07
1.55252785827653e-07,-3.57139147873885e-07,-3.0703834641721615e-07,-2.9072008437255525e-07,-4.975929561583913e-07,-5.824896036848494e-07,-8.061584484372738e-07,-5.265412862304909e-07,-5.829733508764715e-07,-2.7244655831690694e-07,-2.8974078237593406e-07,-3.414092082409984e-07,-4.069006454151421e-07,-1.8377236546040604e-07,-3.714635872543048e-07,-3.505509425596175e-07,-2.5013323442740246e-07,-5.280755539448394e-07
6.64070088985655e-08,-2.966283652263882e-07,-3.271640334813341e-07,-2.9213705930467976e-07,-5.389233025190032e-07,-6.421352355576181e-07,-7.688174283975846e-07,-6.127571236123014e-07,-6.620287104198718e-07,-3.096783428848982e-07,-2.726258245760344e-07,-3.5721378277784355e-07,-3.8300676156039127e-07,-1.718772197561425e-07,-4.164412211138376e-07,-3.272966828057376e-07,-1.7921139607117868e-07,-5.484929867735479e-07
-1.78167488321682e-08,-8.243732833159692e-08,-3.3153746502327814e-07,-2.892642660724586e-07,-5.710543424991075e-07,-6.97705628716762e-07,-7.584854936531526e-07,-6.763258655586454e-07,-7.17922721503281e-07,-3.4567380642360646e-07,-2.6447007188041105e-07,-4.080499653139548e-07,-3.7192248401075083e-07,-1.610855191175048e-07,-4.57342566199722e-07,-3.3559235795159316e-07,-1.1837621465641402e-07,-5.601701675419075e-07
-1.0673204803951845e-07,8.281709467382079e-08,-3.267501843402479e-07,-2.7581455466538867e-07,-5.877766564522526e-07,-7.293587945439044e-07,-7.805748171133222e-07,-7.118419161427225e-07,-7.57104085866885e-07,-3.696217225515506e-07,-2.6791007391693754e-07,-4.845545467762047e-07,-3.6060448246830873e-07,-1.476428787635961e-07,-4.904568549285711e-07,-3.4611946594272157e-07,-7.049569823343356e-08,-5.657925559118176e-07
-2.2034243455029898e-07,-4.941178441973244e-09,-3.167336816736058e-07,-2.578130148754355e-07,-5.866156454346451e-07,-7.412092950296444e-07,-8.388128140145076e-07,-7.225297528292113e-07,-7.784727135278138e-07,-3.731605623928492e-07,-2.839296962568139e-07,-5.442059061300381e-07,-3.471414862500004e-07,-1.2831355584608813e-07,-5.145830191093427e-07,-3.5817857537326573e-07,-3.896151405428392e-08,-5.685165871264196e-07
-3.501359307673865e-07,-4.699856290988275e-07,-3.1002597417487364e-07,-2.3706950544167304e-07,-5.692428652223785e-07,-7.290056930362479e-07,-9.242718621297034e-07,-7.183589798426256e-07,-7.921515508070809e-07,-3.5278165846164835e-07,-3.025577585794822e-07,-5.813872253696358e-07,-3.154684705751353e-07,-9.659405499909554e-08,-5.299198212943713e-07,-3.4068315854111966e-07,-1.661721482907506e-08,-5.708934466117003e-07
-4.912632334118577e-07,-1.2513856127259774e-06,-3.0113528513134564e-07,-2.14928701730483e-07,-5.399864847030223e-07,-6.940357021392194e-07,-1.0108814103854428e-06,-7.118169638138309e-07,-7.999421560079204e-07,-3.102741176991803e-07,-3.187231143846639e-07,-6.063922841423142e-07,-2.64727944684451e-07,-4.862460242127889e-08,-5.395273537946492e-07,-2.777677097101304e-07,7.683626209685068e-09,-5.737643796252067e-07
-6.316576575651991e-07,-2.1725847640306244e-06,-2.908184398096123e-07,-1.9026103662136882e-07,-5.035907314542882e-07,-6.531889444483384e-07,-1.0648121931803238e-06,-7.134754631905281e-07,-7.987131706668939e-07,-2.525975953222364e-07,-3.2353749453766603e-07,-6.011237249711319e-07,-1.9852078535050652e-07,1.76710219581467e-08,-5.464222102641269e-07,-1.76266182673783e-07,4.454415172187951e-08,-5.758838664851544e-07
-7.169757095286211e-07,-2.6726810739598553e-06,-2.8124019705930683e-07,-1.7131632669354424e-07,-4.635329380290882e-07,-6.157396251931105e-07,-1.0844234240041276e-06,-7.288847225164127e-07,-7.904173146338214e-07,-1.8997646150401077e-07,-3.0897150162423214e-07,-5.783938637993419e-07,-1.2259967927654498e-07,9.892198256132294e-08,-5.533757112784137e-07,-4.7433044864368297e-08,1.0759915638238375e-07,-5.742475975640386e-07
-6.943388087268792e-07,-2.2951280495475736e-06,-2.7716774861525463e-07,-1.5911680340854772e-07,-4.2135583977846934e-07,-5.823743257607822e-07,-1.0520146797413002e-06,-7.572587271416395e-07,-7.821175243666263e-07,-1.3330417728669402e-07,-2.7204335526611704e-07,-5.472609985572382e-07,-4.6174397022447125e-08,1.886841992944368e-07,-5.615376068823041e-07,5.726008470803898e-08,1.67241970930398e-07,-5.649470607445351e-07
-5.711533711922905e-07,-2.225142717875673e-06,-2.7808368113977094e-07,-1.513385497742229e-07,-3.7725546581449184e-07,-5.529470437138443e-07,-9.68343025366171e-07,-7.925306868561893e-07,-7.681357327646653e-07,-9.223945846456904e-08,-2.151722230873104e-07,-5.161854181435354e-07,1.9012353682152606e-08,2.526101680617749e-07,-5.727512587641032e-07,7.359775305452396e-08,2.2156335200861556e-07,-5.4476436247431e-07
-3.7266341513611756e-07,-1.6931704168642065e-06,-2.8218608156359215e-07,-1.4732407689846687e-07,-3.316618638403909e-07,-5.243481679540792e-07,-8.61260634826509e-07,-8.265816464607199e-07,-7.463262732316394e-07,-7.338159102285853e-08,-1.4676324757667191e-07,-5.013217550531196e-07,6.208156212764298e-08,2.5554929322241456e-07,-5.829898710712011e-07,-3.54672766823797e-08,2.673545774400214e-07,-5.126908258049225e-07
-1.439449604515743e-07,-6.187513834952442e-07,-2.898545014662871e-07,-1.4275713839688966e-07,-2.8653991256289587e-07,-4.933474345405166e-07,-7.625880460858802e-07,-8.529254066590595e-07,-7.20368594366351e-07,-7.897791749302235e-08,-7.947487300517019e-08,-5.089648237189043e-07,7.488529582142427e-08,2.464211528652491e-07,-5.864872233997875e-07,-1.2119184632436244e-07,2.8015977598216686e-07,-4.7036432612793645e-07
6.049079585610812e-08,5.95581625802829e-07,-2.999052481050692e-07,-1.3540728361507862e-07,-2.454551060455405e-07,-4.4679872968457007e-07,-7.101499294738846e-07,-8.69092297033406e-07,-6.943987622389978e-07,-1.0612060853990744e-07,-2.6671352981003775e-08,-5.424118535683093e-07,5.475141936647526e-08,2.0765289541838372e-07,-5.787270635878561e-07,-1.7416615580000325e-07,2.386902813544e-07,-4.217155646704604e-07
2.0516748131420248e-07,1.3493933357905414e-06,-3.1268368409870977e-07,-1.2482759383075948e-07,-2.1248329586471055e-07,-3.952886905723973e-07,-7.287100210310492e-07,-8.767349024753072e-07,-6.760130614371135e-07,-1.4865265049925792e-07,1.8911383971821377e-09,-5.975796506274031e-07,6.9611477281011925e-09,2.1586412884254507e-07,-5.559472816772137e-07,-2.4787131767653434e-07,1.9706840409623452e-07,-3.7132844760449005e-07
2.738157035613352e-07,1.7164939589091839e-06,-3.2787104340023186e-07,-1.1144654629827568e-07,-1.9043116969397446e-07,-3.413903413875615e-07,-8.180282083140619e-07,-8.793939311759636e-07,-6.690924578922909e-07,-1.974034380787995e-07,3.562734545599284e-09,-6.613174372083239e-07,-5.616323576089825e-08,2.2534860777899907e-07,-5.176370366976173e-07,-3.899816131552681e-07,9.120081660811488e-08,-3.2200727871250716e-07
2.686250805251726e-07,1.8238162546477258e-06,-3.434559737540674e-07,-9.646513029860945e-08,-1.7936498680276295e-07,-2.872984128410993e-07,-9.529461253126595e-07,-8.794764932433322e-07,-6.711591929326173e-07,-2.425502160704591e-07,-1.6510626799627982e-08,-7.179757907248484e-07,-1.184532665717836e-07,1.8252885709732098e-07,-4.657651751908717e-07,-5.841948885481098e-07,-2.717325574513012e-08,-2.737937493631549e-07
2.0795131616237205e-07,1.700270923240244e-06,-3.5638154910683814e-07,-8.109187790275312e-08,-1.7659786622224876e-07,-2.399367209452333e-07,-1.0913423389010771e-06,-8.766608853625285e-07,-6.75833659527008e-07,-2.76177931437478e-07,-4.805071659704487e-08,-7.486964528704178e-07,-1.6413881810250664e-07,1.2343722851368446e-07,-4.0397049826927155e-07,-7.694617036611559e-07,-1.414623696102703e-07,-2.2538937450408348e-07
1.2272824913300618e-07,1.3956731400966016e-06,-3.63329863101113e-07,-6.62188610571403e-08,-1.780592613545222e-07,-1.97127735128476e-07,-1.1895946002034521e-06,-8.685031616428935e-07,-6.763080203418463e-07,-2.9311204409952554e-07,-7.984820755750083e-08,-7.272945153394378e-07,-1.8464559173186097e-07,7.094295652337165e-08,-3.3716926808479227e-07,-8.418490771314396e-07,-2.3771053922579852e-07,-1.7660949220914392e-07
5.125519205656547e-08,9.583756821668933e-07,-3.621438514928665e-07,-5.243287701682944e-08,-1.8002700505297243e-07,-1.5790539525438378e-07,-1.218657089257462e-06,-8.524903052441039e-07,-6.688987675566018e-07,-2.9223860345726326e-07,-1.0344630758648383e-07,-7.043061571253725e-07,-1.7998344089864752e-07,2.9356751121675713e-08,-2.7225560405106975e-07,-1.0080593944017588e-06,-3.0847033403553436e-07,-1.2988231273848908e-07
2.8106690220576024e-08,4.415753300619432e-07,-3.531482495803793e-07,-4.030453673541232e-08,-1.804108776125455e-07,-1.2106160359193663e-07,-1.1745456320389536e-06,-8.28248461272383e-07,-6.550552174331868e-07,-2.7695297094721945e-07,-1.1537811281039861e-07,-6.337178146263391e-07,-1.5951506532949643e-07,2.2873598161265247e-08,-2.1608851081558914e-07,-1.1299200153268148e-06,-3.5199882612239447e-07,-8.978629857617471e-08
7.085257135281631e-08,-9.569216660942205e-08,-3.3951103598365025e-07,-3.062580677871361e-08,-1.792155333288468e-07,-8.910404114171657e-08,-1.0792247692109342e-06,-7.98746726968107e-07,-6.408805097307854e-07,-2.5424020544768633e-07,-1.1745853812772697e-07,-5.653226518511586e-07,-1.384499581711908e-07,3.1978767004914194e-08,-1.741504953513381e-07,-1.0743412968365728e-06,-3.771433867881473e-07,-6.100053830317466e-08
1.7048028358767405e-07,-5.917763022972324e-07,-3.2638273451643033e-07,-2.4425406948367336e-08,-1.7839406592804162e-07,-6.080510298142422e-08,-9.718013949249116e-07,-7.702430427193203e-07,-6.347296709006626e-07,-2.3264745320556355e-07,-1.1519653145229287e-07,-5.109994454645915e-07,-1.3060403854114135e-07,4.3604889808104365e-08,-1.4983687950221375e-07,-9.862122502450694e-07,-3.9544456064180065e-07,-4.658397482641087e-08
2.9042827893467533e-07,-9.837509626494701e-07,-3.1944173119038213e-07,-2.299904719058852e-08,-1.8146670834850145e-07,-3.177718086334537e-08,-8.941979529397854e-07,-7.511179405702409e-07,-6.445267149812552e-07,-2.2042984360463272e-07,-1.1526830203534097e-07,-5.273633045535243e-07,-1.4735539864123793e-07,4.567013290894546e-08,-1.4448589110014387e-07,-9.49710245515071e-07,-4.1896306774804317e-07,-4.789671077961773e-08
3.793712947001415e-07,-1.2097549316499643e-06,-3.231668753195807e-07,-2.7832170018102247e-08,-1.9256521989047878e-07,-9.599193135118951e-09,-8.768305176410601e-07,-7.492375244077561e-07,-6.752262180107525e-07,-2.232585455794308e-07,-1.2303776152963996e-07,-5.584152229898041e-07,-1.9283536039919782e-07,2.1725935871159087e-08,-1.5818812524944595e-07,-9.584071841766663e-07,-4.564021302650618e-07,-6.435152840580957e-08
3.952480993460957e-07,-1.2256991606214095e-06,-3.390114969402398e-07,-4.005659198445827e-08,-2.1464921161751005e-07,1.90880990548406e-10,-9.29068062328845e-07,-7.683637460269113e-07,-7.266135142237467e-07,-2.4256587016196465e-07,-1.409695010825704e-07,-5.730153445910171e-07,-2.630294194375698e-07,-2.4810017448337322e-08,-1.9003084047066036e-07,-1.0002549793060557e-06,-5.090974046955574e-07,-9.379412347426436e-08
3.2844363835781034e-07,-1.0280299178102346e-06,-3.6443921381264267e-07,-5.964503173788035e-08,-2.4780416801916133e-07,-5.363913612637963e-09,-1.0378692467578485e-06,-8.057624658652959e-07,-7.927669367066534e-07,-2.756357019263317e-07,-1.6862015359743334e-07,-6.482459989218323e-07,-3.480185400864887e-07,-8.494811190601615e-08,-2.367933227044086e-07,-1.0717982194958836e-06,-5.708911497948534e-07,-1.325234890503906e-07
2.1128535216586208e-07,-6.509639117590556e-07,-3.936639568151973e-07,-8.483372062873643e-08,-2.887377172905698e-07,-2.7726622426325843e-08,-1.1747188077524762e-06,-8.527423290804955e-07,-8.637673464032379e-07,-3.1686381689640853e-07,-2.038599554802364e-07,-7.641129497257779e-07,-4.3504008085209316e-07,-1.488057104566005e-07,-2.937446386660173e-07,-1.1548216025278914e-06,-6.309019013909489e-07,-1.7523009713269305e-07
1.0568585921585745e-07,-1.3892099147270937e-07,-4.198979372151727e-07,-1.1218377773508802e-07,-3.3183694923418506e-07,-6.14647817997197e-08,-1.30727901739145e-06,-8.981479128102191e-07,-9.289923813461871e-07,-3.59725852834948e-07,-2.4420002267657657e-07,-8.718122540973484e-07,-5.140941640385551e-07,-2.060544768837605e-07,-3.540141944762332e-07,-1.229540566701962e-06,-6.78144641438506e-07,-2.1590487886384108e-07
7.45942249528495e-08,4.67551864830711e-07,-4.381895425379364e-07,-1.3760524427128348e-07,-3.7148364444600586e-07,-1.0902064253619505e-07,-1.4108607943652334e-06,-9.332244273066511e-07,-9.8096298307777e-07,-3.989931389228194e-07,-2.8747667578602316e-07,-9.61177283541131e-07,-5.782752438246551e-07,-2.4996368323014204e-07,-4.099796149712379e-07,-1.2817330565399454e-06,-7.061801077463997e-07,-2.4990617983163834e-07
1.5442377141867356e-07,1.1211423283311543e-06,-4.4747601314875426e-07,-1.5801743300884076e-07,-4.0446609034172033e-07,-1.554044892738068e-07,-1.4755828487468158e-06,-9.550088036687016e-07,-1.0179585775177193e-06,-4.3175576381814926e-07,-3.3178481916046926e-07,-1.039044283923072e-06,-6.271864469348775e-07,-2.792601042775978e-07,-4.5634016001357494e-07,-1.3079288931650224e-06,-7.156748867679857e-07,-2.76108411989212e-07
3.4385353089200795e-07,1.7586623098404305e-06,-4.507326577590435e-07,-1.7266938778898308e-07,-4.310458834568185e-07,-1.952500093568125e-07,-1.5071763411288892e-06,-9.662487605931067e-07,-1.043964745385139e-06,-4.5797599326999726e-07,-3.751684883417753e-07,-1.10389040069113e-06,-6.652370759326476e-07,-2.977114171655935e-07,-4.912777179371102e-07,-1.3160155437516582e-06,-7.138429589087213e-07,-2.9746723307374454e-07
6.037307636147934e-07,2.3080589544420537e-06,-4.5325298100781523e-07,-1.834169180341607e-07,-4.542879755591565e-07,-2.2860473260878535e-07,-1.5220623111169462e-06,-9.723952133309943e-07,-1.0662079120799726e-06,-4.797437563759776e-07,-4.156782154722046e-07,-1.1610314601174142e-06,-6.988219468657062e-07,-3.119881734890849e-07,-5.173599126589749e-07,-1.3212818389900614e-06,-7.112982472064131e-07,-3.1974208339761586e-07
8.628421805225595e-07,2.7037605092583404e-06,-4.598844968839332e-07,-1.9381431213715373e-07,-4.781358697869903e-07,-2.5466721346909123e-07,-1.5389624885152096e-06,-9.773748699602806e-07,-1.0912176520655014e-06,-4.997769909665553e-07,-4.5163518581768325e-07,-1.2133072166044897e-06,-7.329237986375371e-07,-3.2864360488081226e-07,-5.397517833037929e-07,-1.3396296427971542e-06,-7.176479600552763e-07,-3.483768489980761e-07
1.0357824513016243e-06,2.9010082974288377e-06,-4.7238498980095773e-07,-2.0736477362224809e-07,-5.049345438282836e-07,-2.805674059024667e-07,-1.5702865711012898e-06,-9.798782139625424e-07,-1.1209588916981258e-06,-5.200833781819727e-07,-4.818337258519549e-07,-1.2632395829482126e-06,-7.697782526171714e-07,-3.513675593779106e-07,-5.644868553173745e-07,-1.3811620338359839e-06,-7.378293465395821e-07,-3.8553249515017024e-07
1.05369374965397e-06,2.883995083738556e-06,-4.882704541410809e-07,-2.2579307250184178e-07,-5.335349646822328e-07,-3.1096133694155807e-07,-1.617217018064504e-06,-9.720852892851834e-07,-1.1513042309857784e-06,-5.409796357694614e-07,-5.060137309592128e-07,-1.310255931281153e-06,-8.073524696390452e-07,-3.7987703763858723e-07,-5.944251199097488e-07,-1.447296359884397e-06,-7.709390615807472e-07,-4.2904571744293446e-07
8.924094432149941e-07,2.665993840048355e-06,-5.017258346970207e-07,-2.4811785329552876e-07,-5.590606050677365e-07,-3.475232339102604e-07,-1.6708230496226897e-06,-9.418774397420224e-07,-1.173755220519833e-06,-5.613076977910116e-07,-5.255395690099907e-07,-1.3367034159845522e-06,-8.421555685671658e-07,-4.107016536943442e-07,-6.294984080102934e-07,-1.5317673293566981e-06,-8.116082863426064e-07,-4.734916128672698e-07
5.772660529524439e-07,2.2840051930304497e-06,-5.06026864197882e-07,-2.7085685777173496e-07,-5.746536564038711e-07,-3.861318856451635e-07,-1.7181494812434573e-06,-8.77942178492734e-07,-1.1795427048067148e-06,-5.794563337269038e-07,-5.436327708023031e-07,-1.3421279839103141e-06,-8.729674147063e-07,-4.3913587459158085e-07,-6.681162485075407e-07,-1.6240977715951365e-06,-8.529616528835867e-07,-5.12883913966234e-07
1.6578420815428023e-07,1.7929617099207383e-06,-4.966900914597384e-07,-2.8953358407244647e-07,-5.748745289692943e-07,-4.24820279362005e-07,-1.7499121840980103e-06,-7.760375466062243e-07,-1.1646577736838038e-06,-5.949534121604852e-07,-5.647983500608509e-07,-1.3276013476931026e-06,-9.018767557841734e-07,-4.615974297903884e-07,-7.084056798868291e-07,-1.714000973366778e-06,-8.899146654064086e-07,-5.440481388834435e-07
-2.701838657642906e-07,1.2639056350959156e-06,-4.741041593714861e-07,-3.0092575331982946e-07,-5.592610744633314e-07,-4.6231224316083986e-07,-1.7657751355735555e-06,-6.434620961423752e-07,-1.1331792843045048e-06,-6.093902619709617e-07,-5.932109579502618e-07,-1.2949147205462362e-06,-9.33908691029839e-07,-4.77214768603043e-07,-7.505723789882276e-07,-1.7943736984099853e-06,-9.209611805308426e-07,-5.684934712499415e-07
-6.521347405867906e-07,7.866464250953372e-07,-4.438648201864769e-07,-3.045473435538623e-07,-5.33489252664807e-07,-4.964082828643852e-07,-1.7742917257578214e-06,-4.986027578609338e-07,-1.0961858898960191e-06,-6.256993473750663e-07,-6.302069289951426e-07,-1.2623346910021215e-06,-9.742901603724142e-07,-4.875142746933468e-07,-7.964138242438906e-07,-1.8614240955334191e-06,-9.475122263730781e-07,-5.915111868896869e-07
-9.068856259019242e-07,4.6896157680280474e-07,-4.144649023906069e-07,-3.025380466269202e-07,-5.07125527363063e-07,-5.278039554293431e-07,-1.7879675061237313e-06,-3.651985131060673e-07,-1.0668721683702472e-06,-6.459962601811111e-07,-6.724042682103074e-07,-1.227145484510095e-06,-1.025046944306356e-06,-4.948324149328629e-07,-8.469573952922847e-07,-1.9133577709229094e-06,-9.719617699693986e-07,-6.191117223401143e-07
-9.925072877964252e-07,4.1608331121420383e-07,-3.939350947114131e-07,-2.985040208544369e-07,-4.896845805797377e-07,-5.57546844360222e-07,-1.816770975224501e-06,-2.641873395281735e-07,-1.0550763487051766e-06,-6.695462828163044e-07,-7.121018814402789e-07,-1.1848982184678082e-06,-1.0826097155342698e-06,-5.006983222779877e-07,-9.002699877936218e-07,-1.949273309373439e-06,-9.958513244739229e-07,-6.549570498458477e-07
-9.208853730906411e-07,6.828370790062011e-07,-3.8701841833131557e-07,-2.95975655490901e-07,-4.871435334236775e-07,-5.863887902193193e-07,-1.8632052497865737e-06,-2.0676364694633837e-07,-1.0635877901978811e-06,-6.921520973690416e-07,-7.397511560078483e-07,-1.1335302570163759e-06,-1.1389765924511562e-06,-5.048359379080603e-07,-9.527502670866238e-07,-1.968323614395731e-06,-1.0186078843060854e-06,-6.984859251247784e-07
-7.547229054744545e-07,1.2226884784412335e-06,-3.9381361195061324e-07,-2.970161211245795e-07,-5.00103740702261e-07,-6.147369684013071e-07,-1.9207377413889466e-06,-1.9145212288019424e-07,-1.0875133018510026e-06,-7.071992841201638e-07,-7.471348273902041e-07,-1.091556099776212e-06,-1.1836728186662506e-06,-5.05218389852194e-07,-9.987739426407408e-07,-1.969424516558058e-06,-1.03736853531541e-06,-7.449760686508446e-07
-5.793928972608297e-07,1.8803119729915281e-06,-4.1041714577539816e-07,-3.0168583017746723e-07,-5.241432113843715e-07,-6.383670610763443e-07,-1.9761327313079056e-06,-2.061219255164678e-07,-1.1169377109721027e-06,-7.081250855102415e-07,-7.299548370839938e-07,-1.0506871265150175e-06,-1.2082569222732752e-06,-4.99182419522092e-07,-1.0322836817417233e-06,-1.9518141147897327e-06,-1.0479261302817713e-06,-7.873866967307204e-07
-4.669916530245952e-07,2.4465157255600217e-06,-4.3088349774824396e-07,-3.08406446023515e-07,-5.518389195463377e-07,-6.574260940982366e-07,-2.014110087787879e-06,-2.3307798320948894e-07,-1.1409220872182805e-06,-6.908028137840878e-07,-6.886579167263069e-07,-1.0031755943010236e-06,-1.2085948311866002e-06,-4.846604425309146e-07,-1.0489359876737224e-06,-1.915631036352811e-06,-1.0459236094883734e-06,-8.185256667297792e-07
-4.507789502226874e-07,2.7389619456442133e-06,-4.491454380362933e-07,-3.146515675578794e-07,-5.752119215555194e-07,-6.699197172746892e-07,-2.021822960776127e-06,-2.544373242795998e-07,-1.150687139982596e-06,-6.546063884015431e-07,-6.273517957503218e-07,-9.513543483767983e-07,-1.1852434776622616e-06,-4.6085118881540915e-07,-1.0464670678645573e-06,-1.8622783214525707e-06,-1.0280638244380007e-06,-8.328675675390008e-07
-5.189453662744197e-07,2.6592205607529466e-06,-4.604535903099586e-07,-3.1781883783968884e-07,-5.879798995449422e-07,-6.739094155338029e-07,-1.9921045808185833e-06,-2.564239156794635e-07,-1.1417226150749721e-06,-6.024340912619615e-07,-5.520875111476698e-07,-8.604592080162174e-07,-1.1430791751076364e-06,-4.2865391562500235e-07,-1.0254314444985196e-06,-1.795085365567349e-06,-9.93562534175586e-07,-8.281084475735254e-07
-6.257525800780485e-07,2.2162445063768686e-06,-4.623589249175747e-07,-3.161943382390753e-07,-5.872845344292122e-07,-6.70660443678756e-07,-1.9252976667532527e-06,-2.3204663219095852e-07,-1.1147310175417693e-06,-5.399784682678051e-07,-4.6952833894018487e-07,-7.600362351134913e-07,-1.090151475267371e-06,-3.908459908820854e-07,-9.896464248404973e-07,-1.7195040143301471e-06,-9.449906946775586e-07,-8.060289806183423e-07
-7.110948322196356e-07,1.5297762574051663e-06,-4.549354418729589e-07,-3.0946251857493854e-07,-5.741898828473237e-07,-6.615550343237166e-07,-1.8291971442251856e-06,-1.8178941094587112e-07,-1.0749764222905457e-06,-4.7430307259965055e-07,-3.861095977962228e-07,-6.68848328415928e-07,-1.0355098458070876e-06,-3.515730148395536e-07,-9.455115198593512e-07,-1.6421638181664068e-06,-8.877781560815279e-07,-7.721146149008208e-07
-7.219655155078078e-07,8.062860423116657e-07,-4.4040342105725865e-07,-2.9865271050496047e-07,-5.529397539245273e-07,-6.498713405117054e-07,-1.7171914002952138e-06,-1.1280173469782168e-07,-1.03074606879468e-06,-4.1225349429628394e-07,-3.077180543561082e-07,-5.901320226713988e-07,-9.876683207812227e-07,-3.155580001627492e-07,-9.006718901554409e-07,-1.569687714865638e-06,-8.289227682057712e-07,-7.344738914558588e-07
-6.324121601980645e-07,2.7262047404936237e-07,-4.2260581212107806e-07,-2.8590811269889814e-07,-5.297173479656723e-07,-6.396924925212224e-07,-1.6050442150439852e-06,-3.723506483984817e-08,-9.916260472718308e-07,-3.592928588828823e-07,-2.3960176330372626e-07,-5.424451204772863e-07,-9.52806979296253e-07,-2.873012224982749e-07,-8.628078883143346e-07,-1.5075995050045672e-06,-7.752261731596173e-07,-7.0229895549878e-07
-4.553537937487513e-07,8.760410337371715e-08,-4.061658905322348e-07,-2.7404972957707637e-07,-5.111807580878294e-07,-6.354518389448529e-07,-1.506419968020198e-06,3.0238784018975676e-08,-9.663911365079756e-07,-3.1879232647042297e-07,-1.858731241671226e-07,-5.46238281215656e-07,-9.331338979209707e-07,-2.700905537783861e-07,-8.379996558947791e-07,-1.4588879515142743e-06,-7.294224823945504e-07,-6.838379904679447e-07
-2.4057838904871925e-07,2.802184674338563e-07,-3.9533848410928064e-07,-2.6589857000617166e-07,-5.029952086205982e-07,-6.388518376539999e-07,-1.428330924781885e-06,7.519908098306261e-08,-9.611174949769495e-07,-2.9179385960354704e-07,-1.4870036351685005e-07,-5.802796822816562e-07,-9.270627909607527e-07,-2.6518501429149853e-07,-8.294380423462909e-07,-1.422866588022099e-06,-6.948838074507976e-07,-6.846407727775778e-07
-5.7714955184650145e-08,7.488516780749817e-07,-3.931468166789385e-07,-2.637030902426873e-07,-5.089443299591765e-07,-6.499728471460748e-07,-1.368840319182952e-06,8.569062742088947e-08,-9.78409328562722e-07,-2.774533499675922e-07,-1.276776613363104e-07,-5.773658050679768e-07,-9.289891081950645e-07,-2.7153633222333944e-07,-8.37032420035389e-07,-1.3951136372717595e-06,-6.664014497491352e-07,-7.06532591584936e-07
3.1578728767394976e-08,1.315146845935391e-06,-4.009014759223621e-07,-2.6868481918122493e-07,-5.304976055616575e-07,-6.669932513855845e-07,-1.3181163928260448e-06,5.4072149208793324e-08,-1.017302699534395e-06,-2.7365790945464686e-07,-1.194843417693406e-07,-5.854507960208534e-07,-9.311816025227505e-07,-2.8593826847014733e-07,-8.579317875320764e-07,-1.3689022748619332e-06,-6.359443913419117e-07,-7.477055680156257e-07
4.606240721852918e-10,1.795859773104695e-06,-4.180758659137682e-07,-2.8068288289359575e-07,-5.664865679980946e-07,-6.86314508315383e-07,-1.262601249792553e-06,-2.1362857587271833e-08,-1.0737633444268862e-06,-2.778608919076732e-07,-1.1838847036460869e-07,-5.990328711273959e-07,-9.264828938302753e-07,-3.0385630430289073e-07,-8.886300462253282e-07,-1.339003783411687e-06,-5.970304610509875e-07,-8.041145797671328e-07
-1.2959007889435252e-07,2.062746561162615e-06,-4.4297869968841407e-07,-2.98344371157899e-07,-6.134411085304931e-07,-7.04605560153853e-07,-1.1916469890106608e-06,-1.3588384532124677e-07,-1.1423850909880717e-06,-2.8830812343960193e-07,-1.1819698633407724e-07,-5.804337006941574e-07,-9.116939879914677e-07,-3.2118002980951714e-07,-9.277927456868081e-07,-1.30661521444723e-06,-5.46309571353875e-07,-8.719578353996783e-07
-2.929980891030565e-07,2.0791623723770036e-06,-4.7379711600290483e-07,-3.197068359151303e-07,-6.666849757075757e-07,-7.196026927124499e-07,-1.1039275608701427e-06,-2.791315641650511e-07,-1.21806434400335e-06,-3.0433278129680776e-07,-1.1457762758058868e-07,-5.768002016831699e-07,-8.893952631710873e-07,-3.35683308219829e-07,-9.766183461068764e-07,-1.2807550626581106e-06,-4.898906250823044e-07,-9.489464631438932e-07
-4.02805952661058e-07,1.9030662790107681e-06,-5.088192701127337e-07,-3.424043181089094e-07,-7.210749223257116e-07,-7.303410078286091e-07,-1.009440455296395e-06,-4.3645473408095855e-07,-1.2959469738239686e-06,-3.2484238521603794e-07,-1.0620021252006286e-07,-6.145580175124793e-07,-8.657561048093443e-07,-3.471104771313561e-07,-1.036854745195793e-06,-1.2739449739763215e-06,-4.3754953367360597e-07,-1.0331044398064277e-06
-3.8606027779643316e-07,1.6511394493005298e-06,-5.459382528243297e-07,-3.6366885001205607e-07,-7.710377724529976e-07,-7.363310998535677e-07,-9.259158371517793e-07,-5.907269178352234e-07,-1.3705730552513096e-06,-3.4672065823460994e-07,-9.490196599857581e-08,-6.781128942162667e-07,-8.482168004469481e-07,-3.56659731489869e-07,-1.1075945439392069e-06,-1.295933491389061e-06,-4.167240559596285e-07,-1.1212528438401884e-06
-2.1264358404389373e-07,1.4415242277032559e-06,-5.824368010648127e-07,-3.8077581546307345e-07,-8.107919764097429e-07,-7.363570271913027e-07,-8.725088089081331e-07,-7.247749117518886e-07,-1.4358487538094044e-06,-3.651091762917647e-07,-8.554499481080362e-08,-7.477356074164104e-07,-8.427633955320467e-07,-3.6675312499562235e-07,-1.1834187635994179e-06,-1.349790383356153e-06,-4.1102472616565146e-07,-1.208160625980237e-06
9.864267532785909e-08,1.3465442891744521e-06,-6.151336056398372e-07,-3.915628506603163e-07,-8.350323648594788e-07,-7.284660092669186e-07,-8.640738657487011e-07,-8.236469713249498e-07,-1.4857251898046504e-06,-3.7516815940575026e-07,-8.49863432314324e-08,-8.180348708231607e-07,-8.532491910548458e-07,-3.8081052947206437e-07,-1.2549340925535674e-06,-1.4314898976812888e-06,-4.2750535794215066e-07,-1.2866052947415128e-06
4.921625627487158e-07,1.376953987766548e-06,-6.407996955524837e-07,-3.94623086417744e-07,-8.398691041731314e-07,-7.10845574213566e-07,-9.078796387327908e-07,-8.765833809821385e-07,-1.5155067646219294e-06,-3.7419708829125395e-07,-9.984196744773493e-08,-8.670548795344735e-07,-8.819869757988226e-07,-4.0284526551719563e-07,-1.3122386645605535e-06,-1.5328334639053066e-06,-4.813278826450826e-07,-1.3492332303593965e-06
8.908920421680578e-07,1.4974454812976833e-06,-6.57364809769405e-07,-3.897785875834341e-07,-8.24341423227226e-07,-6.833706388549259e-07,-1.0033007341830719e-06,-8.794390137415125e-07,-1.5240604190759905e-06,-3.632962314757611e-07,-1.3400901994272314e-07,-9.249658258195673e-07,-9.305089369766964e-07,-4.369491621012039e-07,-1.3489386540203942e-06,-1.6459704035923317e-06,-5.483708015762746e-07,-1.391933649905055e-06
1.2118289471803001e-06,1.6545176799313486e-06,-6.653295178659412e-07,-3.7883221684373455e-07,-7.919393451697642e-07,-6.491768945467766e-07,-1.1430798440667685e-06,-8.366314090592444e-07,-1.515096027726126e-06,-3.4720138779410873e-07,-1.8673139192946304e-07,-9.965901804373187e-07,-9.99170641153108e-07,-4.859516152525664e-07,-1.366479108207394e-06,-1.7648909568225618e-06,-6.584118402437777e-07,-1.4158308676815756e-06
1.3855654527899666e-06,1.7951854913682253e-06,-6.676183244005601e-07,-3.6537339045430036e-07,-7.502496728205625e-07,-6.14339748928912e-07,-1.3141418471779664e-06,-7.604381730585505e-07,-1.4954098050735864e-06,-3.3160493690879493e-07,-2.516340012466481e-07,-1.0741918718555059e-06,-1.0846039994065779e-06,-5.491167821129315e-07,-1.3692207872296148e-06,-1.8842804499896293e-06,-7.746908290935398e-07,-1.4260088932342264e-06
1.3767544788218434e-06,1.8714249632185989e-06,-6.677267914393999e-07,-3.533108712358835e-07,-7.083969937568304e-07,-5.856377769391492e-07,-1.4982864865496672e-06,-6.677030831074955e-07,-1.4716446457474982e-06,-3.201952427938609e-07,-3.171732058009735e-07,-1.1568734159381982e-06,-1.1785808476903654e-06,-6.209252381910019e-07,-1.363572528113726e-06,-1.9968242657004322e-06,-8.895622465210279e-07,-1.4287790739778093e-06
1.1964241534421535e-06,1.8431108749710217e-06,-6.679741291046578e-07,-3.4530446866997935e-07,-6.742741004745006e-07,-5.678963536729371e-07,-1.674523330480744e-06,-5.759208428206073e-07,-1.4485300954391281e-06,-3.13705697909069e-07,-3.721278916967105e-07,-1.2293403428917487e-06,-1.2698485693687916e-06,-6.926955277143615e-07,-1.3559317718874476e-06,-2.092148622218014e-06,-1.0206052291090812e-06,-1.4295497185884856e-06
8.993354144549792e-07,1.6894312531610413e-06,-6.688775550096377e-07,-3.4191878606187176e-07,-6.52917845209575e-07,-5.624092362915468e-07,-1.8228887443848829e-06,-4.995134678715557e-07,-1.4286831793642143e-06,-3.108070227938959e-07,-4.1277010343450774e-07,-1.2908167727794059e-06,-1.3484927089595656e-06,-7.559523717115168e-07,-1.3498853025104956e-06,-2.1622475893933252e-06,-1.1094341058530374e-06,-1.4316234279445374e-06
5.631283963417608e-07,1.4206735516639164e-06,-6.693631053014846e-07,-3.416187986146364e-07,-6.459133905186308e-07,-5.670644123603157e-07,-1.9281497503874164e-06,-4.466681351361179e-07,-1.4129760357359067e-06,-3.09624270807993e-07,-4.1825754687007683e-07,-1.3187024257386648e-06,-1.4091200231633711e-06,-8.054751252546681e-07,-1.347126318818832e-06,-2.2045394435987573e-06,-1.166071990283626e-06,-1.4362279366349304e-06
2.555060946840091e-07,1.0746198153493562e-06,-6.678706280524021e-07,-3.419394578923522e-07,-6.520340426935126e-07,-5.783245551194139e-07,-1.9828800990272093e-06,-4.1849765352042165e-07,-1.4019932925747384e-06,-3.096892814360527e-07,-4.1110035599269327e-07,-1.3225114147774631e-06,-1.4525899997504999e-06,-8.411581427000884e-07,-1.348311129767356e-06,-2.2243783196759124e-06,-1.200170787685793e-06,-1.444210844680096e-06
8.813359020004688e-09,6.933726246349859e-07,-6.641763174802458e-07,-3.415173350039436e-07,-6.691278044784803e-07,-5.937730998027893e-07,-1.9895806184678317e-06,-4.113412679365788e-07,-1.3980692010036446e-06,-3.1326589293249526e-07,-3.87730588891009e-07,-1.311186016618905e-06,-1.4858697650014672e-06,-8.680421996017346e-07,-1.3552823582105196e-06,-2.235344099231768e-06,-1.2089529597847543e-06,-1.4580470089467619e-06
-1.8193272829710087e-07,2.9708575667534824e-07,-6.604324430770694e-07,-3.413610780302728e-07,-6.957491250210051e-07,-6.131999691062667e-07,-1.9603011227779482e-06,-4.2020399330391034e-07,-1.405505043709603e-06,-3.2442654008890537e-07,-3.60326482239719e-07,-1.295457704311066e-06,-1.5185104095485014e-06,-8.940041524157641e-07,-1.3693007498439693e-06,-2.253915605932963e-06,-1.218302005761282e-06,-1.4818566152833588e-06
-3.3956597781693536e-07,-1.1862787470195634e-07,-6.603749164663937e-07,-3.44330110910685e-07,-7.31249894747524e-07,-6.377604003242622e-07,-1.9130975302838175e-06,-4.4113602177903125e-07,-1.4284754026738675e-06,-3.4651727533853495e-07,-3.376125544360842e-07,-1.2942101068375634e-06,-1.558110593494519e-06,-9.262245003022002e-07,-1.3948149996158381e-06,-2.2927686174501843e-06,-1.2388323631045216e-06,-1.5194844445495604e-06
-4.797157131029369e-07,-5.559711464122745e-07,-6.674135606589042e-07,-3.5350447444034015e-07,-7.747363703703037e-07,-6.683144467055349e-07,-1.8667278190269459e-06,-4.719425016514233e-07,-1.468443089109195e-06,-3.7985269891593113e-07,-3.247154612459756e-07,-1.3113618430230796e-06,-1.6074592124828341e-06,-9.683038872927044e-07,-1.4346607210740507e-06,-2.356241172842169e-06,-1.2761744318168263e-06,-1.5721231818143384e-06
-5.970546542008588e-07,-9.837414683437049e-07,-6.826460282791933e-07,-3.703899117574187e-07,-8.236212286826281e-07,-7.03938310177957e-07,-1.8350653480621719e-06,-5.110568738378368e-07,-1.522090705250915e-06,-4.2041721584391694e-07,-3.222076608003143e-07,-1.3459554526201938e-06,-1.663204508622158e-06,-1.0187383459708113e-06,-1.4875616589272673e-06,-2.4415528708583057e-06,-1.3318763047233512e-06,-1.6364046238275682e-06
-6.692416197219583e-07,-1.3253122055332495e-06,-7.036242506027771e-07,-3.9360140617087375e-07,-8.723910292444966e-07,-7.410199758580807e-07,-1.822576259282383e-06,-5.55278910932086e-07,-1.5805544159131054e-06,-4.599956852105187e-07,-3.2657762674431413e-07,-1.3884115818597944e-06,-1.7167411684490779e-06,-1.071118845765715e-06,-1.5492910172207428e-06,-2.531379699413465e-06,-1.3983117967466911e-06,-1.7045024545578264e-06
-6.73756893862949e-07,-1.4713496922474031e-06,-7.250233382833262e-07,-4.189964953584509e-07,-9.129929992999091e-07,-7.73553119167441e-07,-1.82319443189979e-06,-5.986943372364781e-07,-1.6316261021173257e-06,-4.887179617457811e-07,-3.325033207753559e-07,-1.432190938244673e-06,-1.7578781979009664e-06,-1.1166514812438698e-06,-1.612996753476482e-06,-2.6091534693756778e-06,-1.4613976156139524e-06,-1.7670801912719056e-06
-6.086077674533357e-07,-1.3282383921698002e-06,-7.412091779201403e-07,-4.414839619557379e-07,-9.374920998783941e-07,-7.94896039233816e-07,-1.823628373745353e-06,-6.340393557100271e-07,-1.664353923948538e-06,-4.990849660229614e-07,-3.360893345670817e-07,-1.4655048117673258e-06,-1.779529811493404e-06,-1.1478693026934537e-06,-1.6726861529408374e-06,-2.661673788085853e-06,-1.5099535269449505e-06,-1.8169857595336505e-06
-5.052808322488777e-07,-8.816686846753476e-07,-7.486546532919684e-07,-4.5702009031983393e-07,-9.411685765366431e-07,-8.001136646535149e-07,-1.8088501867058498e-06,-6.55000413522613e-07,-1.6726605462089924e-06,-4.885888311863687e-07,-3.366504123387743e-07,-1.4802702212971547e-06,-1.7803185877819166e-06,-1.1609864338988834e-06,-1.7250218715146789e-06,-2.6796521772789754e-06,-1.5366636374747266e-06,-1.8509149563443072e-06
-4.2349040976123824e-07,-2.2539412729371532e-07,-7.466411054208449e-07,-4.634481178935802e-07,-9.23929418565492e-07,-7.877574081057791e-07,-1.7671092477149729e-06,-6.578950570206901e-07,-1.6563207745576472e-06,-4.598864782017887e-07,-3.360460504062455e-07,-1.4756728991019935e-06,-1.7635533826430473e-06,-1.156160971689717e-06,-1.7691433402953248e-06,-2.662079287669629e-06,-1.538826148926835e-06,-1.8692076665350244e-06
-4.277217279597438e-07,4.7355213504128154e-07,-7.368226642450777e-07,-4.6053385521477443e-07,-8.900123634049347e-07,-7.60540442123109e-07,-1.693618309532012e-06,-6.427808283092524e-07,-1.620383155730251e-06,-4.1959085305855876e-07,-3.369850313741922e-07,-1.4529680730091226e-06,-1.7360068892332116e-06,-1.1368407130919224e-06,-1.8062178820117962e-06,-2.613300526665062e-06,-1.5198452910805684e-06,-1.8752134787090327e-06
-5.577354843278882e-07,1.0483351913771178e-06,-7.223966748966905e-07,-4.49819902774083e-07,-8.466823625549311e-07,-7.245755133747962e-07,-1.5918450815087848e-06,-6.137286058607954e-07,-1.5733903144508331e-06,-3.7636840126633283e-07,-3.4151142116708144e-07,-1.4183076909316073e-06,-1.705769850828916e-06,-1.1086344516233447e-06,-1.838517455426386e-06,-2.5432405161132217e-06,-1.4878042005008033e-06,-1.87394639160884e-06
-8.072204137865632e-07,1.399851552027944e-06,-7.066863717555244e-07,-4.3404511301215683e-07,-8.020024995475405e-07,-6.871375508475477e-07,-1.4710401067965282e-06,-5.774765022747697e-07,-1.5241530305615545e-06,-3.383047211202345e-07,-3.496667006879031e-07,-1.3782645172308249e-06,-1.679076781494483e-06,-1.0774594874055077e-06,-1.8677774886248098e-06,-2.4642223966289706e-06,-1.4522064189052652e-06,-1.8697849123897849e-06
-1.1172486840925096e-06,1.5203015130440588e-06,-6.915522809314248e-07,-4.1608967100043504e-07,-7.623216127287104e-07,-6.538990238927875e-07,-1.3412898350602273e-06,-5.408991795684968e-07,-1.478568394514151e-06,-3.101875711073929e-07,-3.5875876767858445e-07,-1.3366956487209535e-06,-1.660369069479017e-06,-1.0476928777721896e-06,-1.8937622905003294e-06,-2.391140563036126e-06,-1.4228739995605118e-06,-1.8645626282039053e-06
-1.3872888528725772e-06,1.4733316509957488e-06,-6.76660675178829e-07,-3.9797430511313915e-07,-7.305799592939716e-07,-6.269060964206079e-07,-1.2093224563406472e-06,-5.082176116126493e-07,-1.4379008373749586e-06,-2.9209861755380453e-07,-3.6414261022448705e-07,-1.294349912561409e-06,-1.646169507982918e-06,-1.0226033478719862e-06,-1.9137249556730253e-06,-2.331428502988221e-06,-1.4030769672610072e-06,-1.8569304342254542e-06
-1.5042892624009997e-06,1.357521480293483e-06,-6.597380000298505e-07,-3.801661886922774e-07,-7.055422177162561e-07,-6.038393999948179e-07,-1.0771282594475162e-06,-4.784121379418291e-07,-1.398388650545011e-06,-2.799066183379214e-07,-3.613681673986442e-07,-1.2468266567585894e-06,-1.6323853175981713e-06,-1.003020078661108e-06,-1.9230412718749503e-06,-2.2876885829315884e-06,-1.3946899865035895e-06,-1.8433348351849313e-06
-1.4075153072180036e-06,1.2661119570920387e-06,-6.376516776965184e-07,-3.6157163770923687e-07,-6.820932619024028e-07,-5.789824135076172e-07,-9.381669807399208e-07,-4.444413426062039e-07,-1.3530092980171453e-06,-2.6802558557635036e-07,-3.487057680326254e-07,-1.195910811422045e-06,-1.6151303155302894e-06,-9.883881919794977e-07,-1.9178013523393992e-06,-2.2625974548321332e-06,-1.397842006182016e-06,-1.8208054541422046e-06
-1.1116565157662936e-06,1.2488218199572466e-06,-6.085781953796354e-07,-3.40868976853618e-07,-6.537355164427685e-07,-5.464106060370205e-07,-8.089657938904566e-07,-3.9643480944463384e-07,-1.296484953595721e-06,-2.537480997380868e-07,-3.2893837625117853e-07,-1.1431669187238883e-06,-1.5963569216040084e-06,-9.794080998893305e-07,-1.8995948880791733e-06,-2.2590460432045184e-06,-1.414745855991303e-06,-1.791028368865361e-06
-7.114595185378724e-07,1.2999736415064269e-06,-5.744331720110211e-07,-3.1855645861919435e-07,-6.16969575825215e-07,-5.063924896906225e-07,-6.939222873195522e-07,-3.2792537632895055e-07,-1.2288687590038316e-06,-2.400237726257517e-07,-3.0904832036980513e-07,-1.0988378420898615e-06,-1.583692087849791e-06,-9.834305002360057e-07,-1.8763201615628813e-06,-2.291795758033168e-06,-1.4424947722891256e-06,-1.7622039184304338e-06
-3.375821538923915e-07,1.3681719898816332e-06,-5.41689547587059e-07,-2.979732583865506e-07,-5.747253883095149e-07,-4.6457535776053377e-07,-6.157580174314999e-07,-2.4107751359137105e-07,-1.1615748586486215e-06,-2.340428650772437e-07,-2.974344142866309e-07,-1.1203623316017294e-06,-1.5882044841028318e-06,-1.010478226147365e-06,-1.8608418876242273e-06,-2.379621468932471e-06,-1.4916778804757228e-06,-1.7466085173120594e-06
-9.31748116739386e-08,1.3647404032034331e-06,-5.198905618174979e-07,-2.8461778704456286e-07,-5.365637091826966e-07,-4.2970130178491896e-07,-6.927191767275417e-07,-1.4772437253829513e-07,-1.112216466618817e-06,-2.411090311323442e-07,-3.004177945174634e-07,-1.180967375680254e-06,-1.6246820963806222e-06,-1.0662505863591555e-06,-1.8662635571029544e-06,-2.5031712081900282e-06,-1.57188837876446e-06,-1.75566906056058e-06
-2.3843919930854437e-08,1.220705968237442e-06,-5.184563601672491e-07,-2.842519280603992e-07,-5.140170793980971e-07,-4.17567699849962e-07,-7.966270328019892e-07,-6.21232100669691e-08,-1.0973426760938274e-06,-2.6313456037151646e-07,-3.199188157710024e-07,-1.2201630905511316e-06,-1.6957976211983233e-06,-1.150393525349765e-06,-1.9003553059238686e-06,-2.6566954187265734e-06,-1.6666427266557026e-06,-1.7947901936117537e-06
-1.1197727495056519e-07,9.34060706827124e-07,-5.426664612342066e-07,-3.002489686558277e-07,-5.189591706864405e-07,-4.4302966299258736e-07,-8.918576754376135e-07,-6.35215408215344e-09,-1.1261022414722896e-06,-2.9449480191936774e-07,-3.5270634068096213e-07,-1.2863910914001081e-06,-1.7941089646738253e-06,-1.241492539980508e-06,-1.9626383792173496e-06,-2.805896349198397e-06,-1.7696047525532555e-06,-1.8596800150306865e-06
-2.978596437297739e-07,4.6653627573687725e-07,-5.906887194208714e-07,-3.311808279845402e-07,-5.566022135710251e-07,-5.062834697925216e-07,-1.1317557207320192e-06,8.3271612168192e-09,-1.1942771808555259e-06,-3.230154014654284e-07,-3.9115272211013544e-07,-1.4063822237352866e-06,-1.8800322199361316e-06,-1.3018622686003523e-06,-2.043928448362369e-06,-2.8434849107480195e-06,-1.820154476788609e-06,-1.93630197882593e-06
-5.067088914833678e-07,-7.859476675487761e-08,-6.537900444569949e-07,-3.7023555897577655e-07,-6.239825132237858e-07,-5.969678885859695e-07,-1.4591082016075222e-06,-1.9622008635393498e-08,-1.2876585284042781e-06,-3.3679336170797e-07,-4.2522781784984105e-07,-1.4965318303572603e-06,-1.9013827073155574e-06,-1.3058432616519021e-06,-2.1292848885312484e-06,-2.776580707047446e-06,-1.7953741787412298e-06,-2.0050462689574327e-06
-6.720078501063605e-07,-5.364655136060698e-07,-7.195086864281938e-07,-4.068905978035992e-07,-7.086449878333124e-07,-6.944932865771366e-07,-1.713847592887081e-06,-8.682621885853183e-08,-1.3835177809436852e-06,-3.251161100009874e-07,-4.4483061442905527e-07,-1.505147608112157e-06,-1.8618871756216077e-06,-1.2952792360057818e-06,-2.2016587174353644e-06,-2.7144714634304058e-06,-1.7436351469626463e-06,-2.046797542988679e-06
-7.560239901194014e-07,-8.042657957512101e-07,-7.756403423006164e-07,-4.299341165731485e-07,-7.94213893681264e-07,-7.301439122278055e-07,-1.7608958866263928e-06,-1.825896105634342e-07,-1.4607951564475242e-06,-2.840755655132062e-07,-4.420153626625227e-07,-1.507611109588613e-06,-1.8012988381166373e-06,-1.2772051353995017e-06,-2.2478908469547693e-06,-2.6632291915381182e-06,-1.6948268464319246e-06,-2.048878581419602e-06
-7.603112361420058e-07,-8.441862550107006e-07,-8.134577821128198e-07,-4.3088671260472154e-07,-8.663776465490085e-07,-6.767770963205528e-07,-1.6548677700522465e-06,-2.950900642093534e-07,-1.5052995221435475e-06,-2.18720597253375e-07,-4.1320960423202416e-07,-1.5046837788873595e-06,-1.7673205346228449e-06,-1.3064256049186977e-06,-2.262321648565144e-06,-2.609181231122069e-06,-1.6427735420455294e-06,-2.009405647954963e-06
-7.138069349650166e-07,-7.331040751934532e-07,-8.293319453084598e-07,-4.067080588949063e-07,-9.153555703893287e-07,-6.437089074785616e-07,-1.4307834748885476e-06,-4.122349007342192e-07,-1.5112934020765273e-06,-1.4113705031232693e-07,-3.60376138583944e-07,-1.5297454507343137e-06,-1.7430651902849417e-06,-1.3152642769949337e-06,-2.2482878631322937e-06,-2.5477459833781094e-06,-1.614127990219246e-06,-1.937793702102228e-06
-6.373670578737052e-07,-5.956921659173009e-07,-8.24281718831683e-07,-3.6044678795407384e-07,-9.380753298755629e-07,-6.106563187035376e-07,-1.3271253355511466e-06,-5.225841227260672e-07,-1.481525736779163e-06,-6.567638195709985e-08,-2.898837857142651e-07,-1.449751912037739e-06,-1.6648566328862755e-06,-1.2635138021641318e-06,-2.2160010479775325e-06,-2.3607144451288256e-06,-1.5519783492550465e-06,-1.850811432130181e-06
-5.167926300750903e-07,-5.20875814355098e-07,-8.021587754870698e-07,-2.995821425963275e-07,-9.353170822861791e-07,-5.45251070553974e-07,-1.2682816212849744e-06,-6.126634738947649e-07,-1.4239641118450354e-06,-2.866136604455401e-09,-2.0992658656412003e-07,-1.3380779652122812e-06,-1.5577686537100235e-06,-1.1765362268650248e-06,-2.1770833012395424e-06,-2.1039699117326504e-06,-1.454036403305039e-06,-1.7665256092000984e-06
-3.4508816590156015e-07,-5.783958686838417e-07,-7.677746744169985e-07,-2.3307832181298745e-07,-9.118856646073068e-07,-4.7633158027134313e-07,-1.043538030978488e-06,-6.704285375816603e-07,-1.342953278938229e-06,4.3335772903308286e-08,-1.2848379260515317e-07,-1.2537538678169817e-06,-1.4576002123820607e-06,-1.0950202168739988e-06,-2.1402857900964144e-06,-1.875861088455619e-06,-1.3497209245273448e-06,-1.6987766866446984e-06
-3.418790214727942e-08,-7.234808629112601e-07,-7.255403012261498e-07,-1.6956872975336444e-07,-8.71392487761278e-07,-3.699008805868041e-07,-8.669456704896979e-07,-6.799190918665797e-07,-1.2432533386583061e-06,8.117228787317012e-08,-5.2440533201469526e-08,-1.1520655379224697e-06,-1.3803498738237433e-06,-1.0191222397876864e-06,-2.1086542293947073e-06,-1.728229388320484e-06,-1.2994702336969134e-06,-1.6542877290049338e-06
3.908627341774413e-07,-8.713191489557464e-07,-6.78891631629556e-07,-1.1202724316974418e-07,-8.150946161779894e-07,-2.7598420241893186e-07,-5.969804716404874e-07,-6.377324424877421e-07,-1.129170069555696e-06,1.2158887194163906e-07,1.2455829212581134e-08,-1.0631868001739435e-06,-1.29210024424304e-06,-9.740229701354884e-07,-2.0810052098504573e-06,-1.6657220658056786e-06,-1.2820182134446271e-06,-1.6332633403272672e-06
8.457360904138114e-07,-8.719568332671432e-07,-6.306264765383012e-07,-6.206084140489937e-08,-7.470445043773049e-07,-1.7967367940634955e-07,-3.068828674884479e-07,-5.406193707047704e-07,-1.0219988608628638e-06,1.7195573265892158e-07,6.12975581653807e-08,-9.849723669719155e-07,-1.2478005132009378e-06,-9.54684301813695e-07,-2.0530988099112864e-06,-1.636904044347648e-06,-1.2307064972254366e-06,-1.631848371823257e-06
1.2634764734227967e-06,-6.230140642847698e-07,-5.833065193586105e-07,-2.0099364188130488e-08,-6.706109797765254e-07,-7.141130330443438e-08,-5.130568360397431e-08,-4.0085777491191173e-07,-9.262225979656757e-07,2.3415613065035933e-07,9.026480846899987e-08,-9.018048825815058e-07,-1.23790180326486e-06,-9.510504841515532e-07,-2.020498651902191e-06,-1.6090450889087199e-06,-1.1734093362881645e-06,-1.644030617897371e-06
1.5677430909578603e-06,-1.468693941216502e-07,-5.389703879643158e-07,1.4946792659810735e-08,-5.873839421038933e-07,-3.648977053320146e-09,1.9337857940907227e-07,-2.3350523784946733e-07,-8.438817036071115e-07,2.9373921688810213e-07,9.764766013299354e-08,-8.375980529562908e-07,-1.231592552700183e-06,-9.58409294011896e-07,-1.9805446255165587e-06,-1.561544195107662e-06,-1.1433967004145886e-06,-1.6629727398109871e-06
1.6792332406001648e-06,4.781694674733512e-07,-4.9869555435966e-07,4.374658030241727e-08,-5.181879947601357e-07,3.4213880881696744e-08,3.0603510374342777e-07,-8.62413383488801e-08,-7.815682446705491e-07,3.4858846355574166e-07,8.485522479840262e-08,-7.818446344929975e-07,-1.2564332329969254e-06,-9.639515394233243e-07,-1.933519444097575e-06,-1.508550150511992e-06,-1.1389422807569797e-06,-1.6827706316725966e-06
1.5676817446715098e-06,1.0853737107999239e-06,-4.628333639925431e-07,6.726063533929256e-08,-4.633386992532646e-07,4.7676997031863394e-08,3.5023639349897825e-07,6.13862647997127e-08,-7.397897847847878e-07,3.9497572178461773e-07,5.6884362130184714e-08,-7.34274272053219e-07,-1.298932866046781e-06,-9.690902497990844e-07,-1.8838215191430589e-06,-1.4423124610391813e-06,-1.1525543452539562e-06,-1.6998851107944352e-06
1.259556095163e-06,1.4841724067464471e-06,-4.303535755943683e-07,8.619126319192944e-08,-4.213922602820535e-07,3.553700241981948e-08,3.4528925052835657e-07,1.9244134711237566e-07,-7.514287939716227e-07,4.2598119693201656e-07,2.1998184854521157e-08,-6.966107799131152e-07,-1.3604584188847641e-06,-9.757856535408657e-07,-1.8386664751057395e-06,-1.3571447775216573e-06,-1.205681792730374e-06,-1.7133961172042459e-06
6.214626685317705e-07,1.5999215283080448e-06,-3.999372617340924e-07,1.0079960596563106e-07,-3.8018284207571764e-07,1.3296250117037344e-08,2.7090428917611066e-07,2.3357420547624629e-07,-8.010193834090307e-07,4.3110929690714983e-07,-1.0142811812668466e-08,-6.750203339103684e-07,-1.4256810592102136e-06,-9.827279347698172e-07,-1.8060374714802315e-06,-1.2687607470910269e-06,-1.2802368649297234e-06,-1.724832120708916e-06
-6.368064506818711e-08,1.4718281857892163e-06,-3.7154178519790016e-07,1.0943201899249276e-07,-3.6833106238169597e-07,-1.9615721227220084e-08,1.5868399441878624e-07,1.9586790167214333e-07,-8.922732125574139e-07,4.0472199518508593e-07,-3.1713940736582375e-08,-6.987167306414651e-07,-1.4576467138040248e-06,-9.90077289934502e-07,-1.7929345916902281e-06,-1.1728732065096907e-06,-1.3550974565566748e-06,-1.7381617311627975e-06
-6.275320385466908e-07,1.1675183418795215e-06,-3.4866040508297443e-07,1.0922699353775367e-07,-3.9535204432899136e-07,-6.901105667094364e-08,7.157863856840706e-08,7.545674225709457e-08,-1.00018820624777e-06,3.4639237250079997e-07,-3.929078316162925e-08,-7.511327941794604e-07,-1.4632637220647342e-06,-9.985759992397331e-07,-1.8042496971943248e-06,-1.0811905705590496e-06,-1.4386211171923348e-06,-1.7592010478783345e-06
-1.0317352406681535e-06,8.242654052771939e-07,-3.381186540977993e-07,9.664623078587832e-08,-4.5769088684650435e-07,-1.3473717312391456e-07,2.1656654426865465e-09,-9.208811909055368e-08,-1.0478608232663455e-06,2.721923420829344e-07,-3.4179724223710835e-08,-8.598466216135058e-07,-1.4506350164658847e-06,-1.0114123821139492e-06,-1.8419070519877863e-06,-1.013441571768361e-06,-1.489257297619899e-06,-1.793852811437464e-06
-1.1470466204053422e-06,5.588030643957114e-07,-3.4789355341384113e-07,6.880711863082844e-08,-5.882719269700608e-07,-2.1554771352233974e-07,-5.4339888096376586e-08,-2.1911488365469647e-07,-1.067950429318551e-06,2.4207081413401346e-07,-2.0942929044659956e-08,-1.0127913192493032e-06,-1.430981648768285e-06,-1.0334869919856472e-06,-1.9042478502127677e-06,-9.944793448030971e-07,-1.5211289644455404e-06,-1.8453384809958149e-06
-1.0576809158506243e-06,4.387757026274793e-07,-3.840883689210707e-07,2.5509029430625085e-08,-6.853090686043033e-07,-3.135788233267488e-07,-9.019824439561413e-08,-2.676941022027116e-07,-1.077887592524578e-06,2.392239742929648e-07,-5.179001221553326e-09,-1.0309143132942909e-06,-1.4253800671868465e-06,-1.0723729562372182e-06,-1.9853749621813405e-06,-1.0276753040762992e-06,-1.5443410480591526e-06,-1.911399294673066e-06
-1.2103368644775775e-06,5.224627631555082e-07,-4.475127085922684e-07,-3.02026212514345e-08,-6.72183479108221e-07,-4.0985147638388337e-07,-1.9385138191828185e-07,-3.3373359649155427e-07,-1.0631332220721802e-06,2.484915848444991e-07,8.498809059810953e-09,-1.0180334633409822e-06,-1.436226953398399e-06,-1.1304320633704557e-06,-2.0752954641184473e-06,-1.1141558770116126e-06,-1.5762224894414249e-06,-1.983675257225995e-06
-1.3862606420059383e-06,7.996099984770591e-07,-5.329211388218194e-07,-9.245544464192634e-08,-6.744952457590585e-07,-5.010371288008308e-07,-3.378497465145132e-07,-4.93431283694178e-07,-1.108023136275807e-06,2.4975470384865055e-07,1.7294397273806954e-08,-1.0397665820234244e-06,-1.463125196025562e-06,-1.2061636091847426e-06,-2.161943136577318e-06,-1.2421419696623093e-06,-1.610572769328878e-06,-2.0503992708959305e-06
-1.1654327916434479e-06,1.2395383597942773e-06,-6.307046567385335e-07,-1.440620755472088e-07,-7.048271963380092e-07,-5.832718775516384e-07,-4.936735201788344e-07,-7.524386391015893e-07,-1.2119944293436356e-06,2.0010777523837396e-07,1.968229479052002e-08,-1.0703103578920239e-06,-1.50335446058489e-06,-1.2933941870483001e-06,-2.2342579663594013e-06,-1.3930415296532892e-06,-1.6433343610456276e-06,-2.1004565924726746e-06
-8.573216617808201e-07,1.7451776637668086e-06,-7.300541137037096e-07,-1.9113451184770589e-07,-7.923601816288093e-07,-6.462564999299288e-07,-6.635960353975149e-07,-1.0477829565950796e-06,-1.325828554826016e-06,1.203797847845426e-07,1.4559728316416766e-08,-1.1194825288606435e-06,-1.549475612327927e-06,-1.386011831846182e-06,-2.2840004141305994e-06,-1.5508714362884895e-06,-1.6770140434871913e-06,-2.125869257194899e-06
-5.257962088894607e-07,2.152138598033792e-06,-8.215203283917637e-07,-2.2845999695212656e-07,-8.734462312544516e-07,-6.756644325345855e-07,-8.768395162563145e-07,-1.3627828667085265e-06,-1.4360730686578272e-06,3.929212385741048e-08,1.1601087714035854e-09,-1.2047942146237708e-06,-1.5945493240107185e-06,-1.4645507394897871e-06,-2.3066613372170167e-06,-1.6738170323738764e-06,-1.703371450227506e-06,-2.122158398828188e-06
-1.2404739984960008e-07,2.4390032801858487e-06,-8.984339843107488e-07,-2.4926108970887116e-07,-9.193064179353139e-07,-6.652873746872132e-07,-1.124938491524105e-06,-1.5574598564493577e-06,-1.5049734343867002e-06,1.0451745631932154e-08,-2.0209526387434532e-08,-1.2964301885852932e-06,-1.6321817952827063e-06,-1.529322314171227e-06,-2.3008399896127387e-06,-1.7837517279580882e-06,-1.7245102773973066e-06,-2.087416481335529e-06
7.537148960095841e-08,2.540015509295901e-06,-9.56722293602581e-07,-2.5528247297671333e-07,-9.071779174109123e-07,-6.364901932659911e-07,-1.3943298197270308e-06,-1.6330562446171477e-06,-1.5178238623958323e-06,-3.818944607947917e-09,-4.7350841351476656e-08,-1.3941130730122072e-06,-1.6559850715594596e-06,-1.5802896726262362e-06,-2.267378345995999e-06,-1.8753539785716121e-06,-1.7378262455946007e-06,-2.0216467640356703e-06
1.1054666835082678e-07,2.4508377358759232e-06,-9.93682926485871e-07,-2.4258541679924647e-07,-8.795163998328683e-07,-5.799571542024563e-07,-1.6756225283986593e-06,-1.6284154057480015e-06,-1.458097729101792e-06,-7.402911976743865e-09,-7.613732909225286e-08,-1.4534213630295693e-06,-1.6400890380490553e-06,-1.6046008113648086e-06,-2.209012327151841e-06,-1.8961673528353323e-06,-1.7399963863360716e-06,-1.9269201317546983e-06
1.204912857026081e-07,2.2216351564165955e-06,-1.007149222218745e-06,-2.1144067487152012e-07,-8.665112415264288e-07,-5.705197690663825e-07,-1.883465486922785e-06,-1.4839460905298695e-06,-1.458055136321178e-06,7.1866422399237715e-09,-1.0119362735969918e-07,-1.4452447234427444e-06,-1.6061544160116823e-06,-1.5984855431529852e-06,-2.129374457464162e-06,-1.8589042713127242e-06,-1.7188575704161414e-06,-1.8074964997928357e-06
1.5604077840735453e-07,1.9064105209722e-06,-9.957912554197419e-07,-1.6347411026292302e-07,-8.871483688555419e-07,-5.952610473041732e-07,-2.0167598735795005e-06,-1.5533934580603789e-06,-1.5628676849918427e-06,-3.5134352185380395e-08,-1.1656750172670168e-07,-1.3596308260717427e-06,-1.548916021821564e-06,-1.5226510925674643e-06,-2.032166037881898e-06,-1.7964043355187497e-06,-1.672363764447e-06,-1.669054520113806e-06
3.228628070331954e-07,1.5989551664225412e-06,-9.599560246917606e-07,-1.2006413928036013e-07,-9.32112546404514e-07,-5.86217568611374e-07,-2.0768539093174594e-06,-1.6509317719210879e-06,-1.6571349861402342e-06,-5.365739970760392e-08,-1.163435429450745e-07,-1.3485118462140982e-06,-1.4571008719294423e-06,-1.4223812872408074e-06,-1.9200418284792423e-06,-1.6822764754785853e-06,-1.5948227957596341e-06,-1.5176926194548267e-06
5.791008082585962e-07,1.347812577146988e-06,-9.030965635633487e-07,-5.616124817233298e-08,-9.796204617765138e-07,-5.658751669500121e-07,-2.051359241702155e-06,-1.7038290684018852e-06,-1.7159139148446854e-06,-2.1636532480948557e-08,-9.566340800981494e-08,-1.4209873784303946e-06,-1.373959953577067e-06,-1.3556170731688081e-06,-1.795014242857506e-06,-1.5876939796169194e-06,-1.4818701304876017e-06,-1.3598990701586756e-06
8.278626943209388e-07,1.1497597499670871e-06,-8.322123593921238e-07,2.55719817222413e-08,-9.812996701406677e-07,-4.7619886562679755e-07,-1.94783327066461e-06,-1.6091006663575473e-06,-1.6938588906242346e-06,2.9093955247116626e-08,-5.2067143625522716e-08,-1.500447795012855e-06,-1.2489590191087854e-06,-1.3652879606304085e-06,-1.661680691051061e-06,-1.549368361954115e-06,-1.3397376136292515e-06,-1.2032387990259205e-06
1.0192061359079287e-06,9.869477439539593e-07,-7.567784639688647e-07,1.1324910696531085e-07,-9.0575127221666e-07,-3.435158459293432e-07,-1.7852205929720919e-06,-1.431382554105347e-06,-1.5884842868026553e-06,1.2647940265693123e-07,1.332070727489025e-08,-1.5203338505884425e-06,-1.0914445318769376e-06,-1.3657182138213907e-06,-1.5277677273292683e-06,-1.4059055000545153e-06,-1.1775849155647503e-06,-1.0566755378551205e-06
1.0371082396356778e-06,8.37571670339517e-07,-6.863606432454777e-07,2.069362689548983e-07,-7.982122826930224e-07,-2.3870415833948274e-07,-1.5905532502188247e-06,-1.227333077318313e-06,-1.4415786311182257e-06,2.247897643441953e-07,9.538709473589709e-08,-1.4300738898494535e-06,-9.296474698653266e-07,-1.3142955399432568e-06,-1.403005923959582e-06,-1.2175246457015907e-06,-1.0096666335110432e-06,-9.292982926011852e-07
8.623043284450775e-07,6.951788926147903e-07,-6.277819161508933e-07,2.916238042521215e-07,-6.643944731277659e-07,-1.5708750355711944e-07,-1.3898263671613594e-06,-9.79400361558995e-07,-1.2840178481674032e-06,3.056803629538387e-07,1.8611160014676786e-07,-1.297319454369975e-06,-7.423352012993965e-07,-1.1957599097181075e-06,-1.2963124264445942e-06,-9.872946276435137e-07,-8.506996363999113e-07,-8.275562311969704e-07
5.557208348600778e-07,5.965067307714936e-07,-5.831476792514707e-07,3.604954993697082e-07,-5.296703156362337e-07,-8.870392942112319e-08,-1.2170642535595082e-06,-8.108891799983822e-07,-1.166395196817064e-06,3.724804143144489e-07,2.768423481812777e-07,-1.1694820698588406e-06,-5.817369971838641e-07,-1.065549802182969e-06,-1.2123622005786064e-06,-7.260976538702173e-07,-7.110810199232523e-07,-7.527956769552586e-07
1.478660978205035e-07,5.756265999787249e-07,-5.493934232781206e-07,4.118421747801137e-07,-4.166255616043349e-07,-3.836987376986391e-08,-1.0691450987935883e-06,-7.209540134323413e-07,-1.0774985397013612e-06,4.2880659194428e-07,3.605799737582971e-07,-1.04414570470924e-06,-4.534974659004488e-07,-9.387343462063163e-07,-1.1501149313005022e-06,-5.450717517647223e-07,-5.954541675467078e-07,-7.006084031469983e-07
-8.297791112179647e-08,6.53957924056934e-07,-5.19600452447978e-07,4.617542767215224e-07,-3.274258126589498e-07,5.8363729991382795e-09,-9.313626139963634e-07,-6.658468952909303e-07,-1.0075521867577378e-06,4.734064022092436e-07,4.334805195738422e-07,-9.769093438197306e-07,-3.461855010150158e-07,-8.418529739727549e-07,-1.1035687232158145e-06,-4.220434888334649e-07,-5.025350933412024e-07,-6.620797927208709e-07
-1.876468839155427e-07,8.511176363346884e-07,-4.853006672244987e-07,4.952481103801695e-07,-2.513453600874922e-07,4.8081384343426685e-08,-7.897072415556436e-07,-5.873176274137582e-07,-9.421633176047246e-07,4.868268115254665e-07,4.9514423183565e-07,-9.219434787133201e-07,-2.6567867934307233e-07,-7.807395617465466e-07,-1.0643825394248724e-06,-3.4441580851364755e-07,-4.2668851253529133e-07,-6.265206592394445e-07
-2.61704046024546e-07,1.1584204044385118e-06,-4.3925597443725687e-07,5.197031310055016e-07,-1.739533426813716e-07,6.600009756352876e-08,-6.26480104371755e-07,-5.042311629042635e-07,-8.58096683314662e-07,4.809982388171897e-07,5.477514205839116e-07,-8.659818430934236e-07,-1.9354090157154142e-07,-7.165345884148701e-07,-1.0234251640831918e-06,-2.646690490922688e-07,-3.60394942882976e-07,-5.848225279973671e-07
-2.810327602898771e-07,1.5273253797524702e-06,-3.7774533396738734e-07,5.476887442226461e-07,-8.334136554651395e-08,7.900328956872232e-08,-4.361582567082496e-07,-4.1039921471167605e-07,-7.823736084888465e-07,4.647434794169205e-07,5.947009402767262e-07,-8.065153239749883e-07,-1.22300192621836e-07,-6.465652976762252e-07,-9.746034650396493e-07,-2.0010833134875252e-07,-2.999151293163248e-07,-5.322817593111604e-07
-2.3116479031043056e-07,1.861126384388854e-06,-3.0165213810327685e-07,5.786454418459687e-07,1.3830076717058411e-09,1.0145864592992117e-07,-2.2300286176178006e-07,-2.895918872974273e-07,-7.013105325572014e-07,4.46282812587776e-07,6.39388122996061e-07,-7.476600539608056e-07,-4.9569232296356877e-08,-5.644584750923019e-07,-9.17091388091781e-07,-1.4420368282554504e-07,-2.3903830687547864e-07,-4.700747879957575e-07
-1.8217668135619338e-07,2.058217439283575e-06,-2.1630853097381872e-07,6.189347515613093e-07,8.594683512259304e-08,1.316225560631534e-07,2.5354431634442267e-10,-1.7233829051122463e-07,-6.097262396158052e-07,4.3669788215955145e-07,6.843601410335763e-07,-6.882431692918876e-07,2.781894501293507e-08,-4.876758940676273e-07,-8.55303882682119e-07,-8.194188434100902e-08,-1.7100402714218372e-07,-4.0500888946131065e-07
-1.494124093420009e-07,2.0363469627952066e-06,-1.3003461139095103e-07,6.658086964834303e-07,1.7163837852650706e-07,1.632792478532547e-07,2.1328547788805335e-07,-6.580341423589059e-08,-5.269233437203229e-07,4.3563321568918693e-07,7.310197898202002e-07,-6.208075567073525e-07,1.0960037493200397e-07,-4.1632563127017895e-07,-7.97696800828762e-07,-2.0468575326068393e-08,-9.717513273971758e-08,-3.4751956687476734e-07
-1.728027464065816e-07,1.7676579130585102e-06,-5.219169105309122e-08,7.123993637762376e-07,2.416581398287787e-07,1.8692396474065277e-07,3.9325102561703705e-07,8.46515461908306e-09,-4.6124716571707333e-07,4.3582793126801855e-07,7.797660479657268e-07,-5.477947091186145e-07,1.9328675435590647e-07,-3.4253395398609985e-07,-7.535355059895217e-07,4.875590112847359e-08,-1.992937815004147e-08,-3.087491564442378e-07
-2.5584062573757907e-07,1.3021343580443639e-06,8.939056263167885e-09,7.481553177679159e-07,2.924423655054654e-07,1.936350722570829e-07,5.204237727644324e-07,-1.6243610857888268e-08,-4.274606916216135e-07,4.358409830640269e-07,8.30103331485191e-07,-4.6843038333513375e-07,2.75225696066704e-07,-2.6734885465039165e-07,-7.300005026196373e-07,1.1688456816829531e-07,5.670541595567612e-08,-2.975729127050085e-07
-3.653186234696942e-07,7.583644242538479e-07,4.7484992400078704e-08,7.72079386684072e-07,3.145641511652937e-07,1.7731189523173637e-07,5.829347963076828e-07,-1.0890532656007552e-07,-4.361710304571292e-07,4.3936034844814944e-07,8.806978844343699e-07,-3.964007056115514e-07,3.516657941338556e-07,-1.881774468561778e-07,-7.300122574496416e-07,1.7456862944058377e-07,1.2691563426011785e-07,-3.1787814712570836e-07
-4.654731467155673e-07,2.953189931204439e-07,6.085519008639884e-08,7.796218085498726e-07,3.01677918201515e-07,1.4367853502284808e-07,5.793316101317388e-07,-1.7279929816853188e-07,-4.840461937592379e-07,4.4282388120790105e-07,9.294591571720934e-07,-3.3622266067079757e-07,4.202205250230519e-07,-1.1489343777377706e-07,-7.510132422242112e-07,2.0681787128061545e-07,1.8685156796129814e-07,-3.6695371440103025e-07
-4.953533656591855e-07,5.477785237506228e-08,4.96481892596711e-08,7.676618307260676e-07,2.5755957677878007e-07,9.246215187519734e-08,5.185170028248827e-07,-3.1303613289195947e-07,-5.583111660393129e-07,4.4545536850284646e-07,9.735107000435419e-07,-2.8793154120351945e-07,4.803902987501811e-07,-4.948425747300498e-08,-7.856505300472865e-07,2.2656089664832104e-07,2.3495091313363978e-07,-4.360188704099959e-07
-4.2619534538818386e-07,1.1017702069926338e-07,1.706655047908513e-08,7.3912706054584e-07,1.9473779450217238e-07,2.7023680799079998e-08,4.1815353691483464e-07,-5.534041442446166e-07,-6.498176421795793e-07,4.474075772913726e-07,1.0093268994326814e-06,-2.4637098395537e-07,5.333271193189121e-07,9.19880188225199e-09,-8.241061880641131e-07,2.407854302151099e-07,2.702096133139176e-07,-5.129875622880898e-07
-2.729528935439218e-07,4.397243323127289e-07,-3.15925157968779e-08,6.968162029285141e-07,1.2061886229405625e-07,-4.447660913013854e-08,3.0253003435683334e-07,-7.646322517407425e-07,-7.455102839318525e-07,4.4679872019134905e-07,1.0333995237860294e-06,-2.1151154681481728e-07,5.828387308359937e-07,6.603714458706995e-08,-8.573755594273854e-07,2.525073222285782e-07,2.928842363970547e-07,-5.865159519891428e-07
-8.49185298217622e-08,9.464674871560998e-07,-8.96025589038837e-08,6.465770413556282e-07,4.447078091405252e-08,-1.155056816172199e-07,1.991498989474706e-07,-8.977751499298151e-07,-8.310133601220187e-07,4.4322772132707867e-07,1.0432606602747746e-06,-1.8538676982729933e-07,6.297981857194626e-07,1.210965679086054e-07,-8.798918964899321e-07,2.688826209576126e-07,3.0607444883522655e-07,-6.493133971738002e-07
7.088570573917363e-08,1.5010243856984625e-06,-1.4931001055428575e-07,5.950075435484667e-07,-2.2748355944292424e-08,-1.779271418121839e-07,1.334698094473191e-07,-9.444369598999663e-07,-8.953608288369559e-07,4.355884237119384e-07,1.0383855925612147e-06,-1.6872564365787358e-07,6.739369210315156e-07,1.719200161726077e-07,-8.901012464040232e-07,2.869168599266028e-07,3.1289574234285227e-07,-6.992334269469568e-07
1.4134119284260175e-07,1.976766468098369e-06,-2.028243833132093e-07,5.476711938518039e-07,-7.340354199241518e-08,-2.2490222194928932e-07,1.2290957530967675e-07,-8.654357340384419e-07,-9.282916667097836e-07,4.2233690844346893e-07,1.0203070991228175e-06,-1.6479879188135806e-07,7.141854024767125e-07,2.1642805055165716e-07,-8.894587482347605e-07,2.9983756995864297e-07,3.154712588202012e-07,-7.383335825359613e-07
1.025789949441546e-07,2.3061920509517476e-06,-2.4308188337231204e-07,5.08749602050505e-07,-1.0004781985515576e-07,-2.5212026016037415e-07,1.7196209008223284e-07,-8.398294052308394e-07,-9.238507251058938e-07,4.0249908791423673e-07,9.915686922653594e-07,-1.7576094033126352e-07,7.470094034020418e-07,2.4976669729021575e-07,-8.813552765235018e-07,2.96568327252822e-07,3.1387926014623306e-07,-7.716863102152609e-07
-3.373261739810092e-08,2.4855251843475665e-06,-2.6671265116228057e-07,4.80070576493762e-07,-9.961168631794896e-08,-2.5796278131504087e-07,2.7045845804325487e-07,-8.614566766508395e-07,-8.826072550524e-07,3.757350559464166e-07,9.544518149982034e-07,-2.0400092974823932e-07,7.682194336878007e-07,2.6829348327488507e-07,-8.705023272488085e-07,2.6516336394707833e-07,3.055238829067639e-07,-8.055912255661064e-07
-2.2546138740675397e-07,2.5557015744792956e-06,-2.738567847947164e-07,4.609427375250269e-07,-7.527064304154995e-08,-2.4404120989338566e-07,3.9641287337403125e-07,-7.866024805852411e-07,-8.093500820732563e-07,3.427496174881493e-07,9.107480578859304e-07,-2.506628942722822e-07,7.723295877256311e-07,2.6978916505966873e-07,-8.610781234784322e-07,1.9895020076677753e-07,2.8824933443679337e-07,-8.449255016782505e-07
-4.2266225914115983e-07,2.572528545097685e-06,-2.6803657450041285e-07,4.4882301646789015e-07,-3.5375387536137324e-08,-2.1498951456945684e-07,5.222540596840411e-07,-6.245636535102958e-07,-7.146562416012814e-07,3.052298869588093e-07,8.621701391742682e-07,-3.134616960249139e-07,7.592404091553484e-07,2.544689745220792e-07,-8.556686649332821e-07,9.864236887530304e-08,2.597927036030677e-07,-8.916447302564982e-07
-5.877389929466434e-07,2.582389675512477e-06,-2.556572763219413e-07,4.4008409402456627e-07,8.182238914011154e-09,-1.7804294981749643e-07,6.214201032384922e-07,-4.755673608846554e-07,-6.136117869005028e-07,2.6486384586066354e-07,8.103011710387306e-07,-3.873254742870623e-07,7.312604833763249e-07,2.25364570312482e-07,-8.55741408002711e-07,-2.8004233983666974e-08,2.1807327557582656e-07,-9.45308052812115e-07
-6.980070386961382e-07,2.6025748801224583e-06,-2.443806843415136e-07,4.30770798303998e-07,4.2679400076436415e-08,-1.4204733176027262e-07,6.735354718576444e-07,-3.164015436824712e-07,-5.204514167070231e-07,2.228029491060588e-07,7.562445525984663e-07,-4.657122365515231e-07,6.927747083686152e-07,1.8717474404670503e-07,-8.620227101998869e-07,-1.7116330892681439e-07,1.6350828996453908e-07,-1.0038696593140654e-06
-7.357430202194865e-07,2.642989513928303e-06,-2.412861136610442e-07,4.177243615218288e-07,5.779795896649594e-08,-1.1511483409508112e-07,6.680258220637205e-07,-1.5745991555096057e-07,-4.5024538011697315e-07,1.8046172985307599e-07,7.00653151729071e-07,-5.414874112599245e-07,6.505336785213186e-07,1.4546445757164247e-07,-8.737558317969733e-07,-3.184424921063297e-07,9.794069653487206e-08,-1.0632896521284858e-06
-6.845053599869149e-07,2.7141416537476787e-06,-2.504088442824202e-07,3.998302956925817e-07,4.850874389864245e-08,-1.012273005925877e-07,6.060913698204718e-07,-6.76638779739161e-08,-4.1213094022431195e-07,1.4067530760698925e-07,6.441775761206673e-07,-6.074057522753763e-07,6.114434852148538e-07,1.0611338630018195e-07,-8.874812630213961e-07,-4.5641933260473665e-07,2.5939695225385447e-08,-1.1166434270072677e-06
-5.332412915675117e-07,2.8166770524128873e-06,-2.710726019478775e-07,3.788307619435694e-07,1.674220840792243e-08,-9.740903207262681e-08,5.007159081134889e-07,-2.5850127205027998e-08,-4.001059661541234e-07,1.0807421020467525e-07,5.881682000378764e-07,-6.563114156721128e-07,5.832381326045036e-07,7.497030291770739e-08,-8.964973488288179e-07,-5.629150060996926e-07,-4.4412828631222505e-08,-1.1539426885379442e-06
-2.7991364664487256e-07,2.9478089746724422e-06,-2.976913306321421e-07,3.591927308898237e-07,-2.8873430384541544e-08,-9.355802758775784e-08,3.7409255621932377e-07,-2.0262753923899207e-08,-4.183614011828443e-07,8.801873291354099e-08,5.351912598170391e-07,-6.817587687603103e-07,5.734736591252682e-07,5.7413991142328807e-08,-8.918445361101559e-07,-6.275626689022159e-07,-1.033845581583161e-07,-1.1642782419482817e-06
6.326972684445423e-08,3.0892249212475895e-06,-3.2241649837114215e-07,3.464479613463316e-07,-7.59406318841099e-08,-7.621650876158613e-08,2.5171567654355964e-07,-3.8709396987515625e-08,-4.225654928383491e-07,8.379509949983245e-08,4.885540284595619e-07,-6.801908026386501e-07,5.876445901898809e-07,5.7042357190239484e-08,-8.64728342674527e-07,-6.550071116944653e-07,-1.4291452694278166e-07,-1.1384620683735693e-06
4.667920038551719e-07,3.2001722552588314e-06,-3.3904906714125334e-07,3.4433349550704296e-07,-1.1332264543902154e-07,-3.301545964932388e-08,1.5401452735249848e-07,-5.8506552380471317e-08,-4.0148079803037217e-07,9.347882960593958e-08,4.5100078870617306e-07,-6.513384928971141e-07,6.249674013476184e-07,7.383536306557607e-08,-8.150037444838441e-07,-6.364859399567187e-07,-1.5995051346199835e-07,-1.0797856974789551e-06
8.875045339353336e-07,3.18556945833244e-06,-3.4612141010553873e-07,3.5242091471016514e-07,-1.3579529384234865e-07,3.595634033082371e-08,8.866043908404436e-08,-8.622945148618857e-08,-3.6384680250276505e-07,1.089858436465524e-07,4.2368843306278646e-07,-6.075253149556855e-07,6.772474583618023e-07,1.0323913735435831e-07,-7.54466838117243e-07,-5.897283795659398e-07,-1.5840826198036995e-07,-1.0036551858323926e-06
1.274626731146133e-06,2.945167080859913e-06,-3.476956904618166e-07,3.6558310520508807e-07,-1.4610744054740453e-07,1.1811145093391874e-07,4.682732066082199e-08,-1.3477022702421525e-07,-3.4411119238766873e-07,1.1820000753272291e-07,4.057552833418067e-07,-5.616507593869529e-07,7.317122610586846e-07,1.368147000521266e-07,-7.000892132395397e-07,-5.414034221562396e-07,-1.4866761648226117e-07,-9.3286487503321e-07
1.5724674120290561e-06,2.397255420072518e-06,-3.518295282276868e-07,3.753871395980545e-07,-1.5394814148504913e-07,1.929604161040197e-07,5.3078791840876505e-09,-2.149403291746706e-07,-4.0478221177542e-07,1.0921236388163562e-07,3.942429101826816e-07,-5.305032759303919e-07,7.735314498422884e-07,1.6418716917263775e-07,-7.030781220945208e-07,-5.141707217769391e-07,-1.4378861718341175e-07,-9.297458126134496e-07
1.7259723408650217e-06,1.5955505920399655e-06,-3.6755940496984627e-07,3.730062613486349e-07,-1.7214577716007265e-07,2.0261505796223103e-07,-6.532275159135254e-08,-3.346822447803752e-07,-5.124013696120094e-07,7.509144212460803e-08,3.846045627478414e-07,-5.704805078992838e-07,7.90770076167511e-07,1.758693812183053e-07,-7.553434388641235e-07,-5.30410468441475e-07,-1.5535744032121672e-07,-9.76847616304633e-07
1.6934922998332795e-06,6.054962091304022e-07,-4.014648799751713e-07,3.526052720988091e-07,-2.1142428812288387e-07,1.656227941565714e-07,-1.8911826389567941e-07,-4.939082649011636e-07,-6.469883482601827e-07,1.6867247364881793e-08,3.71885650478681e-07,-6.237398316641624e-07,7.782825694157621e-07,1.659112118820858e-07,-7.976933318796996e-07,-5.974098583369395e-07,-1.9028028310492393e-07,-1.0307004322235572e-06
1.4599432895458465e-06,-4.268408731596201e-07,-4.551175630312675e-07,3.1341970500987746e-07,-2.7644415767074686e-07,1.227161096821122e-07,-3.7486651606769824e-07,-6.842615969873236e-07,-6.935416189625278e-07,-5.7146283074574655e-08,3.520214200062555e-07,-6.59494519455988e-07,7.383243991065037e-07,1.3331110053149982e-07,-8.503404508393199e-07,-7.036957447001176e-07,-2.493706662559368e-07,-1.0850489081820932e-06
1.0429050624803991e-06,-1.2941152125605708e-06,-5.260634520738565e-07,2.5955386317116037e-07,-3.6508006819890813e-07,7.955054314103197e-08,-6.124866029981355e-07,-8.922339023979836e-07,-7.843072372890021e-07,-1.3505069878707175e-07,3.228982091083715e-07,-7.537498340481183e-07,6.799448918567602e-07,8.200504487398056e-08,-9.568133232572812e-07,-8.258737934251514e-07,-3.209497542561357e-07,-1.2210097727732014e-06
4.905532043634246e-07,-1.8650943186075438e-06,-6.075468335069437e-07,1.9800998023296942e-07,-4.7039094700021934e-07,-3.980528357632304e-08,-8.771983636659755e-07,-1.1030892917448303e-06,-9.560763794380058e-07,-2.0580605975143084e-07,2.8496983023928676e-07,-8.857550533612041e-07,6.146747600567751e-07,1.9501301393280352e-08,-1.096663403013195e-06,-9.444335419524994e-07,-3.9897950147997554e-07,-1.3726734819675205e-06
-1.265230463134992e-07,-2.162431316116823e-06,-6.917087124263876e-07,1.3606746262699727e-07,-5.834555711947332e-07,-1.7522112604755265e-07,-1.1389430781084429e-06,-1.303936323770994e-06,-1.1363432706279753e-06,-2.6243759920352527e-07,2.4113545218902596e-07,-1.003654857438992e-06,5.538476268547821e-07,-4.5516125198168466e-08,-1.2052556224099232e-06,-1.0413538951063251e-06,-4.835725849873818e-07,-1.488933641838226e-06
-7.259542349451522e-07,-2.1987120563488305e-06,-7.689406957375758e-07,7.919839464960314e-08,-6.956443971531175e-07,-2.803279301666981e-07,-1.3717865116216112e-06,-1.48561246366931e-06,-1.3127319913277946e-06,-3.028257162515586e-07,1.960920798497719e-07,-1.095198816417359e-06,5.061741685047008e-07,-1.0543064076613551e-07,-1.2843928294663474e-06,-1.1159329552832868e-06,-5.652161490790232e-07,-1.5730031540294963e-06
-1.227924898339095e-06,-2.024540874624402e-06,-8.35587004180268e-07,3.0257273105451514e-08,-7.998975509792903e-07,-3.5873266848339045e-07,-1.5592648357269267e-06,-1.6436123474835919e-06,-1.4683799834825182e-06,-3.283525718015222e-07,1.5539870062409872e-07,-1.164848396471204e-06,4.7673396688063236e-07,-1.548884147797239e-07,-1.3448552419463086e-06,-1.1660044199412378e-06,-6.393447842803662e-07,-1.6337339872480128e-06
-1.5725472820293558e-06,-1.8543631577778063e-06,-8.905406905131277e-07,-1.0233872674125726e-08,-8.912834491941504e-07,-4.180994755150022e-07,-1.6952971214861725e-06,-1.7781954640047246e-06,-1.5705136644003853e-06,-3.419544252163167e-07,1.2412180039925384e-07,-1.208072762882853e-06,4.6710508916502836e-07,-1.9112322827839108e-07,-1.3875830220350884e-06,-1.19246772690747e-06,-7.038575309482869e-07,-1.6744932665958567e-06
-1.7334731148007035e-06,-1.6514933357947764e-06,-9.36199717906052e-07,-4.3156931353584357e-08,-9.669358470255113e-07,-4.5990946695381205e-07,-1.7820743054831276e-06,-1.8932660284969955e-06,-1.6383741732982234e-06,-3.466127464918793e-07,1.0541154682439054e-07,-1.2268934314022033e-06,4.753471461317519e-07,-2.1362446488262297e-07,-1.4180574438279158e-06,-1.2040985796159264e-06,-7.562459961404712e-07,-1.7027359346262146e-06
-1.7202586727439165e-06,-1.3598689600245025e-06,-9.728388283249143e-07,-6.964617508877047e-08,-1.025416641945322e-06,-4.887189172779599e-07,-1.8264810163469383e-06,-1.9942191648629334e-06,-1.7087253506463858e-06,-3.446196917394833e-07,9.965224017815088e-08,-1.2257261494161666e-06,4.970092169699988e-07,-2.234097310409633e-07,-1.4410019393644747e-06,-1.2034935807282004e-06,-7.982598680619484e-07,-1.7247171501146429e-06
-1.5681071166201537e-06,-9.667180583325702e-07,-9.998730974784138e-07,-9.055614100472146e-08,-1.0663381683304676e-06,-5.079955002824205e-07,-1.8370407022495685e-06,-2.086254091620935e-06,-1.751668007098184e-06,-3.379744941544757e-07,1.042844616740519e-07,-1.210380122382663e-06,5.257866695845674e-07,-2.2268663457322368e-07,-1.4599191249927782e-06,-1.1927688412251047e-06,-8.348109639572803e-07,-1.7448432020269484e-06
-1.3230448268241468e-06,-5.058570211720919e-07,-1.0192655214130833e-06,-1.0693270869564123e-07,-1.0908077235216732e-06,-5.198295789260924e-07,-1.8226389971611946e-06,-2.1739389518481434e-06,-1.7848631403717939e-06,-3.292977188533239e-07,1.1454681241127797e-07,-1.187640603510763e-06,5.546212442665025e-07,-2.1486339541495995e-07,-1.4781234276572834e-06,-1.1809448692810627e-06,-8.69358155896214e-07,-1.7665850141230119e-06
-1.0336415872597193e-06,2.059502071538174e-07,-1.0335134062412924e-06,-1.2054039515306623e-07,-1.1017112679276293e-06,-5.256266062924405e-07,-1.7922913956934284e-06,-2.2610152959964277e-06,-1.8201378100504767e-06,-3.2181581739070805e-07,1.2555611318353396e-07,-1.1640347387328345e-06,5.768167331014983e-07,-2.039911649355592e-07,-1.4994214188171676e-06,-1.1731862628555077e-06,-9.042222010187757e-07,-1.7930622105011116e-06
-7.520044536642239e-07,9.85152358256313e-07,-1.0482882522530688e-06,-1.3360498178353806e-07,-1.1028891011535017e-06,-5.268049102143706e-07,-1.7546858083482556e-06,-2.349503289824621e-06,-1.8480089476622515e-06,-3.1822895267247197e-07,1.3480397684726804e-07,-1.1439414405130165e-06,5.893260596110242e-07,-1.9366506710938865e-07,-1.5276653491669184e-06,-1.1722202193448213e-06,-9.434128698086651e-07,-1.826838208879992e-06
-5.314552538639515e-07,1.6245823492331982e-06,-1.0673828461990284e-06,-1.480790840176808e-07,-1.0976809622055136e-06,-5.251003404716627e-07,-1.716928135100098e-06,-2.4381404614559906e-06,-1.8801502068773896e-06,-3.1948446617859166e-07,1.4329607151473695e-07,-1.128334885932335e-06,5.931549232109935e-07,-1.861836791611645e-07,-1.565359567289487e-06,-1.1834044481598495e-06,-9.87463879465458e-07,-1.8690563034543635e-06
-4.1248512171036407e-07,2.168675467262938e-06,-1.0917168502222623e-06,-1.648704257803124e-07,-1.0876241456491902e-06,-5.222166328998684e-07,-1.6823766846342802e-06,-2.5206031535606756e-06,-1.9153567970387664e-06,-3.2412781119703747e-07,1.5469888620594466e-07,-1.1148236083164127e-06,5.923540509296062e-07,-1.823724919557353e-07,-1.611829572217932e-06,-1.2068549322988678e-06,-1.0336944398197869e-06,-1.918282394535408e-06
-4.0891644021824147e-07,2.463664991593734e-06,-1.1189568065079104e-06,-1.8333785313455986e-07,-1.0719802594077004e-06,-5.189323318233932e-07,-1.648800837236848e-06,-2.5850040261328616e-06,-1.947504668507341e-06,-3.2877834649280154e-07,1.7292473186395976e-07,-1.0994717319683904e-06,5.918870294576991e-07,-1.8237666773988161e-07,-1.6623789388372446e-06,-1.2393465084448658e-06,-1.0783440310927654e-06,-1.9702469723397736e-06
-5.058683292040198e-07,2.4761858414727116e-06,-1.1450910057166468e-06,-2.016278300874291e-07,-1.0489085732374023e-06,-5.145028610454526e-07,-1.6093441122646499e-06,-2.6165865310476295e-06,-1.964540027504935e-06,-3.300316929031551e-07,1.990481313600655e-07,-1.0800546069191124e-06,5.936630583600362e-07,-1.8736189787886223e-07,-1.7092431067598052e-06,-1.2795442848775724e-06,-1.1182696230645335e-06,-2.0192884754321855e-06
-6.634177094024322e-07,2.245517901007135e-06,-1.166447175436182e-06,-2.177248740693764e-07,-1.0178177804674783e-06,-5.069398979768958e-07,-1.5568209500045581e-06,-2.6031139983209415e-06,-1.9723652534871867e-06,-3.2653273406935815e-07,2.2938539153726008e-07,-1.058367374816154e-06,5.952589152807486e-07,-2.006463196328228e-07,-1.74389699767933e-06,-1.328463280633561e-06,-1.1558634558577264e-06,-2.0602479477164575e-06
-8.218395407528004e-07,1.9220953389277865e-06,-1.1812532239709776e-06,-2.3016844064404257e-07,-9.809483990070936e-07,-4.939949491681695e-07,-1.4888235612008021e-06,-2.540126620601241e-06,-1.9686521688741376e-06,-3.1956694352723505e-07,2.563576854550905e-07,-1.03976362262942e-06,5.899725545069522e-07,-2.2690389119073814e-07,-1.759409473232684e-06,-1.388231092790913e-06,-1.1944174773674189e-06,-2.0894225729766925e-06
-9.136602951289031e-07,1.2509619588498513e-06,-1.189397279220909e-06,-2.3810655522153816e-07,-9.432010564845819e-07,-4.745574513317113e-07,-1.4108995913278642e-06,-2.4339266700091014e-06,-1.9513551994579927e-06,-3.1231595328867086e-07,2.7152140499651954e-07,-1.0309596222151913e-06,5.706044799985229e-07,-2.7014519158044144e-07,-1.752571978442798e-06,-1.463187447754415e-06,-1.2364939244813505e-06,-2.1050566327507895e-06
-8.795508888735249e-07,3.734885570592866e-07,-1.1940050508270254e-06,-2.412442457298956e-07,-9.1071547492433e-07,-4.498276737215426e-07,-1.3362608194663214e-06,-2.3011168709272964e-06,-1.9274314733711174e-06,-3.085296845708249e-07,2.689009543279965e-07,-1.037551097488799e-06,5.321587303395985e-07,-3.3173325820016556e-07,-1.7252703459308398e-06,-1.5539246247817534e-06,-1.286420700238841e-06,-2.1074257094366213e-06
-6.81903574123346e-07,-4.926268427429758e-07,-1.1982756557242453e-06,-2.397177770635097e-07,-8.885177919336741e-07,-4.23090247202463e-07,-1.2813354453760056e-06,-2.1636760396913823e-06,-1.9003390258333265e-06,-3.104873984237128e-07,2.474630633266916e-07,-1.0615337732320865e-06,4.741803725771615e-07,-4.087574204246905e-07,-1.6835987037871857e-06,-1.659153892635432e-06,-1.3444217754470213e-06,-2.0981040665629495e-06
-3.185593578286268e-07,-1.2716263777785454e-06,-1.2039311328059166e-06,-2.3379617771957862e-07,-8.779668461511487e-07,-3.9800640913602475e-07,-1.2588098360489863e-06,-2.0411230317991993e-06,-1.8747945886909168e-06,-3.170885250928544e-07,2.1167379676463419e-07,-1.100021545268668e-06,4.0227887121593115e-07,-4.93592347566366e-07,-1.6358600754227967e-06,-1.771862464519083e-06,-1.4066547574835928e-06,-2.0795607173205982e-06
1.6301532544318264e-07,-1.7267954364331922e-06,-1.2109744165427642e-06,-2.241227343627923e-07,-8.762056686730918e-07,-3.7708794450809573e-07,-1.272417309841437e-06,-1.944545897914615e-06,-1.8534766604831541e-06,-3.2423599638932496e-07,1.692243826015681e-07,-1.1467534210114018e-06,3.255720385925268e-07,-5.760036659592486e-07,-1.590929791634708e-06,-1.8864337620247238e-06,-1.4679467305664722e-06,-2.0560106826667093e-06
6.684937476806428e-07,-1.800270155037052e-06,-1.2193138986107274e-06,-2.126375751449101e-07,-8.786961303290963e-07,-3.615610122485672e-07,-1.3162835113039574e-06,-1.8756456653973097e-06,-1.8370601152441573e-06,-3.276427808191848e-07,1.2729451809285273e-07,-1.1952250833334236e-06,2.527344939897397e-07,-6.470704955299781e-07,-1.5569375665490078e-06,-1.990384273345158e-06,-1.5235431259638502e-06,-2.033704738341825e-06
1.0887591209132586e-06,-1.5471363608900996e-06,-1.2296982747521614e-06,-2.0284530551859847e-07,-8.82573790440547e-07,-3.520013580735256e-07,-1.3775655125953231e-06,-1.8294315954123697e-06,-1.8267174172628576e-06,-3.254690901235582e-07,9.032607379419999e-08,-1.2406606292409555e-06,1.8962877394044327e-07,-7.02145432295587e-07,-1.539465625325397e-06,-2.0682129122422114e-06,-1.57085020170188e-06,-2.018903997931687e-06
1.342629313986964e-06,-1.1940679528018072e-06,-1.2424278580032287e-06,-1.9859430364217403e-07,-8.878996212908084e-07,-3.4870991800540415e-07,-1.4400197744969455e-06,-1.7978302030458562e-06,-1.8235081529530877e-06,-3.1890369524975273e-07,6.029684817134993e-08,-1.2801706574301843e-06,1.3966170658120597e-07,-7.412538159706744e-07,-1.5400406496985161e-06,-2.127854929561441e-06,-1.609933139394902e-06,-2.0150114069786926e-06
1.4018262509599986e-06,-7.278433664357391e-07,-1.2572446658964026e-06,-2.0223981014528922e-07,-8.963230617815236e-07,-3.515047052838739e-07,-1.48777226258233e-06,-1.7726527638290545e-06,-1.8270875368402734e-06,-3.108611803301754e-07,3.802044466212382e-08,-1.3120822805731813e-06,1.0466934996175318e-07,-7.67459172100685e-07,-1.5560482532922918e-06,-2.170163581560074e-06,-1.6414342311247572e-06,-2.020991736267132e-06
1.2896543606371792e-06,-3.040680789054919e-07,-1.2717014031696223e-06,-2.1330945296531072e-07,-9.084724218733348e-07,-3.590347834632142e-07,-1.5090008552963359e-06,-1.7471022762050853e-06,-1.8345386425511717e-06,-3.036874597522218e-07,2.414748594705634e-08,-1.334903537008872e-06,8.534981184238079e-08,-7.843341957404994e-07,-1.5816058341472368e-06,-2.1972374902848357e-06,-1.663808646699627e-06,-2.0315149435496905e-06
1.0618148784373114e-06,-4.6624738130472996e-08,-1.2821553312084275e-06,-2.282715653252257e-07,-9.219339054632085e-07,-3.68298622468218e-07,-1.4988561480182831e-06,-1.7162079072083807e-06,-1.8403192906423352e-06,-2.973973697625482e-07,1.938631984755933e-08,-1.3467824696391651e-06,8.181725356407075e-08,-7.940020831882073e-07,-1.6092171349121838e-06,-2.214077882481182e-06,-1.6742857021036324e-06,-2.038993089775658e-06
7.809506738629378e-07,7.563321581374028e-08,-1.2851330177894368e-06,-2.419325684563894e-07,-9.317372668540734e-07,-3.754459116227387e-07,-1.4610735312818376e-06,-1.6777194994034343e-06,-1.8387393385054822e-06,-2.9009892934515885e-07,2.3748984640610996e-08,-1.3466310960978853e-06,9.234967818947518e-08,-7.971102636396514e-07,-1.632280338845622e-06,-2.220202524106647e-06,-1.6707155647859653e-06,-2.037256014306162e-06
4.969706193503599e-07,3.0359903087461e-08,-1.2812002668568414e-06,-2.500555611008072e-07,-9.333738911054629e-07,-3.7774974294906545e-07,-1.407103492977855e-06,-1.6334382802810176e-06,-1.82763438254162e-06,-2.8009858431787487e-07,3.5626638204604636e-08,-1.3358679703387747e-06,1.1200595029310795e-07,-7.941928243497447e-07,-1.6475057064428327e-06,-2.2176423437788677e-06,-1.6536368617653882e-06,-2.0246469297139297e-06
2.418136525442855e-07,-1.7471389158487306e-07,-1.2716609903434994e-06,-2.513479393015133e-07,-9.256423555409029e-07,-3.750574236615925e-07,-1.3515513352523278e-06,-1.5889544795939227e-06,-1.8096025526194949e-06,-2.6739261330230375e-07,5.2022554745030155e-08,-1.3185524717088095e-06,1.3374982013509275e-07,-7.865507416264728e-07,-1.655498916190101e-06,-2.2126317578700474e-06,-1.6268937778122457e-06,-2.004286939430105e-06
2.7791958711873033e-08,-5.130562075362104e-07,-1.2523292177161704e-06,-2.475032809415218e-07,-9.109835385832822e-07,-3.694766420574637e-07,-1.305545370099831e-06,-1.5510190598277666e-06,-1.7898645788823477e-06,-2.5350411922421994e-07,6.99144101022251e-08,-1.2997503399588347e-06,1.510882299706409e-07,-7.759885061534007e-07,-1.6593914549144482e-06,-2.2124900273674055e-06,-1.6011774758821418e-06,-1.9818494181261246e-06
-1.4263770259748422e-07,-9.14788724280474e-07,-1.2283254454362754e-06,-2.4178818854956767e-07,-8.936017066727674e-07,-3.6366896514358816e-07,-1.272006262434585e-06,-1.5240382604797095e-06,-1.7728626537755876e-06,-2.4026619585027495e-07,8.753096331759208e-08,-1.2833648683532518e-06,1.6106198750852687e-07,-7.639804259681654e-07,-1.6625451269584878e-06,-2.2176823619445817e-06,-1.5796982150439139e-06,-1.9624606350661214e-06
-2.6363853279588446e-07,-1.3215593657199226e-06,-1.2033999454210147e-06,-2.371999343303438e-07,-8.767895466022476e-07,-3.5880710220915837e-07,-1.2453221879743374e-06,-1.5074059383723327e-06,-1.7593967353382469e-06,-2.2827676992447893e-07,1.0484878239445402e-07,-1.270345633219932e-06,1.652851532089028e-07,-7.507999352269482e-07,-1.6662678048944318e-06,-2.2281842461720052e-06,-1.558246886425925e-06,-1.9480236001152103e-06
-3.201518040541019e-07,-1.5934590053706094e-06,-1.1860833405558032e-06,-2.3498508223903502e-07,-8.608380870594597e-07,-3.5330712127895687e-07,-1.2153438408968167e-06,-1.4950511951158766e-06,-1.7457440256335982e-06,-2.1602665770390683e-07,1.2316462946496382e-07,-1.258435078553128e-06,1.6910491268011216e-07,-7.353141082852219e-07,-1.66883328281513e-06,-2.2345668927074986e-06,-1.5383252919693285e-06,-1.9363669755917524e-06
-2.936412911818707e-07,-1.5717900919090507e-06,-1.174520572827904e-06,-2.3425276869274587e-07,-8.428693270264255e-07,-3.4323878534088765e-07,-1.1738497433401183e-06,-1.4780531925672185e-06,-1.7258653898818735e-06,-2.006374560632774e-07,1.438222955204166e-07,-1.2439631219617053e-06,1.786651308313354e-07,-7.159024369537845e-07,-1.6665075012637039e-06,-2.2333864143769294e-06,-1.5177779055580155e-06,-1.92261845088368e-06
-1.7650879935342108e-07,-1.242354783499983e-06,-1.1639084976319588e-06,-2.3274145776893105e-07,-8.18695586498058e-07,-3.24245506066787e-07,-1.1197894805712219e-06,-1.449096288804157e-06,-1.6952347798212234e-06,-1.795901077549222e-07,1.6700630797339974e-07,-1.2240840107795736e-06,1.97890357059065e-07,-6.916483698734084e-07,-1.655511185154899e-06,-2.2232977220490313e-06,-1.49401467909325e-06,-1.9015150384300001e-06
1.8013519034652535e-08,-5.947509826528654e-07,-1.1460077910000075e-06,-2.2805233892034428e-07,-7.852804822358933e-07,-2.938267549894131e-07,-1.0598527428581053e-06,-1.4060899584565052e-06,-1.6535536565057758e-06,-1.521082103894965e-07,1.9157094454635097e-07,-1.1978320139770298e-06,2.2735871651597705e-07,-6.6277857859759e-07,-1.633839941369153e-06,-2.1996705475765168e-06,-1.4666128863224769e-06,-1.8695646484235503e-06
2.594327447650175e-07,3.2405919267023635e-07,-1.119805748967146e-06,-2.188158195910569e-07,-7.424607988422834e-07,-2.529642484209497e-07,-1.0046249609896248e-06,-1.353373911730401e-06,-1.605328678880403e-06,-1.1968713457952498e-07,2.15770655271556e-07,-1.1660480049515577e-06,2.6485227199383495e-07,-6.303790367899879e-07,-1.6025160996387496e-06,-2.1634604461124817e-06,-1.4337744150234168e-06,-1.8265871557687346e-06
5.03272104562623e-07,1.2658874018139054e-06,-1.0899141566490325e-06,-2.053733686725504e-07,-6.916403977845145e-07,-2.0650804314460862e-07,-9.63672702779137e-07,-1.3005533059206314e-06,-1.558471143111584e-06,-8.553548630037058e-08,2.3834187639257145e-07,-1.1304413202871634e-06,3.069926556342935e-07,-5.955644506001565e-07,-1.5655585371717858e-06,-2.1159462912818267e-06,-1.3929865384285022e-06,-1.7757118559832228e-06
6.96724307271689e-07,2.010512079386068e-06,-1.0565550690377111e-06,-1.895282022396245e-07,-6.384775173158219e-07,-1.6215714997586848e-07,-9.427035351740201e-07,-1.260009384254897e-06,-1.5216825618603173e-06,-5.3000542682070097e-08,2.5951915177641393e-07,-1.0921911001142264e-06,3.512417260063366e-07,-5.583913807821867e-07,-1.5285446900355703e-06,-2.0527479296312034e-06,-1.3438271023833553e-06,-1.7217828383387268e-06
7.981299541424862e-07,2.428583268981385e-06,-1.0249802843207716e-06,-1.7365771549347581e-07,-5.894120436888455e-07,-1.2848829786193043e-07,-9.441277945494652e-07,-1.2445316043776562e-06,-1.5023650705192061e-06,-2.4092605464532985e-08,2.8128665723714937e-07,-1.0513695909921238e-06,3.964832114830894e-07,-5.175878662109228e-07,-1.4967527583842636e-06,-1.972397389297802e-06,-1.2868987281506147e-06,-1.6696814382912886e-06
7.871628774145703e-07,2.4697812344354054e-06,-9.903115534054975e-07,-1.5990043389348098e-07,-5.510967383956466e-07,-1.1254084157840138e-07,-9.698344867444526e-07,-1.2652059945830546e-06,-1.5056616778345604e-06,1.0054160773877904e-09,3.06509345691884e-07,-1.0076403458147017e-06,4.4351980819150916e-07,-4.7163588777050094e-07,-1.4736293842577257e-06,-1.8768740086823563e-06,-1.2214503763428136e-06,-1.6233182898235046e-06
6.693887750780741e-07,2.195512886097515e-06,-9.526840717021854e-07,-1.4953833330395805e-07,-5.264720097197769e-07,-1.1726002643951857e-07,-1.0230275758698969e-06,-1.3282726917725938e-06,-1.5333860108760388e-06,2.368491591637305e-08,3.3753826705358707e-07,-9.61221872322084e-07,4.929502640806767e-07,-4.203075792843508e-07,-1.4597261314441947e-06,-1.76934451399941e-06,-1.1494832380931263e-06,-1.5848868820786003e-06
4.752540325171413e-07,1.8217756533845336e-06,-9.149963788967332e-07,-1.4263712561483918e-07,-5.144561948686421e-07,-1.398152472208925e-07,-1.1071997694270053e-06,-1.4312576142542094e-06,-1.5827429834776635e-06,4.615606195546488e-08,3.749874088775965e-07,-9.133259005671468e-07,5.437952836397459e-07,-3.6556825049268673e-07,-1.4526899647807337e-06,-1.6600808373079586e-06,-1.0758105291851562e-06,-1.554683499883272e-06
2.4856697270362623e-07,1.3323079507436096e-06,-8.699442055805921e-07,-1.3828189744467815e-07,-5.108446455992417e-07,-1.72096610371115e-07,-1.223227480274897e-06,-1.5610140229724506e-06,-1.6461438445419321e-06,7.041388645048851e-08,4.1720436687174827e-07,-8.638979286045063e-07,5.936945852769079e-07,-3.112473759246903e-07,-1.4484440445895104e-06,-1.5632041295141437e-06,-1.0067415981953554e-06,-1.5315229581087672e-06
2.6856786102926155e-08,6.267069266632562e-07,-8.1558255143305e-07,-1.3511776738938966e-07,-5.088240910068575e-07,-2.032088307924277e-07,-1.3663647780158606e-06,-1.6956351515711472e-06,-1.7123397071251201e-06,9.77129088524727e-08,4.609664703454138e-07,-8.142925030561669e-07,6.398871312266034e-07,-2.6136416375211657e-07,-1.442698877003737e-06,-1.4899078010076815e-06,-9.487735464819706e-07,-1.5131997110624938e-06
-1.4303540140344498e-07,-2.1078551836198e-07,-7.700312276908941e-07,-1.3165312593112603e-07,-5.024284877392385e-07,-2.225741433025724e-07,-1.524351666322576e-06,-1.8116304646763962e-06,-1.768529496781658e-06,1.2869144489854755e-07,5.030116855256256e-07,-7.643455160249565e-07,6.817165897540017e-07,-2.1814949307700818e-07,-1.432055361425012e-06,-1.4452031913124952e-06,-9.03925007990639e-07,-1.4968566172377699e-06
-1.823452898264456e-07,-1.0422223011021177e-06,-7.322602048818629e-07,-1.264414111539384e-07,-4.871255682493944e-07,-2.225562143375541e-07,-1.6776879376904276e-06,-1.885257573428004e-06,-1.803240518820533e-06,1.634242477666253e-07,5.412365555379262e-07,-7.128197597134619e-07,7.198430539083675e-07,-1.8122100343117526e-07,-1.4144660751265677e-06,-1.4270607051237826e-06,-8.715794902467282e-07,-1.479334550688124e-06
-5.400008864236939e-08,-1.6968518275816415e-06,-7.114972767934032e-07,-1.1829327414354886e-07,-4.615220960613144e-07,-1.9996910938404218e-07,-1.802471288014287e-06,-1.9032796746237074e-06,-1.808765994780313e-06,2.012362827927027e-07,5.751109573204664e-07,-6.558718383320706e-07,7.56311646778189e-07,-1.4812522266562006e-07,-1.389059623512815e-06,-1.426038461064259e-06,-8.484544173288736e-07,-1.457408395754948e-06
7.141883886684786e-08,-1.9225495294925177e-06,-7.097231674668626e-07,-1.064003093968451e-07,-4.2442712893662543e-07,-1.5625128903922517e-07,-1.8752817704200303e-06,-1.8625388105595332e-06,-1.7822110062323847e-06,2.4038317895148897e-07,6.054649297006398e-07,-5.89751080674799e-07,7.931259940570317e-07,-1.157143455578738e-07,-1.355798743874578e-06,-1.432287838609092e-06,-8.267997146567102e-07,-1.4282107581129345e-06
2.629953564372642e-07,-1.6535991312960508e-06,-7.071181299565495e-07,-9.052270237011305e-08,-3.800502229216873e-07,-9.670375475776899e-08,-1.8789170356069433e-06,-1.7672746389174823e-06,-1.7256375343031944e-06,2.7759839390321573e-07,6.337544441337569e-07,-5.117336479384853e-07,8.305859938756282e-07,-8.188821544542195e-08,-1.3153565253089276e-06,-1.4365955857526747e-06,-8.000333472453094e-07,-1.3898662523010186e-06
4.6868496747324583e-07,-1.1498961532965519e-06,-7.004240275165892e-07,-7.122507389612214e-08,-3.323688355806227e-07,-2.9152821863350956e-08,-1.8067037151848834e-06,-1.6266981560047475e-06,-1.6453429711929552e-06,3.083403580292707e-07,6.613719626056602e-07,-4.242805485135674e-07,8.67393997767514e-07,-4.67625069023665e-08,-1.2685886812997202e-06,-1.4340956735284745e-06,-7.642790917821212e-07,-1.341438977733035e-06
5.550184112522231e-07,-5.616409636712622e-07,-6.880623207664582e-07,-4.978977404553702e-08,-2.830956567701211e-07,3.780259111432201e-08,-1.6633649616687618e-06,-1.459476212975709e-06,-1.5501681438125614e-06,3.283097026690263e-07,6.895112438250368e-07,-3.5168357997755786e-07,9.016558846192857e-07,-1.2612824612501044e-08,-1.2159471644144027e-06,-1.4225196298853018e-06,-7.183032268982709e-07,-1.2825318459492417e-06
3.731162029851154e-07,-4.708755253869389e-08,-6.281992590185951e-07,-2.8057181601827013e-08,-2.3128661909774815e-07,9.632619115381495e-08,-1.4631608185960024e-06,-1.2919162062622573e-06,-1.4502608288653904e-06,3.35063810292282e-07,7.190618446990495e-07,-3.034020467717181e-07,9.321880042982677e-07,1.677962506076883e-08,-1.158181407525793e-06,-1.4028106008839609e-06,-6.643883113197424e-07,-1.2140748825220926e-06
-1.962429416689262e-08,3.441606790850099e-07,-5.720023275426037e-07,-8.663480460561986e-09,-1.8919659237569135e-07,1.401122810313431e-07,-1.2275082849925122e-06,-1.1299569484743468e-06,-1.3568924244173358e-06,3.287042141655888e-07,7.50151487711764e-07,-3.152505597817146e-07,9.589591174973348e-07,3.688859774209605e-08,-1.0980204617631673e-06,-1.3785528762607809e-06,-6.076818034708132e-07,-1.139950699132373e-06
-5.280084923611253e-07,7.143918519078081e-07,-5.237602864825091e-07,4.907318636112235e-09,-1.4304279642173746e-07,1.6478595453430134e-07,-9.8256945636558e-07,-1.0479457057913014e-06,-1.2816093922661256e-06,3.120446923130407e-07,7.819660669378782e-07,-3.621800824565612e-07,9.83738573425134e-07,4.368932498694725e-08,-1.040805608942954e-06,-1.3480757112876485e-06,-5.539934915743397e-07,-1.0674660330113514e-06
-1.0828128147182633e-06,1.2904131478567259e-06,-4.734633813559368e-07,9.224765291486933e-09,-7.969521667785947e-08,1.6840901496548059e-07,-7.559127258155667e-07,-1.0856932120779482e-06,-1.2339129889115945e-06,2.902609865995188e-07,8.130491674123367e-07,-3.9736191275390803e-07,1.0104407087269128e-06,3.522806888024311e-08,-9.931324745158066e-07,-1.3121335367554234e-06,-5.082833306968675e-07,-1.0059938725053062e-06
-1.5810504503108656e-06,2.1127850092561407e-06,-4.327358995858195e-07,2.449340750914388e-09,-8.775406964671756e-09,1.518544563719268e-07,-5.720775337568463e-07,-1.0961542108193433e-06,-1.218667005037719e-06,2.694793779030471e-07,8.414779219784279e-07,-4.1945528894102743e-07,1.0428535824446031e-06,1.2775723809233979e-08,-9.604013479437794e-07,-1.2712918023960884e-06,-4.7393821574466775e-07,-9.644331937862618e-07
-1.8982219269007878e-06,2.759218638012307e-06,-4.011788631696723e-07,-1.4235258060491577e-08,7.145889611555112e-08,1.1873401981492611e-07,-4.480876200451605e-07,-1.147037266231965e-06,-1.2343105132081053e-06,2.548895787351268e-07,8.649192288123348e-07,-4.4705486840406044e-07,1.0829154057640336e-06,-1.8181641866909255e-08,-9.446740981770259e-07,-1.2255078652114154e-06,-4.507392140736747e-07,-9.484039032664583e-07
-1.9718959823522215e-06,3.1298704107518026e-06,-3.8719090103236015e-07,-3.598218887700561e-08,1.184407272969915e-07,7.471832358410437e-08,-3.909553069618574e-07,-1.318043219095586e-06,-1.2730809646699513e-06,2.493021463981737e-07,8.808296000322178e-07,-5.394056341298421e-07,1.128698479317871e-06,-4.843372460787592e-08,-9.44213397784164e-07,-1.175934111307604e-06,-4.3496079364485634e-07,-9.58577923976524e-07
-1.7745359115735834e-06,3.0971272037642885e-06,-3.6282027756716205e-07,-5.529561969829452e-08,7.591858919247e-08,2.6159524441384512e-08,-3.98601600126124e-07,-1.5107888410424201e-06,-1.3242334901148239e-06,2.523760595660659e-07,8.865847226658297e-07,-6.055398871708145e-07,1.1740933803913612e-06,-6.780536666064263e-08,-9.548379248136477e-07,-1.1244691503309998e-06,-4.214285765275102e-07,-9.909879880190144e-07
-1.879679724417069e-06,2.5998146028570664e-06,-3.43137864435121e-07,-6.485286505947385e-08,3.36039095563796e-08,-2.1427058019061678e-08,-4.6252073660626157e-07,-1.6554710367589094e-06,-1.3782263201514747e-06,2.608547498345709e-07,8.797417818092721e-07,-6.546373312420351e-07,1.2108415329400505e-06,-6.959032094525783e-08,-9.71439106447548e-07,-1.0757111228219921e-06,-4.0608541995545164e-07,-1.0383972377282132e-06
-1.6406651115587967e-06,2.362134584832501e-06,-3.161662707569207e-07,-6.074004353800601e-08,1.6775329291422498e-08,-6.407835983456648e-08,-5.692091718153769e-07,-1.7260359289663443e-06,-1.4285377694735796e-06,2.6970949675533324e-07,8.588156068162885e-07,-6.944394566171497e-07,1.2314372392362342e-06,-5.4210199257256335e-08,-9.885656623565728e-07,-1.0381116613949015e-06,-3.869615756303965e-07,-1.0919374455788008e-06
-1.1124820801522886e-06,2.5860390736822284e-06,-2.8745312582883466e-07,-4.4079767209632035e-08,1.2667030416937827e-08,-9.915766583545183e-08,-7.005696654649656e-07,-1.7625923102501645e-06,-1.4709289143753335e-06,2.730806914289569e-07,8.240302647014097e-07,-6.86143363281651e-07,1.2316078244040667e-06,-2.963483708834713e-08,-1.0009700362221733e-06,-1.0247364582812107e-06,-3.6837996242688575e-07,-1.143219487181857e-06
-6.762122913921939e-07,2.4887026671155383e-06,-2.58474537442477e-07,-2.0074199939963796e-08,5.343796790941075e-09,-1.2489962164218733e-07,-8.360439902740927e-07,-1.7675965844909845e-06,-1.5022188428656344e-06,2.648090158278316e-07,7.774766910026654e-07,-6.076069926452679e-07,1.2097394739791158e-06,-8.349731802054408e-09,-1.0049046532641766e-06,-1.0482677920423434e-06,-3.5949559452338633e-07,-1.1862789734374254e-06
-3.9892000255930944e-07,1.4565699141479587e-06,-2.2304975852772794e-07,4.653049031568681e-09,-5.9236279085824126e-08,-1.4031318955644267e-07,-9.572888302076794e-07,-1.740626960489051e-06,-1.5197689488060898e-06,2.396116167743931e-07,7.230358250219112e-07,-5.394307322117542e-07,1.166713048846608e-06,-2.2524256561225925e-09,-9.995573246476597e-07,-1.1186335371034225e-06,-3.678590092359447e-07,-1.2181975302168097e-06
-1.7490685473645946e-07,2.728774150445556e-07,-2.1200688723750093e-07,2.449043873795774e-08,-1.24520591500472e-07,-1.4547781626572807e-07,-1.053269474567525e-06,-1.6961724892929895e-06,-1.5219255995092555e-06,1.951011657436702e-07,6.663217524055064e-07,-5.400002119431961e-07,1.1067114272879054e-06,-1.7907446046607332e-08,-9.87607476803451e-07,-1.2344494928285369e-06,-3.9878871575451793e-07,-1.238446262244074e-06
-2.720509472283753e-07,-1.7265390288931082e-07,-1.9344780580612852e-07,3.596713007313636e-08,-1.932324228222496e-07,-1.4185221567494376e-07,-1.1228460209416274e-06,-1.6335264015769155e-06,-1.5089778521877273e-06,1.3365292742674723e-07,6.142905860149247e-07,-5.614832760508543e-07,1.0382788920714067e-06,-5.4298399255295643e-08,-9.742506698702842e-07,-1.381906507905684e-06,-4.5217241650336805e-07,-1.2477671712405613e-06
-4.943242163830518e-07,-3.1850115471497676e-07,-1.5704169994384183e-07,3.794377414022081e-08,-2.4823582847020886e-07,-1.321719461556655e-07,-1.1731054037223148e-06,-1.5630846310156658e-06,-1.483592968027703e-06,6.290107699853178e-08,5.741756649577757e-07,-6.395782833810561e-07,9.7419463184177e-07,-1.0322869561427079e-07,-9.650628761771674e-07,-1.5382427663524933e-06,-5.211304842854896e-07,-1.2475930271281744e-06
-7.272600992572173e-07,-2.674524713608241e-07,-1.269570434058049e-07,3.1231272305773366e-08,-3.202106285013813e-07,-1.2009309031390014e-07,-1.214598145735425e-06,-1.5002819353387163e-06,-1.4507413501384367e-06,-6.288437358881037e-09,5.514883168987116e-07,-7.165720733432254e-07,9.280469858923955e-07,-1.5277309365730345e-07,-9.64463218636369e-07,-1.6765759941027893e-06,-5.950744899011355e-07,-1.2409859017049794e-06
-8.787541811878408e-07,-6.414616897174429e-07,-1.3597352081731345e-07,1.7450149567271807e-08,-3.679733456591717e-07,-1.100833639872184e-07,-1.256720340247018e-06,-1.4582323411835166e-06,-1.417816848668229e-06,-6.411504403250849e-08,5.474600771508858e-07,-7.854978892675143e-07,9.086005353479385e-07,-1.9242922813726724e-07,-9.757729547102142e-07,-1.7765243523010985e-06,-6.634753676158948e-07,-1.2341943302851227e-06
-9.364940526530534e-07,-3.293040651220834e-07,-1.4728722305608674e-07,-2.334433787543873e-09,-3.8400498498065067e-07,-1.0725573295734914e-07,-1.3048476557465534e-06,-1.4477853955015587e-06,-1.3941117972028922e-06,-1.057614347621468e-07,5.577326781154101e-07,-8.316005516111267e-07,9.160707129575208e-07,-2.1681955621448387e-07,-1.0016702774225764e-06,-1.8309474017641394e-06,-7.181730941651609e-07,-1.236287786859064e-06
-9.89399418869535e-07,5.370823211037116e-07,-1.2995167391211917e-07,-2.805557694288139e-08,-4.0507536095803876e-07,-1.1628777978717472e-07,-1.3587039266241045e-06,-1.4753820087559113e-06,-1.3886503084798947e-06,-1.3246951341349928e-07,5.738065145390264e-07,-8.574286060254632e-07,9.433405351051099e-07,-2.2619310538941782e-07,-1.0439163583563981e-06,-1.8428990041525351e-06,-7.548419211220507e-07,-1.2563756964407084e-06
-1.0478900229915962e-06,1.2030327425677951e-06,-1.1752168715041366e-07,-6.002853019582744e-08,-4.2491288490235213e-07,-1.395765622920974e-07,-1.4122728665792202e-06,-1.5430192704121054e-06,-1.407536250069126e-06,-1.4995365843314499e-07,5.86357825615379e-07,-8.696587744304006e-07,9.798101633289533e-07,-2.2461879456479323e-07,-1.1027686494564995e-06,-1.8223632855403406e-06,-7.739280988919261e-07,-1.3005159097212419e-06
-1.1184173556880094e-06,1.8736057876751247e-06,-1.052023460116413e-07,-9.806269010494962e-08,-4.508016923645646e-07,-1.7584591779298898e-07,-1.4562035633100757e-06,-1.6488075645813936e-06,-1.4523047406824111e-06,-1.6559248477275012e-07,5.883445563006629e-07,-8.772576254475031e-07,1.0154641869499125e-06,-2.1789145421104263e-07,-1.1765604923481563e-06,-1.7839999298872433e-06,-7.793268537531976e-07,-1.3698921093574622e-06
-1.2483177553369591e-06,2.5642541282625465e-06,-9.846979848329023e-08,-1.4085324230682453e-07,-5.055367993216427e-07,-2.202243529732448e-07,-1.482072642028066e-06,-1.787056954778633e-06,-1.5196968870486238e-06,-1.8567460969782776e-07,5.765936194876886e-07,-8.894957016645238e-07,1.0433693563782157e-06,-2.1185425465593054e-07,-1.2616033481288386e-06,-1.742914096484847e-06,-7.775026466815146e-07,-1.4606684408474356e-06
-1.3878735838203735e-06,2.826891223289813e-06,-1.0277589088819016e-07,-1.8601370190639205e-07,-5.747137964261741e-07,-2.6600485174328046e-07,-1.4868008451936191e-06,-1.9486019689519738e-06,-1.6032525509602313e-06,-2.139545758833792e-07,5.514397573853618e-07,-9.12585110306747e-07,1.0595285510063471e-06,-2.1179713970859934e-07,-1.3528973256275497e-06,-1.712900335379309e-06,-7.766821807084942e-07,-1.5657324675644594e-06
-1.5134508545641604e-06,2.8131326671252366e-06,-1.2196639633517944e-07,-2.3090290214544961e-07,-6.564091205234024e-07,-3.0734107070998107e-07,-1.4756620981195308e-06,-2.122723116599947e-06,-1.6962301619276925e-06,-2.517675088934465e-07,5.150523238837171e-07,-9.497960861911177e-07,1.0616305413025892e-06,-2.2241294187295053e-07,-1.44548597595737e-06,-1.7054120605634738e-06,-7.855531205380019e-07,-1.6774811795979236e-06
-1.548195203012795e-06,2.6712108886770966e-06,-1.5180606616660175e-07,-2.736329064234071e-07,-7.370881686175492e-07,-3.414199911686219e-07,-1.4624426231120507e-06,-2.300570990380426e-06,-1.7938857867647187e-06,-2.9849865955489085e-07,4.700625591509345e-07,-1.0015906224834082e-06,1.0483719931158628e-06,-2.472109423731124e-07,-1.535477668689145e-06,-1.727378201690804e-06,-8.120498998948615e-07,-1.789443427275567e-06
-1.5000287428722494e-06,2.466951910076427e-06,-1.8424089580981202e-07,-3.135470548619265e-07,-8.071630605096336e-07,-3.6907091456403854e-07,-1.4661393585467889e-06,-2.478287294558756e-06,-1.8939414079286888e-06,-3.515878992790099e-07,4.190859437988145e-07,-1.0653231057635907e-06,1.0205471811151185e-06,-2.8736742595251294e-07,-1.6202538657953015e-06,-1.779540926119157e-06,-8.603743717944979e-07,-1.8970845042422005e-06
-1.4081437279848543e-06,2.341200312350561e-06,-2.2374958103818424e-07,-3.5109933792203056e-07,-8.720558126794143e-07,-3.9376263746017827e-07,-1.5050177730239882e-06,-2.65708900337193e-06,-1.9954180829080783e-06,-4.064098142751117e-07,3.656626448129244e-07,-1.1351095108461392e-06,9.81932777614723e-07,-3.407582685629524e-07,-1.697948350004697e-06,-1.8570066703598594e-06,-9.295580002317959e-07,-1.9974417635429665e-06
-1.2852598496164928e-06,2.2325247986814606e-06,-2.670721121007191e-07,-3.8719926880603075e-07,-9.409816926385995e-07,-4.194303777566958e-07,-1.5897729990811561e-06,-2.83890270303978e-06,-2.0962873472850597e-06,-4.5659767442732937e-07,3.1390791338110414e-07,-1.2025370636847683e-06,9.393990576874322e-07,-4.0192534312565304e-07,-1.76656134913011e-06,-1.9499210543575755e-06,-1.0142338095543192e-06,-2.0881225972238946e-06
-1.154197398175935e-06,2.088509833672498e-06,-3.0738939122198983e-07,-4.222530943054046e-07,-1.0134040085252655e-06,-4.480298129521206e-07,-1.7184980389673237e-06,-3.020169801303898e-06,-2.191531883739589e-06,-4.953588956694201e-07,2.674163579813297e-07,-1.2587858467464612e-06,9.011093238844114e-07,-4.634333749495477e-07,-1.8235959541206507e-06,-2.0470855020971263e-06,-1.1055551274266812e-06,-2.1670606008248163e-06
-1.0041175925699699e-06,1.9073198922756585e-06,-3.4691107637949846e-07,-4.556079415076624e-07,-1.0839195258195428e-06,-4.781542576615388e-07,-1.8763034097826221e-06,-3.1887286595813547e-06,-2.2736373883203168e-06,-5.177823119243838e-07,2.27587405141455e-07,-1.2976981180573094e-06,8.729358105102404e-07,-5.183011764718204e-07,-1.8666988688190902e-06,-2.138720914152435e-06,-1.194388843164133e-06,-2.2330594432386035e-06
-8.232818816584392e-07,1.6913802668041695e-06,-3.8072001128759937e-07,-4.857576845877537e-07,-1.1466441458172632e-06,-5.055183373258612e-07,-2.0399431256951136e-06,-3.32607406985859e-06,-2.3352305166653557e-06,-5.228935817263724e-07,1.923905424624848e-07,-1.3179086169726715e-06,8.559733518978536e-07,-5.622074732549279e-07,-1.8947651537805203e-06,-2.2183002351107865e-06,-1.2741562931434516e-06,-2.2863752629585356e-06
-6.116300296573914e-07,1.48787283547332e-06,-4.137443019159749e-07,-5.11031660180642e-07,-1.1942867071351427e-06,-5.250528592825364e-07,-2.184931743327899e-06,-3.413530986937596e-06,-2.372108773199869e-06,-5.143669139976592e-07,1.5649498824137195e-07,-1.3230277030950084e-06,8.464667981488242e-07,-5.942640546010602e-07,-1.909107632916282e-06,-2.2835563877625506e-06,-1.3418948793767498e-06,-2.3289324601371675e-06
-4.021425579273258e-07,1.3253366923120691e-06,-4.5198959731606694e-07,-5.305125895062329e-07,-1.2241362139488603e-06,-5.336724202822498e-07,-2.2922343764896782e-06,-3.439352931853822e-06,-2.3855690950003667e-06,-4.999873030410227e-07,1.1363873049167975e-07,-1.3204561392685348e-06,8.374892553109008e-07,-6.16619612279514e-07,-1.9144272312935037e-06,-2.3360619265168423e-06,-1.3984388734932964e-06,-2.3644856295170177e-06
-2.4833549103645176e-07,1.2127704194622848e-06,-4.938701546853899e-07,-5.448552861557815e-07,-1.2377571945480942e-06,-5.324228235756576e-07,-2.352703744201762e-06,-3.403785321665849e-06,-2.3830537614337296e-06,-4.89935707146934e-07,5.950177734613254e-08,-1.3191562370574987e-06,8.214128714030209e-07,-6.333361840664369e-07,-1.9186263480729583e-06,-2.3802902830403653e-06,-1.4476500859717196e-06,-2.3981369765008737e-06
-2.0401024038616058e-07,1.1452415085087406e-06,-5.366362357706234e-07,-5.565023146521868e-07,-1.2406117078203885e-06,-5.269771315151495e-07,-2.368707096371939e-06,-3.3203933316722003e-06,-2.3766372260354974e-06,-4.939280920506179e-07,-6.652634681820265e-09,-1.326803671194068e-06,7.923660515356406e-07,-6.487949491916256e-07,-1.9311312865139976e-06,-2.421617304677528e-06,-1.4946205036129459e-06,-2.4354140662907966e-06
-3.017849479416833e-07,1.1156481376681696e-06,-5.834140670142454e-07,-5.692290176260085e-07,-1.2414332321419084e-06,-5.263200602849519e-07,-2.353203264827323e-06,-3.2136814807655653e-06,-2.38027542210553e-06,-5.182045732098329e-07,-8.115720664055532e-08,-1.3476608915158258e-06,7.480375778361275e-07,-6.663521774077682e-07,-1.9606278615534798e-06,-2.4645704416701114e-06,-1.5438891745613085e-06,-2.4814775894878272e-06
-5.261992493998941e-07,1.1420752317714061e-06,-6.389716696141146e-07,-5.872255478333564e-07,-1.2499070699160107e-06,-5.399560929984575e-07,-2.326114260447181e-06,-3.1134790540569354e-06,-2.40645977881033e-06,-5.635344060575146e-07,-1.5743661765602696e-07,-1.3818684068713068e-06,6.89860297743998e-07,-6.876844354315916e-07,-2.0127553859625452e-06,-2.5113746851605286e-06,-1.598411265666213e-06,-2.5399624358233893e-06
-8.154383051927715e-07,1.2547987690450843e-06,-7.064656821697441e-07,-6.138229784767538e-07,-1.2738988217455428e-06,-5.743133507761936e-07,-2.307976751103e-06,-3.0470049947584578e-06,-2.4624925329205043e-06,-6.248758395170709e-07,-2.285737583476472e-07,-1.425997272832773e-06,6.225013076434966e-07,-7.126000894937784e-07,-2.0881436982877874e-06,-2.5615068479344035e-06,-1.6586622991050558e-06,-2.6114214041371057e-06
-1.0838529614602157e-06,1.4630997306060132e-06,-7.801737816911786e-07,-6.504110547674089e-07,-1.3170266680642877e-06,-6.298832257908282e-07,-2.3132882798429484e-06,-3.031252295950352e-06,-2.5480320618211266e-06,-6.931127447231326e-07,-2.898623844152725e-07,-1.4748720462789179e-06,5.521421202023046e-07,-7.396888927310784e-07,-2.181867992698947e-06,-2.6126506568069074e-06,-1.7229957195584172e-06,-2.6927443177877184e-06
-1.2604176433946928e-06,1.7171799647106983e-06,-8.610850664009303e-07,-6.962286599019227e-07,-1.3777913332596569e-06,-7.006955489094752e-07,-2.347418701539663e-06,-3.0686651312269394e-06,-2.655421991425554e-06,-7.582864199576859e-07,-3.406044179868023e-07,-1.5239120731374493e-06,4.840911640516967e-07,-7.676644018174734e-07,-2.285229838254016e-06,-2.6630729189948683e-06,-1.7892985591110692e-06,-2.778194512719154e-06
-1.3086228337900384e-06,1.9070774214601147e-06,-9.498123159104123e-07,-7.487550996504845e-07,-1.4502511447730365e-06,-7.762198121943771e-07,-2.408475971825558e-06,-3.14709570959647e-06,-2.7719918959227838e-06,-8.125390647608212e-07,-3.841065087348907e-07,-1.5704783807200682e-06,4.214879492656506e-07,-7.962487766555274e-07,-2.3881831536568364e-06,-2.713835701718743e-06,-1.8563462478080026e-06,-2.861191345798337e-06
-1.2467622915569565e-06,1.8987016422232656e-06,-1.0431833486272622e-06,-8.04060386819452e-07,-1.5254584079162106e-06,-8.445302957239783e-07,-2.4919095175203937e-06,-3.2435574930902315e-06,-2.8830733419610886e-06,-8.516006912126602e-07,-4.255132148831574e-07,-1.613871032660417e-06,3.6511358229244383e-07,-8.261227810032748e-07,-2.4817299580030272e-06,-2.7691632467030454e-06,-1.9242536832871054e-06,-2.935683434465754e-06
