0,1,2,3,4,5,6,7,8,9,10,11,12,13,14,15,16,17
-1.1431182988060593e-07,-1.3303535843335495e-08,-2.5482193441365386e-07,-1.4999035290127428e-07,-2.2718317833456434e-07,-3.180854761303566e-07,-1.5485218262102112e-07,4.2126838457565966e-08,-1.1653147705570742e-07,-1.190437684871688e-07,-1.1224659561371587e-07,-1.5581474715154275e-07,1.2120327335688562e-07,2.0077456845549643e-07,3.809254302160771e-08,2.7599234555048884e-07,-4.6889476928166935e-08,-1.097868050182279e-07
-8.266238569968182e-08,3.2037680188462676e-08,-1.944323407562976e-07,-1.3109681788019222e-07,-1.5182637604480888e-07,-2.0941029155166588e-07,-1.394330104489682e-07,5.032148457820658e-08,-7.375131148937924e-08,-9.24813173945255e-08,-1.0358793026132554e-07,-1.4022414534171355e-07,1.3285186484108025e-07,2.3349094311524501e-07,5.541168379869109e-08,3.126674678998726e-07,-2.084973100278814e-08,-7.937876739691928e-08
-5.6703687983993416e-08,6.863277249287052e-08,-1.5381124503197786e-07,-1.3619433289977326e-07,-9.61002224813814e-08,-1.4275585542726156e-07,-1.3099074967831118e-07,4.546072158489473e-08,-3.3450639515989403e-08,-6.842532977604649e-08,-9.406406989022602e-08,-1.265658807948762e-07,1.4661924656819263e-07,2.51489003364517e-07,6.8738573782868e-08,3.1886411344671695e-07,2.25356541466423e-09,-5.396668262391569e-08
-3.6025536458148414e-08,9.07432788253721e-08,-1.2241119191842798e-07,-1.1921159387538542e-07,-5.288705247767427e-08,-1.0939295682681854e-07,-1.204508249284474e-07,3.4419390520388e-08,2.081750894560123e-09,-4.554599210729112e-08,-7.98308021861404e-08,-1.0266085595379274e-07,1.5778510751814027e-07,2.525748258364091e-07,7.58442960753128e-08,2.922185696933271e-07,2.0278188990209406e-08,-3.15680043921987e-08
-1.889352678276354e-08,9.616311891560002e-08,-9.403018013734285e-08,-9.142649012850797e-08,-1.631973866997211e-08,-8.174099451224256e-08,-1.0236586328233547e-07,2.3371635714338544e-08,3.010081823581739e-08,-2.3203929673655687e-08,-6.136446258206961e-08,-6.894563940701347e-08,1.6087945444519422e-07,2.363447356178558e-07,7.46692478264799e-08,2.3528930829224642e-07,3.1556643885021155e-08,-1.1080516197419276e-08
-4.367832398783855e-09,8.523279893505504e-08,-6.047526808471773e-08,-6.006941342825199e-08,1.5053511188995427e-08,-5.2394336432725006e-08,-7.667345928422319e-08,1.4557909008670895e-08,4.671724224232519e-08,-2.9287287431338e-09,-4.0360234674447305e-08,-2.9648912007664247e-08,1.504520919400914e-07,2.0182105890662377e-07,6.483167056691914e-08,1.5371055345810158e-07,3.479895329820361e-08,6.638150186098642e-09
7.1965711502199304e-09,6.040552609182464e-08,-2.4792046376349347e-08,-2.070981820992643e-08,3.929181820562464e-08,-1.2492858118408793e-08,-4.695042972147244e-08,7.057769054737299e-09,4.926813269133628e-08,1.265109947057462e-08,-1.977771547868161e-08,1.2040759006779434e-08,1.2362091957146292e-07,1.4903288830818007e-07,4.691688833839383e-08,5.714728006285724e-08,3.0518555492131566e-08,2.0488776029511714e-08
1.574879644137462e-08,2.752484166914402e-08,9.103591937161725e-09,1.196555101378263e-08,5.5541236679071836e-08,2.9511988103685187e-08,-1.6222785705968358e-08,8.040356730525715e-10,3.961862388821842e-08,2.3076925670314116e-08,-8.121555435838644e-10,5.2679855985044495e-08,8.247285002190127e-08,8.236557490107177e-08,2.4281451882708227e-08,-4.09094767065993e-08,2.214785098338179e-08,3.138140950819294e-08
2.357915184468772e-08,-4.0233552969867975e-09,4.04586346761256e-08,3.998452705248309e-08,6.738986510827377e-08,6.903616125229095e-08,1.5835517896417885e-08,-9.548391964566355e-10,2.504579060661182e-08,3.145403495418235e-08,1.8346518546957104e-08,8.95325952372223e-08,3.366637600512967e-08,1.1167798799711724e-08,2.805040993619904e-09,-1.25351572130408e-07,1.4968853540636327e-08,4.1951935849138016e-08
3.4242970339588e-08,-2.48270485145123e-08,6.98373938784906e-08,6.857711987917994e-08,8.063716532586129e-08,1.0800520069685398e-07,5.1559669785313716e-08,5.682775701444385e-09,1.4730429815479972e-08,4.21758986336822e-08,4.051669876193969e-08,1.1917061837823874e-07,-1.510448230292366e-08,-5.4250514907580144e-08,-1.2406480279178651e-08,-1.8395843049485807e-07,1.2873054280255508e-08,5.365692510687378e-08
4.910259076638621e-08,-3.151531154175951e-08,9.79165673716228e-08,9.560573311320995e-08,9.708037968083345e-08,1.4428586515313745e-07,9.084382999508081e-08,1.9243429872587035e-08,1.3831480464644947e-08,5.638448527227154e-08,6.558921536374719e-08,1.361246017896698e-07,-5.9575508020338e-08,-1.08958998788543e-07,-2.0971135039675893e-08,-2.1350519886987018e-07,1.507261785823958e-08,6.397310529809633e-08
6.415561304842396e-08,-3.015670445651191e-08,1.233373165373138e-07,1.1655929431995882e-07,1.0975826312678787e-07,1.6939484606507785e-07,1.2759377549897126e-07,2.9336166830282327e-08,1.960451363052491e-08,6.90428516380361e-08,8.818290062955123e-08,1.336279848949791e-07,-1.0135244907428096e-07,-1.5728243361698963e-07,-2.8458275203592225e-08,-2.199852073194042e-07,1.5821947278672408e-08,6.639324532131188e-08
7.034045395200281e-08,-3.3970349787159604e-08,1.421765704332001e-07,1.2540968066251202e-07,1.0459450920862748e-07,1.71195201292059e-07,1.5082386762765244e-07,2.0210840478878094e-08,2.2798247502182435e-08,7.085043773849078e-08,9.966630580482745e-08,1.0680832726490173e-07,-1.4639189045863642e-07,-2.1027195399073217e-07,-4.338708277028517e-08,-2.156010775386851e-07,7.707043909066396e-09,5.40628972042905e-08
5.782201647070508e-08,-5.609145966830859e-08,1.49890821932365e-07,1.159085444438594e-07,6.859254721776577e-08,1.4154905290907072e-07,1.504154587633963e-07,-2.0057205826847207e-08,1.4017794099979396e-08,5.422554267017284e-08,9.357615163023553e-08,5.661829973831289e-08,-2.0007363321092554e-07,-2.7777477716715787e-07,-7.18607189905734e-08,-2.1201775839828567e-07,-1.3548093151206836e-08,2.464908491258243e-08
2.2263092494783584e-08,-1.0169828524958947e-07,1.4436280776080507e-07,8.776126277098237e-08,-9.618280808041808e-10,8.311494833876163e-08,1.23543356995066e-07,-9.137676655482213e-08,-9.980866361897175e-09,1.8872086496822205e-08,7.001360271206615e-08,-8.375539107208739e-09,-2.621036645933794e-07,-3.6084443008976016e-07,-1.1346518106718391e-07,-2.142384717852816e-07,-4.58154823081149e-08,-1.700402961200429e-08
-3.1486457304194874e-08,-1.651539667601657e-07,1.2769050219168262e-07,4.692710606734319e-08,-9.266089965263615e-08,1.0179505188542182e-08,7.732382910884964e-08,-1.8020418589691972e-07,-4.410052964870752e-08,-2.7104296362724804e-08,3.6152572780865786e-08,-7.436732253133564e-08,-3.249495566075941e-07,-4.4967828874434764e-07,-1.6104252293611123e-07,-2.203224451602178e-07,-8.089449154020513e-08,-6.04107241754111e-08
-9.098171230504108e-08,-2.3334538677648892e-07,1.0554230667518969e-07,3.2592114269000136e-09,-1.8490467204530263e-07,-5.7133444833030284e-08,2.604293353517986e-08,-2.6562480110049635e-07,-7.785696920619891e-08,-7.11574734230298e-08,2.3811900284179365e-09,-1.2814554138126776e-07,-3.771435993296275e-07,-5.280982125053046e-07,-2.0454059316027948e-07,-2.2425904724776096e-07,-1.0847333606016017e-07,-9.451769378530457e-08
-1.4208781437800384e-07,-2.929075290368082e-07,8.42496854429176e-08,-3.367229497815483e-08,-2.560730766631368e-07,-1.0230974198549812e-07,-1.5608993670720623e-08,-3.295459134521504e-07,-1.0142686257966143e-07,-1.0308320787645168e-07,-2.3685511462898567e-08,-1.6329553083313517e-07,-4.096281790514085e-07,-5.821294610528618e-07,-2.36896453853158e-07,-2.2126837190511076e-07,-1.2175038640631227e-07,-1.1359551401266141e-07
-1.7648261614855117e-07,-3.373176811988498e-07,6.709447620235462e-08,-5.951879373876155e-08,-2.953015360054443e-07,-1.2096536327195445e-07,-3.9917125498992565e-08,-3.659541995943009e-07,-1.1146488642483845e-07,-1.210572624712914e-07,-4.16416899736545e-08,-1.8324549198397737e-07,-4.2147987958940816e-07,-6.08134450721729e-07,-2.58543347119043e-07,-2.1210188575974102e-07,-1.2151429809761042e-07,-1.2083944501139073e-07
-1.9626365853605795e-07,-3.7032814849383166e-07,5.193608327119767e-08,-7.763219733422257e-08,-3.082156953023086e-07,-1.2356689963020147e-07,-4.9951193702502214e-08,-3.8421510451605245e-07,-1.1337770313611308e-07,-1.333018160392354e-07,-5.87963348952295e-08,-1.9922490170448985e-07,-4.214948079005411e-07,-6.153166588609886e-07,-2.7746926670445474e-07,-2.0380085970860786e-07,-1.1614328476487208e-07,-1.271073560096756e-07
-2.1226485758441262e-07,-4.0335049072572205e-07,3.207208860803429e-08,-9.730160517859386e-08,-3.134417934198148e-07,-1.2974373041863664e-07,-5.70470815996926e-08,-4.0368316974239635e-07,-1.1843474523605485e-07,-1.5369525880194817e-07,-8.582384789907459e-08,-2.2420323034827186e-07,-4.2426398352261616e-07,-6.203976218860894e-07,-3.0441227897060655e-07,-2.057260084613584e-07,-1.1729219334872627e-07,-1.4535370438887444e-07
-2.37087320282116e-07,-4.480610151169434e-07,2.2459463888407663e-10,-1.283146938687299e-07,-3.315231702945271e-07,-1.5705318659467251e-07,-7.337753269710137e-08,-4.422865477397023e-07,-1.3713742496767627e-07,-1.9365427703086212e-07,-1.3014499544838347e-07,-2.662830273472475e-07,-4.4284881107802836e-07,-6.379347646743085e-07,-3.462187816874326e-07,-2.239168637986578e-07,-1.339169644240376e-07,-1.8359821809663836e-07
-2.7744015364415506e-07,-5.085921327983152e-07,-4.665224891046902e-08,-1.7510096843790634e-07,-3.7374605804492553e-07,-2.1133223751093474e-07,-1.0466119074449226e-07,-5.063725959152921e-07,-1.7341253649298255e-07,-2.554424080923932e-07,-1.9126807053450143e-07,-3.2498738799549844e-07,-4.824333179430724e-07,-6.72616823813668e-07,-4.0157991456436416e-07,-2.576556325868606e-07,-1.682175963917779e-07,-2.4065548673610125e-07
-3.30435274824402e-07,-5.784240868650065e-07,-1.0511686648318133e-07,-2.3399848222183952e-07,-4.37160369112605e-07,-2.841939968761766e-07,-1.474497086113211e-07,-5.87919029307743e-07,-2.2278574082258255e-07,-3.307395359729964e-07,-2.6053174796196786e-07,-3.9190620679916655e-07,-5.384017993247328e-07,-7.177313148816165e-07,-4.614937458325577e-07,-2.996852602104399e-07,-2.1531871477510917e-07,-3.070890814873786e-07
-3.8564995403257626e-07,-6.439032607050171e-07,-1.6621269761377412e-07,-2.95002751513015e-07,-5.076459285066116e-07,-3.5805203943315866e-07,-1.9185578846065267e-07,-6.698194438041373e-07,-2.750600978821007e-07,-4.0468390007381395e-07,-3.2497485522791313e-07,-4.547666082582133e-07,-5.995382137185428e-07,-7.6013823584328e-07,-5.138969677897834e-07,-3.4022122023865433e-07,-2.6637568174150983e-07,-3.7018678193771426e-07
-4.3113253650827425e-07,-6.92004472904208e-07,-2.1925003957461163e-07,-3.468068594279072e-07,-5.674995653775576e-07,-4.1520782592877043e-07,-2.2758580063993074e-07,-7.355047569504075e-07,-3.197620710888869e-07,-4.629069190200035e-07,-3.730057686586366e-07,-5.025091901332157e-07,-6.544641770382064e-07,-7.888701974766966e-07,-5.497552596779669e-07,-3.720589607373658e-07,-3.132518801210751e-07,-4.200340401706438e-07
-4.6012307137896576e-07,-7.179757407585307e-07,-2.563856905538805e-07,-3.822925077461823e-07,-6.046887934396675e-07,-4.461672672185485e-07,-2.4976568927504735e-07,-7.774144635028723e-07,-3.513810339713944e-07,-4.979054403300008e-07,-3.990221046723105e-07,-5.290989068855398e-07,-6.975899197627077e-07,-8.02113914582883e-07,-5.670961490774712e-07,-3.944592586786264e-07,-3.5206999068676597e-07,-4.5346700952289435e-07
-4.7465369579480986e-07,-7.283425942718348e-07,-2.75188131301435e-07,-4.0133289381891343e-07,-6.180068274835903e-07,-4.52750859092846e-07,-2.61029494396948e-07,-7.994044417991605e-07,-3.712184346774756e-07,-5.112930305669439e-07,-4.0446834444187284e-07,-5.348119206586727e-07,-7.307928244895956e-07,-8.07592520063261e-07,-5.705811944622565e-07,-4.119978557535436e-07,-3.835004363211991e-07,-4.7353107124421574e-07
-4.835248746417384e-07,-7.365542245111267e-07,-2.786454333257963e-07,-4.093549282846333e-07,-6.149633844591579e-07,-4.4431984493148617e-07,-2.684181768394807e-07,-8.117144054985126e-07,-3.846206389435041e-07,-5.107571051866692e-07,-3.9523254617558866e-07,-5.248709355531418e-07,-7.598885884392505e-07,-8.159619336189615e-07,-5.672238194578407e-07,-4.3051119422376493e-07,-4.0984111088054207e-07,-4.851681229111314e-07
-4.958288801286905e-07,-7.540060057589531e-07,-2.71645828477972e-07,-4.130363345133008e-07,-6.050718645365947e-07,-4.3018912009656583e-07,-2.775288595073766e-07,-8.225244886023222e-07,-3.959684856003678e-07,-5.042021322400284e-07,-3.7789580915672355e-07,-5.065807654181913e-07,-7.889411176730866e-07,-8.325259751666204e-07,-5.616119351985486e-07,-4.5273736028055406e-07,-4.3154733459384393e-07,-4.908527260728126e-07
-5.149476494851467e-07,-7.830219893067494e-07,-2.577197751485203e-07,-4.1640522911124323e-07,-5.93009392060117e-07,-4.141191028918805e-07,-2.886099394659516e-07,-8.326244353700064e-07,-4.0532431163242286e-07,-4.954706368646838e-07,-3.5719850844246903e-07,-4.867553664302046e-07,-8.168694989140685e-07,-8.536710718283292e-07,-5.539494391987706e-07,-4.766892428843718e-07,-4.460765915483545e-07,-4.89386514066267e-07
-5.371292018150588e-07,-8.162404478448705e-07,-2.38271293041658e-07,-4.1981165265142224e-07,-5.772014693237579e-07,-3.945998085509087e-07,-2.973819457189202e-07,-8.367234987615325e-07,-4.092916428858851e-07,-4.843536178015226e-07,-3.3589643763448816e-07,-4.7056155324018204e-07,-8.385968080990628e-07,-8.703120617491286e-07,-5.41794330017307e-07,-4.977217308528455e-07,-4.4980190249534136e-07,-4.783014098779025e-07
-5.550280135867494e-07,-8.420775889972364e-07,-2.1395583318869175e-07,-4.2185313242511643e-07,-5.540141822194632e-07,-3.6972644526501547e-07,-2.9942190144266427e-07,-8.296645549761172e-07,-4.051141599983072e-07,-4.7004674404887136e-07,-3.1616656925902056e-07,-4.616227841891589e-07,-8.494502827901917e-07,-8.753817272313052e-07,-5.237635109377122e-07,-5.124120976939474e-07,-4.413699197354206e-07,-4.5744208882227455e-07
-5.633047071262568e-07,-8.525720425134825e-07,-1.868504504869888e-07,-4.2226372073793867e-07,-5.232299718492324e-07,-3.4188871489285107e-07,-2.943200923810184e-07,-8.122033720319853e-07,-3.94377696280934e-07,-4.545224778827168e-07,-3.0077690005429937e-07,-4.6227726693438504e-07,-8.492147305983092e-07,-8.693079459166324e-07,-5.020482838561866e-07,-5.211383552895105e-07,-4.2367180593414654e-07,-4.3050400448846883e-07
-5.61982988528737e-07,-8.47823829287156e-07,-1.6106867487689012e-07,-4.2314277871738284e-07,-4.898652380662848e-07,-3.176898072444336e-07,-2.860798531656627e-07,-7.912483487669803e-07,-3.8287722515638774e-07,-4.424654217354768e-07,-2.9266749732287134e-07,-4.7303135681058225e-07,-8.426274423981784e-07,-8.588886635833971e-07,-4.814190541353608e-07,-5.269538952871523e-07,-4.025298837678474e-07,-4.0319726454326537e-07
-5.553815396988316e-07,-8.341634230829859e-07,-1.4114654884378793e-07,-4.273659584621168e-07,-4.6043953126542694e-07,-3.0288104225820703e-07,-2.7946309638039233e-07,-7.742613724388588e-07,-3.7656715582677424e-07,-4.37822929830978e-07,-2.930439482426887e-07,-4.915265977639382e-07,-8.361760047079216e-07,-8.509909108120022e-07,-4.6560004241770263e-07,-5.321445436423318e-07,-3.8296081169196436e-07,-3.796308407996423e-07
-5.476329413934563e-07,-8.18306991348727e-07,-1.2924188025908536e-07,-4.356951299174039e-07,-4.3710901195881635e-07,-2.9699427346894317e-07,-2.7561279224932815e-07,-7.630260772410728e-07,-3.7719395916993055e-07,-4.4048265009324204e-07,-2.999932105747243e-07,-5.12458831531839e-07,-8.342533625946175e-07,-8.47240089403928e-07,-4.5448755606858036e-07,-5.35425424204218e-07,-3.6611334773634343e-07,-3.5983138223001524e-07
-5.39767964388249e-07,-8.03141909896347e-07,-1.2400099414909464e-07,-4.4538330411381926e-07,-4.1492621319672573e-07,-2.926707419135024e-07,-2.707734263802574e-07,-7.523878527922593e-07,-3.80958598128202e-07,-4.463350319507862e-07,-3.0919581370120134e-07,-5.295989674894359e-07,-8.378543121190737e-07,-8.441127218698539e-07,-4.4480149364299274e-07,-5.32559326341651e-07,-3.494627637063272e-07,-3.411754053837369e-07
-5.302571708510687e-07,-7.88337167015711e-07,-1.2128831413892618e-07,-4.517608792648685e-07,-3.8496324159974007e-07,-2.805725788752368e-07,-2.5922780613593847e-07,-7.34948468043139e-07,-3.8136210294934137e-07,-4.507326397012424e-07,-3.1625946951360084e-07,-5.392943562413042e-07,-8.46259451089855e-07,-8.375162144013676e-07,-4.3363461654444076e-07,-5.197346518948355e-07,-3.2997173027122594e-07,-3.218570073089368e-07
-5.181208558733043e-07,-7.744425076572529e-07,-1.1719891234537176e-07,-4.518090238959949e-07,-3.41038387686267e-07,-2.5637033594990516e-07,-2.382637045898106e-07,-7.078236867252735e-07,-3.73767343355519e-07,-4.524642417834072e-07,-3.19620818378225e-07,-5.429017964120279e-07,-8.595250529703987e-07,-8.27466452206243e-07,-4.2186622204468714e-07,-4.971502780094568e-07,-3.0763990217448856e-07,-3.0340536821492743e-07
-5.057646094097174e-07,-7.658432430291769e-07,-1.104996342212379e-07,-4.46889883505441e-07,-2.843679484019046e-07,-2.2439319322442657e-07,-2.1112017452608496e-07,-6.758186467566125e-07,-3.5821804996281764e-07,-4.547936474536552e-07,-3.2153416558699305e-07,-5.458406222642959e-07,-8.791754749885742e-07,-8.185632269641773e-07,-4.1422659142513515e-07,-4.696074463175868e-07,-2.861937910386024e-07,-2.901048530604016e-07
-4.981131097173645e-07,-7.688808058729698e-07,-1.0226700915155274e-07,-4.420455124872465e-07,-2.2255692121525342e-07,-1.9460838010976705e-07,-1.8503437019367544e-07,-6.480306657230628e-07,-3.38365791228017e-07,-4.623781057357967e-07,-3.2597063728361763e-07,-5.537153733645767e-07,-9.063327313602545e-07,-8.1543684284307e-07,-4.154783728503549e-07,-4.4346400955080346e-07,-2.7034316313837735e-07,-2.854063983066132e-07
-4.987635443657902e-07,-7.861513486782166e-07,-9.365512016520667e-08,-4.4204968219907104e-07,-1.6311461120925365e-07,-1.7511330708566178e-07,-1.6562553178329808e-07,-6.305096563957192e-07,-3.176636952166584e-07,-4.765164738694705e-07,-3.3477820155712673e-07,-5.682851232461871e-07,-9.38933026272478e-07,-8.169803892084138e-07,-4.257083762702701e-07,-4.2227942364527866e-07,-2.622307920614849e-07,-2.8847519835607613e-07
-5.064967170187258e-07,-8.123562703201117e-07,-8.357552868262056e-08,-4.4730959977942667e-07,-1.0745418214146573e-07,-1.6624936314952926e-07,-1.5215315144642744e-07,-6.210595758351621e-07,-2.9622098273121083e-07,-4.92739895688361e-07,-3.4507122894684346e-07,-5.858265078984833e-07,-9.705656844961175e-07,-8.146543426869854e-07,-4.385871453389404e-07,-4.0498898689564576e-07,-2.597147004935006e-07,-2.9369025167302383e-07
-5.151451398363509e-07,-8.358060777722668e-07,-6.844039741812264e-08,-4.527926431612986e-07,-5.0412274902137235e-08,-1.607452467117656e-07,-1.3738140642084487e-07,-6.103178541527023e-07,-2.7084344223350745e-07,-5.02815861604673e-07,-3.5018070612887135e-07,-5.987454783404077e-07,-9.924149359320353e-07,-7.971130302135173e-07,-4.4416095572251704e-07,-3.8743344562319695e-07,-2.5777368245508923e-07,-2.9362208686057806e-07
-5.16865256874085e-07,-8.449839673364826e-07,-4.456461802012432e-08,-4.507969339699101e-07,1.49385382610376e-08,-1.4946414881266448e-07,-1.1233082878349106e-07,-5.884823301328063e-07,-2.3835216819177397e-07,-5.000305289394977e-07,-3.440294154327271e-07,-5.996921340165527e-07,-9.97730887866178e-07,-7.586942683682175e-07,-4.346373781488943e-07,-3.665462862480253e-07,-2.519801340583349e-07,-2.8362391501609443e-07
-5.072018119934071e-07,-8.360470828502158e-07,-1.1463247956030653e-08,-4.358533931992086e-07,9.041293865463099e-08,-1.2857243249174765e-07,-7.302232111013541e-08,-5.53136712628645e-07,-1.9970169557974797e-07,-4.844021961522928e-07,-3.260897814748414e-07,-5.861571899833859e-07,-9.862607084280993e-07,-7.06037703192521e-07,-4.094897158052738e-07,-3.4451163893911826e-07,-2.415622748262618e-07,-2.649941873049814e-07
-4.885325055355933e-07,-8.161649249331423e-07,2.6612613380274807e-08,-4.085933543106997e-07,1.689646898461099e-07,-1.0279432464719175e-07,-2.4689277843206492e-08,-5.123532183563292e-07,-1.6163709903890795e-07,-4.6400916476756794e-07,-3.0299498327312457e-07,-5.626707894060581e-07,-9.655109139609487e-07,-6.573498687436461e-07,-3.7622821377493907e-07,-3.2887164245397375e-07,-2.297930051960054e-07,-2.4474334513942783e-07
-4.689355932088484e-07,-8.000248070425527e-07,6.21971240179776e-08,-3.7587597372721554e-07,2.3761897402474518e-07,-8.185824915742806e-08,1.9927294364976887e-08,-4.80098385366644e-07,-1.3388923453039056e-07,-4.5078096416817264e-07,-2.848725067218334e-07,-5.385740912860061e-07,-9.474865110631555e-07,-6.334514720033156e-07,-3.460793148612886e-07,-3.284968402490931e-07,-2.214024257120415e-07,-2.3182042735223516e-07
-4.5711874427261327e-07,-8.01217445208122e-07,8.844951340074527e-08,-3.4704622905799974e-07,2.8460348516540905e-07,-7.272774922461805e-08,4.7468520139983437e-08,-4.6690645839841476e-07,-1.2347846461701742e-07,-4.5333641076775025e-07,-2.788452244602443e-07,-5.225652037034574e-07,-9.425635817169662e-07,-6.46013743044706e-07,-3.2760677653865987e-07,-3.478124640869535e-07,-2.1903811223591587e-07,-2.3195801072345526e-07
-4.570886001978206e-07,-8.242428734426715e-07,1.0272207080020076e-07,-3.2891067459804376e-07,3.0699741193399667e-07,-7.384850975464019e-08,5.150600869623926e-08,-4.725435029490217e-07,-1.3021056179137364e-07,-4.7186794624270963e-07,-2.8453151894650047e-07,-5.179875892132453e-07,-9.540950605820586e-07,-6.907737945337731e-07,-3.225081008968341e-07,-3.830025950934781e-07,-2.212442773074354e-07,-2.443446821039044e-07
-4.6627764156274146e-07,-8.622384221608394e-07,1.0767126344184578e-07,-3.2255322937691743e-07,3.1280975347907136e-07,-7.554533055146354e-08,3.606925865810112e-08,-4.855253669800227e-07,-1.4708767966347204e-07,-4.981677840066735e-07,-2.9418727892289813e-07,-5.219628740865658e-07,-9.769446369385109e-07,-7.497765950963251e-07,-3.258215093902916e-07,-4.226645974881187e-07,-2.231773432588224e-07,-2.619599619294914e-07
-4.781745340269823e-07,-9.017846534390248e-07,1.0975546154246361e-07,-3.2354919621455403e-07,3.1665933690970354e-07,-6.568367040409961e-08,1.326729173090651e-08,-4.89480539384447e-07,-1.6181728807624944e-07,-5.202341192492188e-07,-2.9696513997798444e-07,-5.282758743339203e-07,-1.0007976133207355e-06,-8.007126017892182e-07,-3.2985873091039643e-07,-4.525367905169955e-07,-2.194840510324691e-07,-2.754083526302421e-07
-4.872802471729091e-07,-9.316380167923073e-07,1.1636579409324395e-07,-3.2490209591759125e-07,3.324602211171063e-07,-3.642259268542278e-08,-3.29262593727252e-09,-4.7223273490220206e-07,-1.6181278621689114e-07,-5.284953569410748e-07,-2.845571027022266e-07,-5.315636649022227e-07,-1.0161246323780682e-06,-8.276049317661327e-07,-3.290090367668435e-07,-4.6150332036473866e-07,-2.0755478984478078e-07,-2.776074451226187e-07
-4.93033277092397e-07,-9.495887887522803e-07,1.3289004348523025e-07,-3.202906603570811e-07,3.6729450157022785e-07,1.2449904581642045e-08,-4.759993898483395e-09,-4.316865076628553e-07,-1.4002669316180768e-07,-5.199210230219136e-07,-2.549880131791283e-07,-5.299193304640575e-07,-1.018876587637501e-06,-8.265579006568914e-07,-3.220226414281807e-07,-4.4545093599784845e-07,-1.8889965197709277e-07,-2.6639093789847787e-07
-4.997256400937644e-07,-9.626942866448048e-07,1.6162149460415737e-07,-3.05289866804511e-07,4.206131119968283e-07,7.56176953769824e-08,1.127402921893893e-08,-3.7461700865100533e-07,-9.375941819047313e-08,-4.976927869702069e-07,-2.123255398706298e-07,-5.244391912225574e-07,-1.0110174446442347e-06,-8.035897580658142e-07,-3.1041587974170326e-07,-4.0719401280341645e-07,-1.6745228029901734e-07,-2.436034992424462e-07
-5.124386161633992e-07,-9.80805286304354e-07,2.0228398774686685e-07,-2.765877951044472e-07,4.881164326552309e-07,1.4736995161633445e-07,4.3745007067920605e-08,-3.102040184055933e-07,-2.1786374335915903e-08,-4.676546969621698e-07,-1.6344157295853324e-07,-5.168500671223748e-07,-9.97412050840272e-07,-7.677325239257066e-07,-2.951107613956164e-07,-3.5359051193091153e-07,-1.463711360545523e-07,-2.122695306750573e-07
-5.326902593786483e-07,-1.0091359729259153e-06,2.52925438962718e-07,-2.3151273173698023e-07,5.658385798135656e-07,2.2475599857692353e-07,9.171389768901283e-08,-2.4537025360309e-07,7.270383680709398e-08,-4.3509550467978795e-07,-1.1505942112736045e-07,-5.078742680888134e-07,-9.82293462446437e-07,-7.259623173802571e-07,-2.748921291865986e-07,-2.927523931952219e-07,-1.2625985387187292e-07,-1.7476719389632161e-07
-5.573181098675517e-07,-1.0451310565094145e-06,3.1018328237422353e-07,-1.695367108747828e-07,6.50332394834126e-07,3.0601839249846685e-07,1.547579568230591e-07,-1.818326181344126e-07,1.800765435644722e-07,-4.0404398256702164e-07,-7.291981232672512e-08,-4.977639673025595e-07,-9.680730179365865e-07,-6.833554993403049e-07,-2.4818632453794836e-07,-2.3301490884486085e-07,-1.0611758026287393e-07,-1.3355822485563565e-07
-5.810946769341868e-07,-1.0810940839527735e-06,3.687760008429233e-07,-9.471902936351093e-08,7.35708225092056e-07,3.863436316172548e-07,2.3001733558161312e-07,-1.22859260730573e-07,2.9896091297796825e-07,-3.7843880024610434e-07,-4.229029787703888e-08,-4.879578292079846e-07,-9.564800717678933e-07,-6.461503585361672e-07,-2.16306152364202e-07,-1.8286119866430712e-07,-8.577984003923097e-08,-9.315340351857903e-08
-6.006476236746079e-07,-1.1100214488128067e-06,4.2164698281119877e-07,-1.657530050843918e-08,8.113453544628825e-07,4.555626611607314e-07,3.092499581508178e-07,-7.549960983116677e-08,3.9709484199533423e-07,-3.6305866125747084e-07,-2.7972939790839477e-08,-4.817622308210857e-07,-9.497463097389077e-07,-6.229179372410797e-07,-1.8482916489898638e-07,-1.5007433594410083e-07,-6.72778249285959e-08,-6.092479131354717e-08
-6.166126856732561e-07,-1.129953241076572e-06,4.6121256220275434e-07,5.221002461774504e-08,8.643121870569524e-07,5.009266700480171e-07,3.7966209809878203e-07,-4.096591828568234e-08,4.3504517980443953e-07,-3.6246476508869727e-07,-3.297105321309365e-08,-4.831092604255541e-07,-9.499786532623407e-07,-6.213716037702798e-07,-1.6137876488882274e-07,-1.3929666608000868e-07,-5.3675821540529664e-08,-4.4934360174667544e-08
-6.322851616764511e-07,-1.1437454671434844e-06,4.819736104123628e-07,1.0056743957116144e-07,8.85618402277934e-07,5.137947501485814e-07,4.290643311451597e-07,-3.413925726041204e-08,4.876490249224268e-07,-3.782606485370912e-07,-5.669706870220913e-08,-4.944135946857315e-07,-9.573660623713882e-07,-6.431130819305105e-07,-1.513132672567486e-07,-1.4960190506497795e-07,-4.6454049567428436e-08,-4.973044872639422e-08
-6.499935858061324e-07,-1.1551380235908213e-06,4.83095268022863e-07,1.2365525672218668e-07,8.765194279200193e-07,4.954098971350215e-07,4.5183683570939095e-07,-6.564163325104722e-08,5.182736919336258e-07,-4.0706994288219356e-07,-9.422731522756098e-08,-5.153311575944007e-07,-9.692794443090315e-07,-6.811612655562134e-07,-1.5468403060499552e-07,-1.7431718289353837e-07,-4.401624226309561e-08,-7.343649555874387e-08
-6.684326658476668e-07,-1.1653347392564104e-06,4.690643036218794e-07,1.2444976568226823e-07,8.494967707611334e-07,4.5725049400990725e-07,4.5130143982000815e-07,-1.0502865204262462e-07,4.4928752020025195e-07,-4.4129822184067344e-07,-1.375817912884056e-07,-5.432006175071492e-07,-9.812270483985056e-07,-7.228422686757029e-07,-1.6670767310987607e-07,-2.0380175546266493e-07,-4.2756113621019585e-08,-1.0826506933130863e-07
-6.833009906230431e-07,-1.1730568387864739e-06,4.477399660803796e-07,1.1143805100300127e-07,8.224799739978862e-07,4.154243561342235e-07,4.36946441318609e-07,-1.3127305756464017e-07,3.716010771747486e-07,-4.7244949648603025e-07,-1.7873869800564213e-07,-5.745436778376552e-07,-9.889330934329324e-07,-7.56245185480768e-07,-1.8121639824220763e-07,-2.298918676261501e-07,-3.975739169716708e-08,-1.4466513107012975e-07
-6.907269233501783e-07,-1.177472759022328e-06,4.2674704821023354e-07,9.40225521380113e-08,8.097474600605612e-07,3.8274998973056795e-07,4.1865735442536714e-07,-1.501747402735951e-07,3.2846250762315807e-07,-4.948905269450322e-07,-2.1273046848496263e-07,-6.063757084929662e-07,-9.901625053039058e-07,-7.758147669897604e-07,-1.94286372667886e-07,-2.49090139901377e-07,-3.4910770524320555e-08,-1.7555021708794314e-07
-6.902671805440169e-07,-1.1804326512942759e-06,4.105768272724173e-07,7.856859481941907e-08,8.157033145706404e-07,3.637669642826126e-07,4.0209390774396297e-07,-1.608081980380206e-07,3.099945196259773e-07,-5.075779595096432e-07,-2.3866882775005126e-07,-6.362446289175698e-07,-9.851373574716241e-07,-7.832160959837254e-07,-2.051346747674911e-07,-2.622994405481781e-07,-3.0591220378125556e-08,-1.977010327555925e-07
-6.851802685645094e-07,-1.1853583313252442e-06,4.000808899531984e-07,6.74110811465187e-08,8.353055847026026e-07,3.557136120753859e-07,3.8824940704995347e-07,-1.6416481992608332e-07,3.0681908195086907e-07,-5.127107754904795e-07,-2.578548690104141e-07,-6.610873753517092e-07,-9.752841504677148e-07,-7.833284827120067e-07,-2.139511539287767e-07,-2.714974491128391e-07,-2.909503292510618e-08,-2.1054390452408536e-07
-6.792122400921143e-07,-1.1930194989528581e-06,3.941923572786892e-07,6.062011537689251e-08,8.591716045392636e-07,3.5351932507751007e-07,3.7646791240079617e-07,-1.6638012480960935e-07,3.0501162118284176e-07,-5.129054628605775e-07,-2.7084705807788737e-07,-6.765048987197033e-07,-9.61467933810014e-07,-7.792732134235724e-07,-2.1932146046743723e-07,-2.762376301858926e-07,-3.0198479968175236e-08,-2.1396648426990753e-07
-6.735617224893071e-07,-1.1992060465087966e-06,3.9158951348824595e-07,5.802461486707035e-08,8.785753142790181e-07,3.53746655730709e-07,3.67317188157358e-07,-1.694541920172396e-07,3.0333481336172907e-07,-5.096469954127017e-07,-2.7652360884190507e-07,-6.779882671027813e-07,-9.434928743358767e-07,-7.704924562182114e-07,-2.180196044438671e-07,-2.7297658498945735e-07,-3.114446760579642e-08,-2.0780092598151157e-07
-6.667584300735553e-07,-1.1963208448790848e-06,3.9106548636145554e-07,5.942476568301445e-08,8.867128713541948e-07,3.5460982114575437e-07,3.6272076224455426e-07,-1.72902023235791e-07,2.9907458031109957e-07,-5.03952052573603e-07,-2.7378224266873456e-07,-6.637166729005956e-07,-9.213173585109104e-07,-7.543405770525743e-07,-2.072856006453782e-07,-2.571676617430484e-07,-2.891993224398966e-08,-1.9281461784096225e-07
-6.565346147591773e-07,-1.1781977756757871e-06,3.9070181025851745e-07,6.336347901621028e-08,8.774187837021483e-07,3.538437207204893e-07,3.640670113806455e-07,-1.7660266702545574e-07,2.8984808835006613e-07,-4.975804130946764e-07,-2.639352847325763e-07,-6.367407212521439e-07,-8.963021299696291e-07,-7.284466211894513e-07,-1.8714113640516308e-07,-2.262790839574149e-07,-2.2530182375307467e-08,-1.715730144300855e-07
-6.423315643339471e-07,-1.1439578414834617e-06,3.8726749820690636e-07,6.64792902799822e-08,8.45354121279845e-07,3.4816751454724184e-07,3.709619811639062e-07,-1.8165598279230904e-07,2.781363913061402e-07,-4.926670633067147e-07,-2.5095497357080957e-07,-6.045024965455022e-07,-8.705167096315752e-07,-6.910100226204946e-07,-1.6022489998908924e-07,-1.8102927567422313e-07,-1.2984741910006522e-08,-1.4746312970707115e-07
-6.254948155704528e-07,-1.0977439355765843e-06,3.772493984507631e-07,6.479920269682787e-08,7.895552581885374e-07,3.356725686773239e-07,3.821069165763174e-07,-1.881933409908287e-07,2.6300981958865603e-07,-4.897027634397676e-07,-2.3902132186898434e-07,-5.757888572437961e-07,-8.44480110435106e-07,-6.392419139787693e-07,-1.292774288056458e-07,-1.241851148925289e-07,-1.1264847575098647e-09,-1.2207582637984183e-07
-6.073485962988064e-07,-1.0443446167003632e-06,3.589739898382027e-07,5.6101129634783536e-08,7.17705858065439e-07,3.1852820974441146e-07,3.9699980552691834e-07,-1.931216515590897e-07,2.466934234110346e-07,-4.860182764473917e-07,-2.2973822512038716e-07,-5.572884691579563e-07,-8.158666864575235e-07,-5.690310732070258e-07,-9.501823863071315e-08,-5.904863334322109e-08,1.4192966131030906e-08,-9.388081801645562e-08
-5.876148639520101e-07,-9.860664944273963e-07,3.3396893354806013e-07,4.114950847481235e-08,6.461655009323042e-07,3.0249700926877077e-07,4.161287580469673e-07,-1.9118217113026687e-07,2.3436604209386257e-07,-4.7679461720613065e-07,-2.2160601053317173e-07,-5.518559002351743e-07,-7.807484510281711e-07,-4.778510169032623e-07,-5.6659722939923904e-08,1.0820486353250435e-08,3.5763144446007693e-08,-5.96066098835195e-08
-5.652830026637674e-07,-9.240128920548354e-07,3.062598828296672e-07,2.272644079859044e-08,5.937119602663409e-07,2.929423825190963e-07,4.391740676686663e-07,-1.7916700725938804e-07,2.2946103762923965e-07,-4.5827771944513687e-07,-2.1214512577321773e-07,-5.588375898539339e-07,-7.362610080663632e-07,-3.690736174142033e-07,-1.4368320475399713e-08,8.089456991000909e-08,6.592808106837662e-08,-1.735288513466748e-08
-5.403195347276008e-07,-8.607067409946392e-07,2.8016570967551915e-07,3.58774440968738e-09,5.729709655572717e-07,2.908007173421992e-07,4.632374548108949e-07,-1.5953101243811357e-07,2.312014367627585e-07,-4.3056812598083784e-07,-2.0032870916855185e-07,-5.753038950734721e-07,-6.824063548544961e-07,-2.5340810244625474e-07,2.9130677195270917e-08,1.456784560738932e-07,1.0473958882012087e-07,3.1435528989099245e-08
-5.143955873280989e-07,-8.005722712920376e-07,2.584704406998371e-07,-1.4631314267580006e-08,5.853442632220722e-07,2.9232537758575916e-07,4.83487953597116e-07,-1.396046486275193e-07,2.3495443284059058e-07,-3.9737873935381594e-07,-1.8694594375566378e-07,-5.96973474400888e-07,-6.217710995667183e-07,-1.4494128988973716e-07,6.971722556438513e-08,2.0075525066377796e-07,1.4992671803789572e-07,8.304393229230369e-08
-4.898737325721788e-07,-7.473081939896375e-07,2.4222620562228617e-07,-3.0854244347283645e-08,6.223177942023582e-07,2.926600975084389e-07,4.961395091802199e-07,-1.267302725746856e-07,2.3551512377040947e-07,-3.6303152486804324e-07,-1.7279190808733139e-07,-6.188006427332888e-07,-5.577716012111677e-07,-5.4399252317713427e-08,1.0464707893909484e-07,2.4504253397251554e-07,1.9833427865856106e-07,1.3394018658262897e-07
-4.6795574376870673e-07,-7.014953994105674e-07,2.3151839586515474e-07,-4.3655840594473933e-08,6.7123649685867e-07,2.8941045422538123e-07,5.00941334371152e-07,-1.2384023234959085e-07,2.305342792252828e-07,-3.29774801772191e-07,-1.5716789784390434e-07,-6.359951060636469e-07,-4.931083985709638e-07,1.4676096212533903e-08,1.3393528212261774e-07,2.808330112550657e-07,2.4710556461223933e-07,1.8194853173360274e-07
-4.4852605764133533e-07,-6.614327676262201e-07,2.257993463281012e-07,-5.1668382769498985e-08,7.201911009740712e-07,2.8285163837709397e-07,5.006351144692169e-07,-1.293905946743312e-07,2.211872835429438e-07,-2.9792263350470096e-07,-1.3845937790632192e-07,-6.45571307364373e-07,-4.297926460228802e-07,6.40663028573195e-08,1.58902966058589e-07,3.111017719716943e-07,2.934738011947709e-07,2.2526813146274662e-07
-4.320165536214737e-07,-6.268732308326357e-07,2.2341188748201466e-07,-5.531453527276454e-08,7.595727656343117e-07,2.7314995553532136e-07,4.977963959031325e-07,-1.4106210038592522e-07,2.0974991283227608e-07,-2.681955083409758e-07,-1.1597176479976832e-07,-6.475501828128146e-07,-3.704957248788247e-07,9.596708481968425e-08,1.7951581789581495e-07,3.36309018924379e-07,3.337961965658543e-07,2.6110211658744295e-07
-4.2108079491107095e-07,-6.018000274130382e-07,2.212258917635157e-07,-5.798561617178155e-08,7.8163060472436e-07,2.581019087536057e-07,4.921154919911261e-07,-1.590674778810796e-07,1.9679658170823437e-07,-2.433503180218864e-07,-9.111304738848702e-08,-6.448976914395965e-07,-3.1923231710037406e-07,1.1008046861190485e-07,1.934846035744983e-07,3.538336737976219e-07,3.6355488634021437e-07,2.8604404496664437e-07
-4.198340216931837e-07,-5.929962197196124e-07,2.1546699127373924e-07,-6.471644442523786e-08,7.811945596497129e-07,2.3451159068074743e-07,4.809666723938417e-07,-1.8543648911956566e-07,1.8112112115190854e-07,-2.2690664617184305e-07,-6.647410069477476e-08,-6.419219117075697e-07,-2.797780365179384e-07,1.0545296574292626e-07,1.983417564578325e-07,3.607754888728045e-07,3.7927667239676595e-07,2.982971316891797e-07
-4.305795976208405e-07,-6.045225201713283e-07,2.0370577169818986e-07,-7.879153711825591e-08,7.584067626621568e-07,2.0232560824475744e-07,4.6285879508497485e-07,-2.1992327343075436e-07,1.625541184675941e-07,-2.1993063608067305e-07,-4.340766742574718e-08,-6.418389709317587e-07,-2.5294792926859023e-07,8.49050679038429e-08,1.9460268444716908e-07,3.5774657572712373e-07,3.811858110302961e-07,3.0004803884509247e-07
-4.5071870350237477e-07,-6.326319960287724e-07,1.8660979067776943e-07,-9.908158726568898e-08,7.205041329105643e-07,1.672446838300182e-07,4.4032059360831254e-07,-2.569662950818114e-07,1.4435689681735283e-07,-2.1909000900045244e-07,-2.0446715901897802e-08,-6.450056604624553e-07,-2.354898461850895e-07,5.725544702679996e-08,1.8694816429234098e-07,3.500739666313832e-07,3.742491355965248e-07,2.97634376177358e-07
-4.7289063654446635e-07,-6.65839038956164e-07,1.6792611419684551e-07,-1.20421547996018e-07,6.79833484140121e-07,1.3871525220695886e-07,4.193580927832759e-07,-2.872741402316885e-07,1.3227653805952652e-07,-2.1807250646134987e-07,5.787775216482758e-09,-6.489172653548143e-07,-2.2171876978237258e-07,3.4696344703577e-08,1.8211507749973073e-07,3.4539918957399593e-07,3.6634768728556045e-07,2.984033973024307e-07
-4.884168466053791e-07,-6.905801650771807e-07,1.5251387083552737e-07,-1.3683450784309417e-07,6.484256007486498e-07,1.24444524969439e-07,4.058424320169441e-07,-3.0320357199674184e-07,1.307614107319268e-07,-2.1143225682812292e-07,3.7684279310276925e-08,-6.497838226749947e-07,-2.0644239063132198e-07,2.6959580916130808e-08,1.849245078383454e-07,3.493783556158604e-07,3.644545464481665e-07,3.0682918736885327e-07
-4.919384307971683e-07,-6.984152267956228e-07,1.4360132430395293e-07,-1.4531909949851576e-07,6.326894598822535e-07,1.2566802320607373e-07,4.018212197056481e-07,-3.0347398071370376e-07,1.3970588102123375e-07,-1.9783620437549844e-07,7.411130460169159e-08,-6.444541022210811e-07,-1.8689407196054235e-07,3.6744577487721204e-08,1.9554187300917856e-07,3.627085035562084e-07,3.7150601658277436e-07,3.224165078004451e-07
-4.840089930076082e-07,-6.894302561529874e-07,1.4126722223629554e-07,-1.473673126319333e-07,6.318291657172127e-07,1.3701258449916283e-07,4.048737203727324e-07,-2.931101763035635e-07,1.5474732169046833e-07,-1.8007404026693758e-07,1.1059374006932536e-07,-6.313313641355988e-07,-1.6249424150455587e-07,6.006692289853677e-08,2.103020944311212e-07,3.818584960831618e-07,3.863490321391379e-07,3.412351734528535e-07
-4.6964397543228526e-07,-6.692222820029411e-07,1.4358714813637152e-07,-1.4698207178024922e-07,6.409547521133805e-07,1.509593216332816e-07,4.1097525127886984e-07,-2.788656587768e-07,1.7078762523521843e-07,-1.6201135921008978e-07,1.42249220909054e-07,-6.100022435650934e-07,-1.3328448555221718e-07,9.068101810445155e-08,2.253027007022781e-07,4.0252431144785374e-07,4.061911443986082e-07,3.5983400636765014e-07
-4.5406627800511765e-07,-6.429155804358208e-07,1.48919016847237e-07,-1.4703523311789274e-07,6.558666916853643e-07,1.6285307131138567e-07,4.180831307801494e-07,-2.646225672621383e-07,1.8543900896205727e-07,-1.4548059989296241e-07,1.666733290268707e-07,-5.805970580202645e-07,-9.902422002645266e-08,1.2398464402018547e-07,2.3937251972286653e-07,4.22530957937323e-07,4.287361146877285e-07,3.7768705841682117e-07
-4.395867726192516e-07,-6.122888014028805e-07,1.5719102998880638e-07,-1.4729143225527071e-07,6.753535135476248e-07,1.722491534494577e-07,4.2709376080295645e-07,-2.50883062025682e-07,1.9937432197008647e-07,-1.2998456051476424e-07,1.8450385719026494e-07,-5.439822814510368e-07,-6.005072108636571e-08,1.5707829962802847e-07,2.5376195812004397e-07,4.418502603225928e-07,4.522070447766308e-07,3.962940154059922e-07
-4.260974868870566e-07,-5.781318438994567e-07,1.6893254182014597e-07,-1.456532276983511e-07,6.991016938729904e-07,1.799903012327615e-07,4.3846515970726917e-07,-2.3827405872476658e-07,2.135106471036777e-07,-1.1529144270568706e-07,1.9760065341004252e-07,-5.029765008410725e-07,-1.9211329194306296e-08,1.8584148648179914e-07,2.690385873712943e-07,4.5997327076993576e-07,4.739106915313892e-07,4.1598202355916047e-07
-4.142397876217856e-07,-5.448859231319555e-07,1.82955665457292e-07,-1.4127830196522817e-07,7.236035431425408e-07,1.8416684098733394e-07,4.505873215458178e-07,-2.3127536152003503e-07,2.2569785293555012e-07,-1.0423301517580686e-07,2.0650747881582838e-07,-4.635482295581929e-07,1.710933284388072e-08,2.027574727352105e-07,2.82328194229296e-07,4.7353007108401013e-07,4.893769211526618e-07,4.3356199506501884e-07
-4.078312615438393e-07,-5.222303263218128e-07,1.9513303202773685e-07,-1.367058794832359e-07,7.40692378029942e-07,1.791926649008297e-07,4.5795012107588633e-07,-2.3794224297755125e-07,2.302995383557683e-07,-1.0255750959292143e-07,2.09597114362544e-07,-4.3406624888239315e-07,4.074920924122457e-08,1.9892687262473466e-07,2.879745523495064e-07,4.770496668261011e-07,4.93741296226044e-07,4.434596589293361e-07
-4.1246527121712476e-07,-5.207591609085038e-07,1.9985053398944069e-07,-1.3684072133813933e-07,7.413738367831031e-07,1.5960411591902275e-07,4.5344917692340753e-07,-2.646972694676868e-07,2.217393563231054e-07,-1.1518739212953612e-07,2.0486634553139113e-07,-4.217921626274738e-07,4.597671940924633e-08,1.7002188220371082e-07,2.815707936592878e-07,4.6694281977772123e-07,4.850018753509397e-07,4.4192680947461957e-07
-4.310532361330278e-07,-5.442302882981542e-07,1.9353535690660622e-07,-1.453213757362845e-07,7.224427458508196e-07,1.2574299050417845e-07,4.3476295223243243e-07,-3.099578756518289e-07,1.9940641579975e-07,-1.416275880680163e-07,1.928653149063144e-07,-4.2864751637675116e-07,3.333863592254547e-08,1.2164345882557572e-07,2.6405466447597726e-07,4.455609979956689e-07,4.6666016350445077e-07,4.3081295547250436e-07
-4.601624002254548e-07,-5.846134350804114e-07,1.7760447804868528e-07,-1.6127382313010814e-07,6.904055989689517e-07,8.643097954225963e-08,4.0703752075368825e-07,-3.6195172779858176e-07,1.6996133396901605e-07,-1.7423776679469695e-07,1.7809442925980094e-07,-4.4955719101113984e-07,1.0484957875247006e-08,6.922002180034169e-08,2.4247169482784154e-07,4.216572715685838e-07,4.4734074987069036e-07,4.1750947758898933e-07
-4.903061470959067e-07,-6.243284888612881e-07,1.5855085967832812e-07,-1.791620175721424e-07,6.593212478704041e-07,5.5896312076973384e-08,3.812425416264576e-07,-4.0312745762676814e-07,1.4488431332383487e-07,-2.0106574204468586e-07,1.6752394497451042e-07,-4.748793269889938e-07,-1.0741507037362381e-08,3.14334700469009e-08,2.2659135874186917e-07,4.062817375303091e-07,4.3699632830006145e-07,4.109215687299667e-07
-5.104288851892266e-07,-6.446341481080334e-07,1.4452115021492129e-07,-1.920224926871562e-07,6.433047714427917e-07,4.6129408160893855e-08,3.6845123636972457e-07,-4.1924292892094533e-07,1.3432036130546797e-07,-2.1206183639259572e-07,1.6677679217864457e-07,-4.95588220278501e-07,-1.988218135053239e-08,2.045502853134872e-08,2.2324859596636248e-07,4.0636692840012527e-07,4.4143348198055666e-07,4.1560321309617275e-07
-5.142783435507672e-07,-6.358490134041215e-07,1.4061770239446338e-07,-1.961439044983237e-07,6.47853341329719e-07,5.8882067183398954e-08,3.728929020256694e-07,-4.0824168428821723e-07,1.4049776311196458e-07,-2.0531438947834234e-07,1.7642391925636798e-07,-5.08109516280905e-07,-1.346096313342174e-08,3.456544052872686e-08,2.317867989425805e-07,4.1990182066550863e-07,4.582361742817433e-07,4.2766917844700486e-07
-5.048352507353018e-07,-6.035827073234891e-07,1.457876869024144e-07,-1.9414732569951502e-07,6.654437361650245e-07,8.268714625927218e-08,3.8790568554745344e-07,-3.831507211532594e-07,1.550194800877616e-07,-1.8922384691593238e-07,1.906189653686578e-07,-5.15860228232937e-07,2.757786780298565e-09,5.8075753045733057e-08,2.437207580701721e-07,4.3598212480389683e-07,4.769907804421796e-07,4.360067535539155e-07
-4.932008359938353e-07,-5.665941133252824e-07,1.5346956093344683e-07,-1.940039000139631e-07,6.791489117669911e-07,9.808297654318683e-08,3.9890659832605063e-07,-3.658785231114191e-07,1.6262420586002158e-07,-1.7843545597828428e-07,1.9947636926123178e-07,-5.265423610843031e-07,1.6634418611786662e-08,6.939838157949108e-08,2.472492833155953e-07,4.400827067703537e-07,4.842880961912088e-07,4.286284667574082e-07
-4.922860405966532e-07,-5.470627922720773e-07,1.5580105485219102e-07,-2.0425970180078784e-07,6.726595968876443e-07,8.848003621328195e-08,3.9296821455041634e-07,-3.7505277504810853e-07,1.4967538130605018e-07,-1.8565289981130706e-07,1.9429048787229332e-07,-5.46836364756011e-07,1.6200963420048845e-08,5.2710474391581187e-08,2.3386743976802226e-07,4.214501512386894e-07,4.706714235041255e-07,4.001806444196867e-07
-5.094099748433776e-07,-5.594432385419427e-07,1.4845909134687395e-07,-2.2866424419490077e-07,6.401764052825722e-07,4.959924346767675e-08,3.6459699577742534e-07,-4.1576498771768275e-07,1.1202247711643142e-07,-2.146127344689811e-07,1.7229359272857557e-07,-5.777510855762398e-07,-3.941783147337864e-09,6.233204775172895e-09,2.029595084853647e-07,3.7837030240701183e-07,4.354615655943162e-07,3.554622504645857e-07
-5.423856192014842e-07,-6.039081288127962e-07,1.330525373828207e-07,-2.636648564495461e-07,5.899959704614886e-07,-8.283702287870474e-09,3.1962112926863297e-07,-4.773080617824605e-07,5.7453335655530275e-08,-2.583924679079684e-07,1.3813638950091424e-07,-6.135744067082272e-07,-4.006724727201997e-08,-5.736377439121695e-08,1.6189744470523747e-07,3.1865718016946325e-07,3.869404390676964e-07,3.068037051823276e-07
-5.80946963538014e-07,-6.67261075315821e-07,1.1596255264534522e-07,-3.00059087794502e-07,5.402547636656794e-07,-6.591618720056714e-08,2.7225542453035295e-07,-5.393086302354288e-07,1.75809727064532e-09,-3.0347431771060394e-07,1.0158005012970585e-07,-6.451032191465804e-07,-8.19631908957995e-08,-1.181641556934487e-07,1.2191706539627652e-07,2.5538693001087664e-07,3.379279422182981e-07,2.6745581726837964e-07
-6.124787952707402e-07,-7.304855167063189e-07,1.0448052603381757e-07,-3.277914603517619e-07,5.094856466830423e-07,-1.0511104653767328e-07,2.3684688315304922e-07,-5.825235723648724e-07,-3.914746869767902e-08,-3.370284553809592e-07,7.265704155593496e-08,-6.650819758362079e-07,-1.191667970675891e-07,-1.5987575893593185e-07,9.201217532056644e-08,2.0003322081682032e-07,2.9906146249093314e-07,2.445821011618063e-07
-6.28945586804462e-07,-7.788789002180947e-07,1.023275561057255e-07,-3.414648186730211e-07,5.067553931520403e-07,-1.1826099267558236e-07,2.2077244921200284e-07,-5.989873234298738e-07,-5.691898774326989e-08,-3.537014636311296e-07,5.64137820933006e-08,-6.725902286380075e-07,-1.4714403287194934e-07,-1.787358766167187e-07,7.400068095618869e-08,1.5645474821142286e-07,2.7344009115016915e-07,2.3550007815827658e-07
-6.313876484012692e-07,-8.094977242984537e-07,1.0717427800120261e-07,-3.435828470516304e-07,5.264223274532606e-07,-1.122427495246161e-07,2.1969260049432238e-07,-5.961176332781529e-07,-5.437099317002305e-08,-3.582973110772687e-07,4.997640633806019e-08,-6.739008871741553e-07,-1.6960264584048562e-07,-1.8524058355505098e-07,6.16936055977959e-08,1.195338840334114e-07,2.557119889837426e-07,2.2943467002359785e-07
-6.293153690214723e-07,-8.31476954747071e-07,1.1177337890486955e-07,-3.4335965853879337e-07,5.509537814033305e-07,-1.0401180770734182e-07,2.2046483470636096e-07,-5.919396379968644e-07,-4.2992663250896825e-08,-3.62551268677343e-07,4.408895811136885e-08,-6.792810025342335e-07,-1.9536491529201782e-07,-1.9717925525044035e-07,4.5002130653364174e-08,7.965100368147219e-08,2.360517678058572e-07,2.140133423295276e-07
-6.349956197700907e-07,-8.587222558846104e-07,1.0812687053040973e-07,-3.5150905358128876e-07,5.604476486817294e-07,-1.1038789189391e-07,2.0920032694093583e-07,-6.041747078277895e-07,-3.597593268013746e-08,-3.779259440041364e-07,2.8571475399351796e-08,-6.975120674337172e-07,-2.3196253230655294e-07,-2.2834437783390064e-07,1.6469652140734256e-08,2.994099243478171e-08,2.0644270593424212e-07,1.8225035130299365e-07
-6.561905833217424e-07,-8.998755026479902e-07,9.209666177701291e-08,-3.74200558303744e-07,5.432410805485928e-07,-1.3858786432699885e-07,1.7962186867169804e-07,-6.402343489068846e-07,-4.1202834490343365e-08,-4.0917506342854166e-07,-1.8046980297208955e-09,-7.311456040555382e-07,-2.80320124635535e-07,-2.802845661282025e-07,-2.3977485286165703e-08,-2.8731375106689866e-08,1.6536922353408436e-07,1.3584145838063522e-07
-6.917818880317376e-07,-9.523774947056515e-07,6.572807378276156e-08,-4.098056639277694e-07,5.015718310732522e-07,-1.8291902526132034e-07,1.3630248734345883e-07,-6.938739039891231e-07,-5.8243679372416977e-08,-4.523514710583747e-07,-4.46617681219516e-08,-7.7489364155605e-07,-3.336572844028464e-07,-3.4169010661267555e-07,-6.875977902592575e-08,-8.801081475887645e-08,1.1824907423458549e-07,8.367310392286089e-08
-7.32482587061702e-07,-1.003790694206715e-06,3.6140403976346196e-08,-4.4997085873522956e-07,4.498064099237155e-07,-2.2860520955975407e-07,9.342121151688311e-08,-7.494481922326977e-07,-8.035999004092987e-08,-4.976245486800936e-07,-9.182338564679275e-08,-8.181025108662764e-07,-3.808005635238239e-07,-3.9481503499057324e-07,-1.0668328476217655e-07,-1.3668378407687146e-07,7.3738075096365e-08,3.699948149456443e-08
-7.658249727159428e-07,-1.0388603857937953e-06,1.1847444534532989e-08,-4.840712121923969e-07,4.06794675980415e-07,-2.600767874339303e-07,6.37861333285659e-08,-7.907585025205019e-07,-9.959980067476285e-08,-5.348463635304175e-07,-1.3402745159248582e-07,-8.504038649447626e-07,-4.1180728938518695e-07,-4.2482656575806654e-07,-1.2888400209446338e-07,-1.6668191946458262e-07,3.857029939798275e-08,3.968458004849204e-09
-7.826326404350905e-07,-1.0479125416673699e-06,-1.5452666126813146e-09,-5.045680370437105e-07,3.863686508850975e-07,-2.680138704487007e-07,5.482260002565882e-08,-8.095060153520732e-07,-1.1172131615952766e-07,-5.587009485126896e-07,-1.656469186611659e-07,-8.673630891035337e-07,-4.227636555789917e-07,-4.268535845715662e-07,-1.3317922885172226e-07,-1.7693188470938426e-07,1.4287904545698363e-08,-1.3774670229776027e-08
-7.812598786558351e-07,-1.0316533356408885e-06,-3.6656139528326566e-09,-5.102917714156955e-07,3.913170574104973e-07,-2.552179685199632e-07,6.528364730413079e-08,-8.083970302800998e-07,-1.1805081802493619e-07,-5.704223750729961e-07,-1.8659352593759788e-07,-8.723628959164383e-07,-4.1702425971674314e-07,-4.068154580748869e-07,-1.2408558745858726e-07,-1.7281571516972783e-07,-2.2572394600413367e-09,-2.0437792334204023e-08
-7.670380641525295e-07,-9.994429091046497e-07,1.7507715091872554e-09,-5.056966647905145e-07,4.1444192489029356e-07,-2.3153832214410873e-07,8.658735164833787e-08,-7.971186106529286e-07,-1.2324039525751187e-07,-5.752179854812957e-07,-2.0049600762717845e-07,-8.736182822206628e-07,-4.0232781972043043e-07,-3.7611241587992247e-07,-1.0879838038238791e-07,-1.6191361187980827e-07,-1.5424083260365037e-08,-2.2247131996776328e-08
-7.476706943041698e-07,-9.629654562169762e-07,1.0368226808631415e-08,-4.969054614826191e-07,4.451445566393373e-07,-2.0594759178867506e-07,1.1025754638736016e-07,-7.845929408184984e-07,-1.3078845909389703e-07,-5.77680749865481e-07,-2.108211652292047e-07,-8.786970096809258e-07,-3.860491885247069e-07,-3.44569447620957e-07,-9.250828526730073e-08,-1.4942976735764556e-07,-2.7222947932571173e-08,-2.3528469335281135e-08
-7.284255911923142e-07,-9.303479867056687e-07,2.0273770287572185e-08,-4.877667450892002e-07,4.756956374718598e-07,-1.8198639911295835e-07,1.3276668654888226e-07,-7.734557572119311e-07,-1.3993290138931368e-07,-5.787533471806812e-07,-2.1791711253473205e-07,-8.901112465437965e-07,-3.71923161939759e-07,-3.1669475848868937e-07,-7.650629522466018e-08,-1.3655922689239145e-07,-3.6418220381304884e-08,-2.5180156856147844e-08
-7.107137576896946e-07,-9.044833343592605e-07,3.2266084290424324e-08,-4.786788101273813e-07,5.028159202521418e-07,-1.5719864352921682e-07,1.5596351510810848e-07,-7.601665240705877e-07,-1.4614541535896816e-07,-5.761353304768344e-07,-2.1914785973125804e-07,-9.043825158347581e-07,-3.600497928320188e-07,-2.929898028591814e-07,-5.980337077176998e-08,-1.2233532416341531e-07,-4.065352507710365e-08,-2.605179496985947e-08
-6.944275406400162e-07,-8.855064423119451e-07,4.781714663628224e-08,-4.6824256301784333e-07,5.250283118717264e-07,-1.2759734952507966e-07,1.8359817115139744e-07,-7.393959918064742e-07,-1.4433005808719743e-07,-5.672187810227357e-07,-2.1161264808999124e-07,-9.148003686764221e-07,-3.493468979953846e-07,-2.739608027166513e-07,-4.215294305699293e-08,-1.0689584982653249e-07,-3.9356327594024676e-08,-2.5145181945203086e-08
-6.811667550832965e-07,-8.745329777687077e-07,6.674995547975097e-08,-4.555646667705012e-07,5.400289748993317e-07,-9.235015403479935e-08,2.180383747112511e-07,-7.08214953957636e-07,-1.3174251975540428e-07,-5.517271332856074e-07,-1.9433979841790423e-07,-9.1583211893277e-07,-3.3980076876909627e-07,-2.624441036546371e-07,-2.5464244916507153e-08,-9.315346072792404e-08,-3.463450817370031e-08,-2.2169855245587326e-08
-6.748873759220514e-07,-8.750764503383813e-07,8.684038536295139e-08,-4.4093366160090244e-07,5.453857850264692e-07,-5.1649589066582435e-08,2.615662296995241e-07,-6.66438097836841e-07,-1.0815135588409873e-07,-5.315882107548398e-07,-1.6952723075208963e-07,-9.061281490006033e-07,-3.32355634925145e-07,-2.615833130757735e-07,-1.2306259995282392e-08,-8.524226616820682e-08,-2.9470602660223737e-08,-1.600870345095534e-08
-6.791087821235889e-07,-8.905368456919659e-07,1.0566404788993466e-07,-4.2453356184333364e-07,5.420532548197474e-07,-4.61763745119018e-09,3.163252672120747e-07,-6.139391631429605e-07,-7.36451847059163e-08,-5.084795327303626e-07,-1.4002133358219666e-07,-8.884569418096659e-07,-3.2694158463620916e-07,-2.705254723677864e-07,-3.137111798016781e-09,-8.520924881215777e-08,-2.5155599000138498e-08,-3.2436077704961648e-09
-6.933613405785874e-07,-9.203074923598109e-07,1.227585265587738e-07,-4.049897510551787e-07,5.367555744140224e-07,5.1469475987034575e-08,3.857256500530141e-07,-5.492002387455027e-07,-2.7130047610125512e-08,-4.821082061020664e-07,-1.0790851682577367e-07,-8.67501974141524e-07,-3.2125647343004003e-07,-2.8276441823361964e-07,4.891184868099523e-09,-9.108366080774431e-08,-2.0384901251241164e-08,2.2311433975748183e-08
-7.124087035902125e-07,-9.585411544538384e-07,1.3995751126882228e-07,-3.7974779268024907e-07,5.398385792945038e-07,1.193528893936189e-07,4.731864761320601e-07,-4.717355839168262e-07,3.218574574076841e-08,-4.5142421895250147e-07,-7.423757104026317e-08,-8.476438639921023e-07,-3.1203825097520045e-07,-2.8972618707070674e-07,1.6216401148385842e-08,-9.818216699889703e-08,-1.2739456436947209e-08,6.127359687008017e-08
-7.29240818267252e-07,-9.970624325565543e-07,1.5942614405592035e-07,-3.4749738251669146e-07,5.590462686277801e-07,1.9669611755688486e-07,5.769591638434935e-07,-3.8656681367744915e-07,1.0134537723044687e-07,-4.177570313121701e-07,-4.1510035164384604e-08,-8.320225462853545e-07,-2.978265279919926e-07,-2.8736410142357296e-07,3.336366725474936e-08,-1.027039228384052e-07,-1.339877053282215e-09,1.1079350325971505e-07
-7.39491134149349e-07,-1.0302882524971438e-06,1.8097339878116259e-07,-3.107590455074288e-07,5.933821692154576e-07,2.737135719884916e-07,6.878043917721787e-07,-3.062591940835187e-07,1.7162883171322827e-07,-3.862259021236368e-07,-1.5368739071389376e-08,-8.226660351390488e-07,-2.80602215254768e-07,-2.8039720109851433e-07,5.4401809401244796e-08,-1.0442309641315073e-07,1.155012975584088e-08,1.5979626575258149e-07
-7.440082432137709e-07,-1.058531694536266e-06,2.0098083321771467e-07,-2.761118019763819e-07,6.321631020798534e-07,3.3618081450706243e-07,7.90271907692015e-07,-2.4724289066440024e-07,2.3067818743323055e-07,-3.650931831517441e-07,-2.681446886470238e-09,-8.20461835235063e-07,-2.64591436219051e-07,-2.798531851032469e-07,7.377338980152648e-08,-1.056297301603867e-07,2.1662502308362983e-08,1.6960612910187547e-07
-7.47372626875002e-07,-1.0865048779812965e-06,2.1420528335061648e-07,-2.5120670732695525e-07,6.607903431055455e-07,3.728203491990618e-07,8.70972988523912e-07,-2.2168967612582236e-07,2.6814847937698775e-07,-3.6094073650664495e-07,-7.957499525829874e-09,-8.242943812675062e-07,-2.5298248469683054e-07,-2.950184516528176e-07,8.619953831774465e-08,-1.0696466422802352e-07,2.586450390518546e-08,1.6974430413035287e-07
-7.536526609098704e-07,-1.1181814756335508e-06,2.1708384581955743e-07,-2.4052019789023826e-07,6.692598955385607e-07,3.7978542114602086e-07,9.207724515394533e-07,-2.30513678343267e-07,2.810933076891886e-07,-3.7380281809775896e-07,-3.002082264114736e-08,-8.304905294010632e-07,-2.45139913672694e-07,-3.260602166574103e-07,9.044405932272133e-08,-1.0417099971737971e-07,2.4273923187685512e-08,1.771756351952787e-07
-7.63136022467019e-07,-1.152419759051841e-06,2.0998761020219603e-07,-2.430239757482672e-07,6.57084290347552e-07,3.652308704861701e-07,9.435847674379256e-07,-2.6272956055394845e-07,2.75335685487902e-07,-3.9800659408468353e-07,-6.284095237920822e-08,-8.341631948715896e-07,-2.3654888150084505e-07,-3.6287584693907784e-07,8.978471557996803e-08,-8.913798194066386e-08,1.920988683499463e-08,1.5155941420758303e-07
-7.722755432706678e-07,-1.1831810599251554e-06,1.9680980113264472e-07,-2.534141619274746e-07,6.314507159326882e-07,3.4264547970230363e-07,9.514321101393159e-07,-3.017291777773e-07,2.621152949422933e-07,-4.25404941136807e-07,-9.85098381939612e-08,-8.321566953752767e-07,-2.215350137922397e-07,-3.905437952003344e-07,8.889232389062546e-08,-5.29650674043329e-08,1.21192551440692e-08,1.1094421464660984e-07
-7.767623733929604e-07,-1.2036722251161201e-06,1.8223232294649433e-07,-2.6587565364574235e-07,6.007150917230265e-07,3.223984929358916e-07,9.551720500567373e-07,-3.342619432554383e-07,2.524604045760443e-07,-4.492104777166221e-07,-1.3330333350508072e-07,-8.25503433763423e-07,-1.9664772763482138e-07,-3.9732226349104037e-07,8.967552131033912e-08,4.207208785527495e-09,1.518204406233345e-09,8.736646325770223e-08
-7.751531191552566e-07,-1.2107327234459107e-06,1.6877082851903662e-07,-2.775791093558545e-07,5.686862440730064e-07,3.0777550267768185e-07,9.612919402444863e-07,-3.561588187233182e-07,2.5296241521950666e-07,-4.685998623191424e-07,-1.683444864635665e-07,-8.194543935851001e-07,-1.624025319638217e-07,-3.7997157919834456e-07,8.987860371243695e-08,7.087563549382905e-08,-1.615540000886293e-08,8.640774577182319e-08
-7.699720141972119e-07,-1.205747986866734e-06,1.5594379740781737e-07,-2.893123663010972e-07,5.343727749969993e-07,2.9487168133371616e-07,9.688587374394592e-07,-3.712903499325976e-07,2.653461578270903e-07,-4.883253884789716e-07,-2.0744412351731112e-07,-8.209613333423084e-07,-1.2278100421246536e-07,-3.4367570621984444e-07,8.340829074802608e-08,1.3341864697898636e-07,-4.3503132586990555e-08,1.0160954086298323e-07
-7.65330851462457e-07,-1.1918693872226706e-06,1.420772410781109e-07,-3.0304767666587604e-07,4.956773185165182e-07,2.783013742649362e-07,9.731891125514076e-07,-3.8565614461797736e-07,2.8901279558596537e-07,-5.055477361548309e-07,-2.5137964561858334e-07,-8.354728206390613e-07,-8.35696730076151e-08,-2.9821963888501855e-07,6.564253583680466e-08,1.5643633449671513e-07,-7.937459147465993e-08,1.3312519479805098e-07
-7.636389598149651e-07,-1.1709861652753708e-06,1.269316168661629e-07,-3.1897136831704257e-07,4.593191882723616e-07,2.561415309214005e-07,9.698687344231956e-07,-4.0210442099361404e-07,3.232789895952433e-07,-5.143972802845404e-07,-2.990241465359436e-07,-8.650573841667245e-07,-5.1006380358389575e-08,-2.540895005852011e-07,3.5550549340974996e-08,1.1183996497728957e-07,-1.1838289017024092e-07,1.7470223551345764e-07
-7.643933727200082e-07,-1.1434248189869875e-06,1.1276827301655733e-07,-3.34767802194328e-07,4.33593076943972e-07,2.2962291658162569e-07,9.560136737218391e-07,-4.1957419940747926e-07,3.6692934573826743e-07,-5.044729688816541e-07,-3.417299650682839e-07,-9.081551714290177e-07,-3.1264167375433204e-08,-2.2025326982543485e-07,-4.8483724957250705e-09,8.142025882067633e-08,-1.5305097342808626e-07,2.2053750087772323e-07
-7.657349262185836e-07,-1.110352157785497e-06,1.0293358627808041e-07,-3.4764438889070564e-07,4.27067349486732e-07,1.9918909522290387e-07,9.286661224384365e-07,-4.36273842696622e-07,4.158900593760164e-07,-4.5784222907190427e-07,-3.7160549015398977e-07,-9.600302297178371e-07,-2.9861082168206124e-08,-2.0271873278169596e-07,-5.161425327743875e-08,4.3305381103722316e-08,-1.771568382048357e-07,2.5952244520698427e-07
-7.668595082291886e-07,-1.0757936349106298e-06,9.931323750300358e-08,-3.570420520979289e-07,4.428872415428994e-07,1.6235154161211998e-07,8.847715395357046e-07,-4.529169837151315e-07,4.6211631214843106e-07,-3.9240140147182307e-07,-3.903749601289025e-07,-1.0133629368142012e-06,-4.981050413325586e-08,-2.0266154337055063e-07,-1.0070551871087208e-07,-7.302373903337708e-08,-1.8798528639163945e-07,2.5748855990383876e-07
-7.684785770948527e-07,-1.0454916885578338e-06,1.0112021534409907e-07,-3.653087626068715e-07,4.748460351445168e-07,1.17678374048042e-07,8.230448712324739e-07,-4.7232161969191885e-07,4.960572077572506e-07,-3.32193500622048e-07,-4.049371900959453e-07,-1.0592530523466115e-06,-8.900879305176718e-08,-2.1471965317133107e-07,-1.4772427724618436e-07,-2.093208484574324e-07,-1.8612604621274833e-07,2.5609090583085664e-07
-7.708447702530761e-07,-1.023054671458769e-06,1.0603734447811745e-07,-3.7557175716990215e-07,5.144054040788488e-07,6.525833055113522e-08,7.495767278280551e-07,-4.95583616518594e-07,5.116892919755719e-07,-2.7214035871423245e-07,-4.1777232675772675e-07,-1.0890600730861333e-06,-1.3922591870369464e-07,-2.2749532205605533e-07,-1.911686275819599e-07,-3.209525287111996e-07,-1.7373325861345953e-07,2.3980612779309273e-07
-7.717472298768469e-07,-1.0069517827638628e-06,1.1214175310460439e-07,-3.8830761094377557e-07,5.554875236376491e-07,1.2974871583169959e-08,6.739664389742506e-07,-5.189882607271474e-07,5.102812323421367e-07,-2.1991435857541362e-07,-4.1676252495112835e-07,-1.0968338400069588e-06,-1.8853456097572828e-07,-2.2752700530384778e-07,-2.1969588314613095e-07,-3.5926236942257465e-07,-1.5328011371515065e-07,2.0427275875348418e-07
-7.66945668919667e-07,-9.913301944798308e-07,1.1849234874616413e-07,-4.037131543111321e-07,5.993395484054516e-07,-2.7281271195111123e-08,5.939520454518801e-07,-5.352539615261017e-07,4.997686377663805e-07,-1.8022058767932547e-07,-3.7032504454825153e-07,-1.0813799092914947e-06,-2.2624982697948135e-07,-2.0555452301303248e-07,-2.287229873483644e-07,-3.7976651928723813e-07,-1.2764169124264092e-07,1.427025282355025e-07
-7.529980740239198e-07,-9.703693632676575e-07,1.2415280040470906e-07,-4.190805156593773e-07,6.417978995949748e-07,-4.574374115355154e-08,5.30974081016423e-07,-5.383231196336046e-07,4.90095793605021e-07,-1.613695165667065e-07,-3.0989508834470293e-07,-1.0469825807297335e-06,-2.472639639278588e-07,-1.6168017923504303e-07,-2.1926658272047476e-07,-3.653231286404749e-07,-1.0056333361636482e-07,8.852650109328077e-08
-7.299904599124618e-07,-9.425575683764024e-07,1.2734012498068246e-07,-4.326887627107862e-07,6.854687361495364e-07,-4.839212565386624e-08,4.913962906929208e-07,-5.273078211089542e-07,4.880154292537017e-07,-1.7030974091277176e-07,-2.4627378336276267e-07,-1.0021519793867217e-06,-2.5292400563949827e-07,-1.0567743292035416e-07,-1.8722501918498644e-07,-3.495964535323718e-07,-7.614145710735568e-08,4.532526178291209e-08
-7.015174520020004e-07,-9.10988356157306e-07,1.2621044119923038e-07,-4.4498461239887084e-07,7.301600778672232e-07,-3.6507347436812494e-08,4.6933802309553247e-07,-5.059635019192375e-07,4.950587135961474e-07,-1.8826120403351373e-07,-1.9436218685140855e-07,-9.564799763713984e-07,-2.4811485723141677e-07,-5.151647139970149e-08,-1.5057046621630765e-07,-2.8957445027781253e-07,-5.715796671907296e-08,6.572799870340568e-09
-6.71912692521941e-07,-8.795150225620896e-07,1.2083272780261787e-07,-4.55200891269781e-07,7.735309058088841e-07,-1.7500784715655837e-08,4.623600798442945e-07,-4.787710938469229e-07,5.092860485759513e-07,-2.1393834822434886e-07,-1.602739959761192e-07,-9.170396810471912e-07,-2.3715824973735342e-07,-9.821017530386834e-09,-1.1613862292188796e-07,-2.3381578580489313e-07,-4.368516604524345e-08,-2.6204856625816948e-08
-6.434153164475196e-07,-8.489343720497849e-07,1.1423166683207984e-07,-4.6050240607643924e-07,8.179602449752928e-07,4.508021112799986e-09,4.5937701437618294e-07,-4.4809851482103984e-07,5.280791883628847e-07,-2.4473460496487537e-07,-1.39399362584451e-07,-8.865527383851166e-07,-2.217738128765737e-07,1.6218296064179033e-08,-8.54098669875994e-08,-1.9434636297161808e-07,-3.351378743657678e-08,-5.155369690082912e-08
-6.159683368943271e-07,-8.170338934663283e-07,1.1102137147658372e-07,-4.5827753926809987e-07,8.639143308530564e-07,2.857953303477365e-08,4.5528160525153367e-07,-4.150391613219456e-07,5.491941898772096e-07,-2.6580849725843724e-07,-1.262399943726417e-07,-8.644706745532212e-07,-2.0207575079019495e-07,2.924148803500042e-08,-6.750569630411024e-08,-1.6301763664530262e-07,-2.434884927027519e-08,-6.835760467142933e-08
-5.895970407697105e-07,-7.820702516123603e-07,1.1448240169922033e-07,-4.4754696214357764e-07,9.095049224347979e-07,4.831112801256963e-08,4.468968457054464e-07,-3.8213057302273665e-07,5.700348691000996e-07,-2.728894665808866e-07,-1.0798134000816776e-07,-8.497365929653819e-07,-1.7891303210754856e-07,3.3253041112214266e-08,-5.587003028820162e-08,-1.4051300249873937e-07,-1.589089969305979e-08,-7.803235735354166e-08
-5.666530734026447e-07,-7.458825210970746e-07,1.2445246496984094e-07,-4.3005378343328983e-07,9.491639185627394e-07,5.492111205025825e-08,4.30032215791507e-07,-3.541727137444067e-07,5.872630034290654e-07,-2.677992488424295e-07,-8.288331424145978e-08,-8.425051705391818e-07,-1.5515992496344464e-07,3.09216775341851e-08,-5.1639983456691415e-08,-1.2433858953289154e-07,-9.827323379925362e-09,-8.457309463623601e-08
-5.511411883041851e-07,-7.133759310583618e-07,1.3773899292601407e-07,-4.1109274830202974e-07,9.768746979837647e-07,5.0382358674109115e-08,4.0628463180425945e-07,-3.3561452676593386e-07,5.981403143087199e-07,-2.59083431692104e-07,-6.300277262752687e-08,-8.433407263961469e-07,-1.3495397508796254e-07,2.421626754227531e-08,-5.6482461297432516e-08,-1.1130636052264875e-07,-7.851900465763123e-09,-9.208649678790852e-08
-5.454939615233006e-07,-6.888300898066722e-07,1.505151552813852e-07,-3.9434533257672074e-07,9.86043939303129e-07,3.2359215439752816e-08,3.7622510273729686e-07,-3.271182615347703e-07,6.023757992612246e-07,-2.506026540593289e-07,-4.885154156494992e-08,-8.512345076413008e-07,-1.21814366979201e-07,1.583699784770679e-08,-6.492261338586533e-08,-9.790024112406981e-08,-9.845283875983598e-09,-1.0225769816481912e-07
-5.480459991338611e-07,-6.727577068108709e-07,1.6051405754579733e-07,-3.812834336238636e-07,9.823094182538396e-07,4.868537519679969e-09,3.4010030986370837e-07,-3.2520179503350897e-07,6.021681715824487e-07,-2.4355385184616207e-07,-4.1679912301210334e-08,-8.62948466291325e-07,-1.1738545744734026e-07,8.523709901508105e-09,-7.384548338915596e-08,-8.158965678527837e-08,-1.403821404181952e-08,-1.141759113507461e-07
-5.537573014649734e-07,-6.626357886029524e-07,1.6735600229490642e-07,-3.7242593035055715e-07,9.74242154658441e-07,-2.31288338996649e-08,2.995057130903234e-07,-3.257681060838347e-07,5.999652110994425e-07,-2.400607781866306e-07,-3.551726286830077e-08,-8.745999025189041e-07,-1.218445254006052e-07,2.3287229020112796e-09,-7.911187676613304e-08,-6.283195815783267e-08,-1.900839673926012e-08,-1.2669774480441897e-07
-5.577058977859343e-07,-6.569413775234153e-07,1.712116223587037e-07,-3.6661640895208063e-07,9.70751940228041e-07,-6.96445257313591e-08,2.60087446485106e-07,-3.2841220702202627e-07,5.95835010332831e-07,-2.4093049003992416e-07,-3.2121868885507214e-08,-8.840240074447104e-07,-1.3537938520959725e-07,-7.28880800865469e-09,-8.015559615435583e-08,-4.6020474164689526e-08,-2.5589111261402137e-08,-1.4091212668040946e-07
-5.584610671052759e-07,-6.582622363563636e-07,1.7134469461682663e-07,-3.6623264287335806e-07,9.72437508458037e-07,-1.3399792617603963e-07,1.995978782896101e-07,-3.374643892833705e-07,5.86836167059842e-07,-2.489930901013239e-07,-3.716318682348671e-08,-8.916341502877457e-07,-1.5874081397555338e-07,-2.7594699174996633e-08,-8.14235027036048e-08,-3.773444576147858e-08,-3.665596463723342e-08,-1.6033382997913978e-07
-5.585026604712317e-07,-6.716241844894714e-07,1.6593476424708086e-07,-3.7915815635260007e-07,9.681416266687798e-07,-2.1573324522815376e-07,1.2023878400286822e-07,-3.5862065281849334e-07,5.690549381030566e-07,-2.6597670830978994e-07,-5.310189400688924e-08,-8.989357794150161e-07,-1.91512910370151e-07,-6.314586601505846e-08,-8.831127119874853e-08,-4.282104123155607e-08,-5.477066474767285e-08,-1.8827585001956402e-07
-5.613914394610597e-07,-6.989692540609391e-07,1.5321123368292403e-07,-3.9098891359407276e-07,9.343043059993017e-07,-3.1574452933845114e-07,6.100673913532502e-08,-3.941768038281007e-07,5.40483181573023e-07,-2.908639397738796e-07,-8.118584030069595e-08,-9.061140353568129e-07,-2.2945318472442886e-07,-1.1088903633912071e-07,-1.0325178918247351e-07,-6.108278775947892e-08,-7.981805617204075e-08,-2.2489971113548445e-07
-5.685330683203749e-07,-7.349996662991331e-07,1.3266359601455625e-07,-4.0260693005053675e-07,9.136166213682402e-07,-4.2188032888611774e-07,1.5265721913790942e-09,-4.410942550761274e-07,5.021353671131187e-07,-3.2059743529392743e-07,-1.1524709776257411e-07,-9.110287817996771e-07,-2.639070483084866e-07,-1.6016510689341564e-07,-1.2417518791029932e-07,-8.708188928719915e-08,-1.0874264599951838e-07,-2.6672894681020866e-07
-5.784912903195652e-07,-7.682767272245511e-07,1.0514315628622505e-07,-4.2014913586483647e-07,8.902545816812767e-07,-4.848722382729676e-07,-2.2664413160415374e-08,-4.93350755544813e-07,4.565673846011676e-07,-3.5153669143952894e-07,-1.49133693379209e-07,-9.107409565965296e-07,-2.8478423461458905e-07,-1.9818902425809656e-07,-1.4644946609626007e-07,-1.1324949780972232e-07,-1.3764577896565372e-07,-3.089250423223008e-07
-5.891274584363434e-07,-7.87023919169672e-07,7.177712458644598e-08,-4.413260165917973e-07,8.578271889552044e-07,-5.42811735860402e-07,-3.131716017570609e-08,-5.463609983954298e-07,4.053076672223701e-07,-3.816419978079013e-07,-1.7815741955536873e-07,-9.043150347692217e-07,-2.8549145818109627e-07,-2.1729160201621284e-07,-1.664316226151916e-07,-1.341939153338632e-07,-1.6454058652233512e-07,-3.482893313848333e-07
-6.003401875865219e-07,-7.857983888866858e-07,3.2794114721443384e-08,-4.5419562273606055e-07,8.142041080050748e-07,-5.833444766437917e-07,-4.596364253571848e-08,-5.994955901857167e-07,3.477162090166043e-07,-4.1150554730950574e-07,-2.019886132793159e-07,-8.942267452308111e-07,-2.6625079845720057e-07,-2.185522685640904e-07,-1.8354763359760347e-07,-1.4921037775131848e-07,-1.903857467562588e-07,-3.847235048564159e-07
-6.145140552725898e-07,-7.685563160697949e-07,-1.2365130343706025e-08,-4.6111615733302945e-07,7.108370391407623e-07,-6.382120862507204e-07,-1.0045521903955655e-07,-6.541474661209458e-07,2.8270897964952966e-07,-4.4296121344884784e-07,-2.2212091602310501e-07,-8.850824078565064e-07,-2.332684545049157e-07,-2.090438379155762e-07,-1.992874784625697e-07,-1.613198516100172e-07,-2.1750668454252961e-07,-4.187935548841885e-07
-6.340000381841316e-07,-7.461605222050535e-07,-6.352477005182046e-08,-4.3631445730609763e-07,5.453087560505542e-07,-7.987472544999799e-07,-2.3621343817703349e-07,-7.090143869289253e-07,2.1198658647590026e-07,-4.762426722138983e-07,-2.406061827083474e-07,-8.810739383007588e-07,-1.9474955414166575e-07,-1.954250558061797e-07,-2.1449360085069424e-07,-1.73937256247238e-07,-2.469434990203688e-07,-4.502265126341475e-07
-6.580192783262436e-07,-7.306679408071237e-07,-1.1838169916439906e-07,-3.3629472785240075e-07,3.470317147887734e-07,-9.168214834275325e-07,-3.4042718848613974e-07,-7.57362634236595e-07,1.415272723201321e-07,-5.083977223084772e-07,-2.585010092253105e-07,-8.843436112319014e-07,-1.570675180969667e-07,-1.7956150393347277e-07,-2.2772605366476815e-07,-1.879390370072456e-07,-2.7703403189253545e-07,-4.757226496104641e-07
-6.820303376900457e-07,-7.304308332896342e-07,-1.7285157962314769e-07,-2.583872178106361e-07,1.9030921157700415e-07,-9.963111491750012e-07,-4.2378747973272614e-07,-7.893722522351727e-07,7.951409375366754e-08,-5.345616079073185e-07,-2.743693388784535e-07,-8.950732361283288e-07,-1.2324327221551292e-07,-1.5918478948463724e-07,-2.3606721576941157e-07,-2.011180095685054e-07,-3.0421386345288494e-07,-4.908849415713812e-07
-7.001165167468969e-07,-7.483113643055955e-07,-2.2303573468972167e-07,-2.0068817645699612e-07,-6.052755632703783e-08,-1.0759689526176676e-06,-4.925834447422712e-07,-7.980486941871238e-07,3.2030629616851156e-08,-5.510311417961672e-07,-2.869108939963949e-07,-9.126950493304145e-07,-9.350285908408068e-08,-1.3184528703627647e-07,-2.3739816152359606e-07,-2.0989379722156946e-07,-3.251958835311136e-07,-4.927467479496407e-07
-7.08251073828525e-07,-7.824191802239106e-07,-2.670136093538811e-07,-1.43150354319067e-07,-3.1785706677580395e-07,-1.1363097522793253e-06,-5.637168231035965e-07,-7.839210243048622e-07,-2.5861957141932864e-10,-5.57492978288012e-07,-2.96024133617767e-07,-9.368188463625365e-07,-6.653138194244515e-08,-9.7895948924862e-08,-2.319489606709125e-07,-2.1142612187424832e-07,-3.385533835076918e-07,-4.807700884705223e-07
-7.056472913751132e-07,-8.270611629540273e-07,-3.047975173495179e-07,-1.045901813546136e-07,-6.197712824765691e-07,-1.1925965518296623e-06,-6.065106601300905e-07,-7.545318355803383e-07,-2.1991994307371482e-08,-5.564446533342603e-07,-3.02649421829511e-07,-9.667643106001077e-07,-4.0232075209400454e-08,-5.971381981540593e-08,-2.2165184205941358e-07,-2.0429308193919033e-07,-3.44271582324584e-07,-4.568786269044986e-07
-6.933997707300401e-07,-8.728992314305778e-07,-3.36670492727522e-07,-3.918150183435382e-08,-8.741786781993352e-07,-1.3445395767034628e-06,-6.800944483787614e-07,-7.19338562004034e-07,-3.997513968193684e-08,-5.504864160939362e-07,-3.075223746323697e-07,-1.0002792887566247e-06,-1.1753281876588368e-08,-1.87908833544511e-08,-2.080890786498344e-07,-1.8775115012544692e-07,-3.4213537013921966e-07,-4.236721315804638e-07
-6.724152079846962e-07,-9.078815024665313e-07,-3.6172274700210413e-07,4.2349226149696136e-08,-1.0584133787153968e-06,-1.455343448129212e-06,-7.429424954607438e-07,-6.847001134162359e-07,-5.974411062774129e-08,-5.402622812189058e-07,-3.099453230201934e-07,-1.0331919275278669e-06,2.2403465382906066e-08,2.5278962953499237e-08,-1.913036784276993e-07,-1.6118163418982158e-07,-3.313009668059118e-07,-3.824939549405484e-07
-6.430104476193866e-07,-9.205850479373694e-07,-3.7803563163137735e-07,1.1531944426684402e-07,-1.1283471707991932e-06,-1.454674081715293e-06,-7.97324019756776e-07,-6.527799619045873e-07,-8.401993248130829e-08,-5.248952811487438e-07,-3.0818143433853293e-07,-1.06077493468548e-06,6.523797373307041e-08,7.26469965954313e-08,-1.706287071043866e-07,-1.247351544728557e-07,-3.1187729001634565e-07,-3.360314408051844e-07
-6.063769911755742e-07,-9.048689867512428e-07,-3.842476579329428e-07,1.4685507533954598e-07,-1.1165496974843607e-06,-1.452649377938734e-06,-7.834260515407786e-07,-6.238966703374256e-07,-1.1304921845160901e-07,-5.039556452202047e-07,-3.011055973452462e-07,-1.0797044787155221e-06,1.173628649039844e-07,1.2066135142628405e-07,-1.4629714627344008e-07,-8.034317854129622e-08,-2.8663093165391643e-07,-2.877329759784962e-07
-5.659033644825573e-07,-8.624932616015935e-07,-3.808462381295915e-07,1.9488288259407448e-07,-1.1897809339567258e-06,-1.4486150526318554e-06,-7.76147039787485e-07,-5.987492900324339e-07,-1.4527597210956116e-07,-4.785137822514488e-07,-2.893750140964983e-07,-1.0887010942097383e-06,1.7607737518991377e-07,1.6427708541488433e-07,-1.197204352211539e-07,-3.148208198056377e-08,-2.6048992059132693e-07,-2.406759472716251e-07
-5.263416106107079e-07,-8.012044591363463e-07,-3.6975003517921995e-07,2.3441185275863816e-07,-1.246742071669513e-06,-1.4046758864672662e-06,-7.106817487059902e-07,-5.778989524782116e-07,-1.771086938442246e-07,-4.501205136514282e-07,-2.7470712671415344e-07,-1.0872930434323498e-06,2.3662446006219913e-07,1.9967522486058445e-07,-9.204069582085037e-08,1.8607878466295195e-08,-2.3794696983216463e-07,-1.9664506187435961e-07
-4.912280191859259e-07,-7.297652681777759e-07,-3.5263758494773583e-07,2.8576752840021786e-07,-1.3028457337113502e-06,-1.4887815553583842e-06,-6.72215599162984e-07,-5.59802485690162e-07,-2.0250838222035603e-07,-4.191229775578429e-07,-2.580529174276094e-07,-1.0745500735815977e-06,2.946942630633734e-07,2.27685512337811e-07,-6.278853047994603e-08,6.85744787435877e-08,-2.207252270685993e-07,-1.556060748136889e-07
-4.611592214912784e-07,-6.543176161997884e-07,-3.2996165709113646e-07,3.4127926181406263e-07,-1.3830202234273342e-06,-1.5649947128928175e-06,-6.916519287092247e-07,-5.408487148311261e-07,-2.1423828516567405e-07,-3.84574599387174e-07,-2.388232929786177e-07,-1.0498974549063623e-06,3.4806973166307274e-07,2.533164982978765e-07,-3.044265261997299e-08,1.1867271537081402e-07,-2.0757016676991093e-07,-1.1492932557182728e-07
-4.3461940200518804e-07,-5.785836031799612e-07,-3.017125488186996e-07,3.728401428793893e-07,-1.3295492254754045e-06,-1.5647322242019562e-06,-7.154327831092109e-07,-5.183744520218987e-07,-2.0700356596330474e-07,-3.4614181026038137e-07,-2.1616608154851305e-07,-1.0153182453335421e-06,3.964885623100767e-07,2.8147166357782416e-07,5.478125215432237e-09,1.6879198419300552e-07,-1.9585959914620213e-07,-7.138419036187497e-08
-4.103028145130373e-07,-5.061864093480641e-07,-2.688798111294892e-07,3.4982302911179254e-07,-1.278248183382335e-06,-1.5751495808794513e-06,-7.202812371826865e-07,-4.93598378809172e-07,-1.802546620551245e-07,-3.0595070268301784e-07,-1.908469620074911e-07,-9.760156375015696e-07,4.4071010155540964e-07,3.129341021583664e-07,4.2980488205868024e-08,2.1701077724245614e-07,-1.8333205449689033e-07,-3.0675981111477914e-08
-3.884424131907204e-07,-4.4162535611889363e-07,-2.3375830940497236e-07,2.9673002130720144e-07,-1.2235113110516043e-06,-1.5752170101593985e-06,-7.001701578828372e-07,-4.70863310548708e-07,-1.3814783828418302e-07,-2.6800094051727824e-07,-1.654080961674161e-07,-9.381099558065596e-07,4.821198106944442e-07,3.4452693841245034e-07,7.848800178232141e-08,2.604596697029429e-07,-1.685492490802091e-07,5.86850357017804e-09
-3.69907647813278e-07,-3.885619077416693e-07,-1.9863280244650762e-07,2.3174833654422544e-07,-1.176241993500507e-06,-1.581911486803031e-06,-7.147049833771851e-07,-4.5356140016056615e-07,-8.665906736911897e-08,-2.353491670373175e-07,-1.4219356586190673e-07,-9.052601402940067e-07,5.227772375613298e-07,3.7282490375500686e-07,1.0922652284837216e-07,2.9754892447411253e-07,-1.502958135712913e-07,3.348400512637676e-08
-3.543853131005119e-07,-3.4757828638424625e-07,-1.643503094685244e-07,1.581728491217874e-07,-1.1907755468622017e-06,-1.5809470258297217e-06,-6.69069802608823e-07,-4.410589265607058e-07,-3.06471150000857e-08,-2.0796904791403565e-07,-1.2130005575853902e-07,-8.770806194804368e-07,5.647374805211002e-07,3.9704989570658855e-07,1.3459708363155802e-07,3.288268831846402e-07,-1.2741625487762868e-07,5.147936530598894e-08
-3.400257018654617e-07,-3.163644576149732e-07,-1.3048071627641538e-07,1.2356087222063346e-07,-1.1686891776196581e-06,-1.5398619277257894e-06,-5.604118750154708e-07,-4.300570745945275e-07,2.6422451339809083e-08,-1.8361181380437234e-07,-1.0052028587504828e-07,-8.503092899587986e-07,6.0816048527206e-07,4.1817232659327306e-07,1.5517751368680538e-07,3.5527105021418655e-07,-1.0000870057493296e-07,6.282210957488036e-08
-3.2522610373704853e-07,-2.9253297568536764e-07,-9.702392792506044e-08,9.667992720679001e-08,-1.0761390276050076e-06,-1.4204379115940062e-06,-4.2362271763443105e-07,-4.19211899193184e-07,8.03535630348577e-08,-1.6082195846374836e-07,-7.725493567177727e-08,-8.21483398557921e-07,6.492534837453644e-07,4.35572730646697e-07,1.7058999692532593e-07,3.7579595343498376e-07,-7.093998160394883e-08,6.650412404650065e-08
-3.107243072887004e-07,-2.7620442235714514e-07,-6.592708895826506e-08,6.18219733202132e-08,-9.581606329483e-07,-1.270647680957291e-06,-2.461335380378079e-07,-4.122535048556495e-07,1.2472147555000446e-07,-1.4101243614401123e-07,-5.056696234504952e-08,-7.889666174317318e-07,6.799857446842798e-07,4.4512340271301773e-07,1.7870358574557498e-07,3.86767207436859e-07,-4.5615829021876206e-08,6.00460063847757e-08
-2.9962481149849357e-07,-2.6947294505502345e-07,-4.062879848642751e-08,2.1953453840350003e-08,-8.168819240568751e-07,-1.1318232983628131e-06,-5.457058215680135e-08,-4.158465750793725e-07,1.5267454987013925e-07,-1.2732898234687267e-07,-2.155429207609547e-08,-7.529855415930673e-07,6.907152678238041e-07,4.412514592610771e-07,1.7719858684563037e-07,3.8432092757192434e-07,-2.937826475865977e-08,3.6064842261991984e-08
-2.950320224098306e-07,-2.7319187156721136e-07,-2.363807277999353e-08,-3.5842050619554104e-08,-6.733442834093263e-07,-1.0022977696736053e-06,1.425790388478065e-07,-4.336792959974437e-07,1.612181020564494e-07,-1.2126612731968496e-07,8.005649627815556e-09,-7.145448858251176e-07,6.746076658162685e-07,4.2161976400054573e-07,1.6593784458539826e-07,3.674289638862657e-07,-2.438151755342148e-08,-7.080326964655541e-10
-2.974558530514051e-07,-2.8450789141487067e-07,-1.4217874551142602e-08,-7.93472848747084e-08,-5.3770652067724e-07,-8.966647986099133e-07,2.931108709500519e-07,-4.6236761470101247e-07,1.54163319023257e-07,-1.2040051672088868e-07,3.70884095824558e-08,-6.751883771925801e-07,6.311099800571326e-07,3.9014219174269117e-07,1.4777767492966514e-07,3.390126169747147e-07,-2.8427652807132514e-08,-4.8392647576255194e-08
-3.04342950220447e-07,-2.976805729257541e-07,-8.371772494088437e-09,-1.1212899312948575e-07,-3.7136986026889203e-07,-7.868760859815595e-07,3.302209272775997e-07,-4.929966020073352e-07,1.4082271189960812e-07,-1.1962147554947717e-07,6.547206585266065e-08,-6.379075992644839e-07,5.662735892497055e-07,3.552940219828873e-07,1.2707124476699328e-07,3.043538953894925e-07,-3.65977478959362e-08,-9.366537783574107e-08
-3.120241701097651e-07,-3.074711577725553e-07,-1.3418314421591746e-09,-1.3907378741599992e-07,-1.90304001719051e-07,-6.780087228474188e-07,2.950095845820378e-07,-5.168171943870626e-07,1.3121554449424342e-07,-1.1500156267317976e-07,9.249323062329694e-08,-6.074214214636662e-07,4.89899704065789e-07,3.24946733925308e-07,1.0720975998430095e-07,2.68227993207863e-07,-4.4395917170407226e-08,-1.2881023563279092e-07
-3.181992748336967e-07,-3.12238202787561e-07,9.394925326592166e-09,-1.6198394692517374e-07,-3.4501307891221784e-08,-5.812175517052692e-07,2.574893528318395e-07,-5.301912801782243e-07,1.3141004731788357e-07,-1.0690590582639614e-07,1.1596997662591501e-07,-5.884260788524823e-07,4.117976131515912e-07,3.0216668794274784e-07,8.929855697144195e-08,2.329326906955813e-07,-4.999004615989267e-08,-1.5485172657980636e-07
-3.2268448712990436e-07,-3.1405526094674504e-07,2.3092464786976903e-08,-1.7970902678537993e-07,1.004356925212598e-07,-5.205764131386183e-07,2.7131407170884546e-07,-5.348818817798481e-07,1.4224740258325327e-07,-9.942890050148325e-08,1.3271428507695332e-07,-5.827433204387803e-07,3.3986485261291203e-07,2.854913475456273e-07,7.295715196732503e-08,1.984853278806135e-07,-5.396692346505347e-08,-1.7074962684487151e-07
-3.259846372546991e-07,-3.157226450282044e-07,3.7232084641665083e-08,-1.8822516553028733e-07,2.1806872324619798e-07,-4.6621089469173994e-07,3.1212382846128343e-07,-5.341775650617105e-07,1.6144369171167564e-07,-9.681585986342473e-08,1.4054930211295376e-07,-5.878317998774112e-07,2.804360072315174e-07,2.727131196588755e-07,5.817844595563109e-08,1.6431954032215485e-07,-5.744582977707071e-08,-1.8261848547766198e-07
-3.2756497722769967e-07,-3.1776313036576543e-07,4.9758769457689884e-08,-1.8674866523223653e-07,3.169170682111404e-07,-4.0760398774883163e-07,3.511555642665624e-07,-5.2909197105162e-07,1.8630648191468237e-07,-1.004854433705928e-07,1.399203899811744e-07,-5.982093890130516e-07,2.3878789477180294e-07,2.6380922784252687e-07,4.619167512955454e-08,1.3059097613646987e-07,-6.082145619018936e-08,-1.9094767749876465e-07
-3.2590427736999355e-07,-3.1847953243939387e-07,5.995547231483288e-08,-1.7321051239541108e-07,4.028001540971506e-07,-3.4594195870478953e-07,4.222853701912056e-07,-5.183445047107014e-07,2.1463786802476355e-07,-1.0922157953084024e-07,1.3345408567273338e-07,-6.089221087693454e-07,2.1782049826677264e-07,2.6005574384158274e-07,3.835976202916614e-08,9.790138225105409e-08,-6.422767750478431e-08,-2.0131485410796414e-07
-3.2039477273518524e-07,-3.168713091059657e-07,6.757569997210654e-08,-1.5580030824408965e-07,4.7181445828497827e-07,-2.712341245306068e-07,5.038016617283972e-07,-5.018215670218698e-07,2.437310818370233e-07,-1.2167072573098203e-07,1.2387524899275664e-07,-6.185642203396707e-07,2.154694688304578e-07,2.6062470536594146e-07,3.4196260804253853e-08,6.604383812078041e-08,-6.869380608490743e-08,-2.1292588196810212e-07
-3.1317561180949665e-07,-3.1517638273340173e-07,7.161128532271576e-08,-1.353564365248715e-07,5.107148324931841e-07,-1.9987938833298773e-07,5.933904969115067e-07,-4.835778744708026e-07,2.693574240703548e-07,-1.3824389688795064e-07,1.121694064413066e-07,-6.296807366693977e-07,2.2354822723309853e-07,2.60612167829338e-07,3.066620773016421e-08,3.3504057602344903e-08,-7.628595601166879e-08,-2.3126640529075715e-07
-3.088363491105298e-07,-3.181312784090314e-07,7.030803498272264e-08,-1.1438721097925908e-07,5.417018698777457e-07,-1.3677991301213982e-07,7.043538659032638e-07,-4.706432179577726e-07,2.866985458353441e-07,-1.604685127131086e-07,9.762872870149752e-08,-6.462118353256174e-07,2.302192208997831e-07,2.530598013371978e-07,2.3833198905449027e-08,-1.2901196604305717e-09,-8.87526576928635e-08,-2.585217155031871e-07
-3.117709981967941e-07,-3.29484246098034e-07,6.263241516307941e-08,-9.666640346718982e-08,5.385269505115502e-07,-8.562148491030118e-08,8.128736916453542e-07,-4.6827001090360605e-07,2.930209009110518e-07,-1.8862763704987602e-07,7.955894884329695e-08,-6.698714343299181e-07,2.2525108265270513e-07,2.33429134598768e-07,1.1510794806950922e-08,-3.8043941984207753e-08,-1.059102314998894e-07,-2.911397047014699e-07
-3.2325199865633765e-07,-3.490095605654808e-07,4.977790229248323e-08,-8.407039061707464e-08,5.17554097237797e-07,-3.638373879900592e-08,9.175245408497434e-07,-4.761757823442737e-07,2.8971353836475625e-07,-2.2029136340682152e-07,5.884484663552117e-08,-6.983004773295249e-07,2.0454313372349167e-07,2.024429255156747e-07,-5.507614186549294e-09,-7.413952276584152e-08,-1.2541728508910688e-07,-3.27044658524613e-07
-3.407259309801222e-07,-3.725357116183974e-07,3.5132975194289284e-08,-7.782237714261498e-08,4.967128713960195e-07,1.130423490877046e-08,1.0183614565279722e-06,-4.89303797630882e-07,2.8158244889407287e-07,-2.51346292041145e-07,3.779071151437133e-08,-7.263186892484307e-07,1.7088723793310523e-07,1.647180904635904e-07,-2.4677640135377248e-08,-1.0653462710513801e-07,-1.4438853159687222e-07,-3.6085818204403887e-07
-3.599488477944744e-07,-3.949485617328388e-07,2.2485938319242185e-08,-7.688914375590185e-08,4.777703323833017e-07,6.298006177556135e-08,1.1168053194835478e-06,-5.022931276765235e-07,2.7360762678794265e-07,-2.7875334311924263e-07,1.8468554558998866e-08,-7.490141552028912e-07,1.309325064039505e-07,1.2438209948311778e-07,-4.418917186761427e-08,-1.3460583779705117e-07,-1.6167044067706832e-07,-3.914869424578939e-07
-3.781679800531786e-07,-4.139943381144995e-07,1.3856059966537905e-08,-8.067919088903417e-08,4.7679437713606856e-07,1.2422757527586864e-07,1.2059839734816754e-06,-5.137013284617245e-07,2.676580995391112e-07,-3.026723099106809e-07,1.1888409144795672e-09,-7.642177376304378e-07,9.11643849585843e-08,8.177557978772739e-08,-6.437554458221274e-08,-1.6132921966010416e-07,-1.7878062389419132e-07,-4.179736064721683e-07
-3.956087754734162e-07,-4.315772256832715e-07,8.718098968122604e-09,-8.935556810411643e-08,4.911187655137835e-07,1.8981975242947484e-07,1.2807143822234972e-06,-5.264113585778799e-07,2.619144633521996e-07,-3.259401194852889e-07,-1.542101377828008e-08,-7.728281257983793e-07,5.5981590375529456e-08,3.46549918389124e-08,-8.663621794347106e-08,-1.9131978892246766e-07,-1.9843219817551856e-07,-4.4486202663404764e-07
-4.1404386800279015e-07,-4.5093680063155044e-07,5.032881242692179e-09,-1.0324970086375891e-07,5.131685581779954e-07,2.4409577443095484e-07,1.3390197294025978e-06,-5.442849323498929e-07,2.532203137086547e-07,-3.5127471079124146e-07,-3.279556385823011e-08,-7.773413737615512e-07,2.824358772698252e-08,-1.7246088982836333e-08,-1.1094051391481921e-07,-2.269900117732915e-07,-2.2190238838391107e-07,-4.733967005726402e-07
-4.34055294881217e-07,-4.722680056808259e-07,8.404532062310309e-10,-1.2117550373653853e-07,5.303672250492042e-07,2.9004775086827926e-07,1.3888897481256904e-06,-5.686098144532941e-07,2.397658375329999e-07,-3.788419751524324e-07,-5.103961663089043e-08,-7.800918963171418e-07,1.0200381112662077e-08,-6.898438547750593e-08,-1.3449674047806675e-07,-2.6580567125098464e-07,-2.477195773977209e-07,-5.013456144900603e-07
-4.5374949980550354e-07,-4.911663453922153e-07,-5.0144161642188515e-09,-1.3967613898419004e-07,5.422847966602349e-07,3.326145509296941e-07,1.4198999199079683e-06,-5.975900451161674e-07,2.2162209027936555e-07,-4.063659043599263e-07,-6.927243048609557e-08,-7.824799861760301e-07,3.28982003816802e-09,-1.1157213301165549e-07,-1.5295762735950226e-07,-3.006943746592671e-07,-2.7267921835160597e-07,-5.257816691911794e-07
-4.700221617691399e-07,-5.013964409109541e-07,-1.328691279922747e-08,-1.5461541110279808e-07,5.354405722382816e-07,3.6705395731890473e-07,1.4359238033468093e-06,-6.28841883869395e-07,1.9916552137437862e-07,-4.3139592359705917e-07,-8.72271342329785e-08,-7.854574631090744e-07,7.302515761423728e-09,-1.363216449480452e-07,-1.6308102532032702e-07,-3.231995333096904e-07,-2.93985280770862e-07,-5.439895152626399e-07
-4.810294471555404e-07,-4.99370265491387e-07,-2.5013021107414376e-08,-1.6358547318817654e-07,4.979846912616063e-07,3.960172734620752e-07,1.4501187265030392e-06,-6.619722484156372e-07,1.7155061875986822e-07,-4.533433747515267e-07,-1.0625521512743789e-07,-7.903834235236341e-07,2.0327190274578397e-08,-1.385982351164467e-07,-1.6446110486455722e-07,-3.269938756951733e-07,-3.1059793116688513e-07,-5.528627073956569e-07
-4.875145905833424e-07,-4.864300508964468e-07,-4.146049599408091e-08,-1.6695053527254186e-07,4.239061605951727e-07,4.1645998148936433e-07,1.4655697015799852e-06,-6.982802739095432e-07,1.3726987813196222e-07,-4.7322072297957875e-07,-1.283660486892394e-07,-7.988889332748111e-07,4.0099365696644856e-08,-1.1829071012675119e-07,-1.5885245743500652e-07,-3.0955510104813926e-07,-3.2285344558885287e-07,-5.498813413816792e-07
-4.918147025343221e-07,-4.6746507771476057e-07,-6.314834398731902e-08,-1.6654576099912893e-07,3.087068392866025e-07,4.25881963949798e-07,1.483592920678329e-06,-7.377414990473024e-07,9.647284429915403e-08,-4.914338587561982e-07,-1.5389919605083695e-07,-8.115328315831337e-07,6.571247094604428e-08,-7.800352382009963e-08,-1.480656060123523e-07,-2.7209371592404473e-07,-3.311630278936564e-07,-5.336018387498573e-07
-4.957145283172704e-07,-4.4787714889158115e-07,-8.877088063446951e-08,-1.6344504864125263e-07,1.6308034394112108e-07,4.292762970826565e-07,1.5065337627313956e-06,-7.765046427819964e-07,5.2590105540598946e-08,-5.060452161736805e-07,-1.800957124114624e-07,-8.266838051796329e-07,9.791713040568409e-08,-2.2051172012331402e-08,-1.3283035496508707e-07,-2.1933696565720673e-07,-3.3547386056630765e-07,-5.02835316685718e-07
-4.993721622000613e-07,-4.3190225464618737e-07,-1.1517127825440245e-07,-1.5715672487827664e-07,8.095483455191164e-09,4.3654887564655e-07,1.5337276673503526e-06,-8.077181966907694e-07,1.14466580799514e-08,-5.134113497312154e-07,-2.0204112296461774e-07,-8.410086823383122e-07,1.373861787102422e-07,4.273406357398545e-08,-1.136616126993221e-07,-1.5960912563189684e-07,-3.3608772924519455e-07,-4.6060944709523525e-07
-5.022058180718834e-07,-4.2319410312045923e-07,-1.3873097283157063e-07,-1.4701239182334163e-07,-1.367483596684058e-07,4.511031731325495e-07,1.5601795051949493e-06,-8.254269792350523e-07,-2.1524091805152343e-08,-5.107219747223688e-07,-2.15490067772404e-07,-8.512803017121281e-07,1.8221183271739634e-07,1.0649426885254239e-07,-9.232510228489863e-08,-1.0389787295850342e-07,-3.345376869004768e-07,-4.1473396990924837e-07
-5.044437171226608e-07,-4.2575170363639115e-07,-1.571852391402743e-07,-1.340320748755289e-07,-2.429910164502301e-07,4.7197730206453865e-07,1.5867804234129345e-06,-8.283686463985381e-07,-4.365279248550187e-08,-4.980746188351624e-07,-2.1920920359345403e-07,-8.559291073139944e-07,2.2681347839518917e-07,1.5852696325918046e-07,-7.182440269497407e-08,-6.287860891949299e-08,-3.329587469883881e-07,-3.7488576373643016e-07
-5.073046927013059e-07,-4.426524680063601e-07,-1.7023552780592379e-07,-1.209536146883817e-07,-3.058919185936019e-07,4.96355688077553e-07,1.6187592847316838e-06,-8.202176298848434e-07,-5.5086708853416964e-08,-4.781134354235513e-07,-2.1512675789095164e-07,-8.550897693581439e-07,2.6354435998361344e-07,1.9173180135739897e-07,-5.4587418835458816e-08,-4.2898602778660294e-08,-3.3229656652137934e-07,-3.4792169733107804e-07
-5.11444712187165e-07,-4.7283058348932715e-07,-1.784936659447423e-07,-1.1029467120227916e-07,-3.281487919927021e-07,5.185760255252645e-07,1.644785722302853e-06,-8.062386626959567e-07,-5.6989346024621785e-08,-4.5383024514376084e-07,-2.0665273970888637e-07,-8.494709747071599e-07,2.8615309336538683e-07,2.0592193408695654e-07,-4.069387322078766e-08,-4.3454183476121894e-08,-3.313045879257137e-07,-3.3524884062431523e-07
-5.155466174119491e-07,-5.093510145943045e-07,-1.8214394851421627e-07,-1.0261793086334544e-07,-3.13894102108082e-07,5.370051424314962e-07,1.6562207723916154e-06,-7.900271985394734e-07,-5.024298602350631e-08,-4.27069930717754e-07,-1.9688312343428036e-07,-8.396343409719629e-07,2.9269800904696247e-07,2.0682393080537185e-07,-2.8124971395581853e-08,-5.80613715419532e-08,-3.2753758994892325e-07,-3.3276854580360763e-07
-5.169934498646768e-07,-5.420133067100677e-07,-1.8091050229502503e-07,-9.680816074925874e-08,-2.7549078007855697e-07,5.524356883964518e-07,1.6571452028734223e-06,-7.733941446052476e-07,-3.606092779549345e-08,-3.992030376082775e-07,-1.880401126887261e-07,-8.26780484928068e-07,2.8602871667747503e-07,2.0122004350344234e-07,-1.5054909146994216e-08,-7.809612341602506e-08,-3.1958853863660906e-07,-3.3518057828186953e-07
-5.144144917378619e-07,-5.631341030703865e-07,-1.752728450151031e-07,-9.196878673702816e-08,-2.2383189801968183e-07,5.64118370399479e-07,1.6479603793996548e-06,-7.585064168045486e-07,-1.7451633304922115e-08,-3.7270309963779904e-07,-1.818845613225241e-07,-8.141522118794538e-07,2.7201953592162153e-07,1.9237017188948164e-07,-2.064938280313509e-09,-9.698643692148313e-08,-3.086082187895585e-07,-3.391504377484011e-07
-5.097087119025498e-07,-5.719285781084922e-07,-1.6736478591495306e-07,-8.895572123518686e-08,-1.7173421001576692e-07,5.728536273798875e-07,1.6306635724212222e-06,-7.48913880893529e-07,5.687467479729487e-10,-3.5122820048695737e-07,-1.798248262159788e-07,-8.068365097812998e-07,2.5722832531741077e-07,1.7982945419811557e-07,8.060400315041043e-09,-1.1184929720821428e-07,-2.9757169783719805e-07,-3.444028001246643e-07
-5.071424603000215e-07,-5.735117637273986e-07,-1.6027850782343137e-07,-8.989549718536919e-08,-1.2959750052114068e-07,5.740098653938071e-07,1.6054639079453952e-06,-7.476494850879869e-07,1.2830440822279161e-08,-3.375587866651666e-07,-1.819330637966569e-07,-8.090401176018656e-07,2.472347934710167e-07,1.6341191883589174e-07,1.2941615433693565e-08,-1.219741861939945e-07,-2.888114499670652e-07,-3.5135885602615905e-07
-5.099055005254109e-07,-5.735056837762246e-07,-1.56277891205319e-07,-9.60613388236904e-08,-1.0491193662331854e-07,5.66168441293248e-07,1.5790656970041126e-06,-7.54339608320779e-07,1.6552043613770647e-08,-3.3136207040350385e-07,-1.8594266824541824e-07,-8.207247679471872e-07,2.4562102887862513e-07,1.4671023180546161e-07,1.305462703324475e-08,-1.2645937640025229e-07,-2.821716727272392e-07,-3.578015848500503e-07
-5.172786661685226e-07,-5.735214106255194e-07,-1.5562324150939917e-07,-1.062461779888464e-07,-9.403027050461183e-08,5.537537746299297e-07,1.5509366287512498e-06,-7.647866580822595e-07,1.238489319990422e-08,-3.291590427181749e-07,-1.8781325859807247e-07,-8.366739231627096e-07,2.5314945168370385e-07,1.3619052829503514e-07,1.1694862228670443e-08,-1.2365851782549274e-07,-2.7552066754010464e-07,-3.587832950268753e-07
-5.250315203949728e-07,-5.712352954592194e-07,-1.5700298990222914e-07,-1.1731784629233856e-07,-8.924454633733349e-08,5.418476807320879e-07,1.5259959797302853e-06,-7.739391520590996e-07,3.168764393293396e-09,-3.267298359582984e-07,-1.841434782782329e-07,-8.491807332178615e-07,2.6735043495612286e-07,1.3654260612451364e-07,1.260697345659574e-08,-1.1277098497498754e-07,-2.6700664809124617e-07,-3.506801702278352e-07
-5.286201084243221e-07,-5.640230874439756e-07,-1.5899043477931283e-07,-1.264523698268226e-07,-8.467485157092344e-08,5.3458878008866e-07,1.5146622751585876e-06,-7.795069324323998e-07,-8.279000927401264e-09,-3.2184769795476987e-07,-1.7456406948136862e-07,-8.522477594003985e-07,2.8334750379404855e-07,1.4681661244295866e-07,1.7509968797607667e-08,-9.552286705468997e-08,-2.568273816437288e-07,-3.336073900277056e-07
-5.262485251059897e-07,-5.520735306823853e-07,-1.6109130686759223e-07,-1.3284608385749423e-07,-7.710305694941344e-08,5.319899563663245e-07,1.5050907652024782e-06,-7.826985461789291e-07,-2.022136139541096e-08,-3.1491021625701277e-07,-1.6175333220909285e-07,-8.43884025680306e-07,2.962665424646135e-07,1.6128307384329724e-07,2.572816267822715e-08,-7.568141910006658e-08,-2.468036122844422e-07,-3.111969400709281e-07
-5.191042122750558e-07,-5.37999398453286e-07,-1.634399416043063e-07,-1.3728451124399382e-07,-6.759532326146446e-08,5.315688111013468e-07,1.4988459682104265e-06,-7.855384742254901e-07,-3.118104818208778e-08,-3.0718565484832663e-07,-1.4894732087503005e-07,-8.253611200672546e-07,3.0407010884803765e-07,1.7422233087144588e-07,3.595975605915469e-08,-5.644739301446952e-08,-2.382744618421006e-07,-2.884017287879524e-07
-5.091156162489847e-07,-5.240675459132601e-07,-1.6562422860790467e-07,-1.4030115991871168e-07,-5.72066025967173e-08,5.310135669422111e-07,1.4980640250307547e-06,-7.877682301874415e-07,-3.8756205636896774e-08,-2.988182742671796e-07,-1.372807800685572e-07,-7.992828566594753e-07,3.088370436223355e-07,1.8402581556029236e-07,4.8031893079492135e-08,-3.820995606931172e-08,-2.3053462251057706e-07,-2.683283072297087e-07
-4.970844908094157e-07,-5.104859905959996e-07,-1.6605284575317633e-07,-1.4112015002835845e-07,-4.511653535970824e-08,5.313308528814408e-07,1.5009160640188043e-06,-7.865949893515809e-07,-4.005975107235976e-08,-2.886818943386178e-07,-1.2516654181604277e-07,-7.685654864737323e-07,3.1550448561923927e-07,1.9325245879082565e-07,6.278571681961491e-08,-1.889201575290883e-08,-2.2133343620212682e-07,-2.5171366621591053e-07
-4.829992189082456e-07,-4.962144449301416e-07,-1.6265434141148206e-07,-1.385146083469896e-07,-3.0117017670503896e-08,5.335864108090998e-07,1.50841582301131e-06,-7.79499478049642e-07,-3.38227657255368e-08,-2.7596493612967085e-07,-1.0996007885667981e-07,-7.365138093324564e-07,3.288350870291438e-07,2.0538209868267617e-07,8.047373933687534e-08,3.4949471569807605e-09,-2.087798298242029e-07,-2.38137853705874e-07
-4.674862548539997e-07,-4.807703029049745e-07,-1.5427129156667562e-07,-1.3243563245341173e-07,-1.2754666441823387e-08,5.364726474565005e-07,1.5151805836618136e-06,-7.670666239689433e-07,-2.1981661380172917e-08,-2.6151610779906207e-07,-9.034436765164843e-08,-7.067882825990609e-07,3.506275968600523e-07,2.2164775857532666e-07,9.968741430443066e-08,2.864561595928711e-08,-1.926777562292457e-07,-2.2724249012367787e-07
-4.5223173110297745e-07,-4.647901682681579e-07,-1.4141167162257813e-07,-1.24290520063912e-07,4.182324067244928e-09,5.374757952280255e-07,1.518417230236344e-06,-7.525650252205772e-07,-8.632799163161939e-09,-2.472158538685587e-07,-6.724279613968208e-08,-6.824493030543554e-07,3.7916024663362687e-07,2.408515549555778e-07,1.1825272621540424e-07,5.424472236307328e-08,-1.7404267319525674e-07,-2.186000465769579e-07
-4.386846307706326e-07,-4.4854699040954505e-07,-1.256599832240388e-07,-1.1532351550610946e-07,1.7898276093086765e-08,5.350250458015573e-07,1.5169811094107803e-06,-7.385312731820248e-07,3.098105954816185e-09,-2.3386991579289656e-07,-4.253223492949004e-08,-6.64627560208951e-07,4.1102142907077736e-07,2.6186580002211647e-07,1.3527630034214684e-07,7.824711690872021e-08,-1.5354232082680033e-07,-2.1093879549520932e-07
-4.2655234013904934e-07,-4.3013421032206805e-07,-1.083933600491947e-07,-1.0493721228256557e-07,2.8061788117741565e-08,5.308485354377169e-07,1.5145779595103141e-06,-7.241300776518456e-07,1.330995519572479e-08,-2.1998843226232666e-07,-1.7202139207665498e-08,-6.520242487699578e-07,4.433583364664641e-07,2.8550282019956294e-07,1.5205103979914943e-07,1.0065388772765166e-07,-1.3073573778151388e-07,-2.0192225627799907e-07
-4.1400885064141765e-07,-4.0614087603406863e-07,-9.0157998921135e-08,-9.100880771459353e-08,3.679477843108774e-08,5.286966956605184e-07,1.5145217164125185e-06,-7.063163345476151e-07,2.4455733591992533e-08,-2.0303268680383433e-07,8.908796278376344e-09,-6.41899230309871e-07,4.7444017161392026e-07,3.132154939648734e-07,1.7058507820979895e-07,1.2295177384379177e-07,-1.0504428315983296e-07,-1.8951929253718336e-07
-3.9971872343723783e-07,-3.7522734240040677e-07,-7.135712018644576e-08,-7.217380683876607e-08,4.588210331613168e-08,5.304646879824849e-07,1.5182114980435203e-06,-6.838969529704741e-07,3.812526322989281e-08,-1.8221106153842269e-07,3.557203373914156e-08,-6.319990832187521e-07,5.024048609131079e-07,3.4395423452512354e-07,1.9096625162177335e-07,1.4582031990078233e-07,-7.747140769038105e-08,-1.740986535612078e-07
-3.847718046911881e-07,-3.4129648404944054e-07,-5.341910705085741e-08,-5.002265301752626e-08,5.387256789101727e-08,5.336016827634278e-07,1.5243398723756237e-06,-6.604884554222591e-07,5.257310848501592e-08,-1.6021220195499195e-07,6.06414157248636e-08,-6.217692947332462e-07,5.242589678768105e-07,3.730189233311736e-07,2.1019026723418764e-07,1.6756589209731798e-07,-5.111540408474745e-08,-1.588191242955667e-07
-3.724687446364224e-07,-3.125001563007443e-07,-3.8884856290684344e-08,-2.8991598194346386e-08,5.64367442362084e-08,5.325631493123442e-07,1.5277998322333464e-06,-6.429514185688779e-07,6.358742478348739e-08,-1.4191693592903345e-07,8.062518273674173e-08,-6.116545770200728e-07,5.371001550472373e-07,3.94968180368745e-07,2.2397201313161355e-07,1.8511149286588092e-07,-2.954862350255642e-08,-1.47594176353583e-07
-3.6580549560706786e-07,-2.9606949808393674e-07,-2.9872332186675134e-08,-1.3744228503806965e-08,5.012952165615743e-08,5.234174870877393e-07,1.5253631228070082e-06,-6.362281105305919e-07,6.807713630182676e-08,-1.3093893816581876e-07,9.325473847995153e-08,-6.013528426676085e-07,5.406948164380857e-07,4.082241893467983e-07,2.3015979649980772e-07,1.9666380393963752e-07,-1.4330444909223148e-08,-1.4209153364182037e-07
-3.647233268534272e-07,-2.930487083089584e-07,-2.62403457574498e-08,-6.244414041410467e-09,3.6067992783984784e-08,5.073177485309357e-07,1.5160862291941657e-06,-6.392908291821025e-07,6.690349588545352e-08,-1.2712440306507513e-07,9.949965009300735e-08,-5.889967508993139e-07,5.384643068185611e-07,4.16842020715675e-07,2.306367162309197e-07,2.0337128919676776e-07,-3.940101220615204e-09,-1.403280184539351e-07
-3.6559448032289667e-07,-2.9736629339312527e-07,-2.5375629187634215e-08,-4.936545527210754e-09,1.998317523630205e-08,4.895428004826983e-07,1.5011164543308111e-06,-6.458848724426406e-07,6.425302565220919e-08,-1.2726526857151697e-07,1.0278372596699606e-07,-5.721530534359481e-07,5.354392470765885e-07,4.2739151289814265e-07,2.2989194425946603e-07,2.0826721594046786e-07,4.774367334551073e-09,-1.3828907459168788e-07
-3.6372847107733543e-07,-3.003303391989427e-07,-2.4136562457239104e-08,-6.4853461443546695e-09,8.526551303101959e-09,4.749577774922506e-07,1.4866260049461542e-06,-6.494816644359099e-07,6.414041509174595e-08,-1.283075514468686e-07,1.0592658684197722e-07,-5.498543814109819e-07,5.347942564559688e-07,4.431963918165407e-07,2.3132341142993918e-07,2.1329657605076293e-07,1.3729789019611265e-08,-1.337121727117157e-07
-3.572604829879289e-07,-2.9733771657852934e-07,-2.145842157014203e-08,-8.505506122411552e-09,4.811510370602696e-09,4.6389326081371864e-07,1.472383223622943e-06,-6.483801487919442e-07,6.70035092171007e-08,-1.3016318947016334e-07,1.0855047864369987e-07,-5.240545398345016e-07,5.357715359549814e-07,4.606707216759657e-07,2.343357733582936e-07,2.1707712362271292e-07,2.185508612040974e-08,-1.2858796526455268e-07
-3.4922309936236643e-07,-2.9131909096294006e-07,-1.930761544335209e-08,-1.1035566766343088e-08,6.904879764178506e-09,4.5214988666915867e-07,1.4547990364531892e-06,-6.466227355511754e-07,6.926348646583533e-08,-1.355592735594173e-07,1.0730653713205726e-07,-4.991616813204462e-07,5.345265511737466e-07,4.7127668678515133e-07,2.348490656495988e-07,2.156596462660077e-07,2.6165054391101943e-08,-1.2795544481511442e-07
-3.4558029095640475e-07,-2.8965056086541014e-07,-2.1014881829729307e-08,-1.558309029062759e-08,1.0438330258329362e-08,4.352118921401553e-07,1.4313378218951783e-06,-6.499497151810835e-07,6.636541615421366e-08,-1.4707683981575256e-07,9.883413167633283e-08,-4.797211982257666e-07,5.271493313495347e-07,4.6789052610124753e-07,2.28871654067766e-07,2.058372854649907e-07,2.467541833961649e-08,-1.3587703634025876e-07
-3.505375279778675e-07,-2.970869245434982e-07,-2.8463339543805866e-08,-2.2771135837812755e-08,1.2988890339824201e-08,4.128792780653433e-07,1.4016371337941306e-06,-6.605124056745547e-07,5.678691060304796e-08,-1.6418981758688746e-07,8.287254658071141e-08,-4.680563273065534e-07,5.125209874290337e-07,4.5037612569063076e-07,2.1595737137805476e-07,1.880868086717914e-07,1.8470790163985323e-08,-1.5211235812452624e-07
-3.6314870835059937e-07,-3.1104776680638973e-07,-4.0594412743491546e-08,-3.089941861908722e-08,1.6019086479844284e-08,3.902718643137462e-07,1.3676532081152714e-06,-6.74868023579312e-07,4.355274329130085e-08,-1.8296673429118255e-07,6.297851749696359e-08,-4.637432827633105e-07,4.929598925063595e-07,4.2604790364955986e-07,1.9963482858618564e-07,1.6663717462680844e-07,1.1217661161377153e-08,-1.7225051326407338e-07
-3.7807138713152436e-07,-3.2328952378134485e-07,-5.4276386628026186e-08,-3.678512634206502e-08,2.2719087826050768e-08,3.7439131469756256e-07,1.3375829292905352e-06,-6.865867891352999e-07,3.194010322122891e-08,-1.9859455223504826e-07,4.435222711939278e-08,-4.649077249946738e-07,4.7261444113741967e-07,4.049597649194054e-07,1.8473716353118143e-07,1.4675174057861286e-07,6.629677800149399e-09,-1.9076142271938613e-07
-3.896180605270167e-07,-3.2629200984355913e-07,-6.649975583593408e-08,-3.81915875679175e-08,3.387258763428583e-08,3.6892489024108215e-07,1.318217349244012e-06,-6.911104862380893e-07,2.5334551910667575e-08,-2.0855919823845268e-07,3.048627553445314e-08,-4.697442974883704e-07,4.55328747211772e-07,3.938583251839944e-07,1.7415923586260432e-07,1.3158408911139862e-07,5.9937047615872436e-09,-2.0447902567178e-07
-3.954727434089567e-07,-3.185863304672816e-07,-7.59459634945945e-08,-3.572406877858018e-08,4.5692043802970036e-08,3.714702402597542e-07,1.3074473462193095e-06,-6.88809522003398e-07,2.280897035390978e-08,-2.1385928001441578e-07,2.1320081005546e-08,-4.769612130163612e-07,4.4359126398877803e-07,3.9357232281266157e-07,1.678101374919656e-07,1.2118236644230672e-07,7.858443502536156e-09,-2.1374617781880147e-07
-3.9692083460135177e-07,-3.042603762788182e-07,-8.271599776096843e-08,-3.236484057834429e-08,5.2129457358013444e-08,3.756441805239045e-07,1.3008931895770118e-06,-6.836771508882524e-07,2.0506418940794405e-08,-2.1736508939765107e-07,1.429506892343815e-08,-4.85290326440191e-07,4.386953504067887e-07,4.013180414460536e-07,1.6420582121779858e-07,1.1408252461568281e-07,1.0012104184320167e-08,-2.2062816931827773e-07
-3.95975735008903e-07,-2.877129022584167e-07,-8.681455626081763e-08,-3.099247506738387e-08,4.9988371568190905e-08,3.762109817594599e-07,1.2932957274655382e-06,-6.791328004654289e-07,1.5427439531814984e-08,-2.210063704337862e-07,7.1308887768359886e-09,-4.931558191987023e-07,4.4102864993908594e-07,4.1464483166596564e-07,1.6259579752600358e-07,1.0941922326099565e-07,1.158091743746613e-08,-2.262654502259927e-07
-3.927859370969027e-07,-2.6939291099091147e-07,-8.71564749465924e-08,-3.2220720240995456e-08,4.2243092858089446e-08,3.7255291892466567e-07,1.2817946513543147e-06,-6.750819471835931e-07,8.084439907148013e-09,-2.243800087199808e-07,-2.376010463353033e-10,-4.992148547381154e-07,4.495837456083598e-07,4.3270407491239415e-07,1.63423649868371e-07,1.0731565572053646e-07,1.311751924122172e-08,-2.3005681846827166e-07
-3.8589606946250134e-07,-2.46622833739357e-07,-8.219090166364265e-08,-3.4410810715362736e-08,3.643987724411135e-08,3.676898176270042e-07,1.2677255001633312e-06,-6.688419668950265e-07,1.8080463092278865e-09,-2.2580844603409062e-07,-6.0385356479746784e-09,-5.034207191134795e-07,4.611403183909373e-07,4.5410448726843945e-07,1.6697887448680426e-07,1.0745007129596747e-07,1.487042043044454e-08,-2.3121870588141517e-07
-3.747153091098874e-07,-2.1814494584741735e-07,-7.159330231551406e-08,-3.557937265583432e-08,3.954077701091272e-08,3.6439631848290676e-07,1.2536586053553426e-06,-6.586572576324797e-07,-3.141497862713133e-10,-2.2455755044541415e-07,-8.683409265465758e-09,-5.076454960831663e-07,4.704997984040352e-07,4.746141511040081e-07,1.7202231002726704e-07,1.0770503260905045e-07,1.5376340051638984e-08,-2.3082628459975177e-07
-3.6137974496837915e-07,-1.8749252999946098e-07,-5.737023166204584e-08,-3.529677976975434e-08,5.355940131338454e-08,3.6248529325505574e-07,1.239393752104795e-06,-6.460146986877051e-07,2.1426183620338447e-09,-2.2187861999712448e-07,-8.327163864627365e-09,-5.149679418814547e-07,4.7242687281861386e-07,4.88217368446373e-07,1.762559906336888e-07,1.0483321944819959e-07,1.2201280094453012e-08,-2.3188233268030335e-07
-3.49796067927858e-07,-1.6145250802988528e-07,-4.3079519847930936e-08,-3.469960096813885e-08,7.556732326905657e-08,3.599040763626881e-07,1.2225574600650202e-06,-6.342224931845856e-07,7.329407662184159e-09,-2.1972752747830992e-07,-6.499525705216937e-09,-5.274324814527986e-07,4.643753318204754e-07,4.912898396349848e-07,1.7850468168467055e-07,9.700805709194552e-08,4.427048412695551e-09,-2.369900669373644e-07
-3.425156927147178e-07,-1.4492282581208117e-07,-3.165751215616505e-08,-3.465441278654254e-08,1.0145311622781277e-07,3.56182429115959e-07,1.2065916317370578e-06,-6.247552051773776e-07,1.3566502820133257e-08,-2.1847888752205454e-07,-4.421772887723204e-09,-5.43476745988516e-07,4.483068747029209e-07,4.859757361990624e-07,1.8035622535050792e-07,8.58509881224002e-08,-5.494022258089139e-09,-2.4589087134384066e-07
-3.384740246177221e-07,-1.371918655773797e-07,-2.380875309840768e-08,-3.4182512553900056e-08,1.2917284974531953e-07,3.542262562279138e-07,1.194082517795199e-06,-6.153427939262353e-07,2.107862758606462e-08,-2.1610836946687054e-07,-1.9201137178933376e-09,-5.572493038122883e-07,4.302546812982131e-07,4.793032167206629e-07,1.8529141229559901e-07,7.560779406198562e-08,-1.2555301471377242e-08,-2.554241700625763e-07
-3.339326217369397e-07,-1.330627401183145e-07,-1.8375876005656015e-08,-3.105206397877804e-08,1.5813552754064711e-07,3.5814485061842465e-07,1.1885023157914133e-06,-6.020995198677264e-07,3.110976443560924e-08,-2.0994317315695818e-07,1.8713408140197586e-09,-5.61121602885486e-07,4.1725136559567447e-07,4.783715405814495e-07,1.9569246847084257e-07,6.972391799289254e-08,-1.2442924245785529e-08,-2.621428031436246e-07
-3.259781481730343e-07,-1.2761060168313146e-07,-1.4291476283071858e-08,-2.421954476010172e-08,1.8567105822666027e-07,3.687312060356017e-07,1.1917097584717417e-06,-5.840941578796518e-07,4.317931858052848e-08,-1.9962512679775985e-07,6.700881785433972e-09,-5.500834243016321e-07,4.131608729107918e-07,4.853234850596423e-07,2.101680845660124e-07,6.757978363477743e-08,-4.795100934175134e-09,-2.652544444628997e-07
-3.1555089831242394e-07,-1.2031573373674697e-07,-1.2309066548344496e-08,-1.579758427075254e-08,2.0473589478447308e-07,3.808629239184342e-07,1.1986297069865497e-06,-5.660409106574988e-07,5.3390934980732086e-08,-1.8851151472602182e-07,1.0410681632629004e-08,-5.248712655026364e-07,4.166940788156807e-07,4.96182021174508e-07,2.2365162076057142e-07,6.423199980012478e-08,6.295209258047851e-09,-2.669933669579502e-07
-3.0724561940531293e-07,-1.1505643325193884e-07,-1.4783696982170216e-08,-1.0324478502787158e-08,2.0625224634820342e-07,3.859573912856032e-07,1.2018617582625318e-06,-5.559285542029678e-07,5.6053428216287094e-08,-1.8181070313318748e-07,1.030837669550575e-08,-4.917078183808749e-07,4.2337839167110374e-07,5.044648400970695e-07,2.3049590033639846e-07,5.353576406735402e-08,1.5141093557917752e-08,-2.6980945660232644e-07
-3.0598140594018847e-07,-1.1624909546178044e-07,-2.3549183927200245e-08,-1.1612612942280143e-08,1.8484533532640725e-07,3.778585607789724e-07,1.1937068900172362e-06,-5.592302590407116e-07,4.7502585429452655e-08,-1.8281671648819256e-07,5.654585019650665e-09,-4.5922379035541845e-07,4.294019108558685e-07,5.063859905742341e-07,2.2814290514628982e-07,3.218263549850212e-08,1.825878910507542e-08,-2.732281051576688e-07
-3.134080294072641e-07,-1.2480498324738225e-07,-3.7877678452204685e-08,-1.9931077342742548e-08,1.4308472930026104e-07,3.5693617074764363e-07,1.1710734815758826e-06,-5.749188791033905e-07,2.862893199619411e-08,-1.905689903914629e-07,-1.2355755171335713e-09,-4.347489650649595e-07,4.338590118054397e-07,5.033636566700513e-07,2.184948095870318e-07,1.5727143993346145e-09,1.5957988333043094e-08,-2.7377868965965223e-07
-3.269033028173229e-07,-1.3724247516753121e-07,-5.449897189936458e-08,-3.196927545237844e-08,9.070029120897789e-08,3.2894112607186666e-07,1.135876604885255e-06,-5.967496162142772e-07,3.905067926053987e-09,-2.0096604076535818e-07,-6.578377023038031e-09,-4.220667966250076e-07,4.3798352995477924e-07,4.9992087720419e-07,2.0607322009762994e-07,-3.365899555140771e-08,1.0742040206211436e-08,-2.6828594669076626e-07
-3.4178391685173064e-07,-1.4848967659107523e-07,-6.980126243856846e-08,-4.355514108767948e-08,3.921634439152362e-08,2.999086422427499e-07,1.0925816445783459e-06,-6.184879566267068e-07,-2.212437525849932e-08,-2.1034441438163132e-07,-8.19799547038734e-09,-4.2153152269384847e-07,4.424959385006868e-07,4.986046765906336e-07,1.9446395273302792e-07,-6.910232337911295e-08,4.1210889251306415e-09,-2.5778261397643017e-07
-3.549618700962368e-07,-1.5632765920589243e-07,-8.245379528359664e-08,-5.290394218911986e-08,-4.230233329099144e-09,2.7152899477301974e-07,1.0440928153656389e-06,-6.385592262445592e-07,-4.790285629772934e-08,-2.1846328879021525e-07,-7.624271895635856e-09,-4.316436174840562e-07,4.4550500110153585e-07,4.963327142465601e-07,1.8381686508743998e-07,-1.0323526979080643e-07,-5.364849901639828e-09,-2.4871720033736774e-07
-3.669865436188279e-07,-1.6388788399670443e-07,-9.423227887685877e-08,-6.171633609380064e-08,-3.9388829758045146e-08,2.40894977899513e-07,9.90377953653711e-07,-6.601448034923557e-07,-7.496468390642347e-08,-2.2826977525227092e-07,-9.313187735996572e-09,-4.501647933200557e-07,4.4311033149202454e-07,4.860619110941402e-07,1.714429670751104e-07,-1.3719324612722763e-07,-2.1015176307115115e-08,-2.499278435887019e-07
-3.8055980420262404e-07,-1.7741703170754826e-07,-1.0822629911901348e-07,-7.321958241842097e-08,-6.995434336582489e-08,2.0465388735800092e-07,9.313600667001668e-07,-6.86748779249911e-07,-1.0518422908893986e-07,-2.4272941968582433e-07,-1.744390469861395e-08,-4.739095153584075e-07,4.3263689409143546e-07,4.628835302760597e-07,1.5492642177622794e-07,-1.7213365740576745e-07,-4.464300229037783e-08,-2.671444224171833e-07
-3.9697084667710346e-07,-2.005225655793244e-07,-1.2587114171257167e-07,-8.898865703623986e-08,-9.802186590999425e-08,1.6360662528788255e-07,8.695400303565839e-07,-7.173849388074388e-07,-1.3779008348422619e-07,-2.6171040277528074e-07,-3.289796931269544e-08,-4.983778417717319e-07,4.156739512262259e-07,4.2917492210909815e-07,1.3490578199078408e-07,-2.0682609736677848e-07,-7.415298048363552e-08,-2.991899928361608e-07
-4.1392705491164595e-07,-2.2983875196080469e-07,-1.453079512064459e-07,-1.073300274551579e-07,-1.2082876320585343e-07,1.2373018590198338e-07,8.115175239211061e-07,-7.456645396897197e-07,-1.688108924386538e-07,-2.815610805940288e-07,-5.288779574807759e-08,-5.187629427399079e-07,3.9779233783417676e-07,3.9426283918565873e-07,1.1511597134957595e-07,-2.3760451366949698e-07,-1.0421818361858876e-07,-3.389478784837967e-07
-4.266863076814976e-07,-2.5611001558855924e-07,-1.6242047174133722e-07,-1.2438193618250165e-07,-1.3229366570708392e-07,9.29811745205645e-08,7.656177648495621e-07,-7.634136259813195e-07,-1.933733058037877e-07,-2.9746403103023746e-07,-7.323965570815512e-08,-5.320505006487879e-07,3.848406266615669e-07,3.6893182969496854e-07,9.981712426363404e-08,-2.6048521853659234e-07,-1.2938543441730312e-07,-3.7797342438343834e-07
-4.313330636753982e-07,-2.698508370898924e-07,-1.7362910745140457e-07,-1.3679863854117882e-07,-1.2774269985655873e-07,7.656659899552441e-08,7.364631410008488e-07,-7.65742526640822e-07,-2.0879046347047669e-07,-3.065021617519664e-07,-9.113235533433207e-08,-5.384268349993168e-07,3.790737249903085e-07,3.594456789086579e-07,9.10266315957151e-08,-2.733222001440741e-07,-1.46941171050939e-07,-4.106030954846237e-07
-4.272845798089543e-07,-2.6673278830559425e-07,-1.780914855183278e-07,-1.437131400885752e-07,-1.0765525848614959e-07,7.446691394625222e-08,7.248434429858458e-07,-7.534579714374362e-07,-2.1561932842799703e-07,-3.0894922386386567e-07,-1.0602679668782787e-07,-5.407814624503753e-07,3.7856593026186266e-07,3.65929063460759e-07,8.807067978623669e-08,-2.759247279264766e-07,-1.572736731632969e-07,-4.3444446445811074e-07
-4.168459367566169e-07,-2.4833541733689657e-07,-1.7762290046241472e-07,-1.4638341203543304e-07,-7.734471796180556e-08,8.299467712270924e-08,7.27691034417372e-07,-7.31108860705084e-07,-2.1576244612394114e-07,-3.06927190835189e-07,-1.1843139591569366e-07,-5.426855510731146e-07,3.801883965901148e-07,3.8552759119232093e-07,8.953359931729388e-08,-2.6826932706066656e-07,-1.618719820016772e-07,-4.479046892820815e-07
-4.024707380062866e-07,-2.1857512943009999e-07,-1.7485554449198906e-07,-1.461798975351337e-07,-4.347888770430816e-08,9.834726518749147e-08,7.406116813311135e-07,-7.030771396028798e-07,-2.0969958059853878e-07,-3.020558409669505e-07,-1.280937858753553e-07,-5.462383783904571e-07,3.832160501621933e-07,4.163255783133808e-07,9.524431368903598e-08,-2.490476861835325e-07,-1.6118372707861473e-07,-4.4825479418809693e-07
-3.8457218946608963e-07,-1.8004515220961987e-07,-1.7159519525514844e-07,-1.4312731228394223e-07,-1.1245430789350193e-08,1.1848808770935403e-07,7.606160509967047e-07,-6.717199552865755e-07,-1.9577400542964553e-07,-2.9446204752122963e-07,-1.3354833783809313e-07,-5.510568430154862e-07,3.905610082680151e-07,4.5821800561219793e-07,1.0629595123183197e-07,-2.1631383588574738e-07,-1.542349328787564e-07,-4.32332480565574e-07
-3.6184224714930656e-07,-1.334752217596521e-07,-1.6858536755781342e-07,-1.3629232186522334e-07,1.5747985505807394e-08,1.420922849543232e-07,7.852467350169982e-07,-6.387060466000806e-07,-1.7219023111688568e-07,-2.837747798473997e-07,-1.3333976073707553e-07,-5.547579830055298e-07,4.0707481900188906e-07,5.105759433451098e-07,1.2343120189811237e-07,-1.6964780316568834e-07,-1.39914990194984e-07,-3.987860368814779e-07
-3.3334274601970876e-07,-7.968615008208115e-08,-1.6615399638467613e-07,-1.252224771513427e-07,3.43571801204459e-08,1.667344090441958e-07,8.116294432551097e-07,-6.06804060404172e-07,-1.3949124950942792e-07,-2.7046832300201664e-07,-1.275203104412417e-07,-5.542858267953859e-07,4.366315572846671e-07,5.698178725731837e-07,1.457654597042169e-07,-1.1165046450840772e-07,-1.1826375744852213e-07,-3.49570631345357e-07
