0,1,2,3,4,5,6,7,8,9,10,11,12,13,14,15,16,17
-1.230345153068193e-07,2.4584934364358447e-07,-9.006298716461157e-08,-4.132782251651221e-07,-2.097948821067108e-07,-2.766385238592187e-07,2.1565149895144356e-07,-6.124418341468966e-07,-2.0691294714254123e-07,2.1784733401747347e-10,-3.051060138520108e-07,-9.600111586932525e-08,-2.8610708244859263e-07,-5.748826722816707e-07,1.067462698521612e-07,7.16274307600692e-08,-1.172871848287686e-07,1.8377050136426827e-07
-1.1497386004587165e-07,2.6913044110508104e-07,-1.1807228975287803e-07,-4.0358146241777743e-07,-2.2238715452693265e-07,-3.0105574184942924e-07,7.283800882300112e-08,-6.085810179188529e-07,-2.039612943807043e-07,1.8933606314371384e-08,-2.652102562085692e-07,-1.1623797752351936e-07,-2.8733314872104924e-07,-5.012508995426013e-07,1.5465846094115637e-07,1.0070421514710409e-07,-4.7091677200636934e-08,2.0980871226994181e-07
-8.207809599164739e-08,2.97642287828696e-07,-1.4479759305186327e-07,-3.965920055217649e-07,-2.3513803924910874e-07,-3.220657413574285e-07,-6.954746295062734e-08,-5.993474540862039e-07,-1.9728092305023196e-07,3.1666036368199146e-08,-2.2571323518058315e-07,-1.2578988513454364e-07,-2.729266931544303e-07,-4.255075549993067e-07,1.77215953529019e-07,1.0473392626093524e-07,4.155947545406176e-09,2.2054821233318422e-07
-3.295520559558473e-08,3.1763837251982947e-07,-1.6452492839411715e-07,-3.809587940099309e-07,-2.448311403494807e-07,-3.303531529295814e-07,-1.9310429180004353e-07,-5.705286091627885e-07,-1.829586370530852e-07,3.6018220516522044e-08,-1.878108178050111e-07,-1.2244347740433831e-07,-2.4349956215802244e-07,-3.4823154478726035e-07,1.7462743598720587e-07,9.278246189521334e-08,3.778736305715756e-08,2.1231714881520197e-07
1.7864618110277918e-08,3.1202820191531736e-07,-1.7072795730739773e-07,-3.461857912999086e-07,-2.4700702339285816e-07,-3.172897088057137e-07,-2.810261814020067e-07,-5.119647277188231e-07,-1.5879273586707865e-07,3.09146542534754e-08,-1.5222435552276909e-07,-1.067744861712822e-07,-2.0171777320353726e-07,-2.66026993797284e-07,1.5004547306050043e-07,7.182275407717143e-08,5.785953631962108e-08,1.758268974771736e-07
5.523307496936423e-08,2.6720189297513566e-07,-1.5935363964844642e-07,-2.8506996052913906e-07,-2.354813850970709e-07,-2.789055650570571e-07,-3.249674912364276e-07,-4.170061940540039e-07,-1.2468543379777117e-07,1.7582270062448396e-08,-1.1894824764020501e-07,-8.193787466359004e-08,-1.4983626561581495e-07,-1.7502244759055182e-07,1.0837225903267424e-07,4.661407260799106e-08,6.626771168319791e-08,1.5227398535179685e-07
6.97170812532167e-08,1.8454969770237688e-07,-1.3049540095516205e-07,-1.9633186646397927e-07,-2.0646480779527027e-07,-2.1514952147787728e-07,-3.2458288692091804e-07,-2.908262226272716e-07,-8.204838388611854e-08,-3.803779704316966e-10,-8.672198866579742e-08,-5.282258891823997e-08,-8.733021749660422e-08,-8.470452299693142e-08,5.500064413977146e-08,1.9985313163702988e-08,6.342438547929152e-08,9.629998145087548e-08
6.083284680551165e-08,6.77685468327967e-08,-8.59635767614344e-08,-8.515981519783568e-08,-1.5750679574690762e-07,-1.2932168459539107e-07,-2.8389121406647366e-07,-1.425667243110441e-07,-3.295887845162127e-08,-1.9133840142841604e-08,-5.2249709389748246e-08,-2.287314610742413e-08,-1.4849832626117838e-08,4.014968874832532e-09,-2.7994303100465062e-09,-6.0340745227766285e-09,5.0241145278905427e-08,1.8678308201907782e-08
3.539080705773987e-08,-7.044510974461718e-08,-3.08881873778215e-08,3.762622604695897e-08,-9.049619325979202e-08,-2.9015092018833845e-08,-2.1079110923269858e-07,1.7483872414489417e-08,1.977312117608448e-08,-3.4439991552844246e-08,-1.341677586733074e-08,4.285250720261942e-09,6.202800535214235e-08,8.968039656560689e-08,-5.793331059883443e-08,-2.9189984715560153e-08,2.815473021636144e-08,-5.377457020445342e-08
4.281108070731677e-09,-2.0163557712901674e-07,2.7985789012792843e-08,1.5881524031827055e-07,-9.66382411391661e-09,7.720784257067526e-08,-1.1552733429252827e-07,1.7664474117634206e-07,7.187796972656331e-08,-4.2825619091135885e-08,3.150709977820793e-08,2.778188656341499e-08,1.325210132131769e-07,1.6999845413689277e-07,-1.0354073384770454e-07,-4.7291199450137664e-08,-1.2302426002809168e-10,-1.431658953592337e-07
-1.993278154828551e-08,-2.9841357960507486e-07,8.300018056836928e-08,2.66054142296039e-07,8.062283986223541e-08,1.7807939446414149e-07,-7.763139464832586e-09,3.2623470588057894e-07,1.1955904279047797e-07,-4.226767640261393e-08,8.370472502199102e-08,4.982920342382764e-08,1.926457653746331e-07,2.420658671398135e-07,-1.3325174879778539e-07,-6.014511802604112e-08,-2.7984239580943252e-08,-2.0014937920402668e-07
-2.776272016735682e-08,-3.4958963030638016e-07,1.3120730827943685e-07,3.5139835596754715e-07,1.745290122683052e-07,2.6693202224443237e-07,1.0402368389740485e-07,4.590428133490773e-07,1.5969456105239992e-07,-3.27810714434713e-08,1.4198850277790504e-07,7.259095164829525e-08,2.3890760851147737e-07,3.0730042172168176e-07,-1.4582925273068933e-07,-6.747181248862209e-08,-4.495371420022283e-08,-2.2185300762192306e-07
-1.4845878578939006e-08,-3.4892448494148955e-07,1.716648706074658e-07,4.036973916019078e-07,2.692008368258209e-07,3.413793403199733e-07,2.1233828222610297e-07,5.723793653939239e-07,1.8870532455842876e-07,-1.6935400457945393e-08,2.0432119314689754e-07,9.750785113645163e-08,2.61377553410209e-07,3.5971810711159507e-07,-1.4335619009120245e-07,-7.139843090965853e-08,-4.8894921628736854e-08,-2.1955286141292116e-07
1.4792998941563636e-08,-3.0402468412790673e-07,2.0342080675848597e-07,4.2719153198798224e-07,3.61071431714634e-07,4.0028102520551253e-07,3.139488503284057e-07,6.634008372441685e-07,2.0567257893493826e-07,1.2302722151000456e-09,2.6494067996155637e-07,1.2507646039060154e-07,2.56187709633442e-07,3.922478659806756e-07,-1.305748401601075e-07,-7.433757403868379e-08,-3.845907070015151e-08,-1.8775855364620358e-07
5.541655669365778e-08,-2.3218286563886917e-07,2.2845729709686506e-07,4.306747586955496e-07,4.468962577159416e-07,4.4645982584206864e-07,4.059132147518949e-07,7.369902567840972e-07,2.124318721334106e-07,1.988762308972131e-08,3.17974672409637e-07,1.5632649446464814e-07,2.2491029915211065e-07,4.065713042153049e-07,-1.1279060421888688e-07,-7.592484090572988e-08,-1.1160315189547795e-08,-1.4444503967127364e-07
1.020539653324405e-07,-1.5659285302946132e-07,2.491503080903159e-07,4.3170027369120315e-07,5.264508672511111e-07,4.894552813037283e-07,4.864875723883041e-07,8.010861917832071e-07,2.1188476325684846e-07,3.2313446907428656e-08,3.6296452703582973e-07,1.9148245344476035e-07,1.7502262077697762e-07,4.0402925024920544e-07,-9.65903857872319e-08,-7.647713885497621e-08,2.8063328009092955e-08,-9.882444014431485e-08
1.5006436344724457e-07,-9.979516838839338e-08,2.6787703044545787e-07,4.364888675414424e-07,5.949978740773014e-07,5.306340251749645e-07,5.543242217252928e-07,8.605525542334121e-07,2.067080047835479e-07,3.5967306103516444e-08,3.978068155814986e-07,2.3007893755429038e-07,1.1921655306196392e-07,3.9106122654643674e-07,-8.128648132981044e-08,-7.726707460779747e-08,7.510312585579893e-08,-5.991193069964495e-08
1.9854835758557633e-07,-7.61915822745594e-08,2.8608698632986916e-07,4.4982058485529405e-07,6.549556882482601e-07,5.641884777285172e-07,6.076389232580969e-07,9.191277978080654e-07,1.996301326011517e-07,3.242825759100065e-08,4.239150463249005e-07,2.718619039169383e-07,8.340330795784937e-08,3.7848455520258947e-07,-7.361463177751065e-08,-7.97803351993241e-08,1.2597813426894538e-07,-3.0157536612538925e-08
2.4741336054471474e-07,-8.630604606047332e-08,2.948753188643186e-07,4.71686878312438e-07,7.107265239670596e-07,5.955465160849085e-07,6.466621384791575e-07,9.77305721072673e-07,1.924702766155544e-07,2.267746291315555e-08,4.451524478799811e-07,3.166634038543703e-07,6.365307174382372e-08,3.7447226424459955e-07,-7.157814459744183e-08,-8.340567244715584e-08,1.7468911959226017e-07,-7.690403568506601e-09
2.9529757657376005e-07,-1.2294992731751821e-07,3.064359454811193e-07,4.948120927536735e-07,7.632221508455288e-07,6.241655595839439e-07,6.72656882936326e-07,1.0332434299477534e-06,1.8685428797614858e-07,1.095570464971692e-08,4.638245654828801e-07,3.596750934392831e-07,6.237138088137566e-08,3.837970838224739e-07,-6.900968090822918e-08,-8.865110441680159e-08,2.1428980081696228e-07,9.960828501250385e-09
3.4018972183360686e-07,-1.7006026431975476e-07,3.197279456235265e-07,5.182535884182966e-07,8.116153814434357e-07,6.437771881848663e-07,6.848453614398867e-07,1.0709370951831122e-06,1.8328049088150898e-07,2.71037268308059e-09,4.810625347828925e-07,4.025764952625003e-07,8.257497349436212e-08,4.06545923031164e-07,-7.126983296329235e-08,-9.747281065187535e-08,2.407080611344633e-07,2.7270834037338562e-08
3.811427776706282e-07,-2.1145633617288192e-07,3.37220222835404e-07,5.355813988443062e-07,8.528351165437691e-07,6.499304228319142e-07,6.853469032794933e-07,1.0837544666574586e-06,1.7989035253486624e-07,-1.0850664906498043e-09,4.96608899684992e-07,4.3821638282414e-07,1.1558457219634557e-07,4.324638150407859e-07,-7.612398813411113e-08,-1.1713030027744143e-07,2.542770091827953e-07,4.8314031863737534e-08
4.161160149529078e-07,-2.3834141126816095e-07,3.5807018458656826e-07,5.37217045901152e-07,8.920960482745898e-07,6.3330130290654e-07,6.781370151138134e-07,1.0672552645510626e-06,1.7544439774911406e-07,4.964884919552568e-10,5.117391883908559e-07,4.6543444171230084e-07,1.6587075493193823e-07,4.612547370890699e-07,-8.687415120466805e-08,-1.5125994579561233e-07,2.578646136658478e-07,7.514519449209609e-08
4.4972132521540325e-07,-2.5203521663232416e-07,3.746275706526136e-07,5.17624439833683e-07,9.214234128745528e-07,5.758684160911836e-07,6.697582436538748e-07,1.0129144375292948e-06,1.6693197687339666e-07,9.349728394027478e-09,5.219965490042736e-07,4.815679027419458e-07,2.243062365722801e-07,4.902052073771547e-07,-1.0686289265910445e-07,-1.9757000780634886e-07,2.549475871365052e-07,1.0612713372382174e-07
4.747539240735666e-07,-2.5950965280614464e-07,3.8080160020676456e-07,4.749130597786709e-07,9.374083032119633e-07,4.758931277564793e-07,6.635512291733586e-07,9.186830953965126e-07,1.4998495896076817e-07,2.3562396882786423e-08,5.262363818535544e-07,4.817506181786313e-07,2.84900692788208e-07,5.438370725668682e-07,-1.3698954787358564e-07,-2.6281335887691364e-07,2.5340846761673114e-07,1.406756813265287e-07
4.939931506889775e-07,-2.712732206217444e-07,3.684084527988158e-07,4.0793131491016907e-07,9.391914660086266e-07,3.5265937008913733e-07,6.602997626537707e-07,7.878402321872152e-07,1.2295215321443648e-07,3.959571892332763e-08,5.243085764957815e-07,4.6687166080203473e-07,3.431887080255417e-07,6.190599468861947e-07,-1.7219765593429712e-07,-3.473071813025092e-07,2.587837246652602e-07,1.660606934517651e-07
4.999523308754343e-07,-3.0028325535656163e-07,3.7080449966009704e-07,3.263885890339228e-07,9.266191922888936e-07,2.131113616767727e-07,6.533578031227361e-07,6.319037677848684e-07,8.78373038689439e-08,5.596605572283808e-08,5.141021165973233e-07,4.4003950192342437e-07,3.941025180659668e-07,7.068172773295599e-07,-2.068025797770909e-07,-4.4507808382292104e-07,2.764483259022351e-07,1.81754954922908e-07
4.842410462375065e-07,-3.5895120433647293e-07,3.6545483475449385e-07,2.3993389609880227e-07,9.177582614272087e-07,6.50531537091233e-08,6.373486587911449e-07,4.592172658269864e-07,4.738106216400382e-08,7.049769418549017e-08,4.971288709686943e-07,4.0698210141218757e-07,4.3126765234178804e-07,7.712801227910111e-07,-2.3353259584651736e-07,-5.546495186838504e-07,3.082214057644047e-07,1.8747062080098625e-07
4.4283525450518194e-07,-4.4893749614340746e-07,3.5262368384720406e-07,1.7474335735655136e-07,9.064715292910844e-07,-6.83456504547174e-08,6.04405329703104e-07,3.0816383967666914e-07,4.972913724575968e-09,7.797571390496685e-08,4.7465911186799785e-07,3.7208698237324703e-07,4.5019924010975826e-07,8.183206917938505e-07,-2.436249621182654e-07,-6.613274358483034e-07,3.5479634489806165e-07,1.8777053925371603e-07
3.784410474928123e-07,-5.62987025848373e-07,3.3441077163209117e-07,1.317696722813604e-07,8.926766566097563e-07,-1.8781530948642971e-07,5.617215647909579e-07,1.7715728721203774e-07,-3.7542834580585433e-08,7.742022576916104e-08,4.506428736050633e-07,3.4215931648397207e-07,4.608552843730154e-07,9.053869282224178e-07,-2.334875370570126e-07,-7.06583043902337e-07,4.23722205936714e-07,1.8308025984803698e-07
3.255690235597427e-07,-6.892255649630162e-07,3.1830063122033026e-07,1.136000136407917e-07,8.841373796411376e-07,-2.9066145248987966e-07,4.983684427266369e-07,9.054260910889292e-08,-7.846485280293288e-08,6.859947859088098e-08,4.26628387374495e-07,3.217969464690629e-07,4.7260521537362147e-07,1.042308103402882e-06,-2.0229224711301886e-07,-6.919881802791833e-07,5.146503073418715e-07,1.7902874469717657e-07
2.9758826583230507e-07,-8.05751711667375e-07,3.3057647448833965e-07,1.0839760665549052e-07,9.052885351638785e-07,-3.616835064069996e-07,4.021307654743371e-07,7.704836927274009e-08,-1.1411918076286442e-07,5.2169539535158604e-08,4.1282828749116704e-07,3.1683397118280725e-07,4.996277049084262e-07,1.2778370988528656e-06,-1.5622230659633047e-07,-6.130984845580523e-07,6.235954950029659e-07,1.827014037060144e-07
3.557333327922017e-07,-8.89742842317752e-07,3.9129907596622133e-07,1.1322469663156094e-07,9.364034247778547e-07,-4.0181238152546867e-07,2.7775096350885304e-07,1.2452905766812396e-07,-1.3945099623578598e-07,3.2347548622908064e-08,4.100791810875804e-07,3.3390185561045103e-07,5.971506719862698e-07,1.5629864406293561e-06,-9.800715287173318e-08,-4.31805357348077e-07,7.135572567976099e-07,1.9508968184793074e-07
4.746642614636944e-07,-9.325003453975361e-07,4.820052452603693e-07,1.419038027232402e-07,1.0353772477960304e-06,-4.140096031441139e-07,1.3366406603490832e-07,2.1411039726803856e-07,-1.4927901299144967e-07,8.982331587547954e-09,4.1399906971010476e-07,3.7731840412856057e-07,6.735015168171595e-07,1.6998171804523085e-06,-3.484769934963539e-08,-4.089223899733794e-07,7.840856768183849e-07,2.193338153370236e-07
5.803053089450431e-07,-9.330479231254093e-07,5.474282699357342e-07,1.6068275130836839e-07,1.1772531107871285e-06,-3.9168805270700766e-07,2.286426769575043e-08,3.555599669430074e-07,-1.3924236155928623e-07,-5.618497118620849e-08,4.2129019013098373e-07,4.505627606783515e-07,7.036994300468437e-07,1.7047407003270015e-06,3.548951564398189e-08,-3.9194394450807235e-07,7.913415062405381e-07,2.5712625671969303e-07
6.491814022985386e-07,-8.873823346243076e-07,6.211127425292407e-07,1.5656987255983482e-07,1.2583056476042078e-06,-3.344332988993261e-07,5.072701351483874e-10,5.630340395695145e-07,-1.1078376240942754e-07,-1.322430993283289e-07,4.225108397369322e-07,5.497856656017714e-07,7.976923161723138e-07,1.8060017319662113e-06,1.0994968425101167e-07,-2.2539766117211146e-07,7.123205124666026e-07,3.0526971091176944e-07
7.16523363375423e-07,-7.915021237268872e-07,6.950277460829877e-07,8.078232680835378e-08,1.332582296987858e-06,-2.502877956144626e-07,9.25938312761439e-08,7.505752216906411e-07,-7.265833737175214e-08,-1.8179385059157827e-07,4.128571083611716e-07,6.652688175558748e-07,9.331952665846324e-07,2.0889154866378777e-06,1.9147899122884693e-07,-1.1346653783331981e-08,6.620329030458356e-07,3.547742761424389e-07
7.696812937860856e-07,-6.476581619100667e-07,7.40785389153476e-07,-1.2830009550255389e-08,1.4168809874024898e-06,-1.4114825744170444e-07,1.6652770851728222e-07,8.603590307342508e-07,-3.159932282258802e-08,-1.8737538301701775e-07,4.050150276634118e-07,7.940442447989772e-07,1.0692749118318607e-06,2.4781589345731175e-06,2.4311052865788215e-07,1.688240513266361e-07,6.416252948138859e-07,3.9119189375509735e-07
8.457836983978306e-07,-4.6148235653756263e-07,7.889357299428068e-07,-9.468692767703584e-08,1.4548001900608732e-06,-2.1888920213036508e-08,2.071968576095297e-07,9.314514646744883e-07,5.622733422957863e-09,-1.518821709538144e-07,3.9686322739174313e-07,9.31349014395741e-07,1.1863442082196067e-06,2.825190340346573e-06,2.409335732344367e-07,2.498602163996664e-07,5.937493469741104e-07,4.0666681452876144e-07
9.467132472549464e-07,-2.4557257572862994e-07,8.673163221569002e-07,-1.554424659855336e-07,1.4840141519928908e-06,9.312420343186867e-08,2.1058498396942116e-07,9.306003221360652e-07,3.369763848791345e-08,-1.1166384830634764e-07,3.8519694208668165e-07,1.0593449072784584e-06,1.2753473273708778e-06,3.062987564601428e-06,2.043362892642616e-07,2.718710741554693e-07,5.047583831433176e-07,4.097082027765529e-07
9.872491620866624e-07,-2.0173021029084836e-08,9.375446604647373e-07,-2.4027773432911864e-07,1.5517972266939483e-06,1.9867841224106837e-07,2.551750264758679e-07,9.004890140718179e-07,4.468694165870566e-08,-9.104472898319047e-08,3.8051019743540647e-07,1.1897033632683104e-06,1.333061826089728e-06,3.2598528599923276e-06,1.6647350350589533e-07,2.782742347190434e-07,4.0012089805047987e-07,3.9591499490812325e-07
1.001589052687057e-06,1.858909428333062e-07,9.809816409071868e-07,-3.2449119183752584e-07,1.588022712701352e-06,2.7564686458243946e-07,3.998163622728284e-07,8.544129481758555e-07,3.1316534233737834e-08,-6.477853072404285e-08,3.8454742684350624e-07,1.2779768882907694e-06,1.3702203424152328e-06,3.4407514867886175e-06,1.0828675361379078e-07,2.9946868751544673e-07,3.6769540481060497e-07,3.6997715005829595e-07
1.0352791540738918e-06,3.47369159038831e-07,1.030767326304633e-06,-3.8796355742462765e-07,1.6131063449342439e-06,3.2503761449286e-07,6.561137313477936e-07,8.09066543457548e-07,-7.84368568772259e-09,3.036504543441759e-08,4.096303090535446e-07,1.2913725945659552e-06,1.3787655006292634e-06,3.6070204567745096e-06,5.422917171878272e-08,2.8474080839399866e-07,3.6933293000482187e-07,3.38761174428273e-07
1.0473097443318428e-06,4.547159246448376e-07,1.1007399933596288e-06,-4.098071751410851e-07,1.6671231809173669e-06,3.577143283608721e-07,8.401870980821466e-07,8.171085633532528e-07,-7.240759650971805e-08,9.99800939011689e-08,4.5304540376266005e-07,1.3207716753243422e-06,1.3916416125605208e-06,3.74516280210306e-06,2.105736662047083e-08,2.533079153572478e-07,3.793204204836721e-07,3.2764004165622854e-07
1.0634769803005796e-06,5.082887147634537e-07,1.1456264995403416e-06,-4.310249960200571e-07,1.7227053733755341e-06,3.487601685451761e-07,1.0218111400138633e-06,8.449810850374669e-07,-1.2825379935336422e-07,1.0956667775370716e-07,5.120707197600794e-07,1.2740796304227815e-06,1.4513438164812224e-06,3.796755298117097e-06,-5.635864595884153e-10,1.2734114017237277e-07,3.4354062302714026e-07,3.753386996613789e-07
1.0666709939334096e-06,5.165362673924524e-07,1.2176050563968708e-06,-4.706470376814952e-07,1.7687014310602106e-06,3.2721317277290904e-07,1.1782892374848548e-06,9.956660381407592e-07,-1.4503996817010375e-07,1.3828982568036273e-07,5.660582979536674e-07,1.208382780703165e-06,1.5610713353972437e-06,3.7832393142551116e-06,-1.7813070019920883e-08,3.431077264091885e-08,3.2485955792476325e-07,4.487444429922214e-07
1.043541835382054e-06,4.948643909512075e-07,1.2761059040805162e-06,-4.970318711701269e-07,1.805634549288907e-06,3.6497056820048324e-07,1.1823414141340343e-06,1.1202993650654261e-06,-1.0369044901157765e-07,1.644110273322678e-07,6.257083104356068e-07,1.1840296038242663e-06,1.6151405061347782e-06,3.6949682583050894e-06,-3.652185235444936e-08,6.873187602883786e-08,3.896072340159321e-07,5.073008537253915e-07
1.0504615597305387e-06,4.573196361571378e-07,1.343719151425697e-06,-4.6640935016455847e-07,1.8814699742052948e-06,4.515134718489124e-07,1.1525463593610678e-06,1.1826963642410053e-06,-5.685607011110201e-08,1.8928063998869868e-07,6.684776647446678e-07,1.1786798497469896e-06,1.6200338920325433e-06,3.6450829537122585e-06,-3.755056741422739e-08,5.2917778115109514e-08,4.870431518978697e-07,5.419731622392644e-07
1.0777037856395594e-06,4.1774178812526363e-07,1.4438094176705606e-06,-3.8669342587174557e-07,1.9840019543254445e-06,5.748567038496068e-07,1.2267895021848155e-06,1.2396573423419061e-06,-3.2600675858815123e-08,1.8092037972040378e-07,6.925919845842946e-07,1.1930063335190498e-06,1.6352196692005786e-06,3.6348358516939106e-06,-2.7438321979770776e-09,7.900911352574269e-08,5.872997347755875e-07,5.625859897869951e-07
1.1297072245730975e-06,3.895093870451471e-07,1.5090615109309424e-06,-3.039574732460608e-07,2.058555667719249e-06,6.871485166847806e-07,1.3965265751210948e-06,1.3515244602113048e-06,-2.398582116559428e-08,1.3192587809141902e-07,7.442690709252394e-07,1.2443272528776454e-06,1.6518675198009707e-06,3.6593020238489164e-06,7.827000357751467e-08,1.132151269875743e-07,6.90401334533533e-07,5.665035996636809e-07
1.1885771522809166e-06,3.821991023114252e-07,1.5708045782170335e-06,-2.271653301122226e-07,2.1297145172786867e-06,8.195600089880495e-07,1.5471710688447035e-06,1.5105811312375598e-06,5.769189180243665e-08,6.708568062589062e-08,8.186087981438415e-07,1.2951700395465893e-06,1.7648114613892002e-06,3.751663445418386e-06,1.9606519991137652e-07,1.733351094328767e-07,7.533232593408574e-07,6.593504956688709e-07
1.2223558391815786e-06,3.963251908023515e-07,1.694089934941979e-06,-1.499971121774705e-07,2.1921135414001105e-06,9.65347708354049e-07,1.6263356329204962e-06,1.6572216572088875e-06,1.745223375118459e-07,2.2181037572399303e-08,8.943618584512281e-07,1.3358497458097463e-06,1.8609703113524873e-06,3.885635088340313e-06,3.1103390132962024e-07,3.152357412744824e-07,7.902454918121406e-07,8.102074674732401e-07
1.2504023213199074e-06,4.2334671007697583e-07,1.7739219025918527e-06,-7.74362717385669e-08,2.2350727272462874e-06,1.121578581546616e-06,1.7007468545038792e-06,1.8024650995828637e-06,2.6865017531613224e-07,-3.8741951784135005e-08,9.558208662278026e-07,1.356709536926667e-06,1.9013697438807169e-06,4.028793995418878e-06,4.1745432274414907e-07,5.181035730673202e-07,8.030926860239459e-07,9.103341573580936e-07
1.2766836144555918e-06,4.4752359228648945e-07,1.8416059294288353e-06,-1.827394367406997e-08,2.299381363076401e-06,1.1989443448761073e-06,1.8451233120709888e-06,1.905970436519142e-06,3.5810176449751026e-07,-9.450780915624794e-08,9.705411678772697e-07,1.3422232770495661e-06,1.8754111909914106e-06,4.17410763480688e-06,5.101308177504633e-07,7.014986131249159e-07,7.894165678742998e-07,9.716695539990747e-07
1.3231105379935572e-06,4.5150575713739754e-07,1.910290730785054e-06,3.4505578906303716e-08,2.3361701381263685e-06,1.222003746648414e-06,2.063386608141419e-06,1.9283448404268485e-06,4.363311154216107e-07,-1.2107212439046153e-07,9.644967358330812e-07,1.2916239553915027e-06,1.8819609861336657e-06,4.2911844048737664e-06,5.850777847794432e-07,8.738115896333242e-07,7.663258309853966e-07,1.0102107592491588e-06
1.3948301947351412e-06,4.2644385027177533e-07,1.9352164770836065e-06,1.503278350857067e-07,2.35280857884652e-06,1.2262136340193368e-06,2.2994727517235827e-06,1.9398432293229136e-06,4.640381519844628e-07,-1.254780617366305e-07,9.80282694629669e-07,1.2153427385332325e-06,1.8859312779498226e-06,4.397010040532572e-06,6.591175866376491e-07,1.0079528220376319e-06,7.33373389120647e-07,1.0629376484517612e-06
1.4646442004072864e-06,3.7804518964816707e-07,1.9329868788498714e-06,2.217578041622458e-07,2.4431486840745537e-06,1.1984261976571691e-06,2.485087531775257e-06,2.036441481926633e-06,4.802966015534348e-07,-1.0393215153596986e-07,9.513613290117415e-07,1.0922115418949633e-06,1.9051630967511731e-06,4.512284185928537e-06,7.355920522791709e-07,1.1119873261591726e-06,6.869768687322648e-07,1.1305662268538682e-06
1.4913664862812188e-06,3.218500905758114e-07,1.9142750492165656e-06,2.9174295155500066e-07,2.541137168636111e-06,1.243461063921568e-06,2.6386918633590645e-06,2.061382460720664e-06,4.967942396547946e-07,-7.708360998346218e-08,8.83684539434645e-07,9.791339147209664e-07,1.954186356141434e-06,4.6410564977775826e-06,8.143851746528776e-07,1.2083313667762386e-06,6.367403428007567e-07,1.2189633890817535e-06
1.4502074750253132e-06,2.780487714942869e-07,1.8938916534620568e-06,3.5850487916844087e-07,2.662612917227251e-06,1.3716688426058443e-06,2.70190199329867e-06,2.0531865316392596e-06,5.180943529782808e-07,-4.8774402496664346e-08,8.844878262114544e-07,9.722720564098096e-07,1.9575656329827746e-06,4.779168207207782e-06,9.035921923617016e-07,1.3051033680646953e-06,5.762579886697909e-07,1.2826661244913436e-06
1.4098286953690534e-06,2.638987616428904e-07,1.853480221515771e-06,3.950571020659572e-07,2.7622531545241507e-06,1.5536975494228206e-06,2.6528169462093434e-06,2.0288014290568155e-06,5.486008605329728e-07,-4.1586719878429335e-08,9.508668700880801e-07,9.734390153705914e-07,1.964162990977195e-06,4.92523695495874e-06,9.83668243132346e-07,1.4169087713147243e-06,5.392363977770849e-07,1.3105834759381371e-06
1.4043728573973526e-06,2.80948100010891e-07,1.780541261024583e-06,4.4247269517303687e-07,2.7339471343317145e-06,1.7485319984580188e-06,2.6827083649563375e-06,1.98234435323945e-06,5.849742620900983e-07,-4.2699358202724636e-08,1.0434833381068364e-06,9.470006812657508e-07,1.999450630393889e-06,5.064326655127922e-06,1.0505035424819159e-06,1.5337889096330277e-06,5.313621970482068e-07,1.272736953000503e-06
1.4415413585813437e-06,3.0603018548007e-07,1.7641627122756985e-06,5.730568592413448e-07,2.7429730588078663e-06,1.8919527696070799e-06,2.761285040906565e-06,2.0652205120657785e-06,6.249610734012231e-07,-3.868006595230413e-08,1.0955678030212986e-06,9.48784647805507e-07,2.0083814599873303e-06,5.1721309304536134e-06,1.1156958724066758e-06,1.6228554599219486e-06,5.430310166307953e-07,1.2053489022689034e-06
1.4669122099556256e-06,3.1181632614176887e-07,1.792820848158798e-06,7.540977628532252e-07,2.757971895358442e-06,1.9313714792641403e-06,2.8264267925361553e-06,2.154925395386212e-06,6.676002669822594e-07,-3.378806326465698e-08,1.1477257152171753e-06,9.454281017764678e-07,2.049655812223882e-06,5.238331937630679e-06,1.1553289385615836e-06,1.6964904498468698e-06,5.627486996728018e-07,1.2022891379757671e-06
1.5005010483483527e-06,2.68316872259571e-07,1.8402103239633088e-06,8.510384507723517e-07,2.742997280875664e-06,1.894347291901802e-06,2.9240013995614363e-06,2.1730239198710733e-06,7.119898846598978e-07,-1.9275681644146984e-08,1.2497087189991357e-06,8.994698496597905e-07,2.1115654905439288e-06,5.260049673063909e-06,1.1576268643766088e-06,1.7218483760657083e-06,5.440762868496514e-07,1.2467713348976947e-06
1.5583434233478564e-06,1.6859141798541522e-07,1.8808082759866463e-06,9.209159172668776e-07,2.7335561108075466e-06,1.8527872551707147e-06,2.9767714832576874e-06,2.1604801027592366e-06,7.492031237406986e-07,-1.2161360735432817e-08,1.281786340553814e-06,8.392712634167732e-07,2.127667370992527e-06,5.224591087694483e-06,1.1074131666956964e-06,1.7199795841334779e-06,5.277128431683025e-07,1.200411531209961e-06
1.6112221837257254e-06,3.549476511466564e-08,1.8786648155843135e-06,1.0118270022823249e-06,2.723119046723451e-06,1.8118702625140972e-06,2.976421232868848e-06,2.165607983840052e-06,7.850980337182848e-07,-1.711727413935657e-08,1.270192427297881e-06,7.754147986474055e-07,2.17794266336643e-06,5.163717195463997e-06,1.0486984837694489e-06,1.6030094988445184e-06,5.412931852058424e-07,1.1076595412174027e-06
1.640794936489183e-06,-1.0425761781052677e-07,1.8421518490615548e-06,1.0959832090308252e-06,2.7107198646776206e-06,1.745553302320752e-06,2.924736373585448e-06,2.1153524211923813e-06,8.236169051975005e-07,-6.498561716159984e-10,1.2467831398230564e-06,7.04603403680397e-07,2.200385790324861e-06,5.102641232541722e-06,1.03205497042069e-06,1.5394399946946046e-06,6.71868153200975e-07,1.0459983500728823e-06
1.6506322053912225e-06,-1.726357437608645e-07,1.8113699096703274e-06,1.2227066187923468e-06,2.718096999918497e-06,1.7636966972066129e-06,2.875368330080534e-06,2.1147621701988883e-06,9.018195253157865e-07,3.597782372770526e-08,1.217183627645379e-06,6.428846999414923e-07,2.250500588379402e-06,5.034481412251037e-06,1.1327733168377213e-06,1.5685548737336e-06,8.218889680600544e-07,1.0480823234868414e-06
1.6294122843573627e-06,-1.495296579672963e-07,1.7927654094464925e-06,1.3793823725919683e-06,2.7674053995411513e-06,1.7566261615068736e-06,2.8455347372456944e-06,2.1367504281277434e-06,1.0137780240868552e-06,1.1973412535356855e-07,1.1881673793332946e-06,6.048146833228179e-07,2.3238093262265744e-06,4.982856799563929e-06,1.2831642592758353e-06,1.7181894210931336e-06,9.307290251654284e-07,1.0823894538862967e-06
1.6046280255672514e-06,-1.6821034586739843e-07,1.7896854231047993e-06,1.4550943932598317e-06,2.769011711563276e-06,1.7235872313453733e-06,2.795936526479609e-06,2.102688413746617e-06,1.1463165500206696e-06,2.4577664557578137e-07,1.1655158346119332e-06,5.809957060844946e-07,2.3434392532699776e-06,4.969046315209329e-06,1.3699140994404061e-06,1.8780070928434252e-06,1.0425911631665769e-06,1.1546723756220932e-06
1.5848716086645075e-06,-6.761295001004906e-08,1.820625267112331e-06,1.4571587364830773e-06,2.7742606237873936e-06,1.7137346353996532e-06,2.775525126699306e-06,2.0813026522932184e-06,1.28352269120112e-06,2.9556457785415556e-07,1.1548597304230961e-06,5.655462734844086e-07,2.3772098581796886e-06,4.953306092854085e-06,1.4174857738744454e-06,2.003287553588101e-06,1.1337530345753723e-06,1.1835745912717426e-06
1.5752643682000943e-06,9.285233739551467e-08,1.8651790982763989e-06,1.4960582802134966e-06,2.7824580027272404e-06,1.723760492209487e-06,2.785849557208817e-06,2.0336314666412335e-06,1.3617777406140919e-06,3.4578891825791044e-07,1.1810558941387083e-06,5.25340251483466e-07,2.4207684527044537e-06,4.968170283773133e-06,1.4359415045464738e-06,2.126529494119531e-06,1.1847428028500724e-06,1.221907421933332e-06
1.5828308352987185e-06,2.286959493013648e-07,1.909968788833524e-06,1.5647694249568678e-06,2.7994380207257413e-06,1.7714174134079587e-06,2.8026733512814037e-06,2.060873939634658e-06,1.3996970039144205e-06,3.952822615617116e-07,1.202159099498396e-06,4.2074883671005323e-07,2.448872422356233e-06,5.0666123790046934e-06,1.5023776298378196e-06,2.2200544982297094e-06,1.2347367633254498e-06,1.2564406654119822e-06
1.5826869860865385e-06,3.1353470677209446e-07,1.9563237328566903e-06,1.6463252128440063e-06,2.815459580183539e-06,1.8288175984117663e-06,2.8377053157160777e-06,2.119095134456995e-06,1.4370405955598527e-06,4.355655123540637e-07,1.202664278962712e-06,3.487549615064754e-07,2.462984837728432e-06,5.113792961714658e-06,1.6348032925200305e-06,2.3007762861672947e-06,1.2959897677952803e-06,1.2662444919556943e-06
1.578163049815248e-06,2.8251049012401794e-07,2.001967320023256e-06,1.7570167942801176e-06,2.829861603749278e-06,1.8776113200065099e-06,2.8896379753574916e-06,2.1778142685156273e-06,1.502866500800691e-06,4.807499811093198e-07,1.194784178545119e-06,3.28989518536376e-07,2.484607282559442e-06,5.179322485060571e-06,1.7328978171659723e-06,2.3840066903065335e-06,1.335048415821372e-06,1.2613008194831264e-06
1.5736960093641142e-06,2.109589039891417e-07,2.05759141720036e-06,1.8297997326409396e-06,2.8633465198536407e-06,1.9459654323189304e-06,2.9355057095460944e-06,2.2304908153331113e-06,1.598377824821428e-06,5.088868647669789e-07,1.1971518749825665e-06,3.234198831990239e-07,2.467476071527267e-06,5.321807359866704e-06,1.7457929880533354e-06,2.4924351675519396e-06,1.4059458388378045e-06,1.3190725101179566e-06
1.5585285608606082e-06,1.490658324064986e-07,2.1085104988660484e-06,1.8885070283076903e-06,2.8813894143385074e-06,1.956188858178265e-06,2.9951861114250164e-06,2.1919581237203445e-06,1.68961417709879e-06,5.485639122075236e-07,1.1934243803125012e-06,3.6412181766399504e-07,2.4535770123598557e-06,5.369154722708756e-06,1.6869520509052241e-06,2.4789986693916694e-06,1.5843220783123007e-06,1.3537585367837846e-06
1.536999161747042e-06,-1.6153990626592957e-08,2.163305150651178e-06,1.883708425277569e-06,2.879349362432543e-06,1.923502461292039e-06,2.962487371291885e-06,2.1710950987548805e-06,1.7036310192702133e-06,5.928454208038809e-07,1.1887082911662381e-06,3.690622232791384e-07,2.4696401007872174e-06,5.331448096020658e-06,1.6279944121352605e-06,2.383191091200533e-06,1.6489607177785037e-06,1.3127695794113722e-06
1.5115430102180974e-06,-2.494213352137124e-07,2.2014032220999218e-06,1.8158310860812454e-06,2.9029106690201702e-06,1.8435514302906723e-06,2.801290533737942e-06,2.2034056977093056e-06,1.7337289544992184e-06,6.82776015423325e-07,1.25109546742379e-06,3.727692202371099e-07,2.476993551691771e-06,5.362166420295037e-06,1.6025407589430053e-06,2.311489548566618e-06,1.666471361063556e-06,1.2534427762644607e-06
1.4764238569455493e-06,-4.6326024325478403e-07,2.1924522802394455e-06,1.733681624441413e-06,2.946153669907153e-06,1.7477539952215738e-06,2.688052797465862e-06,2.176621493597746e-06,1.7537285981127712e-06,7.437605039248555e-07,1.3020748546393503e-06,3.832115577373203e-07,2.492644105848967e-06,5.335772820232166e-06,1.5824807448438783e-06,2.258195632315774e-06,1.7250576199950464e-06,1.231599649547527e-06
1.4327169426960621e-06,-6.242325048571502e-07,2.1507871461872523e-06,1.6506834956290362e-06,2.9596500375976924e-06,1.6172473286595182e-06,2.650999758603431e-06,2.198596267483526e-06,1.7739852100229643e-06,8.237381007675569e-07,1.3371987216369654e-06,3.7806125747860717e-07,2.501753954573061e-06,5.274360366768072e-06,1.572230871961051e-06,2.1844149338556706e-06,1.730336574941706e-06,1.2199281790002092e-06
1.3934640687085636e-06,-7.273092852342925e-07,2.06238934071552e-06,1.5783532474043567e-06,2.951462877003776e-06,1.4883488288053165e-06,2.6286257247623795e-06,2.218526878608396e-06,1.819334685571916e-06,9.205198395812365e-07,1.3831890782846297e-06,3.888021590241005e-07,2.4984542743213328e-06,5.246154363697034e-06,1.5400931163685871e-06,2.1714396884468193e-06,1.751811704554079e-06,1.2363860591979718e-06
1.3539590717796338e-06,-7.570726448899841e-07,1.95081813487359e-06,1.5917227476267258e-06,2.931068384774815e-06,1.370712756351278e-06,2.6467801431616476e-06,2.183830735781037e-06,1.8488967552654302e-06,9.703960327535333e-07,1.4333639110201858e-06,4.043269012511237e-07,2.4991238385569286e-06,5.168244067817883e-06,1.5295436220463386e-06,2.1065046989666018e-06,1.7923542941478687e-06,1.2720030023282106e-06
1.3292959596967138e-06,-7.263657204735995e-07,1.8451148979549744e-06,1.596801593027795e-06,2.8817260282001614e-06,1.3047083866861125e-06,2.531483439360081e-06,2.172232719820749e-06,1.8493122624871285e-06,9.759134093883279e-07,1.4710960081665094e-06,4.514821758240047e-07,2.5725640902128544e-06,5.0920411999569725e-06,1.4786124857806493e-06,2.041406984181622e-06,1.7419266921926954e-06,1.266823788711282e-06
1.31630695975981e-06,-6.633354441332877e-07,1.7423507508070379e-06,1.6168463018384945e-06,2.8413033666031954e-06,1.260183831967913e-06,2.3905549329401088e-06,2.1414494685133378e-06,1.8447186715177533e-06,1.0325579992500067e-06,1.5102603580962714e-06,4.923522113290848e-07,2.5742895857338536e-06,5.0693583869973615e-06,1.4233206177623904e-06,2.018357788455469e-06,1.698098783556259e-06,1.2148641138193542e-06
1.301454256683179e-06,-5.937126406361413e-07,1.624742547172305e-06,1.6974962425926365e-06,2.8239110399662042e-06,1.217282702584647e-06,2.3461196507820124e-06,2.0760020156886525e-06,1.8442513088331493e-06,1.1230670203559744e-06,1.5500664420353753e-06,5.58892385444473e-07,2.591495576870084e-06,5.066073231718434e-06,1.3818301713071773e-06,1.977248832591737e-06,1.6726412652623608e-06,1.1913228550100786e-06
1.29555771712149e-06,-5.361221625610871e-07,1.5171911921455337e-06,1.7716267695051354e-06,2.812064519942356e-06,1.160422165548538e-06,2.324476306001331e-06,2.043995255669406e-06,1.850917271855922e-06,1.2254116324955261e-06,1.5582864425610557e-06,6.049609407683329e-07,2.6246810920629723e-06,5.012158941942538e-06,1.3332215320409078e-06,1.9670458284920336e-06,1.6439520814271083e-06,1.2254760428576898e-06
1.2656872814464219e-06,-4.946383807322306e-07,1.4440818144025316e-06,1.7771129558044655e-06,2.769515840988782e-06,1.0789984426644734e-06,2.2283230385661444e-06,1.989954266668202e-06,1.8697627413091907e-06,1.3240064768511253e-06,1.5780524510992547e-06,6.64985821095609e-07,2.6634906128927433e-06,4.931776293269547e-06,1.278501645668478e-06,1.946586638282883e-06,1.5987371446190279e-06,1.268080309644041e-06
1.2260594226861886e-06,-4.568871451925244e-07,1.4298142776262719e-06,1.7580532533287056e-06,2.734275986866576e-06,1.0242075171296436e-06,2.159065919903568e-06,1.89339416802034e-06,1.8540055704552949e-06,1.4049697509940455e-06,1.6168353162087751e-06,7.305205613841487e-07,2.719395641933766e-06,4.872980393536835e-06,1.1957396272889967e-06,1.9037579160062264e-06,1.6206172205617802e-06,1.27173490447063e-06
1.1895392278852721e-06,-4.1684960276557523e-07,1.4377230674029905e-06,1.7423924391145625e-06,2.730223172216418e-06,9.730699029171719e-07,2.188274193992912e-06,1.8096425350977853e-06,1.83662564099759e-06,1.4341566744201037e-06,1.6617099951230553e-06,7.545889835207682e-07,2.711291633390113e-06,4.820022548009553e-06,1.0996200779434506e-06,1.8374410138309971e-06,1.631413070742459e-06,1.2852195913623275e-06
1.1523670801496288e-06,-3.689198123354085e-07,1.4521701533275598e-06,1.6792940219770298e-06,2.6608943653166946e-06,9.343193063985545e-07,2.1925546346039577e-06,1.727561212868954e-06,1.820863500708398e-06,1.4325770536596959e-06,1.7034175858723527e-06,7.428731583547193e-07,2.7666277737036842e-06,4.710136516654766e-06,1.1013890913673617e-06,1.7676360417417326e-06,1.6097703458538276e-06,1.2737563596710906e-06
1.1485449444248007e-06,-3.132082331321929e-07,1.4654930148841589e-06,1.5892665988587029e-06,2.5885089112213764e-06,9.028518430808973e-07,2.1046654325508445e-06,1.6221264978880257e-06,1.7956441206943129e-06,1.4571201546402382e-06,1.756258724282708e-06,7.1102730949961e-07,2.7945076422563957e-06,4.663101518431532e-06,1.1647366352712336e-06,1.7148511918047077e-06,1.5866248394951964e-06,1.249226702984681e-06
1.1740790150279188e-06,-2.484569837748189e-07,1.441295508852903e-06,1.4983712401070633e-06,2.5434975453440895e-06,9.210096184230245e-07,1.955113382937988e-06,1.6025090924029853e-06,1.7692258431880413e-06,1.485602942980233e-06,1.7751974716525828e-06,6.527291910215039e-07,2.826902181475019e-06,4.608498764720099e-06,1.199958221957414e-06,1.6333949090529088e-06,1.5440894676728196e-06,1.2472155562073473e-06
1.2218344525434317e-06,-1.7238973265806837e-07,1.4125291681554305e-06,1.4324830692212416e-06,2.5129435362229353e-06,9.732948366655478e-07,1.8703933823285093e-06,1.6335804097394484e-06,1.7344405179885315e-06,1.4640359675194127e-06,1.783023937438315e-06,6.076457515389986e-07,2.847858810159675e-06,4.574305808636841e-06,1.2065620797506882e-06,1.5961471501635733e-06,1.4792898394847625e-06,1.2445848092090375e-06
1.2736975693051952e-06,-8.368227561310454e-08,1.4117061383010603e-06,1.3919162484213758e-06,2.507792815885621e-06,1.040062365757248e-06,1.9031099614556094e-06,1.670084550618347e-06,1.7348280596834064e-06,1.3894182047207068e-06,1.8163053673375892e-06,5.806455203678685e-07,2.9465280766306663e-06,4.604615632507611e-06,1.2234253413856002e-06,1.5987937369091554e-06,1.4098718961335317e-06,1.2318751211107202e-06
1.3011699199509986e-06,1.0544369947418958e-08,1.4703108611293782e-06,1.3732071442131109e-06,2.508411536816228e-06,1.1083302629511385e-06,2.047125281636071e-06,1.7248553634253058e-06,1.7600766223816449e-06,1.370621517783135e-06,1.8733701133963632e-06,5.903818821345838e-07,3.107135838385709e-06,4.650788784607944e-06,1.2127091382072899e-06,1.6339265800367038e-06,1.410759589101294e-06,1.198394434971986e-06
1.3080133817625719e-06,1.0059462675061484e-07,1.5328817920211563e-06,1.373292197900281e-06,2.5086252880989278e-06,1.1482696700822875e-06,2.170800602399562e-06,1.7972669988627376e-06,1.7979117095773516e-06,1.3955521573077466e-06,1.9380064002296614e-06,6.381094089676836e-07,3.169234892330998e-06,4.709434945021997e-06,1.2210311517155127e-06,1.7103523392102581e-06,1.505576989054813e-06,1.2066779603892537e-06
1.297993368866737e-06,1.7431739686024504e-07,1.5786269073672859e-06,1.3800681664131476e-06,2.543242639639348e-06,1.1630022920528379e-06,2.2708659483343695e-06,1.8577779775803727e-06,1.8527931907680464e-06,1.3998357017408173e-06,1.9685562712268303e-06,6.971637041754284e-07,3.1575356489607607e-06,4.799981557783037e-06,1.274365327342282e-06,1.8044497302470185e-06,1.5834104898863541e-06,1.267562605341341e-06
1.2843766565245708e-06,2.1717921402450185e-07,1.612496616855403e-06,1.3886264145985055e-06,2.5730395361289214e-06,1.1484858262783134e-06,2.3047523566635215e-06,1.9156969500072924e-06,1.8872599869070751e-06,1.383838357908867e-06,1.970148516278416e-06,7.413449940400741e-07,3.1637679619475866e-06,4.892384071709716e-06,1.3282026011722626e-06,1.9045047060083194e-06,1.6440355037599753e-06,1.3270692989222482e-06
1.2831897206570094e-06,2.242197690826164e-07,1.6275861146293657e-06,1.3988752335775955e-06,2.5986230122600654e-06,1.144627665563945e-06,2.315390459148152e-06,1.9591139150112475e-06,1.8905102026827544e-06,1.374648596285713e-06,1.971793433062108e-06,7.887875771438507e-07,3.148871338610559e-06,4.995150290855696e-06,1.3828262384652729e-06,2.0017414167869285e-06,1.6988255958222805e-06,1.3648352523350594e-06
1.2810199397770673e-06,1.996836437669847e-07,1.6304400622953008e-06,1.4095780323963483e-06,2.617207040691729e-06,1.1303352001957101e-06,2.3013983810158137e-06,1.987296869196191e-06,1.8795082462987161e-06,1.3411886359923778e-06,1.964966334769443e-06,8.388748188577628e-07,3.0670965003608354e-06,5.1013306037843795e-06,1.4125415033833742e-06,2.0546050313882773e-06,1.702241486853935e-06,1.3159068245452567e-06
1.2745334524373966e-06,1.5510869639787821e-07,1.6316866674865664e-06,1.4180196494104159e-06,2.6181811122050233e-06,1.1150410372154219e-06,2.258104115086137e-06,2.0409088048331983e-06,1.8523858669014796e-06,1.3069354776261276e-06,1.9565557995732523e-06,9.028161633632934e-07,2.9774813662182866e-06,5.098207592145784e-06,1.4483046704353944e-06,2.0215710252004924e-06,1.6751226191916123e-06,1.277473996969779e-06
1.2657267741068887e-06,9.9652709868292e-08,1.627868923444857e-06,1.427650767598714e-06,2.6119922919307844e-06,1.1041294442977325e-06,2.2618670560248336e-06,2.085950002070147e-06,1.8298045337657867e-06,1.2884086000057595e-06,1.963976888987996e-06,9.816296296323044e-07,2.9939463462067692e-06,4.986724955709875e-06,1.4591861268301819e-06,1.935845526303234e-06,1.619340298635634e-06,1.2571375893926672e-06
1.2508415395949572e-06,4.334403256390766e-08,1.6196065266366595e-06,1.4346457020397269e-06,2.6028766970469266e-06,1.0961375016632244e-06,2.212395265806092e-06,2.0886389238539973e-06,1.7762079275638011e-06,1.2844458135735383e-06,2.0144335940925725e-06,1.0606471942738711e-06,3.010720275778969e-06,4.911850904131309e-06,1.4489501982509068e-06,1.8775149631975905e-06,1.5383986868337782e-06,1.2359140166305674e-06
1.2340833389916294e-06,-2.2009197440295106e-09,1.618286511251296e-06,1.4375240565307327e-06,2.6009904554585243e-06,1.1029396078258578e-06,2.133913465153822e-06,2.023599343338792e-06,1.7251385054603601e-06,1.2882075359812186e-06,2.0624655462936734e-06,1.1650732027481133e-06,3.0765545899994487e-06,4.8877733796738225e-06,1.4644180768695363e-06,1.863187123284733e-06,1.456627236657474e-06,1.2676487731557426e-06
1.2192760925312525e-06,-2.885678360662857e-08,1.6311385055158695e-06,1.433538969814486e-06,2.585695212547153e-06,1.1221098790836676e-06,2.0612118154923646e-06,1.9452621197084335e-06,1.6665730483781794e-06,1.3096830235487245e-06,2.0889686810447416e-06,1.2652917546198917e-06,3.200034806447385e-06,4.816280974430404e-06,1.4959839378028265e-06,1.8369162608972091e-06,1.381531757191507e-06,1.3195726393770696e-06
1.2068381591922166e-06,-3.54000904511411e-08,1.662165616062441e-06,1.4151012441355038e-06,2.571737067363502e-06,1.1503878037339714e-06,1.9265652999660033e-06,1.859472755918434e-06,1.609641693488581e-06,1.3028009264519188e-06,2.0792824643273546e-06,1.3751530081849657e-06,3.3425130340046174e-06,4.7044239485913165e-06,1.4847191784376503e-06,1.73929258925624e-06,1.354220705772052e-06,1.363933857423033e-06
1.204547346685491e-06,-1.9611461535701866e-08,1.705242283252561e-06,1.3878214374723649e-06,2.5584883977013487e-06,1.163428143449446e-06,1.8011852547780755e-06,1.7809469789019341e-06,1.5453424324270501e-06,1.2565123849401676e-06,2.0324037553562874e-06,1.4691383394691357e-06,3.406239804457658e-06,4.438017242475098e-06,1.488489574819937e-06,1.5543745778934958e-06,1.4576285696802873e-06,1.413303592456462e-06
1.2140737485199978e-06,2.1245952543331602e-08,1.7521019930327866e-06,1.346701638945647e-06,2.534434159379897e-06,1.119028540494601e-06,1.7027355826155633e-06,1.688314375747088e-06,1.4857852674554077e-06,1.2387583281214295e-06,1.99732432689684e-06,1.4940444381010606e-06,3.3613426817672726e-06,4.066482416037632e-06,1.5042088608868773e-06,1.373789528609518e-06,1.467759779542719e-06,1.4318460349741422e-06
1.224701429400162e-06,7.781678404858769e-08,1.8043179610786134e-06,1.2394782249620562e-06,2.4991332170499945e-06,1.053553628932722e-06,1.6129796149020016e-06,1.5496818114961605e-06,1.4471764240988527e-06,1.2652551935453587e-06,1.9869249052202006e-06,1.4717021961352866e-06,3.2404781347249355e-06,3.828024180818141e-06,1.484170291098324e-06,1.2676523135593586e-06,1.4432744348539736e-06,1.4306948326371573e-06
1.2336472283055597e-06,1.4222393761905885e-07,1.841207795124592e-06,1.1315181957179243e-06,2.4369873359912276e-06,8.759552721450842e-07,1.5453648270864592e-06,1.3763713160027704e-06,1.419810709075548e-06,1.3200571485292648e-06,1.9873939123140935e-06,1.4066520820324717e-06,3.206735112042308e-06,3.5961706336666955e-06,1.487867552893086e-06,1.1479512649065043e-06,1.4119312018253662e-06,1.4068260827662544e-06
1.2333314830628438e-06,2.0898359225521448e-07,1.8469366575609985e-06,1.0299134566109928e-06,2.3477694165996593e-06,7.236881608583271e-07,1.4849755497768388e-06,1.2829846534561264e-06,1.399669893588759e-06,1.3961485073669992e-06,2.0185903461669726e-06,1.4457290720114714e-06,3.2157471897348984e-06,3.3620185878015946e-06,1.4378739204069558e-06,1.1619210237343555e-06,1.3778219265060216e-06,1.3878811996093764e-06
1.219965348824338e-06,2.702387525801498e-07,1.8238471370714347e-06,9.333336281338251e-07,2.257086458026486e-06,6.118814616315249e-07,1.4058945156294112e-06,1.264299208859336e-06,1.3940143633903081e-06,1.4476551889350774e-06,2.0362983787556615e-06,1.475457264027042e-06,3.2407533726847573e-06,3.254225498646045e-06,1.5048146230175969e-06,1.2218177557448933e-06,1.3704224330372762e-06,1.3322368906284702e-06
1.1918065170685182e-06,3.235149529818711e-07,1.8074430614583436e-06,8.895245705109327e-07,2.1802361433231446e-06,5.784909016508495e-07,1.3217170136125528e-06,1.1979525680977384e-06,1.393988045541415e-06,1.5016573308608194e-06,2.043592222486523e-06,1.4851742267534302e-06,3.28386716498168e-06,3.2318851991131193e-06,1.5844808648184692e-06,1.2967660276713002e-06,1.3222550586850958e-06,1.2863608194701352e-06
1.1492575546381975e-06,3.679765144395691e-07,1.7919777101950386e-06,8.675141295296402e-07,2.1617970192904523e-06,5.970294105888153e-07,1.2613579804319749e-06,1.0915806772139215e-06,1.402632859662868e-06,1.5606087354713196e-06,2.035550164838366e-06,1.5217791566632674e-06,3.2740169572188487e-06,3.201319096066085e-06,1.5904425856405096e-06,1.3772894779870902e-06,1.2886600892230323e-06,1.2548789042986193e-06
1.1005108113608875e-06,3.9679731184464674e-07,1.7928730561382325e-06,8.430767748306738e-07,2.209075401123004e-06,6.336109976772038e-07,1.2264673113230818e-06,1.0080075571806922e-06,1.422724071337935e-06,1.6210417001267687e-06,2.0386217595688873e-06,1.526332872653769e-06,3.189352402482661e-06,3.132000221302705e-06,1.6118925408289317e-06,1.4511100894067946e-06,1.2697518595330659e-06,1.2177724400612515e-06
1.0593526540711958e-06,3.94610804744034e-07,1.8214696907902254e-06,8.68565035491758e-07,2.2430841632492306e-06,6.174642071105483e-07,1.241174487423463e-06,9.290757466380003e-07,1.4492621072147232e-06,1.6831118501794029e-06,2.0269067742870174e-06,1.5080362695153776e-06,3.0898184634995913e-06,3.0537486989698793e-06,1.5760841873992587e-06,1.5181764659598975e-06,1.2319455607232972e-06,1.191756072621639e-06
1.0410734263326004e-06,3.4770564005055987e-07,1.8545209493115593e-06,9.229708244562729e-07,2.248696553486942e-06,6.286371720096739e-07,1.312528556567584e-06,8.694929945252107e-07,1.476913363752008e-06,1.7149573695334289e-06,2.0115514486852823e-06,1.4915759924649298e-06,3.014819422571474e-06,2.967329211808231e-06,1.5352206377938303e-06,1.5785468762183496e-06,1.1898082829915886e-06,1.1479874639464422e-06
1.0518592053569242e-06,2.462776956608761e-07,1.9108494816393792e-06,9.61812086040833e-07,2.255828844589235e-06,6.97261133409132e-07,1.3672894626881356e-06,1.0007221997434808e-06,1.4991891046797038e-06,1.734621653791168e-06,2.0133469828548073e-06,1.4581997000066022e-06,2.9456263245024998e-06,2.8787160785619845e-06,1.4967800986760155e-06,1.6279837022519754e-06,1.1217907094168339e-06,1.106754073847296e-06
1.0860054464962263e-06,8.675312512306305e-08,2.0336303897946722e-06,9.715194474145795e-07,2.3117774683525953e-06,7.749911171007968e-07,1.3990377364105337e-06,1.1738645655641172e-06,1.5112465801844717e-06,1.7423485586736133e-06,2.0160915370014804e-06,1.4396947469789778e-06,2.930609214227016e-06,2.7961924738961483e-06,1.4476609280235787e-06,1.6629486166629504e-06,9.872248336196688e-07,1.0801050099331793e-06
1.124447896556351e-06,-1.1608428127008562e-07,2.1378680339790408e-06,9.55396753858014e-07,2.384223621084703e-06,8.409362715412022e-07,1.579874186257587e-06,1.2995168533734075e-06,1.510520237023647e-06,1.7379113503077046e-06,2.021352001339273e-06,1.426522568319029e-06,2.9279679025397027e-06,2.7103861513945934e-06,1.4176682708643148e-06,1.6852199920927754e-06,8.033939020250415e-07,1.0938191905607237e-06
1.1449688707315292e-06,-3.3553147770020063e-07,2.175041780532364e-06,9.175682890349784e-07,2.404402936853351e-06,8.989461813232516e-07,1.7806903730627205e-06,1.428461153748866e-06,1.4967136959783017e-06,1.7206248691675827e-06,2.0306817425961002e-06,1.4056415277268687e-06,2.9229174263493917e-06,2.6218277354313477e-06,1.3954525403258144e-06,1.6977165554166831e-06,6.264059815383595e-07,1.1057453922724727e-06
1.1333919790144862e-06,-5.416797067107624e-07,2.1686350231872887e-06,8.677188687091421e-07,2.3996423946366326e-06,9.140830164471526e-07,1.9688585787945747e-06,1.4657232699007217e-06,1.4772645910824678e-06,1.6957368320578078e-06,2.031305511642798e-06,1.3989523306010043e-06,2.9166956515595347e-06,2.5341171651312083e-06,1.3848686734736327e-06,1.70658296073581e-06,4.698752495716326e-07,1.0945121046454594e-06
1.0863583390727125e-06,-7.069128607251841e-07,2.152053292711475e-06,8.16426134674824e-07,2.3882499796840905e-06,8.982187070858251e-07,2.1515203322944076e-06,1.479452813921938e-06,1.4542863924925306e-06,1.6737215923655885e-06,2.018929298583741e-06,1.4044611378908491e-06,2.886001782040843e-06,2.443696957792554e-06,1.3619099561078423e-06,1.7178176435881537e-06,3.392985736556304e-07,1.0721720572132571e-06
1.014665275348642e-06,-8.203086042182199e-07,2.167825673047866e-06,7.724387150622207e-07,2.4124368600693058e-06,8.619080427694216e-07,2.2631203428109357e-06,1.492160642680494e-06,1.4283149107194908e-06,1.6463958379990718e-06,2.021176627953691e-06,1.3966317701236155e-06,2.8807650140440728e-06,2.352603619531396e-06,1.3357565813961255e-06,1.729554624388063e-06,2.3543351284875583e-07,1.0296782486253485e-06
9.356634872751296e-07,-8.820697449023488e-07,2.197865367450343e-06,7.405064022364559e-07,2.4181526808006167e-06,8.110338844911161e-07,2.3325602011534687e-06,1.5119047286566077e-06,1.4035422789805067e-06,1.6352151452586684e-06,2.021177688096086e-06,1.382604374583919e-06,2.8542300311660243e-06,2.255206379261994e-06,1.3004593627517365e-06,1.738929451746468e-06,1.397364209479242e-07,9.998976538263927e-07
8.623125514713295e-07,-9.103826523073545e-07,2.193729623868978e-06,7.225459259558588e-07,2.3699877732264663e-06,7.614688379695291e-07,2.349777864444538e-06,1.5088364816464299e-06,1.3807759528667614e-06,1.6296786222236474e-06,2.0139026046163135e-06,1.374815341076053e-06,2.809683644748167e-06,2.1501649096505868e-06,1.2641765708843198e-06,1.7407063671522658e-06,4.316455069067417e-08,9.901605439870534e-07
8.022352576444934e-07,-9.227735919492445e-07,2.1696911783237213e-06,7.172373220904758e-07,2.2940815918944867e-06,7.128498397746665e-07,2.3137548583762373e-06,1.487589185552294e-06,1.3599929830300512e-06,1.62317893699471e-06,1.9963554366248865e-06,1.3577402921946096e-06,2.7550711621162907e-06,2.0325948911098365e-06,1.2289685811704729e-06,1.7232245818208874e-06,-3.587201141205522e-08,9.964088609187636e-07
7.555945145739542e-07,-9.309498873312287e-07,2.1260767650972844e-06,7.209976237489052e-07,2.2158312271554012e-06,6.626483854774323e-07,2.255358877324224e-06,1.4527721726813732e-06,1.3406607206743932e-06,1.6196936450845325e-06,1.9663076970889783e-06,1.3380027299163863e-06,2.683435313225177e-06,1.900657994582008e-06,1.1853468026862945e-06,1.6888608944801288e-06,-1.0378786687995404e-07,1.0038765937831749e-06
7.199635006548948e-07,-9.446607639982733e-07,2.0754912398512477e-06,7.291371141688565e-07,2.131575208213452e-06,6.071968795462125e-07,2.1833481468357495e-06,1.3923141341424695e-06,1.3207517669701687e-06,1.6131677476658126e-06,1.9301920702974958e-06,1.321252344759158e-06,2.605623640893751e-06,1.755950546756373e-06,1.1341272585701242e-06,1.644619586580443e-06,-1.7226533327775084e-07,1.030746510962499e-06
6.897646470058677e-07,-9.645262245353838e-07,2.0176988714778443e-06,7.363016579145841e-07,2.070715347385903e-06,5.449419769179077e-07,2.1040945146818494e-06,1.3200158465365773e-06,1.2918131942812516e-06,1.6075767153810013e-06,1.8913825884838834e-06,1.301769126036096e-06,2.525083650677785e-06,1.6028213281002624e-06,1.073069680764366e-06,1.5899667435423094e-06,-2.4884823876008287e-07,1.084659966861297e-06
6.594583327826264e-07,-9.815199991260051e-07,1.971315642432499e-06,7.364741580904694e-07,2.020037037062469e-06,4.743378662991989e-07,2.024283534863627e-06,1.2320730907583321e-06,1.2516144266919264e-06,1.6020235281130637e-06,1.8539709108061057e-06,1.2756064521853541e-06,2.4452844996269203e-06,1.4542960235058157e-06,1.0114384647876165e-06,1.5287108815496762e-06,-3.333885160105804e-07,1.1471401426483774e-06
6.230659297633067e-07,-9.807132407535569e-07,1.937595993224065e-06,7.259484128050438e-07,1.9763716580994126e-06,3.9552356157890666e-07,1.95213913937e-06,1.1329734308658197e-06,1.2025232816247198e-06,1.6047259310374293e-06,1.8129875238728302e-06,1.2562800177747662e-06,2.36466920563682e-06,1.3251177753602652e-06,9.646877061197975e-07,1.476373593611617e-06,-4.306202566834623e-07,1.2174202180282905e-06
5.747358195593811e-07,-9.564220162184956e-07,1.9059684870387255e-06,7.042306546409704e-07,1.935661537985955e-06,3.127367875979208e-07,1.8901786923344653e-06,1.0265994677104744e-06,1.147186393016687e-06,1.6094772658069348e-06,1.771391092046708e-06,1.2405810220784721e-06,2.3043691323323344e-06,1.228778127781414e-06,9.317529768862056e-07,1.4350570421528353e-06,-5.361802484178313e-07,1.266925326293553e-06
5.136978366814747e-07,-9.087508041636361e-07,1.8744340929549208e-06,6.712039685870603e-07,1.8880012882047696e-06,2.3331951432065047e-07,1.8487083590635827e-06,9.326151423488794e-07,1.0922258621796158e-06,1.6093342507168386e-06,1.729368804098539e-06,1.2212115506252296e-06,2.268773816302341e-06,1.1713949319728748e-06,9.11612488668144e-07,1.4065241121507926e-06,-6.397991440231262e-07,1.2992583606188564e-06
4.4480040320943694e-07,-8.499047053347033e-07,1.8405568049423642e-06,6.313992582002408e-07,1.8428381947312073e-06,1.623597950107467e-07,1.8326134109930904e-06,8.515532062983787e-07,1.0434543539441958e-06,1.6077165188693907e-06,1.6876057100970928e-06,1.1998898477316542e-06,2.25193739477614e-06,1.164638377991927e-06,9.026676153052253e-07,1.3950366579887558e-06,-7.361355988873833e-07,1.3244392072365841e-06
3.7778286796831664e-07,-8.021983096912331e-07,1.8088443067942507e-06,5.8958462002234e-07,1.808654776700934e-06,1.0475037922220007e-07,1.8392520238043641e-06,7.847283510097717e-07,1.0069873439692073e-06,1.6065949209021591e-06,1.6462362967956616e-06,1.168582327714124e-06,2.2667709370949744e-06,1.2029505382148314e-06,8.99372204762666e-07,1.3951315971508328e-06,-8.262565507849105e-07,1.345684701447467e-06
3.2181725471836435e-07,-7.80086506543217e-07,1.783678724643978e-06,5.474169998565385e-07,1.7913369082577976e-06,6.130491182962004e-08,1.8658162281944563e-06,7.352384955286758e-07,9.845946740266335e-07,1.6209655400204194e-06,1.602200237680073e-06,1.1264515048971006e-06,2.289071400426495e-06,1.2759532077554506e-06,8.977062443508372e-07,1.4006257348430836e-06,-9.129450816766869e-07,1.3729278121015373e-06
2.817054279692228e-07,-7.896938589059955e-07,1.7654159039554462e-06,5.060706986178058e-07,1.79235567016382e-06,3.2941279240783154e-08,1.908751538990539e-06,6.937741674752952e-07,9.714930359185788e-07,1.6449113527886885e-06,1.557302140899336e-06,1.0690608850496856e-06,2.3075021784360106e-06,1.3771247385082093e-06,8.978950491171465e-07,1.4055202750127911e-06,-9.848137795327752e-07,1.395476219701369e-06
2.5685081879223725e-07,-8.290311597772625e-07,1.7523686938645271e-06,4.650544132357771e-07,1.8119511465084095e-06,1.532867384882508e-08,1.960418460851571e-06,6.530227409120243e-07,9.622165106138505e-07,1.670070796754002e-06,1.5193543654947348e-06,9.931058715962043e-07,2.3201517457940477e-06,1.4896228621358046e-06,9.060499938212071e-07,1.403017053086012e-06,-1.046170937430251e-06,1.4113493196728667e-06
2.436356112026745e-07,-8.864926880196171e-07,1.7411409412259506e-06,4.2316690595922785e-07,1.8440794034523564e-06,5.91277420348419e-10,2.010811362559572e-06,6.038416326719128e-07,9.497525366559125e-07,1.692010926061081e-06,1.4838654798429512e-06,9.155325682269748e-07,2.3122998370341215e-06,1.6009770492424954e-06,9.199689944420726e-07,1.387624167535216e-06,-1.0970423635084231e-06,1.4265219287853846e-06
2.376694732095286e-07,-9.460870807911227e-07,1.7296142262375964e-06,3.7849503170124225e-07,1.876982134711379e-06,-2.0995228922891673e-08,2.046750126303379e-06,5.340644337239927e-07,9.2632118708261e-07,1.7056848223013227e-06,1.4421704101375564e-06,8.327868079484569e-07,2.2917657464392843e-06,1.7031268666075703e-06,9.365182071271971e-07,1.3597850957535249e-06,-1.1339011065411188e-06,1.448488401805462e-06
2.3371333826868513e-07,-9.920517852642486e-07,1.7131891866588429e-06,3.284759924216179e-07,1.9007742870291672e-06,-6.339811702282706e-08,2.0536443149333555e-06,4.352672286819324e-07,8.882040346978998e-07,1.7137433623037858e-06,1.4004010753729473e-06,7.46090581222741e-07,2.256538294916989e-06,1.7905442124705712e-06,9.585307187591351e-07,1.3182019776499076e-06,-1.1587649835222792e-06,1.4785766623936818e-06
2.258628357370063e-07,-1.0107504387228991e-06,1.6868027960132195e-06,2.7078162943643047e-07,1.880552240006648e-06,-1.3748986968359217e-07,2.019719568568731e-06,3.0113781641386737e-07,8.340305835521303e-07,1.714382855938534e-06,1.3581197743860498e-06,6.6350509505204e-07,2.202680645109182e-06,1.8611073040031227e-06,9.947841490453927e-07,1.2682859691933995e-06,-1.1689477891119652e-06,1.5034649649553816e-06
2.0747877679902207e-07,-9.92584393952939e-07,1.6482847592002488e-06,2.0643089483934617e-07,1.8168796323766657e-06,-2.484078847487093e-07,1.9411240484026226e-06,1.3243447704679075e-07,7.645803546539427e-07,1.709306122903181e-06,1.3146224131669468e-06,5.901601855197981e-07,2.1279288721342697e-06,1.917293138016366e-06,1.054023166737587e-06,1.212902873228478e-06,-1.1604623317318807e-06,1.518952698639361e-06
1.745179068798905e-07,-9.314352042667935e-07,1.5980432678268447e-06,1.4061936525494143e-07,1.7951032537093656e-06,-3.927835717472608e-07,1.8157592445903184e-06,-6.003969867648383e-08,6.835566253656654e-07,1.6959238573864312e-06,1.2756136967807508e-06,5.222992409856669e-07,2.0401151337800177e-06,1.9588328683532983e-06,1.1272667216157655e-06,1.1522316971991995e-06,-1.1337342267417054e-06,1.5171177304575683e-06
1.263333517852587e-07,-8.297891377735422e-07,1.5393438759668596e-06,8.089872141727279e-08,1.7090522612757793e-06,-5.602776437204342e-07,1.6501561691997956e-06,-2.5698048068453943e-07,5.974044120487901e-07,1.6749036524703512e-06,1.2387057999926422e-06,4.56604126344662e-07,1.9416778945680894e-06,1.983009930265374e-06,1.1708965501443595e-06,1.082391180294647e-06,-1.097683373242715e-06,1.4899952487915362e-06
6.621082947015564e-08,-7.09489780540015e-07,1.4799126938936486e-06,3.4591827909655156e-08,1.5827207054849864e-06,-7.305704831717201e-07,1.4573340229326607e-06,-4.3352062677512173e-07,5.104765175118559e-07,1.6500281693321715e-06,1.201189886466046e-06,3.938047147399376e-07,1.828524861913245e-06,1.989057361752615e-06,1.1445146733837728e-06,9.980736190046089e-07,-1.057963713246803e-06,1.4428510363509955e-06
2.8908118690779576e-09,-6.002542937398999e-07,1.4170611287231025e-06,4.048798949943447e-09,1.4630590096197476e-06,-8.832233494406663e-07,1.2569676339475997e-06,-5.699778837989532e-07,4.2890448875014615e-07,1.6163026704306362e-06,1.1646235719422245e-06,3.2618725094159895e-07,1.7438731905044345e-06,1.976065275362135e-06,1.028094155623709e-06,8.93140887161912e-07,-1.0186895588591662e-06,1.376712233846315e-06
-5.226625697632432e-08,-5.247031533608434e-07,1.3527089483858108e-06,-1.604022402321272e-08,1.3595558331773838e-06,-1.0061785567426718e-06,1.0628488664778217e-06,-6.589850878188515e-07,3.5475828812187456e-07,1.5757000651120696e-06,1.1301212974855846e-06,2.526551060870021e-07,1.6656411873584163e-06,1.9450325916656563e-06,8.905379113223444e-07,7.647050451481813e-07,-9.899681215253465e-07,1.295931727147198e-06
-9.020318534588645e-08,-5.130738561243203e-07,1.2891642014135373e-06,-3.674100261368493e-08,1.2631459093677625e-06,-1.100072062395463e-06,8.845449673259224e-07,-7.09878557428118e-07,2.849301067020344e-07,1.5318764023174437e-06,1.0952831955471096e-06,1.7381563957683077e-07,1.6640414329274918e-06,1.8982587816638064e-06,7.726896748704447e-07,6.115052299425611e-07,-9.86087606890511e-07,1.2085230962688877e-06
-1.0833611825355675e-07,-5.561856765459332e-07,1.2178627868864358e-06,-7.242065461776659e-08,1.1724575258014486e-06,-1.1741878787768798e-06,7.226581508454765e-07,-7.461130307617274e-07,2.2619817157634823e-07,1.4854356005005585e-06,1.0591370865746562e-06,8.833145985633914e-08,1.7112898325640138e-06,1.834175828527187e-06,6.678129727448794e-07,4.2861119969603056e-07,-1.000795076120463e-06,1.12192061544473e-06
-1.1099650187277591e-07,-6.276468805100466e-07,1.132890853040801e-06,-1.355284806962749e-07,1.0883051990172982e-06,-1.2489522380561278e-06,5.663950326882715e-07,-7.956156011674106e-07,1.632277898106772e-07,1.434123025280682e-06,1.0210862359001635e-06,1.2391407429071516e-08,1.6770076461085507e-06,1.7530922703423507e-06,5.390994285752935e-07,2.121655896778691e-07,-1.035171284812143e-06,1.035835879409372e-06
-1.0644405530283602e-07,-6.951962637402471e-07,1.0266132622250186e-06,-2.3574102458642074e-07,9.98996831066599e-07,-1.344298582024349e-06,4.0114006384002006e-07,-8.869421041808523e-07,8.406473422712301e-08,1.3699801350311141e-06,9.79498946271715e-07,-5.256540200137187e-08,1.7023031171084854e-06,1.6546754341033135e-06,3.372246618186147e-07,-4.3125664579164056e-08,-1.089610870680756e-06,9.569882438820115e-07
-1.0236885317147028e-07,-6.837505536858223e-07,8.965820824184074e-07,-3.6965494074253577e-07,8.966500624125579e-07,-1.4636938857399407e-06,2.0851092134511935e-07,-1.0284739712325356e-06,-1.2116699237209746e-08,1.2889495663191828e-06,9.317571287516936e-07,-1.2257528800551449e-07,1.7991143685512864e-06,1.5379461681302515e-06,7.71983104110638e-08,-3.2783627727031235e-07,-1.1581849737544736e-06,8.838697868113903e-07
-1.033017936605503e-07,-5.785617895793839e-07,7.462524405324255e-07,-5.213542436725549e-07,8.077704472689431e-07,-1.598271921394133e-06,-1.821395518098638e-08,-1.2052185580123649e-06,-1.104445659276519e-07,1.186346463721175e-06,8.766810108140846e-07,-1.9354765157276176e-07,1.8695250122126385e-06,1.4090423428975752e-06,-1.4905347313408735e-07,-6.201073656017116e-07,-1.2351906535806757e-06,8.141210776232588e-07
-1.1075964030817826e-07,-5.151665974254722e-07,5.886788552365748e-07,-6.746871275366209e-07,7.405582020085251e-07,-1.734305877132161e-06,-2.763624406333718e-07,-1.3868997868275612e-06,-1.777106029826147e-07,1.0651590779469e-06,8.222296777679249e-07,-2.6810354651471563e-07,1.93632050414093e-06,1.2798221106084282e-06,-3.165522089899878e-07,-8.945547652727263e-07,-1.3145284887135178e-06,7.458618953885803e-07
-1.2398492926307574e-07,-3.3751083671074765e-07,4.6984572953329894e-07,-7.826515944564907e-07,7.293425215689026e-07,-1.8212828347446457e-06,-5.432097792672225e-07,-1.459848872043978e-06,-1.694483282325352e-07,9.331599897414745e-07,7.757503762966904e-07,-3.084094516815524e-07,1.968974015585024e-06,1.1590559862816516e-06,-4.355162414045672e-07,-1.0621709191975815e-06,-1.381653958400012e-06,6.781206041376346e-07
-1.4068267820226658e-07,-1.006399902262465e-07,4.0073279673897033e-07,-8.16007726704155e-07,7.301860639488454e-07,-1.8175837990625157e-06,-7.96608613161784e-07,-1.4555036034580008e-06,-1.3745010987117643e-07,7.991810885617066e-07,7.374599991172824e-07,-2.9431495485852784e-07,1.957756158806751e-06,1.070075896814501e-06,-4.98897367940306e-07,-1.1524116721980636e-06,-1.4242172875757304e-06,6.108390365426419e-07
-1.5791762914202493e-07,1.0748683936687955e-07,3.26811716375184e-07,-8.769217373428391e-07,7.10284601350294e-07,-1.8529074917992421e-06,-1.0130670119936636e-06,-1.4641297182765104e-06,-1.466578683113669e-07,6.775962135789013e-07,7.163497104158687e-07,-2.0575278346990755e-07,1.9262665806017254e-06,1.0195737395919264e-06,-6.183434940647369e-07,-1.2975160244704302e-06,-1.4436986556764887e-06,5.505784773200128e-07
-1.735824313185317e-07,2.656838466192483e-07,2.6451273798287613e-07,-9.617518513357456e-07,6.567204320680231e-07,-1.8945986870236776e-06,-1.1263576203216679e-06,-1.4940284192383016e-06,-1.9607567119742068e-07,5.740365030588621e-07,7.044175344975275e-07,-1.8600223925190693e-07,1.873119468680747e-06,1.0033788922201086e-06,-7.378404947977998e-07,-1.402377394450321e-06,-1.4428582295715962e-06,5.021327099830286e-07
-1.886024624814536e-07,3.8567637446844233e-07,1.7563471039308764e-07,-9.395816821207618e-07,5.797370707584366e-07,-1.8192488682480156e-06,-1.2468657847917973e-06,-1.3605478228049163e-06,-2.427308550252497e-07,4.978017204374985e-07,6.940610099692159e-07,-2.750364961173268e-07,1.8174105446678909e-06,1.0184222673338915e-06,-7.896400333846569e-07,-1.4056308030098234e-06,-1.4271211094027914e-06,4.648489542223148e-07
-2.0576834543176234e-07,4.7214255818680566e-07,1.1558247220008146e-07,-8.851799935655624e-07,4.959733390690223e-07,-1.6999910785707239e-06,-1.3439630425204595e-06,-1.1777806658823329e-06,-2.897872367964906e-07,4.4715583588472366e-07,6.842304190152462e-07,-3.7593248424670085e-07,1.7672802478611888e-06,1.0561573264341789e-06,-7.880531950496493e-07,-1.3506669283433748e-06,-1.4029101824917488e-06,4.411368917253339e-07
-2.274431463220181e-07,5.337389087392783e-07,8.834629863589536e-08,-8.543718544812115e-07,4.830050885353499e-07,-1.5962949884941841e-06,-1.3938299873592111e-06,-1.035641814551552e-06,-2.433395562982802e-07,4.18618650679448e-07,6.705466153371458e-07,-4.693723861165456e-07,1.727715810920277e-06,1.110402233840741e-06,-7.408049975218621e-07,-1.3178765954452761e-06,-1.37308964114442e-06,4.2979928414364635e-07
-2.5398250220704114e-07,5.790336552124952e-07,5.424280141224245e-08,-8.387640371987404e-07,5.088938247991495e-07,-1.5032596655773552e-06,-1.3675453589608278e-06,-9.243436750839278e-07,-1.8123807245851643e-07,4.112783437626219e-07,6.508881417496287e-07,-5.217630298627797e-07,1.6996098261377668e-06,1.1764248489483887e-06,-6.823624727354951e-07,-1.3031995044266428e-06,-1.33710495887104e-06,4.285308913606745e-07
-2.841445552943334e-07,6.155608920741394e-07,3.395052151776974e-08,-8.298212636652593e-07,5.597019018204429e-07,-1.416752706384657e-06,-1.3376186629087006e-06,-8.361448990931034e-07,-1.1844001952616986e-07,4.1945140449027656e-07,6.254583144305831e-07,-5.504801325858332e-07,1.6798663329426186e-06,1.2505352814391867e-06,-5.97268499105201e-07,-1.297216285917172e-06,-1.2986391076233962e-06,4.3431625918866666e-07
-3.161582744958615e-07,6.486799182123923e-07,3.0565755827210095e-08,-8.32841265124517e-07,6.286250704992348e-07,-1.3474761626699795e-06,-1.3173130811076435e-06,-7.841881055141541e-07,-5.616006676731724e-08,4.41531452509511e-07,5.965236724788717e-07,-5.417062597864756e-07,1.6654953724531138e-06,1.3253004727274663e-06,-5.327610374680623e-07,-1.3088395855909694e-06,-1.2543958855812234e-06,4.433836406123302e-07
-3.47981320367208e-07,6.83706547609943e-07,1.2160088663268752e-08,-8.512791791137662e-07,6.627675774591494e-07,-1.3028327891046004e-06,-1.3016774286957127e-06,-7.736641264645772e-07,-2.5417469614952407e-08,4.7132017671912347e-07,5.653245046467075e-07,-5.101127557451591e-07,1.6543391579482564e-06,1.3962470227267187e-06,-4.935894764914772e-07,-1.344242043799093e-06,-1.2094796743212739e-06,4.514270381074425e-07
-3.780908480564069e-07,7.252473798681356e-07,-1.2492578137870397e-08,-8.882722804835341e-07,6.889487250080817e-07,-1.2835963941038633e-06,-1.305191236455762e-06,-8.052426218917648e-07,-1.0302120313046616e-08,5.080889029892924e-07,5.38782689101828e-07,-4.7163260592727944e-07,1.6492333785976596e-06,1.4656721656373005e-06,-4.6189565762739576e-07,-1.3999268167077953e-06,-1.1637558583777148e-06,4.5901951378887336e-07
-4.0625301945785923e-07,7.724481415748635e-07,-4.3294962634231496e-08,-9.449031308321618e-07,7.127255134331469e-07,-1.2864812887254784e-06,-1.3270789504254835e-06,-8.723627451934559e-07,-2.7529936673354097e-09,5.519092729474785e-07,5.235831408750406e-07,-4.293936428067869e-07,1.6579453535502838e-06,1.537733106660176e-06,-4.352884554822064e-07,-1.4697491026213928e-06,-1.1118213619192622e-06,4.6663205252842354e-07
-4.33028565450872e-07,8.21577986469276e-07,-8.050495940884994e-08,-1.0194186761948194e-06,7.313015523036113e-07,-1.301566733987819e-06,-1.3545620409081227e-06,-9.62126284885018e-07,-6.721604247912427e-09,6.046767066584107e-07,5.267445166456918e-07,-3.802649632844697e-07,1.6836590562309905e-06,1.617416935892973e-06,-3.934317898176471e-07,-1.543755069781645e-06,-1.053739427425237e-06,4.780268944862471e-07
-4.5707631999566516e-07,8.645441167604068e-07,-1.1510523511428455e-07,-1.1054164561640614e-06,7.563214104500295e-07,-1.3214949445332647e-06,-1.3809095837868444e-06,-1.0584395943959836e-06,-3.080431608459503e-08,6.65950076905809e-07,5.482773679339969e-07,-3.167289383902552e-07,1.7341573676646548e-06,1.7053943948191116e-06,-3.371086200230009e-07,-1.6110108298216888e-06,-9.881749487105746e-07,4.929376421383154e-07
-4.731902063180119e-07,8.936251335077186e-07,-1.4726109500951018e-07,-1.1922605365427827e-06,7.567731624198714e-07,-1.339613413864557e-06,-1.4031499967511554e-06,-1.1446239189132908e-06,-6.532439185073779e-08,7.277967457038755e-07,5.818582389029308e-07,-2.2770817593198714e-07,1.8076674874886886e-06,1.7950486882131853e-06,-2.6944262042635164e-07,-1.6599447809505387e-06,-9.17505748426819e-07,5.092550525634133e-07
-4.7384976052246056e-07,9.078740757927605e-07,-1.7895997225665534e-07,-1.2673516573714866e-06,7.413203313492363e-07,-1.348631141452825e-06,-1.4136325322577548e-06,-1.2059324251500468e-06,-1.0347793449653735e-07,7.893621605795399e-07,6.205865358934449e-07,-1.2004338092168888e-07,1.89347261136247e-06,1.8770084072494816e-06,-1.9770462025141686e-07,-1.6849110107879165e-06,-8.496589036578051e-07,5.255650069903954e-07
-4.533097919813668e-07,9.111534520154732e-07,-2.0912886990144152e-07,-1.3196451282489778e-06,7.224677306594589e-07,-1.3444315543424193e-06,-1.4113594297500884e-06,-1.2340869805714334e-06,-1.3392668558516236e-07,8.378666373600306e-07,6.551434676109308e-07,-2.8223117597454638e-08,1.9775230790935875e-06,1.9368113441886417e-06,-1.2981513530741485e-07,-1.683638817225481e-06,-7.940790294162928e-07,5.359465989771008e-07
-4.107544708777196e-07,9.074802113117463e-07,-2.3646192854304992e-07,-1.342517219261933e-06,7.045910241555881e-07,-1.3234553430282513e-06,-1.3978621012147365e-06,-1.226544373320814e-06,-1.5670365902005158e-07,8.351458089156936e-07,6.735029628088256e-07,5.067936590112908e-08,2.043032287715497e-06,1.966801959652834e-06,-7.201206903682932e-08,-1.659370030455558e-06,-7.545581620110206e-07,5.395670045272812e-07
-3.5054372466000725e-07,9.003376501239238e-07,-2.5822294858485607e-07,-1.3355010831874077e-06,6.951673300634116e-07,-1.2849986521378253e-06,-1.3728125845022352e-06,-1.1863824637511895e-06,-1.7144759096812145e-07,8.254300328269086e-07,6.761799655379963e-07,1.237195187688455e-07,2.0795887560071335e-06,1.9658612594839136e-06,-2.9320758468580212e-08,-1.6192037304330175e-06,-7.310970609152405e-07,5.372961935394838e-07
-2.8083962012445796e-07,8.908711515942225e-07,-2.7031266779233567e-07,-1.3044187793920037e-06,6.988600889312956e-07,-1.2313507735890214e-06,-1.3403422897405242e-06,-1.1221924061898188e-06,-1.75097537947371e-07,8.133677638490412e-07,6.653111400234399e-07,1.8579144294339977e-07,2.084511924441404e-06,1.937442572786077e-06,-2.5471577125607924e-09,-1.5711248348295571e-06,-7.194475298532907e-07,5.312641624949334e-07
-2.1191933350466395e-07,8.779221321889143e-07,-2.7036297721548893e-07,-1.2597155717374811e-06,7.156819066410392e-07,-1.1685461682598706e-06,-1.3015711542593887e-06,-1.046198631113072e-06,-1.6336710558655189e-07,7.978321302637376e-07,6.459853099729552e-07,2.4002322011538387e-07,2.0648723277832865e-06,1.8888572300893415e-06,9.928602301879572e-09,-1.522903177593403e-06,-7.117015334777092e-07,5.242797590040114e-07
-1.5387154744488202e-07,8.630711332344465e-07,-2.5982960930674046e-07,-1.2133955220348158e-06,7.408698943056267e-07,-1.10426528516828e-06,-1.2616614366053431e-06,-9.71336857955315e-07,-1.347404195076184e-07,7.881425947120623e-07,6.273920302150579e-07,2.830628896585959e-07,2.032576082757103e-06,1.8266024123538244e-06,1.0477091153763434e-08,-1.4804331774914352e-06,-7.018767748679048e-07,5.184163703759252e-07
-1.140553278108388e-07,8.490414762888428e-07,-2.3626618119610295e-07,-1.1750453067050679e-06,7.727691898454147e-07,-1.0455306158588245e-06,-1.2255010356704901e-06,-9.075974879198148e-07,-9.766848792924823e-08,7.927916325257315e-07,6.14735763514951e-07,3.1175647311042366e-07,1.9991252561578287e-06,1.7557831028597201e-06,5.623755681371179e-10,-1.443797187430573e-06,-6.871916910277438e-07,5.138988862801942e-07
-9.521579633224213e-08,8.391126846000106e-07,-2.0591594238788416e-07,-1.1493864348294997e-06,8.018782780791572e-07,-9.97246522035269e-07,-1.196535373990086e-06,-8.604828425608346e-07,-5.901789459526248e-08,8.109420616486631e-07,6.095893326359916e-07,3.3007719716278946e-07,1.973694029567115e-06,1.6790030188111699e-06,-1.534870368386798e-08,-1.4138266380070018e-06,-6.668553789365355e-07,5.090128980339908e-07
-9.528384533988908e-08,8.354869063194604e-07,-1.8284240933093156e-07,-1.1362404341441298e-06,8.230402879751625e-07,-9.599367525920496e-07,-1.1770146169014785e-06,-8.323496796318128e-07,-2.879847264386096e-08,8.387489458330392e-07,6.104295268317424e-07,3.487780122510082e-07,1.960757536001985e-06,1.59918917380856e-06,-3.329188132711083e-08,-1.3899859540186541e-06,-6.464261947610538e-07,5.033143862440426e-07
-1.0901469675863747e-07,8.381067069342706e-07,-1.5810259502094872e-07,-1.1312059597091942e-06,8.381931280716197e-07,-9.302710818906887e-07,-1.164355318235713e-06,-8.180401705033272e-07,-4.651549797192959e-09,8.733521494895608e-07,6.153335796220503e-07,3.6688498433736993e-07,1.9603246684305314e-06,1.520441981561392e-06,-4.9620872291108525e-08,-1.3681008825600206e-06,-6.328099051867837e-07,4.971738144795411e-07
-1.3064607367941039e-07,8.444157088415862e-07,-1.2972263600091951e-07,-1.128016314573675e-06,8.517703212824345e-07,-9.017099865866424e-07,-1.1518723301146045e-06,-8.099970833870326e-07,2.008890951874953e-08,9.110100615541711e-07,6.203392237597167e-07,3.7502697173777847e-07,1.9685000231879084e-06,1.4479047484179045e-06,-6.019572830956538e-08,-1.3438246553366222e-06,-6.282696712486321e-07,4.930374555004564e-07
-1.5583472711965397e-07,8.507328104376447e-07,-9.625763436361434e-08,-1.1214842373424494e-06,8.700262262515226e-07,-8.707804556398736e-07,-1.1343826029322011e-06,-8.02759994147631e-07,4.798243380585036e-08,9.486170044794484e-07,6.227999279435715e-07,3.8751896617398737e-07,1.9792178105354367e-06,1.3870440841078398e-06,-6.292319657075635e-08,-1.31237803937808e-06,-6.344803984743584e-07,4.915380870479836e-07
-1.8129626184868424e-07,8.529150103272143e-07,-5.2728650914148075e-08,-1.1091457975112402e-06,8.947514291103284e-07,-8.398885667680317e-07,-1.1111102809275217e-06,-7.940844308973181e-07,7.538922608864265e-08,9.840765206084593e-07,6.193941930343934e-07,4.023929108659071e-07,1.984413427664629e-06,1.3407991911021268e-06,-5.9248888422660064e-08,-1.2703131799065825e-06,-6.511977420827815e-07,4.951596044593509e-07
-2.0308878427715398e-07,8.483448180344653e-07,-2.8720160708279745e-09,-1.09113529005459e-06,9.224044066704809e-07,-8.131654937017692e-07,-1.0812804758170024e-06,-7.863343296161367e-07,9.870497339002566e-08,1.015636487159228e-06,6.085711210074297e-07,4.1501153274693484e-07,1.977101223731727e-06,1.307789782339455e-06,-4.740646623174622e-08,-1.216529865483735e-06,-6.718615115627301e-07,5.063550376306907e-07
-2.1585507791163346e-07,8.359137224259561e-07,4.77129031980296e-08,-1.068687528444322e-06,9.488480493684998e-07,-7.96782096591451e-07,-1.0452732572012248e-06,-7.835793545674476e-07,1.1354109527595351e-07,1.0414807797746213e-06,5.920937841132299e-07,4.298344301912209e-07,1.953952402127239e-06,1.282017005096779e-06,-3.343458753232714e-08,-1.1536936043448986e-06,-6.90713543438176e-07,5.239401080965438e-07
-2.1409978384611296e-07,8.149051294145564e-07,9.85553197665065e-08,-1.0423844964561252e-06,9.674702935477457e-07,-7.956003495988424e-07,-1.006812080104244e-06,-7.88243924431558e-07,1.1687966060294752e-07,1.0606133051635548e-06,5.684506199177413e-07,4.409873971518907e-07,1.913558256503477e-06,1.2576983986395083e-06,-2.286418179723303e-08,-1.0860790076824644e-06,-7.04442237637361e-07,5.479758286869093e-07
-1.942296776343054e-07,7.849432779683332e-07,1.490462876033276e-07,-1.0106681806355175e-06,9.750018551156916e-07,-8.095448110446459e-07,-9.666271399297034e-07,-7.918240393253801e-07,1.1403716263487103e-07,1.0743414419723546e-06,5.394873304384287e-07,4.4697649343591527e-07,1.8577209037490648e-06,1.2271753605164922e-06,-1.6440537005320475e-08,-1.0179557954214024e-06,-7.08653699950971e-07,5.816389701388504e-07
-1.5551676987355465e-07,7.449688491908177e-07,1.964802006325956e-07,-9.699901776342874e-07,9.734925134630154e-07,-8.340283831181523e-07,-9.230800450974086e-07,-7.881479894162437e-07,1.1185610459151712e-07,1.0858355850470246e-06,5.087354876764891e-07,4.5169331257677527e-07,1.792222008098013e-06,1.1902448291166965e-06,-1.2264145311778885e-08,-9.454951184131826e-07,-6.944262366894613e-07,6.242139271883376e-07
-9.98736356288162e-08,6.939882247878045e-07,2.433635054087018e-07,-9.169187103285607e-07,9.666105117648747e-07,-8.629496054471284e-07,-8.742935091016936e-07,-7.709560942128093e-07,1.1629121939784263e-07,1.0976565803634355e-06,4.823076705573334e-07,4.5595564875073335e-07,1.7247919072732439e-06,1.1519488662825557e-06,-4.280863822766661e-09,-8.699409198336924e-07,-6.514017708187047e-07,6.731912802416387e-07
-3.1823949403236236e-08,6.322639209851798e-07,2.908153431926777e-07,-8.502538540684229e-07,9.54488383400394e-07,-8.912239487549087e-07,-8.185394031952998e-07,-7.360216036869568e-07,1.2964560842359724e-07,1.1078221483203469e-06,4.6388816884519846e-07,4.607049985085706e-07,1.6638898809009944e-06,1.1180053337674918e-06,1.251472482051598e-08,-7.914604197793021e-07,-5.768097521867559e-07,7.293797106099457e-07
4.073512607995015e-08,5.60086872882535e-07,3.3165947545964433e-07,-7.711579156125372e-07,9.372384562829692e-07,-9.157460711883734e-07,-7.581577830220792e-07,-6.851437090214499e-07,1.529233991582266e-07,1.1155080783952049e-06,4.5487150224477536e-07,4.6901757292181895e-07,1.6176727405143322e-06,1.0947239694320583e-06,3.883475077946874e-08,-7.082710158322034e-07,-4.663002408957791e-07,7.852039711544314e-07
1.0628972765233024e-07,4.7583635639585235e-07,3.671207760381883e-07,-6.820011410377482e-07,9.142079897664686e-07,-9.356607787407398e-07,-6.970387741934734e-07,-6.210930240598359e-07,1.8079039412380402e-07,1.1198733335731374e-06,4.5606912915299066e-07,4.782257724136933e-07,1.5913346281225586e-06,1.0843563693558933e-06,6.79398727864195e-08,-6.254097354106873e-07,-3.5009099161475214e-07,8.342943058353423e-07
1.516754465191938e-07,3.7836354362790764e-07,3.972058814699585e-07,-5.856645773427128e-07,8.820614081049817e-07,-9.515608205829376e-07,-6.422303300398413e-07,-5.489053460036396e-07,2.0585565047676355e-07,1.1137126514177072e-06,4.6614144540778894e-07,4.800479433195274e-07,1.5858792611336478e-06,1.0836251385261851e-06,8.941303933386906e-08,-5.4888144297162e-07,-2.6356578869394e-07,8.654577419203583e-07
1.662246242839992e-07,2.677172231266484e-07,4.18646579988774e-07,-4.850914931436441e-07,8.336390391629492e-07,-9.64526737141076e-07,-6.03053427628454e-07,-4.721869898877908e-07,2.2291477922449266e-07,1.091188656220191e-06,4.844411993178493e-07,4.679304712596342e-07,1.5962999520291643e-06,1.0848453240285186e-06,9.072184616910799e-08,-4.880890401852559e-07,-2.87681204576864e-07,8.349648924667048e-07
1.4618586710005588e-07,1.456815122793656e-07,4.336794999584175e-07,-3.8343799121644843e-07,7.735791975936923e-07,-9.756434370668613e-07,-5.878198381271504e-07,-3.980516467581693e-07,2.2824444946790116e-07,1.0473781099022657e-06,5.089258659911035e-07,4.338052975190236e-07,1.6116585743004818e-06,1.080357904459686e-06,6.26362894054288e-08,-4.504204738656774e-07,-3.221872522422321e-07,7.970806188530555e-07
9.722762619326777e-08,1.718893717262528e-08,4.3776354857498733e-07,-2.8493128769515587e-07,7.082548090785904e-07,-9.861626274223144e-07,-6.02658996063139e-07,-3.3275814887114573e-07,2.2120605370173626e-07,9.805318366086243e-07,5.352826877196123e-07,3.726540220440987e-07,1.6176307225263364e-06,1.0626969883907512e-06,3.930767186876312e-09,-4.3881162489430973e-07,-3.243583034451196e-07,7.528578010803437e-07
3.37355909959654e-08,-1.0981897646806252e-07,4.2824960466153763e-07,-1.953276872427047e-07,6.440931758260198e-07,-9.99349788285845e-07,-6.481886604418635e-07,-2.8277643419800764e-07,2.0299056900382856e-07,8.913419369442559e-07,5.567204587707886e-07,2.905605335458944e-07,1.5998612960321416e-06,1.0267703689133333e-06,-7.90806122878671e-08,-4.48633424297753e-07,-3.0572928788901744e-07,6.658352507083537e-07
-2.5255565621847394e-08,-2.269246373892802e-07,4.052814896437117e-07,-1.2057014367684747e-07,5.945884975309132e-07,-1.0181538863910485e-06,-7.210361292926549e-07,-2.537527683450785e-07,1.7861130397463356e-07,7.900392335201076e-07,5.66886802806628e-07,1.7316053849120032e-07,1.5472482964503677e-06,9.703051137374414e-07,-1.7442477865444298e-07,-4.7035715308277956e-07,-3.57575293305861e-07,5.499590809694109e-07
-6.220028958413558e-08,-3.262799376599285e-07,3.7341228999563524e-07,-6.463080156030587e-08,5.592697775901328e-07,-1.044864125538149e-06,-8.13102425102094e-07,-2.454870694978777e-07,1.53172009517191e-07,6.803315258335484e-07,5.619975722013044e-07,3.599591891668565e-08,1.4559051281311072e-06,8.923989399491235e-07,-2.691465417031896e-07,-4.950086367666505e-07,-4.381854181659505e-07,4.462295434325242e-07
-6.642276812220045e-08,-4.043181976456041e-07,3.396956057391427e-07,-2.8372886875796845e-08,5.370969648614978e-07,-1.0780496783188508e-06,-9.10209239648157e-07,-2.5256560555824366e-07,1.3140703892326206e-07,5.645831103963676e-07,5.415500131835876e-07,-9.889121052858604e-08,1.3267387805506517e-06,7.939695522219483e-07,-3.557609555141656e-07,-5.17587914858138e-07,-5.353048824430353e-07,3.640040402507198e-07
-3.616509948523584e-08,-4.5917600678567047e-07,3.0699534091743326e-07,-9.566026669301648e-09,5.1078856371502e-07,-1.1135321595777507e-06,-9.95904975373454e-07,-2.664780515141667e-07,1.2265524158530473e-07,4.775567052943529e-07,5.086531088834353e-07,-2.3240522221079535e-07,1.1685753931402938e-06,6.781774546151334e-07,-4.311303891739697e-07,-5.3602213746005e-07,-6.286173654455594e-07,3.0199408996647537e-07
2.2584462136059452e-08,-4.92231041802155e-07,2.78372674731335e-07,-3.942668689291548e-09,4.816345227787057e-07,-1.1467037116064025e-06,-1.0565473803148154e-06,-2.7623515133554996e-07,1.3361123969711824e-07,4.433755520906849e-07,4.6885986143193016e-07,-3.519103619074069e-07,9.956053404736207e-07,5.495237960199776e-07,-4.964018141399974e-07,-5.504001044627144e-07,-7.26713601240336e-07,2.638272874668403e-07
9.834631057853958e-08,-5.073213825142522e-07,2.5500404400922615e-07,-6.9587481074734614e-09,4.5274383290532183e-07,-1.1746199888934764e-06,-1.0852001116210178e-06,-2.759843826555969e-07,1.6670148531256807e-07,3.960033134136753e-07,4.270650985931531e-07,-4.547648447895606e-07,8.226411977365263e-07,4.1379261464520104e-07,-5.577011216413015e-07,-5.638327937778549e-07,-7.926394264169716e-07,2.4497504273571204e-07
1.7630645074778997e-07,-5.054759524659291e-07,2.3563831347774853e-07,-1.5307371952975793e-08,4.1664654385335993e-07,-1.1987774662476517e-06,-1.0830977964903549e-06,-2.6608606648816255e-07,2.150444958203535e-07,4.0550808685242333e-07,3.8744660296013885e-07,-5.46270654077206e-07,6.621772141931917e-07,2.7405484469659433e-07,-6.225686989883523e-07,-5.830781931931409e-07,-8.336750282502529e-07,2.3866497963852017e-07
2.4099974239275675e-07,-4.869476589132553e-07,2.1698917265965457e-07,-2.724568681404119e-08,3.5526684213100086e-07,-1.2238969818493928e-06,-1.0594605941513874e-06,-2.528113248206124e-07,2.6416387206356513e-07,4.295969094217108e-07,3.501980451943518e-07,-6.28367589553356e-07,5.209505668558636e-07,1.2974943886842697e-07,-6.977653564021925e-07,-6.144792708154944e-07,-8.714082670791265e-07,2.358918919381227e-07
2.7992575514362714e-07,-4.5237676020522214e-07,1.943670050843928e-07,-4.2731500799088104e-08,2.711079176399164e-07,-1.2571396445113286e-06,-1.0268844752501157e-06,-2.4743205481508194e-07,2.855076374025247e-07,4.391854801274643e-07,3.1512443441647845e-07,-6.993283059466007e-07,3.991177477841841e-07,-2.3367141700127982e-08,-7.873688680842747e-07,-6.655407143498256e-07,-9.076326459132863e-07,2.2751641900439596e-07
2.8665413125370796e-07,-4.03873437042199e-07,1.6036162817872865e-07,-6.40387503992317e-08,1.3806229588007583e-07,-1.3072054775227013e-06,-1.0044866665532353e-06,-2.6374375544153707e-07,2.540248029108682e-07,4.3143887274252024e-07,2.805661033946506e-07,-7.643536305893839e-07,2.9097119682788287e-07,-1.9046212583514045e-07,-8.917833473855386e-07,-7.446193653522231e-07,-9.538790937433362e-07,2.0671170041680027e-07
2.6139403542349764e-07,-3.4022886640659936e-07,1.2295536670264693e-07,-9.562435396827655e-08,-7.074296295339758e-08,-1.384802137698431e-06,-1.010132250165377e-06,-3.1606392144478263e-07,1.7360978462747143e-07,4.101415061155018e-07,2.4362448043216124e-07,-8.27897619614532e-07,1.896102758361352e-07,-3.745724569320742e-07,-1.0076887723326278e-06,-8.570551326834744e-07,-1.0046949270496226e-06,1.7075253524350448e-07
2.0886779321105984e-07,-2.6273848501612194e-07,7.263027097882403e-08,-1.4241081716808513e-07,-1.9633403982769836e-07,-1.4990700172061413e-06,-1.05758625531589e-06,-4.1455839678562955e-07,1.249870525720405e-07,3.8418702325901823e-07,2.0248756916257953e-07,-8.839016866907248e-07,9.024570265950216e-08,-5.739383565272436e-07,-1.129491153228568e-06,-1.0059905137759976e-06,-1.0542318786768956e-06,1.1942147585917873e-07
1.3544120074958785e-07,-1.7059172770604575e-07,3.6046994695131203e-09,-2.075595726509279e-07,-2.509637669560403e-07,-1.656190766820988e-06,-1.1555430755216625e-06,-5.633136208428215e-07,1.1845635419008716e-07,3.512938244728298e-07,1.5555563306298726e-07,-9.387037138178817e-07,-7.2154987950867546e-09,-7.815158062835629e-07,-1.2547130942732932e-06,-1.1899289467472842e-06,-1.1044637349921129e-06,5.309399786569899e-08
4.749335833061222e-08,-5.931660801087808e-08,-5.004536436280927e-08,-2.906458833918066e-07,-2.8168334341232015e-07,-1.8529706760552948e-06,-1.3023617115898629e-06,-7.552431278795934e-07,5.832436198390873e-08,3.106455195538719e-07,1.0245811348460207e-07,-9.985650506318314e-07,-9.781521554313062e-08,-9.876300754690593e-07,-1.385182512951392e-06,-1.403065079250202e-06,-1.1597708434580736e-06,-2.85820552346241e-08
-4.872328820283124e-08,7.045427323398776e-08,-1.27352347461338e-07,-3.863193635117343e-07,-3.41180632761351e-07,-2.077075204870756e-06,-1.4921805952626131e-06,-9.706110635529078e-07,-5.563943927817387e-08,2.6100596363691345e-07,4.420836039901179e-08,-1.0666331625339673e-06,-1.7571097683122845e-07,-1.1819642294082847e-06,-1.523926543296732e-06,-1.6354186146257249e-06,-1.2274148134493969e-06,-1.2678501726425436e-07
-1.468800034216031e-07,2.133291458477754e-07,-2.182912592966474e-07,-4.846570799608795e-07,-4.47819522739666e-07,-2.3082965698705133e-06,-1.710464149281784e-06,-1.1822123328034145e-06,-1.652802389250089e-07,1.9763067545231254e-07,-1.594344601830531e-08,-1.147820228926844e-06,-2.3727917091332648e-07,-1.3576701453764902e-06,-1.6745007049797916e-06,-1.874990512837972e-06,-1.3110183984776693e-06,-2.4174842972617593e-07
-2.410145368212289e-07,3.5929091846037864e-07,-3.008188580467155e-07,-5.745852345945929e-07,-5.897206786920521e-07,-2.521447979395127e-06,-1.937577895187017e-06,-1.3626381708800785e-06,-2.86713586299391e-07,1.2102606143906553e-07,-7.45988569847015e-08,-1.2272346834227988e-06,-2.840189936463623e-07,-1.5143818091855415e-06,-1.8396629229908307e-06,-2.1117099900054334e-06,-1.4122670119109203e-06,-3.71919952672625e-07
-3.2625658170091664e-07,4.985939250913852e-07,-3.977143719887648e-07,-6.490391450187146e-07,-7.286505455473135e-07,-2.6861543556919183e-06,-2.1554581888871432e-06,-1.4962978745032698e-06,-4.149125021614128e-07,3.2910646537163555e-08,-1.2900538863688515e-07,-1.3048506999322461e-06,-3.2244832134552097e-07,-1.6574126224442695e-06,-2.0209588335209505e-06,-2.3399071775743107e-06,-1.5320019710083534e-06,-5.143458367587217e-07
-3.9855871027315994e-07,6.203148409603969e-07,-4.850842487962011e-07,-7.07723248813179e-07,-8.684138396151968e-07,-2.838568996083716e-06,-2.3539150174774722e-06,-1.5786059538152969e-06,-5.089408175999695e-07,-6.485165644160878e-08,-1.7675978952992137e-07,-1.3845811088255367e-06,-3.5892341461797267e-07,-1.7933018156613893e-06,-2.217713747751182e-06,-2.55805403153241e-06,-1.6625290093873628e-06,-6.62193257213648e-07
-4.535023571447644e-07,7.178924833540389e-07,-5.5941968255477e-07,-7.559928387661484e-07,-9.807836816793596e-07,-2.9302418200244975e-06,-2.531019143930922e-06,-1.6156182771596494e-06,-5.817499733565344e-07,-1.6986412860551183e-07,-2.1697474734582542e-07,-1.454177450410755e-06,-3.964449819535136e-07,-1.9262825063341015e-06,-2.4231631616608814e-06,-2.7675164993768035e-06,-1.798851106446993e-06,-8.073706191259875e-07
-4.862476607564993e-07,7.84867200915878e-07,-6.309845493535118e-07,-8.018415978507465e-07,-1.07186769714353e-06,-2.998130873901146e-06,-2.6904529965357285e-06,-1.622574602615887e-06,-6.401615729485421e-07,-2.797703724462954e-07,-2.493570650855372e-07,-1.509486946460529e-06,-4.3325438076521597e-07,-2.056103180107929e-06,-2.6273259579706213e-06,-2.9707354537978017e-06,-1.933187261546502e-06,-9.430721867641119e-07
-4.937661697179106e-07,8.149963667851339e-07,-6.97810734427933e-07,-8.527343693148099e-07,-1.1606725456603837e-06,-3.0492765338623038e-06,-2.843507469038151e-06,-1.619954958390047e-06,-6.93423633715068e-07,-3.922394904072948e-07,-2.7568919271194266e-07,-1.547271273761415e-06,-4.6463307347893443e-07,-2.184858969609036e-06,-2.819078128096912e-06,-3.1687800508331733e-06,-2.056932592767094e-06,-1.0639610738032829e-06
-4.776208631967294e-07,8.098539402734659e-07,-7.662420969175463e-07,-9.136210548717953e-07,-1.250627823432406e-06,-3.0956023869736144e-06,-2.995811968135246e-06,-1.62755384499449e-06,-7.593691771872291e-07,-5.038452047905295e-07,-3.0077134246510247e-07,-1.5658961315396305e-06,-4.868080012556954e-07,-2.310494218502137e-06,-2.988876580698382e-06,-3.3621583433483075e-06,-2.1659868434827994e-06,-1.1655600927844982e-06
-4.4480964375442477e-07,7.741828115591829e-07,-8.389511964125247e-07,-9.868180611869313e-07,-1.3578908148506717e-06,-3.1463092289591046e-06,-3.1511775878461585e-06,-1.6627296788820796e-06,-8.407998847580214e-07,-6.093847227573884e-07,-3.307253474213507e-07,-1.5702700089282188e-06,-5.000303218930731e-07,-2.4297124966445686e-06,-3.1325624201845493e-06,-3.548586622913122e-06,-2.2604983979748166e-06,-1.2455846520370738e-06
-4.058261215783283e-07,7.151166971012726e-07,-9.162792327088629e-07,-1.0729552113006512e-06,-1.4414170699389638e-06,-3.2065935922445007e-06,-3.311149049347017e-06,-1.7386419299038425e-06,-9.380103799570701e-07,-7.029212539994593e-07,-3.704178666257513e-07,-1.5685771472833866e-06,-5.091458048150994e-07,-2.5414307291632596e-06,-3.2515129933088317e-06,-3.726644678754822e-06,-2.3488059068800273e-06,-1.3063408600055753e-06
-3.7067694041464883e-07,6.420189311127398e-07,-1.007597280629504e-06,-1.17120587462651e-06,-1.52191217113177e-06,-3.2774195046156458e-06,-3.4558202515807045e-06,-1.860066518479273e-06,-1.0501664180481308e-06,-7.799322192183746e-07,-4.219828240823698e-07,-1.561718961812539e-06,-5.211466450195824e-07,-2.645455734022144e-06,-3.3507826810542405e-06,-3.895279205608889e-06,-2.4300582264963864e-06,-1.3535927819394229e-06
-3.4490113837353457e-07,5.699789784785527e-07,-1.1056972624304446e-06,-1.278830174621121e-06,-1.6034305041323575e-06,-3.3556114497673153e-06,-3.5924071869571033e-06,-2.024217441341355e-06,-1.1713410091643952e-06,-8.392192346595361e-07,-4.848672624335146e-07,-1.5477027093755287e-06,-5.428977307858055e-07,-2.744645955963748e-06,-3.437108251442989e-06,-4.053231204544986e-06,-2.5259722977670153e-06,-1.3960761744451078e-06
-3.282880104252118e-07,5.057789467019004e-07,-1.20435108701032e-06,-1.3916966912818423e-06,-1.6692381984223693e-06,-3.436036650894634e-06,-3.7285337319524212e-06,-2.222397644663556e-06,-1.2943958844963337e-06,-8.816828686159233e-07,-5.574412982767834e-07,-1.534585449638691e-06,-5.807598835658803e-07,-2.8443376426004354e-06,-3.518796681278719e-06,-4.1969737111709565e-06,-2.647257899663318e-06,-1.4430994344086757e-06
-3.1692613769300147e-07,4.5579046745218794e-07,-1.3006863354307133e-06,-1.5059754569757222e-06,-1.7372821274434054e-06,-3.5134046259137925e-06,-3.857830781958522e-06,-2.442740002375248e-06,-1.413209388479089e-06,-9.117797208036958e-07,-6.393837210987509e-07,-1.5246022765002816e-06,-6.404531311304445e-07,-2.9505576150516447e-06,-3.602345131349996e-06,-4.322919651483273e-06,-2.7966361904368905e-06,-1.5012021929546417e-06
-3.062869248686594e-07,4.265883684218027e-07,-1.3910902656480478e-06,-1.61862983636066e-06,-1.7943434105689337e-06,-3.583396563163674e-06,-3.965433946907737e-06,-2.66877640577213e-06,-1.521419192542239e-06,-9.363469779886608e-07,-7.31170010186443e-07,-1.5209152081886567e-06,-7.25870418270594e-07,-3.0644919392507206e-06,-3.689287760650116e-06,-4.42357283849463e-06,-2.9980098998259875e-06,-1.571440436078578e-06
-2.934014027757027e-07,4.268389460257253e-07,-1.4753344715075698e-06,-1.7264821207185019e-06,-1.83272013630091e-06,-3.6409441060580775e-06,-4.032816680979474e-06,-2.8812641992546843e-06,-1.6124494251899038e-06,-9.61466148424034e-07,-8.322535062652033e-07,-1.5297788198852264e-06,-8.374477704711219e-07,-3.1813514702627734e-06,-3.7763053117715823e-06,-4.487202086782747e-06,-3.2073895381023503e-06,-1.650479162023068e-06
-2.782068908139655e-07,4.6012727005098305e-07,-1.5556292518476103e-06,-1.8256980025266481e-06,-1.8531426338915147e-06,-3.681804298788635e-06,-3.989774748681143e-06,-3.0608273632491944e-06,-1.6815351448301684e-06,-9.933836118713697e-07,-9.4016961360702e-07,-1.5439743614559106e-06,-9.725052479181304e-07,-3.2937315205089926e-06,-3.857524185786462e-06,-4.505802227976966e-06,-3.4134597933410648e-06,-1.7296088682792275e-06
-2.639295223841286e-07,5.283344568636968e-07,-1.6347817875950973e-06,-1.912356782245893e-06,-1.878277831018483e-06,-3.7028398853413192e-06,-3.918333107466458e-06,-3.1925635475171633e-06,-1.7277233239933172e-06,-1.0363383135234667e-06,-1.0503830024370653e-06,-1.5617008906132104e-06,-1.125496569864593e-06,-3.3943963406112943e-06,-3.928008377808192e-06,-4.47938972316853e-06,-3.5851092964523554e-06,-1.7995867342184054e-06
-2.555487873311485e-07,6.28474769699166e-07,-1.7126560992276312e-06,-1.9829949514701e-06,-1.8799853233981095e-06,-3.702969391054044e-06,-3.962758256763762e-06,-3.268223360676514e-06,-1.7529372051029676e-06,-1.0906038654810858e-06,-1.156415051989036e-06,-1.6179852766163835e-06,-1.2864296706351874e-06,-3.4794900010607644e-06,-3.984378071469265e-06,-4.417990707531565e-06,-3.6867300425310576e-06,-1.8544352477234812e-06
-2.5673017584811243e-07,7.483934539722547e-07,-1.7815856418692995e-06,-2.0349994384787327e-06,-1.8648627624724942e-06,-3.681180835777535e-06,-4.129176949451969e-06,-3.287576457245443e-06,-1.7613163557957232e-06,-1.1527270739106833e-06,-1.2516089078314507e-06,-1.6728190047196888e-06,-1.4442495253456793e-06,-3.549372858801492e-06,-4.0243365432218064e-06,-4.338931446472306e-06,-3.6995912685788816e-06,-1.8891659281725443e-06
-2.6729988225187437e-07,8.718465951608333e-07,-1.8423426816325854e-06,-2.0675643857898326e-06,-1.8645925375712056e-06,-3.639290205119347e-06,-4.212031111216822e-06,-3.258931648772793e-06,-1.7594893071570585e-06,-1.2172280660931735e-06,-1.3316561673201982e-06,-1.7066052722080488e-06,-1.5863532802678273e-06,-3.6075352479382756e-06,-4.047825720014597e-06,-4.262916149085517e-06,-3.6625140675739868e-06,-1.9029380528877513e-06
-2.828634626803495e-07,9.832084254521866e-07,-1.893825413285082e-06,-2.082418517977004e-06,-1.8662064876168036e-06,-3.582229102317739e-06,-4.231630257423608e-06,-3.1985644448770572e-06,-1.756042386220017e-06,-1.2781692088303547e-06,-1.3957507252171781e-06,-1.721113512948685e-06,-1.7026795044335555e-06,-3.658833734003101e-06,-4.054892813761683e-06,-4.2064826501414425e-06,-3.6780938454610574e-06,-1.8980851161268416e-06
-2.9631935374160803e-07,1.0719684957357705e-06,-1.932976303671598e-06,-2.083548874962227e-06,-1.8756959632878982e-06,-3.515794797114259e-06,-4.169196669301504e-06,-3.1262084109662724e-06,-1.758872682688056e-06,-1.3311513092454034e-06,-1.4456622857676662e-06,-1.7299977488972675e-06,-1.788034184016634e-06,-3.7049567339546482e-06,-4.045881401321709e-06,-4.177733145478041e-06,-3.775865862672019e-06,-1.878396582974375e-06
-3.0015820836062276e-07,1.134584909865336e-06,-1.9608095963268772e-06,-2.076173325207196e-06,-1.8939870783585898e-06,-3.4458856198904963e-06,-4.064085974661133e-06,-3.058707407664248e-06,-1.7726823091679485e-06,-1.3720457600588264e-06,-1.4829467562879501e-06,-1.7309501341934072e-06,-1.8407178208408355e-06,-3.74490108128407e-06,-4.0213773393537525e-06,-4.175828037791154e-06,-3.86513485573453e-06,-1.8495234827735942e-06
-2.889602967394598e-07,1.1725511616923963e-06,-1.976649817512536e-06,-2.065617614713396e-06,-1.8949441821553327e-06,-3.3765495978479283e-06,-3.939255122819179e-06,-3.006973368745658e-06,-1.7982307639363954e-06,-1.3981099704242252e-06,-1.5097180939424847e-06,-1.7211516809429315e-06,-1.8624917951036683e-06,-3.77404718063578e-06,-3.982228248301862e-06,-4.1935646322244404e-06,-3.943540211890208e-06,-1.817495864530494e-06
-2.614991435129484e-07,1.1901775023916583e-06,-1.9811961396450286e-06,-2.055964293084089e-06,-1.8661709860698927e-06,-3.309498400150515e-06,-3.851620783555439e-06,-2.973670721016737e-06,-1.8323854278166537e-06,-1.4084736705724259e-06,-1.5273601029941082e-06,-1.7002402039966472e-06,-1.85738619645534e-06,-3.78474613897516e-06,-3.930107674877055e-06,-4.219772338758062e-06,-3.940273672107987e-06,-1.7860185162999244e-06
-2.2132545558482793e-07,1.192772202789902e-06,-1.9735302842501458e-06,-2.048874898601826e-06,-1.8383898767046662e-06,-3.243574282825712e-06,-3.7773270603332902e-06,-2.953817006726278e-06,-1.8690858715779337e-06,-1.4029573424110433e-06,-1.5359755113311492e-06,-1.6688126794883799e-06,-1.8312051356749498e-06,-3.7698858769095966e-06,-3.867119042657671e-06,-4.242517551053525e-06,-3.921044374256325e-06,-1.7558161796702226e-06
-1.754902905078125e-07,1.1847667798704076e-06,-1.9575268712221887e-06,-2.043653502593011e-06,-1.8076498165043877e-06,-3.1760976753096275e-06,-3.700917406904022e-06,-2.938190496977763e-06,-1.9017373385697235e-06,-1.3833838823217966e-06,-1.5357353005479025e-06,-1.6299263524527035e-06,-1.7902731166142212e-06,-3.72522477333706e-06,-3.7961790647994933e-06,-4.252746257287201e-06,-3.856993069613148e-06,-1.7264033779092528e-06
-1.3237862163293256e-07,1.1698271989385714e-06,-1.934235858752501e-06,-2.038355128811924e-06,-1.765586848674076e-06,-3.104052664652372e-06,-3.6248634770264674e-06,-2.9168339156616336e-06,-1.9245097199808046e-06,-1.352780903600084e-06,-1.5268027684026416e-06,-1.5851674743394513e-06,-1.740170349440365e-06,-3.651251469259819e-06,-3.7206511746225814e-06,-4.246419346058257e-06,-3.7520823003600604e-06,-1.6970565715897068e-06
-9.9654012182059e-08,1.1503029443337885e-06,-1.903785839710538e-06,-2.0306880662877778e-06,-1.715211499518002e-06,-3.0240314983884865e-06,-3.5307828417078418e-06,-2.880119919597711e-06,-1.9320342321281865e-06,-1.3141428856596484e-06,-1.50905318115761e-06,-1.5380975842242156e-06,-1.6838312798324571e-06,-3.5521421330515814e-06,-3.642913845180889e-06,-4.223303767094613e-06,-3.677263585788602e-06,-1.6676196789524444e-06
-8.252245061394697e-08,1.127519889277545e-06,-1.86821657777285e-06,-2.018652178312311e-06,-1.6501122938053326e-06,-2.933915111978314e-06,-3.4620886778438216e-06,-2.820463156797199e-06,-1.9205261210746192e-06,-1.2702819352196373e-06,-1.4823982015553984e-06,-1.49220882894054e-06,-1.6219966915552253e-06,-3.4342743348562543e-06,-3.563653584569728e-06,-4.186630551766219e-06,-3.6161028060919173e-06,-1.639064948542257e-06
-8.195417914726354e-08,1.1037444872688085e-06,-1.826426035059232e-06,-2.001347333152956e-06,-1.571715468657329e-06,-2.833604954132168e-06,-3.404942776447466e-06,-2.7368911172978416e-06,-1.8907011598267472e-06,-1.2250787992020832e-06,-1.448019900324241e-06,-1.4504610193849334e-06,-1.5557494976924309e-06,-3.3049392939682726e-06,-3.484735795507507e-06,-4.142558808676767e-06,-3.5369180913779652e-06,-1.612821681206124e-06
-9.288158016656388e-08,1.0828132564837954e-06,-1.780660202742657e-06,-1.979227138437643e-06,-1.4896252506910283e-06,-2.726017238455735e-06,-3.3435246027283576e-06,-2.6342047172411488e-06,-1.8486792895129734e-06,-1.1827346293194717e-06,-1.4082827339617992e-06,-1.4164668689310705e-06,-1.4881207032199004e-06,-3.1708168748994755e-06,-3.4086155689485918e-06,-4.097263497010183e-06,-3.446978193289944e-06,-1.590769607288673e-06
-1.040267927288363e-07,1.0684356009513779e-06,-1.7336171346237662e-06,-1.9532599388432054e-06,-1.4136648345900716e-06,-2.615390206701814e-06,-3.2799918146674506e-06,-2.520551772429821e-06,-1.8030759712032173e-06,-1.1464241394855552e-06,-1.3659003539098593e-06,-1.3919586534012196e-06,-1.4233567543268766e-06,-3.037480444528751e-06,-3.337324619757177e-06,-4.054585565474548e-06,-3.3407326738982936e-06,-1.5734402604267864e-06
-1.0165657699401793e-07,1.0623093289264625e-06,-1.686797198494423e-06,-1.9241736359911136e-06,-1.3361476208789682e-06,-2.505769695677766e-06,-3.21539640394873e-06,-2.404549881562546e-06,-1.7612705433334294e-06,-1.1179164496146518e-06,-1.323225493839189e-06,-1.3762110415754113e-06,-1.3655227436495454e-06,-2.9097866697464388e-06,-3.272515511359888e-06,-4.015574649369931e-06,-3.22207721820195e-06,-1.5596692457342194e-06
-7.643424999259721e-08,1.0629831076155118e-06,-1.6437064553436134e-06,-1.8927413172133936e-06,-1.2598469435680441e-06,-2.40220760895127e-06,-3.1551009389122154e-06,-2.294634332532722e-06,-1.7293742954354022e-06,-1.0969617258125873e-06,-1.282005431112763e-06,-1.3677478022142602e-06,-1.3167260284571085e-06,-2.7926578339543717e-06,-3.216528780746863e-06,-3.9796498413342755e-06,-3.1301706164800325e-06,-1.5481206423453433e-06
-2.8539365460809153e-08,1.0667173363925025e-06,-1.6047177261494746e-06,-1.8601410916549029e-06,-1.1780722538504008e-06,-2.309706754940398e-06,-3.105743813656467e-06,-2.197195648816184e-06,-1.7104959159946118e-06,-1.0819392057831103e-06,-1.2440149782208878e-06,-1.3621567378547966e-06,-1.2772667862381734e-06,-2.6901938718415878e-06,-3.1684770618735476e-06,-3.94467941596474e-06,-3.054626723503916e-06,-1.5361907659172798e-06
3.25957353587679e-08,1.0693849283791697e-06,-1.5708787987619862e-06,-1.827775212725196e-06,-1.0988926494915763e-06,-2.232068463075328e-06,-3.07255046138755e-06,-2.1146018934502086e-06,-1.70408593013638e-06,-1.0704240668657867e-06,-1.2089146464495483e-06,-1.353876353887133e-06,-1.2451906573851228e-06,-2.6043341292404555e-06,-3.1262154018936965e-06,-3.907774216326903e-06,-2.9860611172184112e-06,-1.5214558073828018e-06
9.262526343975714e-08,1.0682710794304603e-06,-1.5424251298317656e-06,-1.7975051739657348e-06,-1.0334026225789207e-06,-2.1713285275897116e-06,-3.0474279328170704e-06,-2.0474988068972993e-06,-1.7074991919613306e-06,-1.0599564555885163e-06,-1.1758260672761662e-06,-1.338872471991218e-06,-1.2165594604839263e-06,-2.5336754192644656e-06,-3.088165728912134e-06,-3.866803696919537e-06,-2.9273779566938612e-06,-1.502873855329812e-06
1.376490337553149e-07,1.062775634606385e-06,-1.5195043895985634e-06,-1.7721217719488997e-06,-9.843417955197957e-07,-2.127785940302966e-06,-3.0349589064557787e-06,-1.9924547085708142e-06,-1.7166419670041461e-06,-1.0493818463019934e-06,-1.1443600643887072e-06,-1.3151019340367986e-06,-1.1870310109948083e-06,-2.4761105287026316e-06,-3.05314052125527e-06,-3.8222268019112115e-06,-2.87956042421262e-06,-1.481038588746845e-06
1.5895984038149958e-07,1.0528608591013908e-06,-1.502341589238194e-06,-1.7545692354413785e-06,-9.683547211885492e-07,-2.0994130894302717e-06,-3.035609587938129e-06,-1.9439969331146655e-06,-1.7254645675206508e-06,-1.0385162090741481e-06,-1.1134519355795919e-06,-1.282675747059101e-06,-1.1522733746497396e-06,-2.4280899305932617e-06,-3.0208945574295776e-06,-3.772176546318737e-06,-2.8429884345392905e-06,-1.457053949083745e-06
1.5571954764991273e-07,1.0376916474622821e-06,-1.4890719447386493e-06,-1.7461627833803016e-06,-9.759652234778882e-07,-2.081719131369502e-06,-3.042049854632836e-06,-1.895874204967375e-06,-1.726923718585228e-06,-1.027613092946658e-06,-1.0826554306812382e-06,-1.2430940526221373e-06,-1.1090468726180394e-06,-2.3843573646382477e-06,-2.9909785478626387e-06,-3.7141553311122207e-06,-2.8164135606075152e-06,-1.4325853347227442e-06
1.345576745663222e-07,1.0167898016044494e-06,-1.4769477263104794e-06,-1.7455668940594126e-06,-9.954877775213366e-07,-2.0692522910010813e-06,-3.048200069645881e-06,-1.843078070463545e-06,-1.7171768074995928e-06,-1.0177876613280002e-06,-1.0531178121181704e-06,-1.1992202409655088e-06,-1.0566207716522203e-06,-2.3402193859266883e-06,-2.962915884716664e-06,-3.6474606298857877e-06,-2.7987968497750615e-06,-1.409438144303018e-06
1.0721558664664185e-07,9.92367391314313e-07,-1.461989785478574e-06,-1.7489861371258787e-06,-1.0191920313996146e-06,-2.0569136443149155e-06,-3.0458792128499953e-06,-1.7844682774931492e-06,-1.6951595059831478e-06,-1.0112712833791994e-06,-1.0274439653235516e-06,-1.154556546661199e-06,-9.972766777338128e-07,-2.292811459232316e-06,-2.935895480207039e-06,-3.5726767386837646e-06,-2.7810437607638374e-06,-1.3881019376857812e-06
8.734571100175548e-08,9.69458027495883e-07,-1.4409628774037789e-06,-1.7510231381818378e-06,-1.0367471746641437e-06,-2.0404443332496767e-06,-3.029097392870098e-06,-1.7217616597697714e-06,-1.6629682936715545e-06,-1.0087516333028231e-06,-1.0082109458043176e-06,-1.112691957433e-06,-9.351618995622727e-07,-2.24149430768145e-06,-2.9091053569773496e-06,-3.493060204447411e-06,-2.7664499131213493e-06,-1.3683730761716426e-06
8.580586094818024e-08,9.525169560090765e-07,-1.4112547948260929e-06,-1.7454618191641198e-06,-1.040013955332719e-06,-2.017639832452184e-06,-2.9964352176701487e-06,-1.6603902903100951e-06,-1.6227629784619024e-06,-1.0096885118675983e-06,-9.970203954106932e-07,-1.0762415760252054e-06,-8.750477127914362e-07,-2.1880103955056437e-06,-2.8820016030011538e-06,-3.412696922062318e-06,-2.7576925037860295e-06,-1.348475512250498e-06
1.0511128840083884e-07,9.408586850418956e-07,-1.372457389030999e-06,-1.730016242183385e-06,-1.0257000684832444e-06,-1.990098956556259e-06,-2.9518912892357836e-06,-1.60699032235007e-06,-1.5780324336117638e-06,-1.0127884710482773e-06,-9.936675306925118e-07,-1.0465834350855349e-06,-8.212145922956688e-07,-2.1367612650108115e-06,-2.8550599077523774e-06,-3.3361327142641947e-06,-2.7530104327180352e-06,-1.3253606252960914e-06
1.3687619013005173e-07,9.277808171722147e-07,-1.3275835773209758e-06,-1.704597278653449e-06,-9.97110935688874e-07,-1.9636572166437363e-06,-2.9043728099272034e-06,-1.5699150436182373e-06,-1.534157272476102e-06,-1.0158638752614096e-06,-9.960228457801894e-07,-1.0236085437823268e-06,-7.762806265955136e-07,-2.093059731714481e-06,-2.8288723266822096e-06,-3.2662500900652177e-06,-2.7510245905923615e-06,-1.2950139283243698e-06
1.6520906185363757e-07,9.058475441830012e-07,-1.2802786472286688e-06,-1.6711010647087851e-06,-9.581560174958895e-07,-1.9454053219193892e-06,-2.864644877231851e-06,-1.5560219503667795e-06,-1.4959558178172338e-06,-1.0161724814159981e-06,-1.0006717589584587e-06,-1.0052223320528223e-06,-7.408821961966692e-07,-2.0609493716022706e-06,-2.803382282809789e-06,-3.203572768816243e-06,-2.7462048210808214e-06,-1.2541970438764036e-06
1.7424828521206827e-07,8.735074118478129e-07,-1.2341414209379993e-06,-1.6330533615592541e-06,-9.201677966998025e-07,-1.9411299038965214e-06,-2.84105302260075e-06,-1.5679316081586005e-06,-1.4676008494433164e-06,-1.011183958149129e-06,-1.0036867664688034e-06,-9.88205546312225e-07,-7.144525300112491e-07,-2.042464763404318e-06,-2.7784405129415046e-06,-3.147166804372666e-06,-2.733980217802157e-06,-1.201966943343996e-06
1.552212331155836e-07,8.362026314292935e-07,-1.1920279689140743e-06,-1.5940102283904843e-06,-8.93759925760701e-07,-1.9534421964401158e-06,-2.8377971827292313e-06,-1.604650932094606e-06,-1.4518390478538286e-06,-9.993752618380536e-07,-1.001668405760515e-06,-9.688875111205725e-07,-6.960903959721969e-07,-2.0368925671991846e-06,-2.753837124225671e-06,-3.095621898811035e-06,-2.7127299958488307e-06,-1.141661367587695e-06
1.0972687677038109e-07,8.015446704229266e-07,-1.155610925884417e-06,-1.5574460403999982e-06,-8.849023456146824e-07,-1.981250869926152e-06,-2.8546221281622034e-06,-1.66010617923164e-06,-1.4480242960189443e-06,-9.800728421198792e-07,-9.92046610071564e-07,-9.429720943606938e-07,-6.835094542754984e-07,-2.0403167290568077e-06,-2.7278523588538015e-06,-3.0465644614169836e-06,-2.6818494745348894e-06,-1.0777551712643691e-06
4.850509813187875e-08,7.736544275183366e-07,-1.1249109231209283e-06,-1.5253855331673034e-06,-8.994252297394915e-07,-2.0197762847338283e-06,-2.8867407946967505e-06,-1.7236033450580657e-06,-1.4519080361120798e-06,-9.537453216557308e-07,-9.728179272425735e-07,-9.064973930601066e-07,-6.738873630568228e-07,-2.0465920585113028e-06,-2.6977556005213574e-06,-2.9972955930513637e-06,-2.642038084891854e-06,-1.0151056782666871e-06
-1.3182620283437015e-08,7.510775060186248e-07,-1.0986207825239978e-06,-1.4984648903774136e-06,-9.331957762730395e-07,-2.0634399739605536e-06,-2.9245951918606142e-06,-1.7869448697951302e-06,-1.458803833004886e-06,-9.218352846656905e-07,-9.451055116842435e-07,-8.581071754819867e-07,-6.644755073062235e-07,-2.049319020143551e-06,-2.6612566091565807e-06,-2.946891843798778e-06,-2.5961723990391153e-06,-9.584828348038446e-07
-6.127632215218845e-08,7.279129482625758e-07,-1.0759551905059527e-06,-1.476588269067843e-06,-9.803750507631819e-07,-2.1090913586613185e-06,-2.9626427032027283e-06,-1.8469312001647474e-06,-1.464862488377568e-06,-8.858384326338357e-07,-9.122544951287351e-07,-8.00164652581682e-07,-6.526670478812767e-07,-2.043451065835216e-06,-2.6175477741641366e-06,-2.8968837501210976e-06,-2.5489149024453804e-06,-9.108458679034752e-07
-8.713134080502922e-08,6.956228502886441e-07,-1.0563537479059538e-06,-1.4594126635410237e-06,-1.0360091009790253e-06,-2.156762851190038e-06,-2.9979205692184135e-06,-1.9090239270824772e-06,-1.4663494255580457e-06,-8.467197341474948e-07,-8.783386594142889e-07,-7.377835738669922e-07,-6.357273472224801e-07,-2.024830071685556e-06,-2.568124034418523e-06,-2.849949009310051e-06,-2.5053158733252728e-06,-8.730707770058737e-07
-8.862615705093755e-08,6.457365722835497e-07,-1.0394579247686138e-06,-1.4491762410552009e-06,-1.0906317263991508e-06,-2.2097796036273205e-06,-3.029346241944648e-06,-1.9796457135027054e-06,-1.4604637269989226e-06,-8.042362369226323e-07,-8.470906731207513e-07,-6.772348328301255e-07,-6.106827463743145e-07,-1.991202285791393e-06,-2.516600460103046e-06,-2.8099262806045118e-06,-2.469925620855341e-06,-8.44116682074848e-07
-6.883078203206988e-08,5.742251554061911e-07,-1.0254591443351707e-06,-1.4491875368166238e-06,-1.142356100004891e-06,-2.2736007713962675e-06,-3.059456173813316e-06,-2.064106382175491e-06,-1.4475853445406867e-06,-7.581439094375145e-07,-8.218621057721028e-07,-6.250482362433894e-07,-5.756488628628914e-07,-1.943692047828707e-06,-2.4680563037321754e-06,-2.7806115891227187e-06,-2.4462058913247904e-06,-8.22105076109119e-07
-3.433407715883867e-08,4.843916818092455e-07,-1.0144943892576137e-06,-1.4631576742071646e-06,-1.1906916874562845e-06,-2.351094854260802e-06,-3.0904622210328394e-06,-2.170081703792476e-06,-1.4310375532112796e-06,-7.096294420038608e-07,-8.057297049266848e-07,-5.866299880592939e-07,-5.3093020095575e-07,-1.8876933502691908e-06,-2.4268480118581964e-06,-2.763463400971171e-06,-2.4350499067713586e-06,-8.046813608511922e-07
5.864878807430703e-09,3.8517585464148765e-07,-1.0054884433855e-06,-1.490899296656718e-06,-1.233025698062984e-06,-2.4411807108444954e-06,-3.1222509248640884e-06,-2.297021091238085e-06,-1.4148212484273078e-06,-6.596472625497607e-07,-8.005098711640777e-07,-5.650233189668501e-07,-4.797059448133003e-07,-1.8319250491613893e-06,-2.3944572905998713e-06,-2.756384310022231e-06,-2.434280105008028e-06,-7.901706781721226e-07
4.1769298680373475e-08,2.8735117797607743e-07,-9.961367818898236e-07,-1.528244192535601e-06,-1.2665417516273204e-06,-2.536829656072199e-06,-3.1551231727995164e-06,-2.435936904470174e-06,-1.401598122865257e-06,-6.119741331955233e-07,-8.06567741464001e-07,-5.611264378230191e-07,-4.2807346567249563e-07,-1.7868315068711142e-06,-2.369453450058598e-06,-2.754464966539598e-06,-2.4403135003691687e-06,-7.781395704329057e-07
6.463293098105596e-08,2.0167289508827216e-07,-9.847869294772863e-07,-1.5763178468624235e-06,-1.2901218320909865e-06,-2.6279504642852857e-06,-3.187428708314487e-06,-2.5808468152297535e-06,-1.3938354064187193e-06,-5.710010712439697e-07,-8.222677271517754e-07,-5.741073139659412e-07,-3.841453658422796e-07,-1.7622818866646267e-06,-2.3487943331136523e-06,-2.7530790504527213e-06,-2.4498412685510894e-06,-7.697922932084811e-07
6.918096435765833e-08,1.382201806090352e-07,-9.716144812128408e-07,-1.6199795315406223e-06,-1.3056457303115803e-06,-2.706335419486585e-06,-3.218058890185127e-06,-2.7159622112043778e-06,-1.393279421730553e-06,-5.399848161778389e-07,-8.436161150291357e-07,-6.00745305085415e-07,-3.552439869057443e-07,-1.7641017160113266e-06,-2.3284963776179085e-06,-2.748363170087234e-06,-2.459644160394467e-06,-7.66807228821795e-07
5.4776983197369985e-08,1.0429610628586283e-07,-9.574103364187197e-07,-1.6634845094681823e-06,-1.3165629142239102e-06,-2.7646734187860312e-06,-3.246438876933771e-06,-2.7994782922213992e-06,-1.3997961379680233e-06,-5.208595598543394e-07,-8.639755117919739e-07,-6.349875961731538e-07,-3.468278709022035e-07,-1.7921426590271728e-06,-2.305164078690057e-06,-2.7372231958970225e-06,-2.466524479675041e-06,-7.700911901828228e-07
2.542149781344603e-08,1.0185414331465418e-07,-9.428496675293157e-07,-1.7002023860466067e-06,-1.3273811162413789e-06,-2.7968079079927205e-06,-3.27016388427449e-06,-2.8404100482307927e-06,-1.4123137655806636e-06,-5.138277751320189e-07,-8.75755633859166e-07,-6.694133802517587e-07,-3.6149267352914513e-07,-1.84097465454222e-06,-2.27871262418747e-06,-2.71856289454796e-06,-2.4686524458266588e-06,-7.799286725944616e-07
-1.1195423983113093e-08,1.2711631578499272e-07,-9.285884426533312e-07,-1.718298250101751e-06,-1.3404037765243327e-06,-2.79867385048951e-06,-3.2865958162039233e-06,-2.829693938346259e-06,-1.4291209437477286e-06,-5.184581657901925e-07,-8.73055473505393e-07,-6.971171419148664e-07,-3.993265592978704e-07,-1.9018525619296425e-06,-2.2510537842089126e-06,-2.6937016800232234e-06,-2.4662343780651955e-06,-7.962895021804388e-07
-4.573732903562566e-08,1.723517473856619e-07,-9.151802645917037e-07,-1.707154566831449e-06,-1.354762319008131e-06,-2.7685647191006848e-06,-3.2911189892397458e-06,-2.728380910139506e-06,-1.446749241597867e-06,-5.337908052918773e-07,-8.53000215421811e-07,-7.12727895274127e-07,-4.580325305154843e-07,-1.964492194016291e-06,-2.2275051556218213e-06,-2.664810862620428e-06,-2.4598867188449016e-06,-8.174242529583833e-07
-7.00314403771332e-08,2.2791046018536782e-07,-9.0253082420804e-07,-1.6470841337359395e-06,-1.369313522291695e-06,-2.7069108940283856e-06,-3.281268645007251e-06,-2.6955984504272787e-06,-1.4593847499213936e-06,-5.580469187207365e-07,-8.160538844207749e-07,-7.130311535639423e-07,-5.320310726749921e-07,-2.019319884398071e-06,-2.2112671553823162e-06,-2.634090017751967e-06,-2.4497375621827975e-06,-8.40301584423653e-07
-7.929852839415528e-08,2.8345863283730206e-07,-8.89871428771678e-07,-1.5477855054995128e-06,-1.3813576961195942e-06,-2.618561310736702e-06,-3.2552067433674e-06,-2.656213374659739e-06,-1.4619613687189707e-06,-5.875553025633878e-07,-7.657169922204842e-07,-6.977119240338775e-07,-6.122439418248202e-07,-2.0594638757582553e-06,-2.2025703946175606e-06,-2.6044549199883984e-06,-2.4345334106021574e-06,-8.614337402055493e-07
-7.311324769171312e-08,3.284929441639251e-07,-8.757465415695724e-07,-1.408454174010227e-06,-1.3876110313537876e-06,-2.512996382807061e-06,-3.2145323822420636e-06,-2.514970769472898e-06,-1.4521816976398045e-06,-6.173784476457231e-07,-7.075243225680983e-07,-6.690191676621562e-07,-6.874983586881371e-07,-2.0813083487272583e-06,-2.1992199350816523e-06,-2.5792155369125262e-06,-2.412009849116444e-06,-8.773002893426049e-07
-5.5693812447775446e-08,3.5319976171033643e-07,-8.58149642088685e-07,-1.2746367052952097e-06,-1.3854283678071741e-06,-2.4014731461004293e-06,-3.162911542721061e-06,-2.3615415303903783e-06,-1.4301174695588133e-06,-6.419347582947186e-07,-6.47206981902754e-07,-6.305274120126456e-07,-7.475058801864855e-07,-2.083686694555011e-06,-2.1958534784501544e-06,-2.5605667628451424e-06,-2.379442720599028e-06,-8.855181590487079e-07
-3.539602185534036e-08,3.51182277658214e-07,-8.352313340332317e-07,-1.1648788126464294e-06,-1.3721443917156081e-06,-2.2946900609013e-06,-3.1047289400185556e-06,-2.1999014629955575e-06,-1.3973861687510853e-06,-6.562369035586003e-07,-5.89119921188453e-07,-5.863718793056484e-07,-7.857388568170819e-07,-2.0673002092358672e-06,-2.1866870103550506e-06,-2.5487991361203374e-06,-2.3352394870381477e-06,-8.855529401777248e-07
-2.227407760738543e-08,3.2357649615839165e-07,-8.068517593280987e-07,-1.0717056114321064e-06,-1.3485380800902314e-06,-2.2011824682261185e-06,-3.046217556969318e-06,-2.0385260895519526e-06,-1.3596439735661444e-06,-6.579547459362108e-07,-5.360689785432955e-07,-5.406983393535142e-07,-8.012018253167088e-07,-2.0341718727578763e-06,-2.1673337419866607e-06,-2.543568312174428e-06,-2.2802232252209054e-06,-8.787103529972705e-07
-2.382968151807169e-08,2.80422962351121e-07,-7.749401121165098e-07,-1.0000428327291496e-06,-1.318676939670513e-06,-2.1259278760042887e-06,-2.993297799199213e-06,-1.939154315352396e-06,-1.3242755626319048e-06,-6.473858038145615e-07,-4.889534306473482e-07,-4.961386173313329e-07,-7.971448674570052e-07,-1.9861892884549065e-06,-2.1354650382767614e-06,-2.542156865233464e-06,-2.216278381631907e-06,-8.662539114791752e-07
