0,1,2,3,4,5,6,7,8,9,10,11,12,13,14,15,16,17
1.0105274941905247e-06,1.265125112216747e-07,-1.230876546010524e-07,7.578993519759817e-08,-2.6278799549644264e-08,-1.505205132789566e-08,3.6541111046002337e-07,-4.304806495922767e-08,6.08301053932872e-08,1.0476770127853279e-07,1.1620309282232768e-07,-6.620393209815817e-08,1.2919093306816127e-07,-7.312956935512914e-08,-4.049273869729439e-07,-6.63986196013992e-08,-5.604809236699094e-08,2.1352285531022365e-08
7.858272091578362e-07,8.925552395268353e-08,-1.2683372096405206e-07,5.573200115658451e-08,-1.441180341741017e-08,-6.676318143392979e-09,2.243238571126945e-07,1.4633100910680738e-08,4.399337464955857e-08,7.609222148654965e-08,8.717949981404689e-08,-6.469477149951521e-08,1.2754030246799653e-07,-8.328990771083834e-08,-3.247989522603079e-07,-1.1075402869949459e-07,-1.7222915744479946e-09,1.3465188144734679e-08
5.203547477104442e-07,5.089103216456938e-08,-1.2011343446767722e-07,3.2853416013816944e-08,-6.6826025592514585e-09,1.415601567183076e-08,8.534734763971376e-08,6.736255838649981e-08,2.215407623695147e-08,4.569697789745225e-08,6.13685921938031e-08,-6.014562274387976e-08,1.1774683487951678e-07,-8.002904427851564e-08,-2.3621366864613514e-07,-1.3660946056444656e-07,4.619877351439165e-08,1.0628719083066716e-08
2.7544882394421443e-07,2.626906437383426e-09,-1.0479994952577131e-07,1.409900107637609e-08,2.6373723922245605e-09,4.244790449989347e-08,-5.0368094303777e-08,1.0267378271457268e-07,-3.667166443964877e-09,1.6440193623886742e-08,3.556862116239434e-08,-5.56704215578251e-08,9.957207535868573e-08,-7.895498941674327e-08,-1.3070029060596998e-07,-1.3209850892445394e-07,6.228189128199101e-08,1.0144364547694268e-08
9.309723504839717e-08,-4.4375948029313795e-08,-8.172215608130966e-08,-1.8674368563803457e-09,7.690955757608564e-09,7.156096766125676e-08,-1.6954019246907724e-07,1.1637742334845534e-07,-2.845288031443598e-08,-1.4384903053496905e-08,8.919513761041087e-09,-5.042087811927209e-08,7.808533096828432e-08,-7.66032567348197e-08,-2.8439463728341945e-08,-1.0471196828981447e-07,5.112501534722933e-08,9.89956741876178e-09
-3.211634195365911e-08,-7.302653266134583e-08,-5.257066827090574e-08,-1.9195953163812887e-08,1.4985584700825398e-08,7.918020669606002e-08,-2.539581251973276e-07,1.1184118680452628e-07,-4.5880169121636805e-08,-4.5264647599774705e-08,-1.2280629134837382e-08,-4.020143050994322e-08,5.748164281612258e-08,-7.184550439710535e-08,7.2387296533959e-08,-6.051299103776295e-08,5.990218929301861e-08,8.415635339880136e-09
-9.531007384171715e-08,-8.81494538004657e-08,-1.992388805302432e-08,-3.8676000273435386e-08,1.6328668924651632e-08,8.31189330306598e-08,-2.898036756550428e-07,8.891481331940952e-08,-5.317185336815868e-08,-6.974709307171753e-08,-2.7811068713028092e-08,-3.133612419655737e-08,3.155954118414912e-08,-6.248122591439177e-08,1.4015251666906853e-07,-1.0743335385606803e-08,7.662083646247366e-08,4.45307751745053e-09
-1.4023093589516563e-07,-9.032361559357212e-08,1.1560865911766004e-08,-5.17935624278569e-08,5.442242280225294e-09,7.909039402776151e-08,-2.7047787733937254e-07,5.924936308861587e-08,-5.1609302349544484e-08,-8.306938307077013e-08,-3.727501020904755e-08,-2.0473925267573494e-08,1.0595401297189234e-10,-4.2549810863964996e-08,1.7526597318956053e-07,2.8863940079943506e-08,5.5409803217019176e-08,-1.9385869364344512e-09
-1.703949466215826e-07,-7.526662381051735e-08,4.462776642868432e-08,-5.715218171935144e-08,-1.3601606063106779e-08,5.805652010234303e-08,-2.0809095828064043e-07,2.1624839818087855e-08,-4.2966746461020044e-08,-8.112166878906941e-08,-4.1961498928889544e-08,-1.6375519684896855e-08,-2.8167903710038533e-08,-1.3399455361119986e-08,1.7659230390157622e-07,5.565196397628051e-08,1.890125399599188e-08,-8.677472471092445e-09
-1.7572231546078213e-07,-5.3738655907432426e-08,6.54062298231016e-08,-5.615854676523684e-08,-3.138384159970988e-08,2.968949717023946e-08,-1.1118886142781392e-07,-1.9857155633620055e-08,-2.823936223056063e-08,-6.378718490201462e-08,-4.132884756153791e-08,-9.226549991177744e-09,-5.4852294134696504e-08,2.2264417038326518e-08,1.4118509768795218e-07,7.02759243719111e-08,-1.6623810890189438e-08,-1.3392011980828239e-08
-1.6886132142733825e-07,-2.8159548279670066e-08,7.707681551994888e-08,-4.484987457049739e-08,-3.915121595327432e-08,-5.778427483983933e-09,2.344046833521785e-09,-6.024111400709605e-08,-9.917621212073834e-09,-3.52762113920456e-08,-3.577180921700577e-08,7.358355772924707e-09,-7.805464973543431e-08,5.557342977114897e-08,9.000366801351817e-08,7.56726795667441e-08,-5.269231458035903e-08,-1.5622608704071852e-08
-1.6815931781931808e-07,1.0846656224742842e-09,8.404119335623039e-08,-2.4678111644514738e-08,-3.367246444854254e-08,-4.2692379055284485e-08,1.0162955705660973e-07,-9.085655825540628e-08,7.367456168023307e-09,-5.3054157275462745e-09,-2.8784825996687843e-08,2.80078516790195e-08,-9.47429137279409e-08,8.251837774955821e-08,3.7917390062125704e-08,7.522264803306026e-08,-7.162000109793046e-08,-1.6481343762715635e-08
-2.2909161325117197e-07,2.7061990145864154e-08,8.57090238551905e-08,-1.1854208512704763e-09,-1.540670614243205e-08,-7.881014443440693e-08,1.6513017703960642e-07,-1.0502329371442216e-07,2.0208276684496417e-08,1.9608682865167114e-08,-2.3590662652265537e-08,5.381222878908987e-08,-1.0712286147951014e-07,9.877934250012365e-08,7.366163621855694e-09,7.266317310348973e-08,-7.216218607402038e-08,-1.6046472517728086e-08
-3.515265093839353e-07,4.364772889769506e-08,8.639359699800735e-08,2.2670943519738103e-08,1.0831077506559095e-08,-1.0104387091310424e-07,1.8130401811779373e-07,-1.029628791044339e-07,2.9050339614972414e-08,3.681084912186843e-08,-2.1169943552943136e-08,7.982562853080322e-08,-1.0992235884740723e-07,1.0482620769199068e-07,1.7331725581480304e-08,7.227374288890662e-08,-6.21372594942026e-08,-1.2367699200645339e-08
-4.980980917113242e-07,5.352100270408031e-08,8.79201398763417e-08,4.101970796907486e-08,4.3425804213269646e-08,-1.0681648414706742e-07,1.4834839844941063e-07,-8.828215020712487e-08,3.637380550151819e-08,4.6613431521436576e-08,-2.0092058982972118e-08,1.0764458248851606e-07,-9.792569678944083e-08,1.0767990210350127e-07,8.064392785613402e-08,7.836082253981403e-08,-4.047331829828293e-08,-3.763967966563291e-09
-6.557440426854396e-07,5.84390169358936e-08,8.631584019452121e-08,5.339208333916953e-08,7.924733395800177e-08,-1.0043076335490916e-07,7.958927196367678e-08,-7.240585250951773e-08,4.3927667252586606e-08,5.192644981154163e-08,-1.9172964804398322e-08,1.381005284084467e-07,-7.04939363314185e-08,1.1064108717797974e-07,1.8623369909646812e-07,9.284401794282781e-08,3.0395112643069754e-09,9.931325957469446e-09
-8.374531308993873e-07,6.505390090878395e-08,8.303800395605624e-08,6.00705291601716e-08,1.1345188297827689e-07,-8.564828131956498e-08,-7.753676603360038e-09,-6.327117157740036e-08,5.3013007974236675e-08,5.606720457156737e-08,-1.635250518237418e-08,1.7542538987145612e-07,-2.9509741696564285e-08,1.1794034903826313e-07,3.2047261206408176e-07,1.1627786852123869e-07,6.493492701684216e-08,2.8246349406814515e-08
-1.0019725402280253e-06,6.96427792579858e-08,8.417404791541504e-08,6.171949824094782e-08,1.4452976736295376e-07,-6.849698305159714e-08,-9.869431713382743e-08,-6.066396141853024e-08,6.563351386963949e-08,6.283757633323292e-08,-9.839550810135447e-09,2.2027901128567406e-07,2.2800602982330664e-08,1.3411860820003537e-07,4.708184843439942e-07,1.4790090291829805e-07,1.3647667762122294e-07,5.095469450894022e-08
-1.1724451539855963e-06,7.48024193370162e-08,9.076312678585611e-08,6.135049560571416e-08,1.7099867296446727e-07,-5.08200173150775e-08,-1.7939835129255076e-07,-6.053574635978557e-08,8.289985992161864e-08,7.522057220015613e-08,1.7655707435245344e-09,2.7134611305322367e-07,8.240606930448552e-08,1.6170342169631942e-07,6.167077341824897e-07,1.8801342031716314e-07,2.13801852246402e-07,7.651367042950133e-08
-1.3235410529297918e-06,8.459026170831493e-08,9.609771885280781e-08,5.9508633477409685e-08,1.9101982438480926e-07,-3.4381785026222907e-08,-2.4521158821783983e-07,-6.058719217321625e-08,1.0271103020903765e-07,9.370093359052897e-08,1.8045826720807653e-08,3.2535265884132447e-07,1.4285801930548816e-07,2.016342597926009e-07,7.470096567269889e-07,2.346887172921314e-07,2.879403841952776e-07,1.0305266407148907e-07
-1.4473368536903901e-06,9.801653410106172e-08,9.85524749509611e-08,5.781497441374341e-08,2.027061109120331e-07,-2.5725948108067982e-08,-2.9860303784102504e-07,-6.067202641102535e-08,1.2072447440343503e-07,1.1661266751776622e-07,3.749606891177071e-08,3.7565829999817093e-07,1.9870342136978856e-07,2.488465859926169e-07,8.538738723179244e-07,2.8391466148302845e-07,3.525178846029512e-07,1.273462588363028e-07
-1.5594764432734085e-06,1.0895727689084854e-07,9.787559344758907e-08,5.5357472780808976e-08,2.05604709964008e-07,-2.2667900891322642e-08,-3.42643962954e-07,-6.085259724367625e-08,1.3361872282406281e-07,1.4182753768517502e-07,5.935385516250583e-08,4.1857565537228665e-07,2.44818017382209e-07,2.978643184207741e-07,9.322438390514147e-07,3.3235042851088893e-07,4.058019666521888e-07,1.484612429307907e-07
-1.6600186782009581e-06,1.1032625028501352e-07,9.22423988748133e-08,5.2336202351133e-08,2.019020487681019e-07,-2.6222448680350593e-08,-3.87190899544023e-07,-6.333176111015336e-08,1.4046501593419545e-07,1.675854874482821e-07,8.362876977440474e-08,4.5154618733232234e-07,2.772298302455376e-07,3.463667703213652e-07,9.816382251593725e-07,3.7672391279052257e-07,4.4211413282362126e-07,1.662727375307843e-07
-1.7387702619206695e-06,1.077492850647725e-07,8.34350325105896e-08,4.869899473813586e-08,1.937382846979036e-07,-3.8836144671554386e-08,-4.1414396417999133e-07,-7.073270751633368e-08,1.420634153647723e-07,1.9261754457620853e-07,1.0992256134095585e-07,4.74355806227169e-07,2.9302926532771986e-07,3.9298747521102203e-07,1.0044731370022103e-06,4.143232459370172e-07,4.61937653513445e-07,1.8019567826861075e-07
-1.7944542768509294e-06,1.0793326694251053e-07,6.941586256431523e-08,4.577083898884589e-08,1.8174430482891246e-07,-6.123574553366856e-08,-4.2895789786700947e-07,-8.370300859737332e-08,1.4133672432135334e-07,2.1680886656556259e-07,1.3771072775212907e-07,4.932360821737946e-07,2.905507095222854e-07,4.388031991998784e-07,9.968957653721267e-07,4.4382825518664836e-07,4.640679066788064e-07,1.912910161759624e-07
-1.8386267154769677e-06,1.1771816903494561e-07,5.8181930023470564e-08,4.4284284723716914e-08,1.664078385250362e-07,-9.414223935376267e-08,-4.2219610145884505e-07,-1.0049779261501502e-07,1.442452457551377e-07,2.419681970159072e-07,1.6757050710522314e-07,5.099540818048451e-07,2.719756050926304e-07,4.871757899746204e-07,9.590446738441626e-07,4.6776500206115365e-07,4.4927014127546187e-07,2.0197731376568743e-07
-1.856170321967146e-06,1.3805744273823653e-07,5.1864037868253845e-08,4.199193339799499e-08,1.491499499981051e-07,-1.340662879046041e-07,-3.667839216598688e-07,-1.1583590174447866e-07,1.5777442291579303e-07,2.7072940378884035e-07,2.0054569412967289e-07,5.270830505124347e-07,2.4184837740974335e-07,5.408137231245558e-07,8.945053010851465e-07,4.854890404579478e-07,4.2087343188853914e-07,2.1515206207960819e-07
-1.8458998137734381e-06,1.6616447787831386e-07,5.615933362600347e-08,4.36712187069105e-08,1.3074798345020878e-07,-1.762943023718249e-07,-2.661972006660782e-07,-1.2585273855688955e-07,1.8602351437542148e-07,3.044290727463832e-07,2.3642296854943233e-07,5.506014834003886e-07,2.0447204656271706e-07,5.983885215024945e-07,8.03009875094365e-07,4.923157898541811e-07,3.7969315539929545e-07,2.3241454511104626e-07
-1.8046102636287518e-06,2.0028632369694057e-07,7.255100194810534e-08,5.217397385840461e-08,1.1123776803219603e-07,-2.1527606623769733e-07,-1.26474977272648e-07,-1.2868494053077312e-07,2.2901007357276718e-07,3.4197141472764697e-07,2.7370284796951346e-07,5.786376595586255e-07,1.646663983210622e-07,6.565227306310142e-07,6.80187183652091e-07,4.878126598764199e-07,3.2773338048601174e-07,2.54737890445633e-07
-1.7281599303788888e-06,2.404252159288604e-07,9.620400127120114e-08,6.662909998748003e-08,9.21173609344546e-08,-2.4740041395095274e-07,3.700473877074435e-08,-1.208220199483525e-07,2.8433606763704336e-07,3.8022650133705206e-07,3.112624430134438e-07,6.078130153340874e-07,1.2498006924676863e-07,7.117098516652064e-07,5.314361016159267e-07,4.709070035726666e-07,2.6785188119347657e-07,2.8099055983731287e-07
-1.63752310485875e-06,2.876498331010248e-07,1.244004283326797e-07,9.06149446009068e-08,7.620582167262383e-08,-2.6972161533356315e-07,2.084535233803761e-07,-1.010689629845347e-07,3.4764101266707844e-07,4.147530089032275e-07,3.4866737141099876e-07,6.383582704257186e-07,8.427499660921322e-08,7.603578134887468e-07,3.6271263320687035e-07,4.443579320059249e-07,2.029519605876484e-07,3.0972923704006073e-07
-1.5511312830587404e-06,3.4015819354595943e-07,1.5185254227679775e-07,1.2426722732781238e-07,6.505198016131351e-08,-2.829507351102573e-07,3.6839998131879946e-07,-7.175658696817513e-08,4.1159178178084817e-07,4.4011128767631176e-07,3.84974574470491e-07,6.606462207119043e-07,3.734806011979259e-08,8.002924760160125e-07,1.8300832578194938e-07,4.1403626185798266e-07,1.322743359039783e-07,3.3756198881400504e-07
-1.4711005891305207e-06,3.914348709707426e-07,1.7166105320185054e-07,1.6846441874753755e-07,5.8021090299700343e-08,-2.923858463219616e-07,5.055063554322603e-07,-3.916047440891623e-08,4.6732535929495867e-07,4.5122104847061397e-07,4.18409938574323e-07,6.677579683651064e-07,-2.345860759241691e-08,8.297516552388572e-07,-2.1623005929031506e-09,3.8402928987185196e-07,5.511750950121565e-08,3.5927477159074853e-07
-1.406893006514453e-06,4.3907419470866296e-07,1.783008110476072e-07,2.1870148583240035e-07,5.445443302722475e-08,-3.0324871339634705e-07,6.121272147733151e-07,-8.962317914644212e-09,5.083443760231041e-07,4.45432128922816e-07,4.474158417232033e-07,6.577806763756039e-07,-1.0293973837862928e-07,8.485947637685483e-07,-1.9849132243840388e-07,3.583628281875141e-07,-2.6811063000178623e-08,3.7112243348268203e-07
-1.3517298520160407e-06,4.807932527359104e-07,1.728399644415445e-07,2.6860242491184893e-07,5.448993213110712e-08,-3.1880907101026816e-07,6.8154582519588e-07,1.4617423452885571e-08,5.323923751622961e-07,4.232217958417735e-07,4.70851745385024e-07,6.312994060399014e-07,-2.0014864397153647e-07,8.576848347636889e-07,-3.635870776976062e-07,3.372738179774211e-07,-1.1031396553400977e-07,3.712330267894181e-07
-1.305642514528859e-06,5.172924420338298e-07,1.6010383259747427e-07,3.174268721889038e-07,5.869606308490656e-08,-3.3979730759571074e-07,7.176055814837349e-07,2.8689526734147757e-08,5.403579287973743e-07,3.8776507260037214e-07,4.872154228855341e-07,5.926398401014172e-07,-3.080912598370473e-07,8.5697215622794e-07,-4.929097725949905e-07,3.1700468219167184e-07,-1.8944980881853758e-07,3.5901284361859523e-07
-1.2613059547223271e-06,5.47997736660904e-07,1.452836476755691e-07,3.609354202426048e-07,6.809610280127864e-08,-3.63610735882675e-07,7.240778921880382e-07,3.312421077547867e-08,5.356379689599201e-07,3.444794877758475e-07,4.951192861626683e-07,5.497621560631454e-07,-4.1473756964000903e-07,8.459155489543627e-07,-5.826501555002707e-07,2.9290414887327466e-07,-2.5483839059942786e-07,3.3668225608250233e-07
-1.2084202438767939e-06,5.735042194213573e-07,1.3423022222366907e-07,4.0288779496513027e-07,8.528482154756609e-08,-3.842965168859194e-07,7.070866832211438e-07,3.04984875413993e-08,5.241493840454168e-07,3.00121889519019e-07,4.946091982785071e-07,5.120261498313057e-07,-5.048567911250467e-07,8.250739058720608e-07,-6.192918333685911e-07,2.629977934681763e-07,-2.9732764875862793e-07,3.1011977684301744e-07
-1.148436332487962e-06,5.967598035474755e-07,1.3116087018962193e-07,4.439369254830234e-07,1.1343223280183196e-07,-3.950805783162207e-07,6.747036015449983e-07,2.5477592764357807e-08,5.116466246943607e-07,2.604197226770678e-07,4.867400007230486e-07,4.8516976661281e-07,-5.652304091528757e-07,7.950000466313149e-07,-6.066643630265933e-07,2.285647366686044e-07,-3.1004948523293135e-07,2.837245244294537e-07
-1.08884059190031e-06,6.142309849546119e-07,1.3588058647213164e-07,4.808218328600956e-07,1.5251835803226191e-07,-3.923508890432173e-07,6.219320188206951e-07,2.082743057355264e-08,4.993154219265262e-07,2.2728305975749753e-07,4.7182062575025884e-07,4.7168191610230465e-07,-5.904074843723558e-07,7.549739749350924e-07,-5.793534060442315e-07,1.925403796158062e-07,-2.92384350013278e-07,2.5861274206708295e-07
-1.0526540906602082e-06,6.194646945810177e-07,1.4407717189061164e-07,5.117825570132227e-07,1.980599568596485e-07,-3.7742168507388634e-07,5.495011992855494e-07,1.6512651579792903e-08,4.830731420283205e-07,1.9814393187888103e-07,4.4957943895033386e-07,4.676257287048104e-07,-5.840879174515867e-07,7.046315791213408e-07,-5.230954071162727e-07,1.5967117378921116e-07,-2.5059222579969317e-07,2.3371259450094924e-07
-1.0648804081203412e-06,6.109986911256093e-07,1.460752999575763e-07,5.352154114696485e-07,2.4395626757897114e-07,-3.5446552941479823e-07,4.532907867822453e-07,1.1780177405074578e-08,4.5759968800278187e-07,1.679061916438412e-07,4.214896606103757e-07,4.666860892998585e-07,-5.567236819844098e-07,6.46722866231139e-07,-4.189711843504658e-07,1.3707835084886397e-07,-1.9369687387157883e-07,2.0603891827687276e-07
-1.1486646318262517e-06,5.902725552735019e-07,1.37782805457899e-07,5.530537337812831e-07,2.856889433656335e-07,-3.2783363309694683e-07,3.352161163387901e-07,8.56529986743556e-09,4.199160010547858e-07,1.3145377484847985e-07,3.916757043585e-07,4.6364976815586825e-07,-5.215247826667908e-07,5.881304802551353e-07,-3.463727119780287e-07,1.3549951457512155e-07,-1.311771687675319e-07,1.7243292924889147e-07
-1.3114480225224251e-06,5.61955681859561e-07,1.1560535801832964e-07,5.661504221269346e-07,3.2070857649666766e-07,-3.017863269616816e-07,2.071300839902595e-07,7.469743664458563e-09,3.700054392691533e-07,8.528795863572035e-08,3.6509443103499255e-07,4.538904898385263e-07,-4.907520182589268e-07,5.37180396448384e-07,-2.9125630231618105e-07,1.6600774118471629e-07,-6.957617482757629e-08,1.3193927616567549e-07
-1.5422358521109358e-06,5.318476799502063e-07,7.923693723315839e-08,5.777472455026452e-07,3.4860581793106535e-07,-2.777581304300372e-07,8.193389371518341e-08,9.018059637929216e-09,3.1140201015360665e-07,2.8941463870209257e-08,3.4490415001999293e-07,4.368984079535533e-07,-4.730352261362847e-07,5.013885270819042e-07,-2.2642341990843627e-07,2.330582921853641e-07,-1.3939134832277805e-08,8.523517313566427e-08
-1.8198467134991039e-06,5.040398952772384e-07,3.310394480538334e-08,5.924345676850052e-07,3.724029428793461e-07,-2.5556305142943294e-07,-2.5233001678271322e-08,1.658310907720251e-08,2.525242377149791e-07,-3.392656597495972e-08,3.3467362817264977e-07,4.171819450755217e-07,-4.6937132341769414e-07,4.87017083826531e-07,-1.5769264300014514e-07,3.365501657275895e-07,3.69759849330043e-08,3.438063814795554e-08
-2.1165185241817087e-06,4.809803501268397e-07,-1.5748416996621497e-08,6.123105190244682e-07,3.977128667554549e-07,-2.3250206506212137e-07,-9.804833355853484e-08,3.359987823481285e-08,2.048307825940529e-07,-9.655272293067277e-08,3.368203789784207e-07,4.0046005598825215e-07,-4.739162123425151e-07,4.979250736116827e-07,-5.8102947774057585e-08,4.778046263142662e-07,8.947568564411958e-08,-1.4344543325233782e-08
-2.3930194519849318e-06,4.6588317648454617e-07,-5.9056298538921184e-08,6.427184024932309e-07,4.284040555871857e-07,-2.0569815105243003e-07,-1.271557157691648e-07,6.110696747072311e-08,1.769163893201657e-07,-1.5183749025477037e-07,3.5027109727308007e-07,3.930303548368843e-07,-4.797114013028812e-07,5.329051545443964e-07,1.260730373660173e-07,6.499346963295121e-07,1.451418911836086e-07,-5.671412913635545e-08
-2.6195890296876224e-06,4.5810613957409536e-07,-9.242644587694714e-08,6.799561674874575e-07,4.6312267674561256e-07,-1.780148147688756e-07,-1.1552173811058277e-07,9.385684605180513e-08,1.7015410241546884e-07,-1.9467545592387284e-07,3.70983371567822e-07,3.9671157000639223e-07,-4.812641529682096e-07,5.852231780881223e-07,3.431625502700888e-07,8.406844971572076e-07,2.052139615389913e-07,-9.157601388939653e-08
-2.790427354960412e-06,4.50856163741398e-07,-1.1453888263829728e-07,7.093249288234985e-07,4.968420891958304e-07,-1.5303261584723443e-07,-7.136334106350393e-08,1.2240787788549716e-07,1.8005370600638798e-07,-2.2232102289404634e-07,3.9254330659943116e-07,4.1064448207523244e-07,-4.754212362622654e-07,6.455105954538748e-07,5.5099753789302e-07,1.0362783304306446e-06,2.6780670925198064e-07,-1.1976761179069455e-07
-2.893347047474662e-06,4.422644921124566e-07,-1.275441673961687e-07,7.317113864113018e-07,5.251626147909208e-07,-1.340236608373669e-07,-7.0778005710715665e-09,1.398184905675761e-07,2.001909704657872e-07,-2.3399198915468723e-07,4.103164721548772e-07,4.3383531973166186e-07,-4.616154641217448e-07,7.050510341086617e-07,7.935680052746282e-07,1.2206199769909242e-06,3.298480991300904e-07,-1.382906693102454e-07
-2.9352547552341038e-06,4.299775785780106e-07,-1.270233200371729e-07,7.468709180123476e-07,5.456877708592706e-07,-1.2395488712906542e-07,6.349764329422148e-08,1.4125731675078326e-07,2.2403182510362694e-07,-2.3129535494487965e-07,4.2329435734187425e-07,4.638907620862239e-07,-4.412278265344967e-07,7.556764421178739e-07,1.0209913241026516e-06,1.3783876093047458e-06,3.846319032990649e-07,-1.549538289645113e-07
-2.926477717579651e-06,4.12346083635854e-07,-1.1620147655622123e-07,7.505785758748723e-07,5.577954091028247e-07,-1.2715656128520065e-07,1.2586043287015056e-07,1.2602115784575136e-07,2.4546872794338356e-07,-2.1851101201042553e-07,4.319642235204232e-07,5.001169974090242e-07,-4.172165298069121e-07,7.9366400996411e-07,1.1651037485726592e-06,1.4989492107848685e-06,4.2886638604325614e-07,-1.672653272591253e-07
-2.8844730542416762e-06,4.0123168468732713e-07,-1.0088740603803243e-07,7.463615098739972e-07,5.62730419995536e-07,-1.4181402720916125e-07,1.6713730522710369e-07,9.732104828276545e-08,2.607966696286836e-07,-2.0154052545870735e-07,4.367837460137518e-07,5.386067747580994e-07,-3.9250770377456053e-07,8.221607795235139e-07,1.330928560671173e-06,1.5786944279198452e-06,4.6415551436058804e-07,-1.8041795117979317e-07
-2.82911999403123e-06,4.071072513852704e-07,-8.16295038501519e-08,7.37779669200239e-07,5.643294909386547e-07,-1.6318408451481704e-07,1.8283508475306816e-07,6.153570703327431e-08,2.7014787174987353e-07,-1.8624884081244662e-07,4.420422981847565e-07,5.757812818676828e-07,-3.68368836725432e-07,8.44644045890569e-07,1.4383519673060682e-06,1.6220844198318347e-06,4.919185633159666e-07,-1.954329594061264e-07
-2.7757696003711305e-06,4.253265418775793e-07,-6.141468189820322e-08,7.251933075985709e-07,5.674043240264105e-07,-1.841843386303756e-07,1.707078531487677e-07,2.5603008142842813e-08,2.7536746160302034e-07,-1.7753997619875602e-07,4.5204222817718526e-07,6.069585783928892e-07,-3.456324156246136e-07,8.657765988470283e-07,1.4772465434351115e-06,1.6403294966555712e-06,5.146563766307584e-07,-2.0859722966470768e-07
-2.7439060622913135e-06,4.4533656087159876e-07,-3.393557594009528e-08,7.052313126133964e-07,5.744241355786764e-07,-2.0030948455893598e-07,1.343540598308159e-07,-5.852616575189346e-09,2.768255943962787e-07,-1.786488441394136e-07,4.652437721794185e-07,6.301791578795815e-07,-3.256360828602059e-07,8.894809570897538e-07,1.444391694678751e-06,1.6455649990146439e-06,5.359608879379693e-07,-2.2255495753009887e-07
-2.7203807524337053e-06,4.664196446897564e-07,1.4773276924446985e-09,6.807685199888866e-07,5.851674341611048e-07,-2.1214118799874858e-07,7.39133178213134e-08,-3.249762345845824e-08,2.736069278613473e-07,-1.8986808319949428e-07,4.820040108423613e-07,6.45710416389007e-07,-3.099036164975429e-07,9.176862066099792e-07,1.4208008740072532e-06,1.6472455056097255e-06,5.525590711239015e-07,-2.408229849052672e-07
-2.6940857621462512e-06,4.904593777102526e-07,3.574449756795516e-08,6.619347333028853e-07,5.987827345303368e-07,-2.1936420864950904e-07,-2.2394271634347274e-09,-5.1302161964820654e-08,2.658384533337597e-07,-2.076972201693885e-07,4.993201911958324e-07,6.539366147493884e-07,-2.991516909605249e-07,9.511225744165082e-07,1.3760461861963552e-06,1.6527204090307307e-06,5.654954003196677e-07,-2.5611297078702856e-07
-2.6612278539585713e-06,5.164795493173972e-07,6.228757203804262e-08,6.551001456732627e-07,6.145130613580197e-07,-2.2490603312509653e-07,-7.450462753685016e-08,-6.419562058570735e-08,2.5454687288047036e-07,-2.2603831460401973e-07,4.999391689372024e-07,6.586730310030284e-07,-2.940926831754706e-07,9.867892710360808e-07,1.3208490138366343e-06,1.6651712964314936e-06,5.831783832164053e-07,-2.6855739141938256e-07
-2.6698644671078667e-06,5.448276083547469e-07,7.95138701422188e-08,6.553865716595123e-07,6.306504144721237e-07,-2.317490068433682e-07,-1.2685104592404622e-07,-7.53190765294084e-08,2.3947816170212125e-07,-2.390234218896638e-07,4.996115316608483e-07,6.652426505537636e-07,-2.965358595474719e-07,1.0155467036740732e-06,1.252024390223785e-06,1.6808490843590503e-06,6.143348226901676e-07,-2.8199033073019823e-07
-2.732834949171165e-06,5.499107143976966e-07,1.0622391311152265e-07,6.617733196382843e-07,6.456666946901027e-07,-2.414195441122109e-07,-1.477091102159143e-07,-8.736645464350106e-08,2.191356610614212e-07,-2.436882087651993e-07,4.891076258422784e-07,6.701423046405804e-07,-3.083194572474963e-07,1.0257171134350782e-06,1.1727796840383363e-06,1.691905841118442e-06,6.796531579080907e-07,-2.951791906419502e-07
-2.9244710286310176e-06,5.000451978017986e-07,1.3833635278667884e-07,6.583596253519328e-07,6.611028399867802e-07,-2.483553881870242e-07,-1.408184103553863e-07,-1.0094218784110318e-07,1.9294618881143674e-07,-2.4150555335583077e-07,4.183288924815853e-07,6.706482178107763e-07,-3.2941465374318e-07,1.0022888647020096e-06,1.1147439963795576e-06,1.6856381271903594e-06,8.022239845476424e-07,-3.1826441358304625e-07
-3.3443430011811362e-06,3.8970953498948485e-07,2.0678478130090425e-07,6.291266168693216e-07,6.816111220710714e-07,-2.4497582452723095e-07,-1.480449915509197e-07,-1.14910333528696e-07,1.6163135360932298e-07,-2.386647451275325e-07,3.9715737804832033e-07,6.672584066749392e-07,-3.5341167067925166e-07,9.362869005496214e-07,1.1280988316337743e-06,1.6464627061455589e-06,9.126923379606974e-07,-3.3494998023563996e-07
-3.689119238030535e-06,2.911230754035892e-07,3.1927263622673474e-07,5.415055188267534e-07,7.11200101847681e-07,-2.2010132365494425e-07,-2.3648732972295752e-07,-1.297791674001635e-07,1.2590629099181913e-07,-2.4429068930791335e-07,4.022511171934906e-07,6.497853836022905e-07,-3.8084382588673896e-07,8.471934388629939e-07,1.1621602939483893e-06,1.558697787799732e-06,9.87341364641394e-07,-3.5164251890610266e-07
-4.034507894539103e-06,2.114022697085479e-07,3.8248870449529155e-07,4.432371137465777e-07,7.505672066626235e-07,-1.71523987950628e-07,-4.305430875940459e-07,-1.4179721598214457e-07,8.729777664832227e-08,-2.663549620684934e-07,3.5883326284272157e-07,6.178990262583253e-07,-4.135775911249546e-07,7.518330087789568e-07,1.1880206432119091e-06,1.4076395711285785e-06,1.0478661746164088e-06,-3.4295721629804676e-07
-4.341645191797388e-06,1.328994144931046e-07,4.511853810026195e-07,3.514713835139364e-07,7.940490160966524e-07,-1.253934685062536e-07,-6.302020860315353e-07,-1.5245083370779754e-07,5.045442479286385e-08,-3.070484770775145e-07,3.643447425141449e-07,5.883172836314796e-07,-4.5136105281114373e-07,7.195581610397049e-07,1.1755120895825542e-06,1.1981694752882465e-06,1.1032340256931859e-06,-2.765594372943503e-07
-4.675271221591312e-06,7.459222810282807e-08,5.123896961480951e-07,2.738324813671742e-07,8.392038965944279e-07,-9.556023814630107e-08,-7.6803783817619e-07,-1.5372525471173905e-07,2.2100901709030374e-08,-3.6160643547756756e-07,4.4193360473698864e-07,5.674100294329877e-07,-4.944682259507635e-07,7.70612345233229e-07,1.0395384584881312e-06,9.546333006092837e-07,1.1395450326586528e-06,-2.359750702972988e-07
-5.066710649551975e-06,1.1979364338588346e-08,5.495089838637342e-07,2.035688699685107e-07,8.51281614558828e-07,-1.1557763241052412e-07,-9.318080029439237e-07,-1.6985612965210605e-07,6.45743275528363e-09,-4.230860836438394e-07,4.934658014097546e-07,5.638094627900421e-07,-5.409903259621652e-07,8.369210613230173e-07,9.464938863646343e-07,7.13226583855506e-07,1.156652055301649e-06,-2.1653658299350648e-07
-5.216167495462626e-06,-9.797845077007272e-09,5.855624032164718e-07,5.682079877345997e-08,8.087859964162357e-07,-1.8206487682433435e-07,-1.0998745540135518e-06,-2.2678348335909338e-07,2.861971795624311e-09,-4.839191753622436e-07,5.143549070999481e-07,6.132530082951183e-07,-5.884984847398447e-07,8.992034993790699e-07,8.94707040634488e-07,5.719500257305571e-07,1.2033918433063218e-06,-1.9859506554256784e-07
-5.342598721535492e-06,-3.0896179835484713e-08,6.503310988857079e-07,-6.396832633653627e-08,7.982303847148409e-07,-2.3302712281949903e-07,-1.1705917672908296e-06,-2.708167946779829e-07,8.220651521343838e-09,-5.419126884818907e-07,5.497376421065903e-07,6.537003025476651e-07,-6.338763441129954e-07,9.504853061519413e-07,8.532027937488637e-07,5.121478259208935e-07,1.2188664155633584e-06,-1.7327879853965402e-07
-5.497020495867839e-06,-5.908744534400965e-08,6.781595765566758e-07,-1.3740956113625648e-07,7.743257628728499e-07,-2.5275590137586436e-07,-1.2232978892596402e-06,-3.0017020737598006e-07,2.00414577745435e-08,-6.03538712902116e-07,5.672287870078088e-07,6.491671971774864e-07,-6.733956151849935e-07,9.875425378347022e-07,8.121447173552456e-07,4.788992777850367e-07,1.2121817307211232e-06,-1.0882513682583122e-07
-5.549111964103506e-06,-6.082960166315319e-08,7.014871551900156e-07,-1.8210667565482793e-07,6.820998123678026e-07,-2.8692598786918116e-07,-1.3174472526331122e-06,-3.361567246503124e-07,3.6525298278452936e-08,-6.771576245281947e-07,6.016134371955039e-07,7.128232925240306e-07,-7.030716785168242e-07,1.0602892618623475e-06,7.682101104484657e-07,4.144972443598024e-07,1.1693525902349603e-06,-3.60802519265407e-08
-5.690328787651032e-06,-6.940311787035177e-08,7.373435855993069e-07,-2.2611464447518126e-07,6.323781095114095e-07,-3.018000335809165e-07,-1.392800781297287e-06,-3.0350758814016895e-07,5.5932544653593454e-08,-7.778059647331382e-07,6.381126611698991e-07,7.375011744070319e-07,-7.251836552948379e-07,1.0813015258144269e-06,7.850624631424988e-07,4.893595288865433e-07,1.1347364712931507e-06,-2.6812855981544684e-09
-5.883370051218236e-06,-6.46811460823371e-08,7.425302484459537e-07,-2.2136144709608342e-07,6.842900345962573e-07,-2.5650882032468607e-07,-1.4202288235864098e-06,-2.3233514000185635e-07,7.729790855479241e-08,-9.139390121401536e-07,6.27138835981949e-07,7.031755508938699e-07,-7.38535906778148e-07,1.0460114151667217e-06,8.233410044474104e-07,5.602539736287588e-07,1.1837800193010025e-06,1.872817950658814e-08
-6.14773757588826e-06,-8.98998447269323e-08,7.493491411398079e-07,-2.812807514035459e-07,7.289981332446294e-07,-1.8229288432220557e-07,-1.4713436368277506e-06,-1.7728044324689335e-07,1.0043269250079556e-07,-1.0822325764590309e-06,6.034236738110129e-07,6.365704511780152e-07,-7.446088199051466e-07,1.0375313945754735e-06,8.424593399666576e-07,4.902947583962452e-07,1.2087831357650737e-06,6.784156578318283e-08
-6.356660951859912e-06,-1.598043415856281e-07,7.82205148566615e-07,-3.581303106603592e-07,7.535476072358864e-07,-1.690923857322621e-07,-1.5415410191415377e-06,-1.3593728584996186e-07,1.2420438724257165e-07,-1.2562547271763293e-06,5.839167271892314e-07,5.743316781339014e-07,-7.493299372911882e-07,1.042172912423792e-06,8.67802015272269e-07,3.695384886946338e-07,1.221188185046517e-06,1.1665189696739365e-07
-6.5178167293662245e-06,-2.068929775559347e-07,7.954496979470394e-07,-4.3787666895812834e-07,7.876256329037133e-07,-1.3694426063997093e-07,-1.6575630837303095e-06,-1.0415495157040316e-07,1.460105366991579e-07,-1.3952642797213103e-06,5.579565710619553e-07,5.196970209769209e-07,-7.581629333022115e-07,1.0594692309130348e-06,9.018160405653697e-07,2.709130047689174e-07,1.2736054222778121e-06,1.436271620661118e-07
-6.653075586576288e-06,-2.591567765045502e-07,7.992864429159565e-07,-5.206610028948041e-07,8.527477331849133e-07,-9.350144393282529e-08,-1.7474738066347623e-06,-7.867529290100455e-08,1.6338526533563745e-07,-1.4605950919111808e-06,5.555316342093239e-07,4.725648663388269e-07,-7.736990787759092e-07,1.0615565887055535e-06,9.190337999924618e-07,8.578333114258008e-08,1.2779688585532275e-06,1.5881079329265634e-07
-6.704606586341485e-06,-3.1100264764282007e-07,7.777993603053365e-07,-5.79446444681894e-07,9.570701499405777e-07,2.915429979731391e-08,-1.8516434778840278e-06,-4.317796722000673e-08,1.7462331413591408e-07,-1.486651321674043e-06,5.411100306305256e-07,3.6181222224881714e-07,-7.943053409403275e-07,1.0725009725826147e-06,9.98713275441827e-07,-1.4536937567951492e-07,1.3222306480073796e-06,1.3710505610949034e-07
-6.871250242971231e-06,-3.5343037554163627e-07,7.472194255965237e-07,-6.412655628653059e-07,1.0985190629618085e-06,1.8470740275845243e-07,-2.009956957886001e-06,1.3036575266944795e-08,1.7794783262141699e-07,-1.5113934309041898e-06,5.368275820109446e-07,2.5096291516959723e-07,-8.12804524069678e-07,1.0421158573885488e-06,1.0187448002411329e-06,-3.4041881930416924e-07,1.375275051882536e-06,1.0684838016838081e-07
-7.064101747032426e-06,-3.839715143214455e-07,7.308220041299243e-07,-7.226500325324217e-07,1.2003917316472852e-06,3.163947744639432e-07,-2.173586637843502e-06,9.422573312900042e-08,1.7268246910043343e-07,-1.5599924941264842e-06,5.418208052700224e-07,1.6838417708330827e-07,-8.229578694796917e-07,1.0773258422137062e-06,1.0693356355431496e-06,-4.8378473673026e-07,1.3924584223849409e-06,7.75009766548575e-08
-7.029308614565835e-06,-4.0175799869674777e-07,7.375915379151006e-07,-7.560152188293206e-07,1.3006136287038903e-06,4.467490352991082e-07,-2.275475606847338e-06,1.609189298715612e-07,1.6224995747593814e-07,-1.5906001878499874e-06,5.754955696000135e-07,1.5611248554235885e-07,-8.171299259216117e-07,1.1043958114765275e-06,1.0830282739314421e-06,-5.694941424612041e-07,1.371017527235209e-06,4.846079206401982e-08
-7.008945067925742e-06,-4.109235226625268e-07,7.627708801908028e-07,-7.697087768460443e-07,1.3455094225368136e-06,5.273808057231808e-07,-2.3457623333245315e-06,2.6205485622986233e-07,1.5420023831757288e-07,-1.6032976199737818e-06,6.113721163549728e-07,1.5608605769290546e-07,-7.948019190152547e-07,1.1382363188730625e-06,1.0928789373745024e-06,-5.842855339447841e-07,1.3350653361273262e-06,3.0764495492737375e-08
-7.013696003564465e-06,-4.319222171810114e-07,7.962688578784014e-07,-8.247137179905849e-07,1.367533148448071e-06,5.988270924862292e-07,-2.4366223173032235e-06,2.696254128722638e-07,1.5652930153335292e-07,-1.5262246185631872e-06,6.596901784641164e-07,1.9756439468269737e-07,-7.638295323803605e-07,1.1615858558010815e-06,1.1175012065671284e-06,-5.441580532164502e-07,1.2992299765572821e-06,2.6927677590166005e-08
-7.021534071390938e-06,-4.4014487825055704e-07,8.238200201616607e-07,-8.788422534939244e-07,1.389463358497015e-06,6.487935328677695e-07,-2.524098452349578e-06,2.5946640612712823e-07,1.748431000167836e-07,-1.429437825037859e-06,7.138549441484248e-07,2.1929097155060554e-07,-7.247182058840723e-07,1.1451167174899046e-06,1.1700976449309277e-06,-4.7591423100531833e-07,1.2946518636978142e-06,2.4006837269150783e-08
-7.12783623864625e-06,-4.7184614853501527e-07,8.376879412759682e-07,-9.167811340953111e-07,1.4144746435917508e-06,6.460785944028581e-07,-2.5613306193329057e-06,3.173828689286732e-07,2.1173117912573928e-07,-1.3834408417410157e-06,7.483501826362444e-07,2.055343825976373e-07,-6.913600936507134e-07,1.1872700629788614e-06,1.2249132966633749e-06,-4.1145302216772867e-07,1.3153422824551606e-06,2.279256122213633e-08
-7.119812813345743e-06,-5.097342047663319e-07,8.29037967276501e-07,-9.656181886776836e-07,1.462386170160831e-06,6.672136674209411e-07,-2.5030831342239757e-06,3.785540103931466e-07,2.653384532657645e-07,-1.3541999011070597e-06,7.823579210344222e-07,2.653461922110609e-07,-7.072710215494559e-07,1.304882536889481e-06,1.1811046957640512e-06,-3.369223078458124e-07,1.2911565883285743e-06,2.531899491434694e-08
-6.953724149203296e-06,-5.12310792443257e-07,8.146828335905885e-07,-9.84393006440599e-07,1.5344979458588808e-06,7.007451560557454e-07,-2.3658384892442238e-06,4.5129263959616297e-07,3.274651416643717e-07,-1.3418917025828628e-06,8.558839338703368e-07,3.175352454831876e-07,-7.238327999535491e-07,1.5176411333912222e-06,1.115459474882603e-06,-2.6644134690931036e-07,1.2277537698747765e-06,2.4600050283332803e-08
-6.6743143295935376e-06,-4.677525159995184e-07,7.917333557041132e-07,-9.706532036701912e-07,1.618322246518005e-06,7.336937550702376e-07,-2.2371253263043532e-06,5.66702715637724e-07,3.868015168409121e-07,-1.350418226101032e-06,9.250035202767213e-07,3.7722653791209904e-07,-7.446963798709969e-07,1.7361871625157611e-06,1.018687970780138e-06,-2.1706825239076026e-07,1.1381305379826352e-06,2.120906309742314e-08
-6.501605955727652e-06,-4.2120808689799637e-07,7.585061814978016e-07,-9.997632639848528e-07,1.6793667213270041e-06,7.610751241915239e-07,-2.1698826419900373e-06,6.649712313020371e-07,4.276725803648406e-07,-1.3733413648317058e-06,9.765727446309497e-07,4.733930310373819e-07,-7.7668559687657e-07,1.9197393647885827e-06,9.471062167344936e-07,-1.900530681552227e-07,1.0440436666816793e-06,1.5715135355315464e-08
-6.326528570983129e-06,-3.98403121573593e-07,7.270014129150607e-07,-1.0034307046825612e-06,1.70295399516845e-06,7.500320466449572e-07,-2.1515052805352555e-06,6.513266377118844e-07,4.2474532816803814e-07,-1.4009108621433555e-06,1.0446180588934304e-06,5.233721772380606e-07,-8.27288701609676e-07,2.0661249674777944e-06,8.588161018916967e-07,-1.963482461266719e-07,1.0194459149448016e-06,7.445494949362935e-09
-6.125476631882501e-06,-3.859810285500709e-07,6.937255659539964e-07,-1.0261874234023176e-06,1.6621683391247641e-06,6.905133665191681e-07,-2.1857439431116253e-06,5.909936587492327e-07,4.2300903258573383e-07,-1.4113026141917463e-06,1.090713844476092e-06,5.199214064375112e-07,-8.715610786037836e-07,2.1646040581766188e-06,7.138620362963874e-07,-1.726291718464706e-07,1.0034461431746478e-06,-9.177009840670972e-09
-6.023935336153497e-06,-3.311733732207863e-07,6.477734443097201e-07,-1.0240557203584114e-06,1.6044049598645216e-06,6.14887893054076e-07,-2.1605278639072513e-06,5.611826537404353e-07,3.6826651117472945e-07,-1.406006789114522e-06,1.1632502989140164e-06,5.068142046620032e-07,-8.705766006453002e-07,2.240483923135842e-06,6.111183308326238e-07,-1.561268242635638e-07,9.46421778889155e-07,-2.8613308643932418e-08
-5.771246141470937e-06,-3.098265287155099e-07,5.96023545459033e-07,-1.0092202924642305e-06,1.5968186210537176e-06,5.515080994024683e-07,-2.072175724085575e-06,5.505644544585755e-07,3.0278260310761044e-07,-1.3889298424757238e-06,1.2624415588508397e-06,5.331502154904599e-07,-8.18558090003077e-07,2.31155280188478e-06,5.238303539764732e-07,-1.9594032054642883e-08,8.4911195675448e-07,-4.493562717763874e-08
-5.351843246462716e-06,-2.678089814571866e-07,5.413147342570011e-07,-9.67253453124568e-07,1.6120003417317203e-06,5.527272974253414e-07,-1.9734755790454288e-06,5.583822187363981e-07,2.3253166822801692e-07,-1.3623695755075444e-06,1.3145986128720083e-06,5.849617822616929e-07,-7.153697003784077e-07,2.377681163320388e-06,4.700818577027791e-07,2.886396385489653e-07,7.456237652485322e-07,-5.438218117136044e-08
-4.917012817415562e-06,-2.360869766583763e-07,4.782867169570471e-07,-9.463922345105769e-07,1.6099717946076384e-06,5.514493882498508e-07,-1.90263534445117e-06,6.014343246302596e-07,1.6688848664236024e-07,-1.3308816989689978e-06,1.3304063092536647e-06,6.659719356799726e-07,-5.677367077691552e-07,2.422829449973107e-06,5.499107530570075e-07,4.468890417077757e-07,6.374293903207087e-07,-2.0617079759306778e-08
-4.472337990508859e-06,-2.602890058783966e-07,4.120724370749003e-07,-9.67372707272969e-07,1.603362648969369e-06,5.388835225747934e-07,-1.8599956693955316e-06,5.85457355784684e-07,1.1095944078223632e-07,-1.2986251703175177e-06,1.3300377956672735e-06,7.407800510940837e-07,-4.2692450116496404e-07,2.4576915143146275e-06,5.718783158928177e-07,6.007095110218991e-07,5.340222190864189e-07,5.766923234665568e-08
-4.347439279975718e-06,-2.535345729132493e-07,3.348079086217593e-07,-9.75278627342514e-07,1.5333534707483682e-06,5.233029435446156e-07,-1.8453192201955263e-06,5.266797271459102e-07,6.735854785211203e-08,-1.2672227485664322e-06,1.3295655818041709e-06,8.187037908099345e-07,-2.8993759025572725e-07,2.4913388845900374e-06,5.321630526933999e-07,7.770436827506204e-07,4.4899404124345436e-07,1.481569891562858e-07
-4.427020979995402e-06,-2.243463596358339e-07,2.5366782611298e-07,-9.898726389964878e-07,1.4478425669968222e-06,4.6274058342024076e-07,-1.7394963451032014e-06,4.54458125754612e-07,3.636312566371643e-08,-1.2361147292879921e-06,1.309989333675855e-06,9.020966212966006e-07,-1.677539778508371e-07,2.5254633025965745e-06,5.029409865854257e-07,9.851689336747756e-07,3.9866277402874814e-07,2.3948211290186754e-07
-4.363485592560609e-06,-2.01720471365298e-07,1.8036649226004547e-07,-9.96185128869228e-07,1.3725037754676905e-06,3.9974616705194295e-07,-1.5584226333146058e-06,3.88690767655062e-07,1.4968185169546947e-08,-1.204738801003107e-06,1.3095397161780239e-06,9.823122230833807e-07,-6.329989069665518e-08,2.5566548544462347e-06,4.5400714766063255e-07,1.3885185722369703e-06,3.3643115789636946e-07,3.127049844648078e-07
-4.225631886453794e-06,-1.274748800975399e-07,1.2251469471807243e-07,-1.0016255610310844e-06,1.3218041863169084e-06,3.8036898138352923e-07,-1.4629724322073142e-06,3.5610781296501197e-07,-1.969535652791846e-09,-1.1743848684190197e-06,1.3102021782689485e-06,1.053090515121672e-06,1.800706741715355e-08,2.577173362000505e-06,5.838908772867848e-07,1.7054322019043288e-06,3.1532310196634243e-07,3.636774197792527e-07
-4.071064157019717e-06,-4.76429625400767e-08,8.315314294809675e-08,-1.008931277987017e-06,1.3201966292633364e-06,3.3808707266141785e-07,-1.3930317593785451e-06,3.3875264271475545e-07,-1.9368510044312412e-08,-1.148815849712734e-06,1.3065073147995006e-06,1.1069735102460612e-06,8.881672388689272e-08,2.579788490469394e-06,7.759877252820779e-07,1.8024941992314517e-06,3.080837684383608e-07,3.509940719012807e-07
-3.923420856331234e-06,-6.359150514704535e-08,6.19761270224322e-08,-9.825536687434031e-07,1.336169410186683e-06,2.844467277849832e-07,-1.3190514865372673e-06,3.352020885861377e-07,-4.106867237341806e-08,-1.1333064663091066e-06,1.2764133325957346e-06,1.1412293254023349e-06,1.5634693802006505e-07,2.559648472091802e-06,9.729288441207768e-07,1.9223566144936897e-06,3.0296419986017354e-07,3.395436789373015e-07
-3.690954698739218e-06,-1.0268218555451356e-07,5.126656535949729e-08,-9.604723780249478e-07,1.3651662497758292e-06,2.5797242681577313e-07,-1.2811863344030004e-06,3.168945729728086e-07,-6.946200231182316e-08,-1.1322451309781396e-06,1.23586710724731e-06,1.1534344446504697e-06,2.2007534010793914e-07,2.524441368964403e-06,1.099445389950459e-06,2.05249115497899e-06,2.7518586859593205e-07,3.3403312788978174e-07
-3.4393898269023194e-06,-1.7449757726072291e-07,4.294699262831892e-08,-9.57425475588247e-07,1.3815961982257328e-06,1.953325371252886e-07,-1.1926334976867922e-06,2.673006909730614e-07,-1.0377671345047974e-07,-1.1461302053749113e-06,1.21066374740587e-06,1.1529958459885403e-06,2.8960997334972997e-07,2.4774228165399945e-06,1.1233628866392434e-06,2.100664090585996e-06,2.1936667426322194e-07,3.327789973148119e-07
-3.460479537616233e-06,-2.2838104565786335e-07,3.1391319908957394e-08,-9.745266303602948e-07,1.373982510798931e-06,1.166029285714908e-07,-1.0898552145819395e-06,2.618097421439494e-07,-1.3925760266060388e-07,-1.170407072291123e-06,1.0924879620526036e-06,1.1420409084450133e-06,3.598302204143777e-07,2.428547813405153e-06,1.1987344554610832e-06,2.1191823506164897e-06,1.966875735135729e-07,3.2336690519505915e-07
-3.6128202411326644e-06,-2.4445747926018726e-07,1.3125885078751738e-08,-1.013229779968801e-06,1.4037187508089993e-06,1.2032834222190626e-07,-1.1742615549537782e-06,2.469750000493443e-07,-1.694846968621547e-07,-1.1969421912410456e-06,1.0010928274541646e-06,1.1295465669916948e-06,4.218878534509594e-07,2.393406147594121e-06,1.329696170340994e-06,2.013246389088183e-06,1.7627862078676598e-07,3.046339142836625e-07
-3.7855744427956994e-06,-2.6954917723319157e-07,-1.1699516943262213e-08,-1.0706215762155213e-06,1.451750903464856e-06,1.8330858919925162e-07,-1.2765631722434284e-06,2.1692686358337576e-07,-1.8899587917733428e-07,-1.2164562945570938e-06,9.976603572594094e-07,1.1277825674511073e-06,4.76971874080779e-07,2.3836952866773017e-06,1.469625303679451e-06,1.9649981500931093e-06,2.4349753805406065e-07,3.0906764565453786e-07
-4.103898708056641e-06,-2.821805033792635e-07,-3.29560807627075e-08,-1.1144292414832318e-06,1.5169310805212593e-06,2.6664270224506523e-07,-1.228356580268708e-06,2.139396974999614e-07,-1.931933166060217e-07,-1.2208300037629553e-06,1.0149393030913063e-06,1.1441851436524402e-06,5.319471644534492e-07,2.4093595080081635e-06,1.668304075428096e-06,2.033938651883771e-06,3.6011047760503664e-07,3.439304402690796e-07
-4.127891724436743e-06,-2.1162117550130243e-07,-5.17567267136636e-08,-1.10379944638953e-06,1.608052675646704e-06,3.6271119561570993e-07,-1.1652703393234105e-06,2.543353968999452e-07,-1.7775023010017033e-07,-1.2044040151852123e-06,1.0351419559482107e-06,1.1856347279172376e-06,5.869566736523017e-07,2.4737403033075457e-06,1.908004785193366e-06,2.1630974735263303e-06,4.486844220219122e-07,3.9561113196624495e-07
-4.019052725469857e-06,-1.4805364320620042e-07,-6.924454418354963e-08,-1.0877157267563835e-06,1.6810707677049925e-06,4.329087866141074e-07,-1.148370874662405e-06,3.155024090327767e-07,-1.4037939646037106e-07,-1.1649034908221503e-06,1.025781694575604e-06,1.2530078664715842e-06,6.57360899891243e-07,2.5713451952531993e-06,2.152310535778011e-06,2.246291295958514e-06,5.264077304313651e-07,4.592388104602873e-07
-3.948454141515801e-06,-8.776774080549536e-08,-8.233461229276405e-08,-1.0942716406240296e-06,1.7437483165288404e-06,4.769950488186582e-07,-1.1108721026812991e-06,3.9331343700104285e-07,-8.34067566650896e-08,-1.1031588619596812e-06,1.007220906674013e-06,1.3418190894626783e-06,7.441234989842674e-07,2.6906352977942464e-06,2.404224927329696e-06,2.341098208987918e-06,5.723546074563925e-07,5.247817783789368e-07
-3.834593663664463e-06,-2.5628849853780894e-08,-9.082427109240737e-08,-1.0749538183364432e-06,1.799849661080666e-06,5.227515877603024e-07,-1.0422244826463588e-06,4.63344872290298e-07,-1.434296799823767e-08,-1.0218632127496693e-06,1.047470272442699e-06,1.4452850881094638e-06,8.347785934832944e-07,2.8187256727256046e-06,2.6174004782342766e-06,2.5010114045887833e-06,5.931692975287402e-07,5.693027399169076e-07
-3.6770318713192075e-06,1.32494420061857e-08,-8.782608033650627e-08,-1.0727578667119453e-06,1.8416667038451022e-06,5.712230335513315e-07,-9.727857856295803e-07,4.996978989379352e-07,5.6341745283803594e-08,-9.25266847941451e-07,1.1191276966510546e-06,1.5564069923738363e-06,9.193495418982525e-07,2.945086743630233e-06,2.69648524613044e-06,2.6793396177252147e-06,6.094819786570921e-07,6.288705832316973e-07
-3.524615063716797e-06,3.715451491057715e-08,-7.232950926573131e-08,-1.056500446304642e-06,1.8748120288201183e-06,6.053084154228485e-07,-8.012329578986563e-07,5.47414482982947e-07,1.1988897034683476e-07,-8.192482844013025e-07,1.1791174385084015e-06,1.6700244406710475e-06,9.95238524504389e-07,3.065277635965431e-06,2.708130955466507e-06,2.985745327187475e-06,6.303970596414268e-07,7.011023052065066e-07
-3.4678964387494372e-06,1.2102940172841394e-07,-4.594446081229632e-08,-1.0069425902397306e-06,1.9002150727793326e-06,6.328015914926448e-07,-6.479183073663627e-07,5.663260798057501e-07,1.7434077056095482e-07,-7.108356281896528e-07,1.2465988892510052e-06,1.7838104086107237e-06,1.0619572601475319e-06,3.175891709848492e-06,2.6848908607595952e-06,3.249135360019068e-06,6.304283592032491e-07,7.73847997265911e-07
-3.382497263740331e-06,1.9499382864005747e-07,-1.3156135460426307e-08,-9.24413297514544e-07,1.9218685561236804e-06,6.335802695630754e-07,-5.634210982622709e-07,5.79212126676318e-07,2.2472875747684288e-07,-6.073283734840014e-07,1.3168290569529735e-06,1.8974105265221426e-06,1.1205012526353099e-06,3.273498031796523e-06,2.7180099953597374e-06,3.4248416953312737e-06,6.280047976279558e-07,8.423047415724385e-07
-3.027858926330898e-06,2.723068906784913e-07,2.1955642471503312e-08,-8.187404831420494e-07,1.946525818717617e-06,6.215348599819516e-07,-5.755215627200397e-07,5.878297585040398e-07,2.7782536054290603e-07,-5.159275025339671e-07,1.3648134647631832e-06,2.0102532789642193e-06,1.1759170922480659e-06,3.3578653333553727e-06,2.7076776736019594e-06,3.4449534118230413e-06,6.365467228431772e-07,9.026933620418901e-07
-2.5314737975864364e-06,3.4328591819353275e-07,5.439901081178713e-08,-7.299177949911417e-07,1.9787250018335594e-06,6.202825522398838e-07,-6.334024884625502e-07,5.897868624361887e-07,3.366156007806424e-07,-4.433878592739477e-07,1.4139396393109765e-06,2.1197979779192906e-06,1.2309514565730587e-06,3.4263254427508823e-06,2.614960490610222e-06,3.4001972009737525e-06,6.534797168384976e-07,9.296767018074821e-07
-2.0488295276605593e-06,3.4722839998417037e-07,7.915870535585595e-08,-6.677165244853588e-07,2.0182727164615524e-06,6.307331595466137e-07,-7.031190487598035e-07,6.096631906512933e-07,3.984211224291355e-07,-3.95327663171117e-07,1.460260578409253e-06,2.2207656611882825e-06,1.2821896836303633e-06,3.475208036132883e-06,2.5085071853805727e-06,3.487195527824305e-06,6.860689981001226e-07,8.985217570996627e-07
-1.6632029839942862e-06,3.4637028178734885e-07,9.278689592973204e-08,-6.435859956012007e-07,2.0626197548084487e-06,6.581493830828508e-07,-7.68401801923343e-07,6.444888172613522e-07,4.5629075854261673e-07,-3.7546720164516215e-07,1.4976695390589321e-06,2.305346426165317e-06,1.3245093719672106e-06,3.501943341182074e-06,2.4125323250041526e-06,3.5417000682349146e-06,7.282562878070481e-07,9.011155221290316e-07
-1.5934033218028546e-06,3.4290521921955667e-07,9.310458811122562e-08,-6.1126025488884e-07,2.108789292006265e-06,7.048742245539205e-07,-8.107904163972846e-07,7.033253166142437e-07,5.022915755532508e-07,-3.84769003140516e-07,1.5217670256874482e-06,2.365401879837878e-06,1.356726398593426e-06,3.5051076619535883e-06,2.3336629599147102e-06,3.5311825362627203e-06,7.746646433239261e-07,9.194580207967787e-07
-1.5439920026550012e-06,3.374030671460334e-07,8.089497245668492e-08,-6.243878439462194e-07,2.1547093978482933e-06,7.672211772659032e-07,-8.738340993653627e-07,7.703705598194e-07,5.316551341846138e-07,-4.205172713155698e-07,1.48953737881984e-06,2.3962050505416974e-06,1.37652218076385e-06,3.4867954314919295e-06,2.3177746448961524e-06,3.554528151560217e-06,8.210471673590809e-07,9.266376203893483e-07
-1.3188265350047703e-06,3.2621580487432815e-07,5.8907824892210916e-08,-6.496929409419669e-07,2.2000903036088426e-06,8.487799007352813e-07,-9.65768361927904e-07,8.38272648156032e-07,5.447239686601984e-07,-4.7620826530322917e-07,1.4334682924494802e-06,2.3987697068509113e-06,1.3925365888933442e-06,3.454163621331921e-06,2.3497489018405336e-06,3.5497140735765632e-06,8.728086187742529e-07,9.481779090205407e-07
-1.2290034410628444e-06,3.516159635845808e-07,2.8912583017948904e-08,-6.677533688303373e-07,2.244703711496152e-06,9.512999436748316e-07,-1.1089887951277478e-06,9.030169592446541e-07,5.451337765044883e-07,-5.427662700760675e-07,1.3722352301717246e-06,2.3793367888166895e-06,1.4027772386659006e-06,3.4166324310083196e-06,2.416898508738531e-06,3.4541998674396698e-06,9.246383451428249e-07,9.424065520215245e-07
-1.360074192280768e-06,3.274142607234615e-07,-3.993626131289097e-09,-6.908962960667987e-07,2.2866430917614894e-06,1.0641285055881543e-06,-1.288745083885845e-06,9.670868215174566e-07,5.376695402686274e-07,-6.106616330764252e-07,1.3133746134937723e-06,2.347314222781622e-06,1.4045179492358852e-06,3.381715002096787e-06,2.5061278395229026e-06,3.3351288147590366e-06,9.767866341243746e-07,9.138729941450823e-07
-1.5378892801793442e-06,2.833352979426598e-07,-3.520947208480065e-08,-7.181492492465901e-07,2.322967983307096e-06,1.1791171051145032e-06,-1.452618098923778e-06,1.032041831231895e-06,5.267515960877147e-07,-6.721429570665992e-07,1.267102527924231e-06,2.312518217403378e-06,1.40380549234681e-06,3.3543357453745366e-06,2.587463115783495e-06,3.218225839154327e-06,1.0326857547910738e-06,8.680827124992444e-07
-1.7473438556561038e-06,2.384936939363169e-07,-6.269582294520442e-08,-7.361044519099027e-07,2.3514069993529075e-06,1.2831207692828428e-06,-1.6137464125225843e-06,1.093177377558525e-06,5.151258020466977e-07,-7.231067383758387e-07,1.2391685407565069e-06,2.282069584329546e-06,1.397569481859756e-06,3.33543280189609e-06,2.6556469142620717e-06,3.16528707988834e-06,1.0917726305381695e-06,8.358899615149613e-07
-1.9711344100586957e-06,1.609862144989905e-07,-8.53363019339916e-08,-7.485121928305898e-07,2.3719647811314717e-06,1.371051306908466e-06,-1.7407042888837664e-06,1.1472150646547753e-06,5.042542562161779e-07,-7.635090948421727e-07,1.2263115650594655e-06,2.258641809747788e-06,1.3873610245236245e-06,3.32227037258519e-06,2.7137056401890197e-06,3.140165023703516e-06,1.1565578865272945e-06,7.938437535090718e-07
-2.1314995513466245e-06,8.292103803116114e-08,-1.0425686669384706e-07,-7.643793294930301e-07,2.3874674044108257e-06,1.4447567485529803e-06,-1.8352729870456542e-06,1.1949406770974785e-06,4.95129453642209e-07,-7.959092263262373e-07,1.2192461443173553e-06,2.2410345187186603e-06,1.3923578000250055e-06,3.311150127892026e-06,2.764147323964687e-06,3.114181582980804e-06,1.2266589802265376e-06,7.413202118197744e-07
-2.286018635904754e-06,1.1281190793770412e-08,-1.209313756621576e-07,-7.838871669183834e-07,2.4018812669192953e-06,1.507065511204234e-06,-1.9321159753116515e-06,1.2386310299595173e-06,4.884876639298477e-07,-8.230928232554116e-07,1.2170131133196825e-06,2.225756650230659e-06,1.4050055146342968e-06,3.2984785233506877e-06,2.810376501327394e-06,3.081733166605453e-06,1.297877196620103e-06,7.042173487230246e-07
-2.4688708941112034e-06,-3.049124768672082e-08,-1.3715008925768821e-07,-8.026911392935235e-07,2.417109267994158e-06,1.5606285722082217e-06,-2.034955690656644e-06,1.2799651973841674e-06,4.830125232513325e-07,-8.465148495069843e-07,1.2273442228538795e-06,2.2087230855510715e-06,1.415873996240186e-06,3.282826429040987e-06,2.8485202560774787e-06,3.0274941690430332e-06,1.362287806012759e-06,6.687370170755214e-07
-2.6397138464381807e-06,-7.433838178723519e-08,-1.5411144059860234e-07,-8.265274851511724e-07,2.4311626841457497e-06,1.605621087316443e-06,-2.146575265416524e-06,1.3195244611874877e-06,4.795367776675448e-07,-8.658581984818474e-07,1.2379496211693265e-06,2.1872653375109787e-06,1.4238488427392704e-06,3.265259335960676e-06,2.8666275525880795e-06,2.9934800379336316e-06,1.410274575901078e-06,6.35774133633603e-07
-2.8016349238408053e-06,-1.144884665229195e-07,-1.7264104607912735e-07,-8.525295011901735e-07,2.4419582535255176e-06,1.639793474822138e-06,-2.234205058884897e-06,1.3557280680450047e-06,4.779099686047627e-07,-8.796423175996918e-07,1.250115954138332e-06,2.1613032121027012e-06,1.4233879302404577e-06,3.2473317858884857e-06,2.852077091042064e-06,2.9740328907841733e-06,1.4343493715340255e-06,6.076308266133428e-07
-2.923973743373098e-06,-1.4230509912782174e-07,-1.9261572814017585e-07,-8.7610286229348e-07,2.4436441745876475e-06,1.6591612284024005e-06,-2.2963932765864626e-06,1.3853991087401095e-06,4.779555483662922e-07,-8.868389031065707e-07,1.2615815630028071e-06,2.1324223815889753e-06,1.4145599469090997e-06,3.2302843843893373e-06,2.7976197009950816e-06,2.963069600538187e-06,1.4310310572412255e-06,5.804135838733849e-07
-2.963467510908759e-06,-1.670846473886662e-07,-2.1342046939453712e-07,-8.942408215809895e-07,2.4312668653027883e-06,1.6622974787680146e-06,-2.3316539333237594e-06,1.4060398705134046e-06,4.79753217859997e-07,-8.88035064984271e-07,1.2682041905074125e-06,2.102345811009508e-06,1.404582648910987e-06,3.213480584693765e-06,2.7095514762145242e-06,2.9638818019791003e-06,1.402635303936412e-06,5.531605469522946e-07
-2.9246975542011817e-06,-1.6663040096571494e-07,-2.3421848610078745e-07,-9.053837462835493e-07,2.403754051900562e-06,1.6484397052296477e-06,-2.343244485472977e-06,1.4164805989255106e-06,4.817613544173368e-07,-8.853335940789136e-07,1.271455483556603e-06,2.072596570975257e-06,1.3922265404429132e-06,3.1949732753067573e-06,2.5969528933744013e-06,2.973136284056276e-06,1.3568441079426383e-06,5.447009366693168e-07
-2.8262463688268174e-06,-1.5334041393848274e-07,-2.5655770543233854e-07,-9.118907682799354e-07,2.363843738594449e-06,1.6201212004461773e-06,-2.3433923316328083e-06,1.416121164171099e-06,4.828403977931576e-07,-8.815272192759247e-07,1.2699949411701535e-06,2.0443769278003497e-06,1.3794598412106516e-06,3.173129108321023e-06,2.4690162138458952e-06,2.9894431015430397e-06,1.3037078202788793e-06,5.516191521277819e-07
-2.6976914395576784e-06,-1.3866419777335726e-07,-2.8103262465125855e-07,-9.144385181943547e-07,2.318369830829443e-06,1.5826608746640597e-06,-2.3557979020348742e-06,1.4065718271315927e-06,4.818156189874781e-07,-8.79658795515841e-07,1.26379218099781e-06,2.017607304083011e-06,1.3815104400217819e-06,3.1462926677536946e-06,2.342249549436711e-06,3.010052649567678e-06,1.2518363109512246e-06,5.636612322098971e-07
-2.574843818477923e-06,-1.3250984018872044e-07,-3.078374870215592e-07,-9.169630544071195e-07,2.2741638735402083e-06,1.5409757785350315e-06,-2.3929826466984716e-06,1.3904682038767151e-06,4.777602031038456e-07,-8.823019330381637e-07,1.2495882645601883e-06,1.9905180992149333e-06,1.3770432601143278e-06,3.1128181456185443e-06,2.24244298731805e-06,3.0298631257207593e-06,1.2065918930920049e-06,5.788730134311753e-07
-2.4806452265612224e-06,-1.3506423933339753e-07,-3.367316332170052e-07,-9.223278648404595e-07,2.23602690804775e-06,1.499795760023832e-06,-2.4184550549191066e-06,1.3707778318760652e-06,4.7070103405823303e-07,-8.902627530483284e-07,1.2296373498238229e-06,1.9606820331750267e-06,1.3696421873898471e-06,3.072725615667116e-06,2.170773087992548e-06,3.0356906708210378e-06,1.1711139803729215e-06,5.927085195409719e-07
-2.4221543439834632e-06,-1.4498921981273452e-07,-3.6540649909719067e-07,-9.31103565450504e-07,2.2056338479770357e-06,1.4625027218437609e-06,-2.440772859303452e-06,1.3501725977197953e-06,4.6252864367942297e-07,-9.022239447375201e-07,1.2053846550248848e-06,1.925955999750107e-06,1.3645645300930084e-06,3.027902581926324e-06,2.1225499099367055e-06,3.0290571868462196e-06,1.1460451900612104e-06,6.06200492802859e-07
-2.3928379049311353e-06,-1.6241229090957376e-07,-3.9195643805232844e-07,-9.441834899990639e-07,2.1789267700903135e-06,1.4291116162435794e-06,-2.4746963809260783e-06,1.3286598571174513e-06,4.542734026893388e-07,-9.15972318710376e-07,1.1783801527804583e-06,1.8845444795114828e-06,1.344484050391737e-06,2.979519310427008e-06,2.0919806984848007e-06,3.0139691441528345e-06,1.1290072916542762e-06,6.262418378142564e-07
-2.380464999098249e-06,-1.8027779103111544e-07,-4.161884623139194e-07,-9.60784686212235e-07,2.1504988914088407e-06,1.3956333901904647e-06,-2.5005547838699416e-06,1.303802062441886e-06,4.4466358336935786e-07,-9.293981849928865e-07,1.1495025583151769e-06,1.83553426727559e-06,1.3147223202959838e-06,2.927039593577376e-06,2.061718869391773e-06,2.9950360313633408e-06,1.115166941468007e-06,6.535568854906883e-07
-2.373263624954971e-06,-2.000934505303887e-07,-4.396074462854043e-07,-9.790722765569088e-07,2.114573575155948e-06,1.3560562346175305e-06,-2.4861104382047234e-06,1.2732492011024182e-06,4.3215586751765525e-07,-9.405779171049368e-07,1.1222515262597676e-06,1.7801431556193658e-06,1.2775928384232087e-06,2.869701488424496e-06,2.0229630033371273e-06,2.984267477105333e-06,1.0994331635372568e-06,6.836968530512929e-07
-2.362318207786388e-06,-2.1672173149696607e-07,-4.6373739850383863e-07,-9.950077149066893e-07,2.0666182121751116e-06,1.3047905691825519e-06,-2.4233530135985165e-06,1.236489295866157e-06,4.16086661952538e-07,-9.47523132969859e-07,1.0964812686238665e-06,1.7219241707034822e-06,1.2169344083649438e-06,2.8075693256864927e-06,1.9736515856007864e-06,2.990623144809118e-06,1.0777425289732112e-06,7.191285599803678e-07
-2.3402278280923285e-06,-2.2476285886329714e-07,-4.900341903021681e-07,-1.0046940223287458e-06,2.006152128036079e-06,1.237405046724605e-06,-2.2981021932211864e-06,1.1938479475960138e-06,3.964688838309225e-07,-9.484024950222622e-07,1.0703037438630333e-06,1.6656107442721358e-06,1.1383113704104473e-06,2.740823081347367e-06,1.9063288443904598e-06,3.020929362409925e-06,1.0468636179468157e-06,7.506386892510332e-07
-2.298065814676233e-06,-2.1985065677229759e-07,-5.193459800879821e-07,-1.0055511066350956e-06,1.933971796615424e-06,1.1514578503624176e-06,-2.0625222664407356e-06,1.1467799254267954e-06,3.852030327035106e-07,-9.417121394226037e-07,1.0408774043043477e-06,1.6163402821502767e-06,1.0534122756357015e-06,2.6715078114370506e-06,1.8218947522899242e-06,3.0774177004641654e-06,1.0057913129209508e-06,7.818692876297812e-07
-2.2257236201270713e-06,-1.991396403218464e-07,-5.50373868792828e-07,-9.96274399360193e-07,1.8548254579043785e-06,1.0491954235240793e-06,-1.9794093357117382e-06,1.0994742351772434e-06,3.7307884481044096e-07,-9.261631435051791e-07,1.0211192671470339e-06,1.579367209048336e-06,9.644350562104906e-07,2.6043451285140406e-06,1.7310764285361942e-06,3.154356019295809e-06,9.572440304210954e-07,8.192842328891073e-07
-2.114126125009656e-06,-1.6306740005718212e-07,-5.798207784444338e-07,-9.70480681016365e-07,1.7763405730969907e-06,9.381361963923229e-07,-1.8250706573091906e-06,1.0579914245951714e-06,3.670133713573436e-07,-9.013789777395718e-07,1.0127621764602738e-06,1.5584615913725102e-06,8.800021832002291e-07,2.544091960873547e-06,1.6523586141508092e-06,3.2392244622105972e-06,9.085969177236683e-07,8.622211369961573e-07
-1.9598119545563196e-06,-1.1296677610261396e-07,-6.040941998441415e-07,-9.307163558428206e-07,1.7092229345145143e-06,8.288350458683739e-07,-1.5981068608559225e-06,1.02656491268963e-06,3.7594876543032243e-07,-8.68914922761995e-07,1.0203834850280943e-06,1.5535206500189127e-06,8.07711845974298e-07,2.493842780408288e-06,1.5951443216217056e-06,3.3157220470910953e-06,8.668511612991577e-07,9.030613248227864e-07
-1.7687656489296888e-06,-5.4095825961319116e-08,-6.211862514526094e-07,-8.975188514912871e-07,1.6613093012236536e-06,7.311014219839173e-07,-1.4187958502131464e-06,1.0048471184603337e-06,3.9708431531224524e-07,-8.319323467312705e-07,1.0425548518285191e-06,1.560460548896816e-06,7.450836093053069e-07,2.4538603322408432e-06,1.5673581913161697e-06,3.3715489726798752e-06,8.3690731479293e-07,9.378802464333214e-07
-1.552608995009202e-06,1.0020954150847462e-08,-6.307240696164881e-07,-8.712041453516611e-07,1.634049200627475e-06,6.512748284607615e-07,-1.2668456706532188e-06,9.890434398023135e-07,4.319730536222074e-07,-7.932862544353592e-07,1.071339758910953e-06,1.5738923604341371e-06,6.912195569298218e-07,2.422849276514405e-06,1.5718381484667717e-06,3.403705522857468e-06,8.217824406428761e-07,9.595385202383776e-07
-1.3225657338779818e-06,8.139956370178403e-08,-6.323139577647631e-07,-8.349021785955398e-07,1.6258707742887553e-06,5.913684477438586e-07,-1.1130229221105659e-06,9.732269281388508e-07,4.804198223957299e-07,-7.545322992063356e-07,1.1053464441064908e-06,1.5894715450598363e-06,6.461519305684143e-07,2.3990021222627053e-06,1.6053428727469477e-06,3.4211375636393144e-06,8.213517686486583e-07,9.72116478003896e-07
-1.0863306160553826e-06,1.6021117769307344e-07,-6.268508831407183e-07,-8.087201418776223e-07,1.6308975059208062e-06,5.493721956751826e-07,-1.0582006438302564e-06,9.54444385567185e-07,5.386473551248282e-07,-7.16421734157122e-07,1.1483574057920188e-06,1.6041774976028404e-06,6.010713832997533e-07,2.3790345313613722e-06,1.6593203789847194e-06,3.4361520241206826e-06,8.319211646857821e-07,9.824911341839865e-07
-8.496651331559495e-07,2.489638070617602e-07,-6.165203747943256e-07,-7.946535378575607e-07,1.6392749492969827e-06,5.210342407391103e-07,-1.1872125246089105e-06,9.325818984905584e-07,5.83733448885916e-07,-6.792883919008061e-07,1.2144260445038023e-06,1.6160062657122146e-06,5.665425116445809e-07,2.3583084286542216e-06,1.7145378958064912e-06,3.453416469611536e-06,8.467028738352559e-07,1.0236445634783763e-06
-6.203860869529262e-07,3.511378598001193e-07,-6.041940371265429e-07,-7.864878113778748e-07,1.642947138211198e-06,5.022286052708908e-07,-1.1280749161329072e-06,9.116599669179113e-07,6.457660213990269e-07,-6.421766880805275e-07,1.2922843754494089e-06,1.6241575819585925e-06,5.368643371938121e-07,2.3333686892836123e-06,1.7704512470582584e-06,3.4766327842453586e-06,8.577317814946431e-07,1.067502278555569e-06
-4.104284822247679e-07,4.705095784389633e-07,-5.94244820854484e-07,-8.3748067838622e-07,1.6410984747959603e-06,4.898589268906714e-07,-1.0650094707581553e-06,8.968189277083508e-07,7.269460408024475e-07,-6.018797761573188e-07,1.399721574818338e-06,1.6290926748956176e-06,5.070962531721804e-07,2.3039987621936485e-06,1.759233159916195e-06,3.509043040495266e-06,8.569253898978924e-07,1.0816470896281249e-06
-2.3644554743195898e-07,6.081332286441627e-07,-5.910795447597655e-07,-9.306457743066357e-07,1.624352310385603e-06,4.805982641834584e-07,-1.070219678587989e-06,8.913018480207599e-07,8.198848006180592e-07,-5.536549140468634e-07,1.4981829930060617e-06,1.6324742423840667e-06,4.81279631763876e-07,2.2727669863685745e-06,1.744768542074695e-06,3.554232663861181e-06,8.379750938417444e-07,1.0664743465816173e-06
-1.1605762331719833e-07,7.467513778981516e-07,-5.986281015800438e-07,-9.896542573938578e-07,1.5936253493555118e-06,4.70278077179159e-07,-1.0942803432827205e-06,9.007530934267076e-07,9.337293212908075e-07,-4.930593077875466e-07,1.5877617952671992e-06,1.6372938553674588e-06,4.5862120937021513e-07,2.2443166409250617e-06,1.6804107898395578e-06,3.6160987077370572e-06,7.983142276622443e-07,1.0349652914532493e-06
-6.38777795226637e-08,8.842458506863397e-07,-6.198749348627723e-07,-1.0104315508735425e-06,1.5245354227624255e-06,4.545702809035504e-07,-1.1456988745841104e-06,9.220620812878623e-07,1.0567115803775934e-06,-4.1843508566768737e-07,1.664950170669335e-06,1.6469109596180862e-06,4.431833961612226e-07,2.223792639695019e-06,1.4821839394633368e-06,3.6938634293431675e-06,7.398863119792582e-07,1.0470488085822235e-06
-8.371972109444545e-08,1.0040884539615397e-06,-6.542421938446037e-07,-1.0659231487987385e-06,1.3962753245264313e-06,4.291449905919339e-07,-1.2576212189177159e-06,9.614058219355433e-07,1.1606403635031468e-06,-3.3355726471887247e-07,1.731479669730015e-06,1.6624149161979623e-06,4.4114683892466666e-07,2.213873260564843e-06,1.291159297201434e-06,3.779874401502364e-06,6.679194743023888e-07,1.0717760889391568e-06
-1.64298282137455e-07,1.122872749738861e-06,-6.976379843365339e-07,-1.185428460959345e-06,1.2550333330137683e-06,3.8971093477239284e-07,-1.3905397404099434e-06,1.0257223986472788e-06,1.2444809126230344e-06,-2.478842365225201e-07,1.8341194576783443e-06,1.6808645173423087e-06,4.487329385622455e-07,2.2132589333462083e-06,1.0628928293115925e-06,3.859053222823487e-06,5.891525440337927e-07,1.0800609747283034e-06
-2.8134841931569484e-07,1.1876937201258417e-06,-7.439276584547931e-07,-1.3133698546335757e-06,1.1321226251390758e-06,3.334234732726388e-07,-1.5151968502197925e-06,1.0328393993974842e-06,1.2837656085048558e-06,-1.7327283291071544e-07,1.9222432700397953e-06,1.696672127406374e-06,4.5379208480464824e-07,2.2176082495813622e-06,8.299916123754264e-07,3.914439231009828e-06,5.112477856928808e-07,1.0684306910028071e-06
-4.054366487701981e-07,1.1897003189557902e-06,-7.866496381791332e-07,-1.381179180845387e-06,1.0180145388423152e-06,2.60609367613501e-07,-1.5863353902468292e-06,9.967455416464395e-07,1.300255829790769e-06,-1.1939106408990244e-07,1.98908389480959e-06,1.7045276636384676e-06,4.4974906035772646e-07,2.222002994956177e-06,6.195052261980559e-07,3.934522151541978e-06,4.416183514759004e-07,1.0601756272834806e-06
-5.131227548561093e-07,1.2118787448152465e-06,-8.212719079617607e-07,-1.4324858558511596e-06,9.289494904634747e-07,1.7507226914643412e-07,-1.6319811227682793e-06,9.50182876693015e-07,1.3413855774997662e-06,-9.072741256567746e-08,2.028182680495988e-06,1.7013498316314713e-06,4.3172788014742095e-07,2.2228011812645806e-06,3.772885772484404e-07,3.917570083178274e-06,3.848330729142321e-07,1.036292055691302e-06
-5.934062637722421e-07,1.2626266638882964e-06,-8.466774337733568e-07,-1.430658567871047e-06,8.708800253293254e-07,8.297286745260012e-08,-1.6724499024045627e-06,8.697085891247664e-07,1.404825253813321e-06,-8.58344995673058e-08,2.0801380120309726e-06,1.6873675146214164e-06,3.980800260347845e-07,2.21857261598562e-06,1.9688490962161002e-07,3.871399708661828e-06,3.4295922097996346e-07,1.0379985869974813e-06
-6.484587916627871e-07,1.3036403531651192e-06,-8.63983560870484e-07,-1.4552302074382695e-06,8.274115420725736e-07,-7.904849093485516e-09,-1.7060828230580894e-06,7.607552068194842e-07,1.4076339145695897e-06,-9.817515890665333e-08,2.132790482931983e-06,1.666729595765564e-06,3.52439562958327e-07,2.2115262577910205e-06,6.244153753799979e-08,3.810568942554918e-06,3.1731034036719507e-07,1.059884637510823e-06
-6.86422313594113e-07,1.3353806040392853e-06,-8.744735586082395e-07,-1.4946420626340854e-06,8.033510285705461e-07,-8.922390496964205e-08,-1.7355655881243187e-06,6.488850585098795e-07,1.3797860763220663e-06,-1.1860571712807933e-07,2.1919807532566454e-06,1.64613415729502e-06,3.0224547417645003e-07,2.2066597071830155e-06,-3.9388066348168985e-08,3.752188088995977e-06,3.085826561444481e-07,1.0525960950798562e-06
-7.146271503542583e-07,1.327506809657628e-06,-8.782366954670115e-07,-1.4600561273923088e-06,7.983597486880987e-07,-1.546338548875001e-07,-1.726192380361318e-06,5.889089035242123e-07,1.3371885071674148e-06,-1.3900802035720877e-07,2.235361448079096e-06,1.6313326123200201e-06,2.5287500820838124e-07,2.2078779577474363e-06,-7.680646586262862e-08,3.708591009319868e-06,3.149122834152754e-07,1.0372474222721092e-06
-7.357963870658627e-07,1.2897966073380686e-06,-8.757417725067166e-07,-1.4312353919938302e-06,8.098066531417565e-07,-2.0182624272016745e-07,-1.6889441831514587e-06,5.677922872480896e-07,1.2994268578610997e-06,-1.550504067291357e-07,2.2598341170135067e-06,1.6246400284023936e-06,2.0600573816706145e-07,2.2152981415386635e-06,-8.118699374665287e-08,3.683906035654534e-06,3.309055101229152e-07,9.975955818986138e-07
-7.482060224306535e-07,1.2481878388072672e-06,-8.679483345571612e-07,-1.3821962381437114e-06,8.372957481114177e-07,-2.3188684568221874e-07,-1.6468093199380709e-06,5.746432938556852e-07,1.2614799549860984e-06,-1.664083117708331e-07,2.2818780460464643e-06,1.625435976437527e-06,1.6112955516768255e-07,2.226143644447844e-06,-7.130568629054452e-08,3.6760551702929913e-06,3.498010644783678e-07,9.799972767610428e-07
-7.490709664896766e-07,1.202334229946317e-06,-8.557460232669099e-07,-1.3139216813225133e-06,8.749230524414542e-07,-2.4729769485841193e-07,-1.6183255892973914e-06,5.904485719598813e-07,1.2398854602161374e-06,-1.7529959940709575e-07,2.2854841029874046e-06,1.6316502100761669e-06,1.2081071701777646e-07,2.236718743983379e-06,-5.236663205452012e-08,3.6775564818226835e-06,3.6448917766931467e-07,9.744843576901898e-07
-7.367166205556881e-07,1.1639458053906067e-06,-8.399768579372573e-07,-1.2494833845046041e-06,9.180268332068007e-07,-2.511279034534644e-07,-1.6181655339554293e-06,6.097978266588573e-07,1.2321754962055892e-06,-1.850757991378937e-07,2.2682636395593372e-06,1.6403414459726326e-06,8.613042877142738e-08,2.2432995892374397e-06,-3.214002909708323e-08,3.6792959766780095e-06,3.7228965425711883e-07,9.692894961116112e-07
-7.122213009051143e-07,1.15384937902102e-06,-8.218009070272543e-07,-1.1818242748900394e-06,9.640076311066633e-07,-2.4674219013036997e-07,-1.6551291058246502e-06,6.323340247144769e-07,1.2263539094241003e-06,-1.985366747778161e-07,2.250474391410535e-06,1.6484266327797504e-06,6.339825189453837e-08,2.243337934715021e-06,-1.733135466294648e-08,3.674237299580725e-06,3.711334398500096e-07,9.658020555386798e-07
-6.791867558771713e-07,1.1246970115446348e-06,-8.025803567986973e-07,-1.1287383763535577e-06,1.0101313346074328e-06,-2.368657873277687e-07,-1.7351566226591597e-06,6.53904658938561e-07,1.2187073959600442e-06,-2.1631798608436805e-07,2.2275552187089556e-06,1.6540132167039198e-06,4.993393377825387e-08,2.2370049776704898e-06,-7.389155546005558e-09,3.6602513303730526e-06,3.614876215191748e-07,9.489154821811708e-07
-6.418172935062346e-07,1.075008319779173e-06,-7.831477268468082e-07,-1.0838438873491747e-06,1.0543288248435946e-06,-2.2343112312816824e-07,-1.8429997472467962e-06,6.757208408474435e-07,1.2028552191654724e-06,-2.3630320060410658e-07,2.199686069181844e-06,1.656487290899507e-06,4.070410603319814e-08,2.22668878332797e-06,-3.7533969044842285e-09,3.6407727337885504e-06,3.46429242012186e-07,9.326096772006153e-07
-6.042196391902053e-07,1.0140946634357866e-06,-7.647854560812748e-07,-1.0559566952981696e-06,1.0940465626091996e-06,-2.0908503663758665e-07,-1.9679673439062103e-06,6.932139822131252e-07,1.1809923800756084e-06,-2.563839723674991e-07,2.174635569400039e-06,1.6551581902631477e-06,3.2298503906177725e-08,2.21428774620607e-06,-1.039601500813256e-08,3.622944863572442e-06,3.2726928367458454e-07,9.193504354129357e-07
-5.703332882384291e-07,9.670805709622807e-07,-7.494306530083531e-07,-1.0421440501585195e-06,1.1248760642495258e-06,-1.9801790329990725e-07,-2.088176708907038e-06,7.019267087101342e-07,1.153731615431333e-06,-2.7477654344270996e-07,2.1493840640296414e-06,1.648829451678367e-06,1.911936940573462e-08,2.1988970625484894e-06,-2.714942272409654e-08,3.613217564591297e-06,3.037541364665119e-07,9.025133658461223e-07
-5.444702256251742e-07,9.280586603402804e-07,-7.394088724701708e-07,-1.038827666199305e-06,1.1433223818442565e-06,-1.941131837323677e-07,-2.1818453009169983e-06,7.009947555113774e-07,1.1213136141688338e-06,-2.910891007923534e-07,2.122388787968226e-06,1.636803247770111e-06,-1.5005401204321572e-10,2.1787027320570055e-06,-5.104777867170783e-08,3.612796206686446e-06,2.7458799672083103e-07,8.839025383057228e-07
-5.32221221453108e-07,8.949962198125574e-07,-7.365634130833241e-07,-1.039844516442918e-06,1.1489283681860223e-06,-1.987191224664349e-07,-2.2413840400473017e-06,6.928597512280425e-07,1.0866078315476094e-06,-3.070943803621963e-07,2.0784564924088097e-06,1.619279704245642e-06,-2.3694933070978208e-08,2.1514169351829756e-06,-8.110019492606686e-08,3.616762715099835e-06,2.3819023230594019e-07,8.6576247213713e-07
-5.409893574779098e-07,8.73372396683309e-07,-7.421151454595572e-07,-1.0430908392549812e-06,1.144634801760599e-06,-2.1000817254802248e-07,-2.261806005240684e-06,6.82901221581724e-07,1.0510271683204386e-06,-3.2620662321890903e-07,2.0191148873837116e-06,1.5969117753733039e-06,-4.774632101144848e-08,2.1130827347196337e-06,-1.1339827019252352e-07,3.611725019327662e-06,1.9248342695660277e-07,8.419708053327313e-07
-5.785460390710172e-07,8.466677227298053e-07,-7.562634602332018e-07,-1.0504455504442836e-06,1.1361016632373232e-06,-2.2284523380256306e-07,-2.2503110840130026e-06,6.784011972667022e-07,1.015021294521691e-06,-3.5239140144144254e-07,1.949832331822678e-06,1.5712750518535637e-06,-6.807452419240157e-08,2.061527612594372e-06,-1.4226787654156072e-07,3.58242391863837e-06,1.3815022723801528e-07,8.159356196772935e-07
-6.488246405130814e-07,8.243975933542587e-07,-7.771952165194087e-07,-1.0592195415234168e-06,1.130058957744321e-06,-2.3049506603328781e-07,-2.21914804946548e-06,6.865075411167317e-07,9.820860728846158e-07,-3.8739329920100656e-07,1.8911578456083158e-06,1.545731474746942e-06,-7.750186197109466e-08,1.998981403152967e-06,-1.6173987557519232e-07,3.5200182516035504e-06,8.003966978473916e-08,7.731672333931497e-07
-7.45375515158423e-07,8.056804798866833e-07,-8.008561975629845e-07,-1.0682898939004817e-06,1.1342178315411468e-06,-2.2776645769016164e-07,-2.1828336219084885e-06,7.108963295190431e-07,9.560069785882076e-07,-4.2944625318345896e-07,1.840895883805838e-06,1.524337333622903e-06,-7.224273345783521e-08,1.9323640629068366e-06,-1.6830696698916995e-07,3.4282185147832434e-06,2.508114305526845e-08,7.171903906935258e-07
-8.56022837907327e-07,7.853624708834643e-07,-8.22492192803602e-07,-1.0724961303903556e-06,1.1517566130525372e-06,-2.122796094522438e-07,-2.153651273209213e-06,7.508096042633233e-07,9.383024993878727e-07,-4.742174886746151e-07,1.7900740145435423e-06,1.5093673296164707e-06,-5.4338846337743e-08,1.8695121613090078e-06,-1.6569021207331983e-07,3.32088724102398e-06,-2.1158007639869582e-08,6.625643602935044e-07
-9.623167163303235e-07,7.576450763086278e-07,-8.382750761612305e-07,-1.0709133063624439e-06,1.1791559684995155e-06,-1.8646877571194798e-07,-2.139253682871617e-06,7.995043902338344e-07,9.272210957181229e-07,-5.172377151358683e-07,1.7438168575198008e-06,1.5005183625533946e-06,-2.9219172568034225e-08,1.8157838935285686e-06,-1.6102032256827467e-07,3.2195961104859675e-06,-5.6608210744596535e-08,6.15933683386895e-07
-1.044781560779104e-06,7.264900240899228e-07,-8.459972342230498e-07,-1.0647228765309416e-06,1.2097139077345664e-06,-1.570227608040092e-07,-2.14131156734906e-06,8.483840789344928e-07,9.197060503234852e-07,-5.549257628984134e-07,1.7031753812199092e-06,1.4962064907211636e-06,-6.9477322026590095e-09,1.7736885662277086e-06,-1.577572538951182e-07,3.141039268367458e-06,-8.162732432336722e-08,5.830212847616987e-07
-1.090580088320524e-06,6.939139918422887e-07,-8.450472136916909e-07,-1.0582219694073486e-06,1.237116091390827e-06,-1.29472368871168e-07,-2.1536328818154477e-06,8.913725822196197e-07,9.167194666540748e-07,-5.851264503371001e-07,1.6726862505104062e-06,1.4944424647938813e-06,1.143423608556632e-08,1.7433089139348795e-06,-1.6128101846300368e-07,3.0925997564058916e-06,-9.708445342193742e-08,5.763726835976386e-07
-1.094553240364211e-06,6.662504572250824e-07,-8.363615310343497e-07,-1.0540883856973723e-06,1.2569724959030005e-06,-1.0713729529508074e-07,-2.1694606813316974e-06,9.244851376855916e-07,9.158415291883083e-07,-6.078751605200308e-07,1.6514804866451803e-06,1.4926054011207728e-06,2.5318856631023555e-08,1.7225928893846071e-06,-1.6945668552670195e-07,3.071799906597399e-06,-1.0694064716685527e-07,5.767128199975827e-07
-1.0597481529716882e-06,6.377786493052272e-07,-8.230242368747318e-07,-1.0545832395904954e-06,1.2663445439634586e-06,-9.300799282953725e-08,-2.1837162796127824e-06,9.451880414003947e-07,9.116143122283913e-07,-6.248991369201971e-07,1.6344181472416117e-06,1.4879370486012042e-06,3.18428087261295e-08,1.7079613789933188e-06,-1.8676447353205108e-07,3.0677599784875885e-06,-1.153879466395052e-07,5.842774888214639e-07
-9.993096368043977e-07,6.065953710247107e-07,-8.090623572900538e-07,-1.0625334496715469e-06,1.2657714463820724e-06,-8.827926903547378e-08,-2.1975207039988695e-06,9.532098874695557e-07,9.041580544538508e-07,-6.386427684044107e-07,1.6188373181013612e-06,1.4789516613614824e-06,3.304231134842849e-08,1.696899007192793e-06,-2.1728660690869666e-07,3.068148227495166e-06,-1.2506305575408368e-07,5.974007097583377e-07
-9.256004249753745e-07,5.747246486886748e-07,-7.974501517526265e-07,-1.0785153977821515e-06,1.2564824853498319e-06,-9.194634823961483e-08,-2.2084694075039793e-06,9.504306017569486e-07,8.938363969231709e-07,-6.505290702061023e-07,1.5923362869310558e-06,1.4658856931510608e-06,2.995591484511239e-08,1.6880916725442672e-06,-2.5916090946093136e-07,3.065398447706784e-06,-1.3729342576705336e-07,6.112811731436918e-07
-8.52389294123306e-07,5.410275747492396e-07,-7.897422399995163e-07,-1.1017800413935392e-06,1.2401788307429113e-06,-1.0269730107197519e-07,-2.1988455476665194e-06,9.399155149198329e-07,8.810318358040404e-07,-6.613375419965719e-07,1.5612239687167352e-06,1.4501263906536038e-06,2.337092054813411e-08,1.680935879807981e-06,-3.100674684547192e-07,3.057106814709774e-06,-1.5183202037326696e-07,6.227715887698446e-07
-7.919265127657627e-07,5.086946032674515e-07,-7.858940607498478e-07,-1.129831996063413e-06,1.2198879978408745e-06,-1.1860121677880707e-07,-2.173695554659704e-06,9.236516157652071e-07,8.671352466882764e-07,-6.720416896480895e-07,1.5231575752405707e-06,1.434388943145283e-06,1.4250672396087232e-08,1.6758389043091757e-06,-3.638485743576995e-07,3.0452481712326795e-06,-1.682196750519219e-07,6.356906769347516e-07
-7.552901020301091e-07,4.776491595620048e-07,-7.837871276073611e-07,-1.157658846539862e-06,1.199808671215925e-06,-1.3542073975703746e-07,-2.1366977454297697e-06,9.068905414637344e-07,8.514172824992482e-07,-6.833662003490265e-07,1.47882778616857e-06,1.4231723011611463e-06,6.907255615090599e-09,1.6744196558228229e-06,-4.1097239290074773e-07,3.0327083533415634e-06,-1.8254562720830083e-07,6.493493330559679e-07
-7.427947903741335e-07,4.4668116035224866e-07,-7.800317658413897e-07,-1.1794882089991987e-06,1.1860145157336936e-06,-1.4772257933974157e-07,-2.1046523418052757e-06,8.949425763454918e-07,8.351799421290169e-07,-6.961835410289711e-07,1.4484501762723595e-06,1.4211796990707253e-06,5.324614326288744e-09,1.6786845547150517e-06,-4.393850680107997e-07,3.026630566022383e-06,-1.9088372821390652e-07,6.626654578301541e-07
-7.499177244030815e-07,4.1433141717990835e-07,-7.720455403677257e-07,-1.1908711405518462e-06,1.181078242313396e-06,-1.5208782945155008e-07,-2.0840077961901875e-06,8.903954969596717e-07,8.212670767410379e-07,-7.116693458176335e-07,1.4265001280520314e-06,1.4303472636896112e-06,9.402971905936514e-09,1.6887751758804726e-06,-4.441143185944405e-07,3.0289343767307015e-06,-1.9150132337463867e-07,6.767824460983415e-07
-7.718014847774452e-07,3.817395832671745e-07,-7.59684730770209e-07,-1.1908669815612503e-06,1.1843630691519262e-06,-1.4904559835917553e-07,-2.0744700084970095e-06,8.924612075069218e-07,8.085063041242881e-07,-7.315072613384405e-07,1.4081334121880127e-06,1.4488666586212684e-06,2.032123986039437e-08,1.7024520115161132e-06,-4.2477401922178735e-07,3.0378737844900424e-06,-1.8561045850532906e-07,6.85467661692654e-07
-8.002978166862677e-07,3.4647129852659017e-07,-7.446960377139082e-07,-1.1820593695528203e-06,1.1922580321369447e-06,-1.4207454764457342e-07,-2.074327356738785e-06,8.973540995457801e-07,7.952373996042475e-07,-7.555470401134026e-07,1.387366142219471e-06,1.472879133450059e-06,4.5491863004923644e-08,1.717779723281104e-06,-3.9058475752110864e-07,3.0542509944490507e-06,-1.7587844502605741e-07,6.999235675019152e-07
-8.290394557575588e-07,3.076319082455026e-07,-7.29401706880596e-07,-1.1691238192605396e-06,1.1990052454755086e-06,-1.3584075342634817e-07,-2.0730838970145233e-06,9.008257080945998e-07,7.81080629475942e-07,-7.809797172209919e-07,1.3667161683998893e-06,1.4982018097053832e-06,7.940795293018467e-08,1.7346172453583488e-06,-3.5117158470808965e-07,3.0784278442920127e-06,-1.647144928851286e-07,7.165443743006891e-07
-8.41121130714372e-07,2.6773459154146105e-07,-7.149882265927962e-07,-1.1565141970243719e-06,1.198931243808161e-06,-1.3566495976594762e-07,-2.0643646315359955e-06,8.966935923086733e-07,7.650369586637854e-07,-8.028344105583388e-07,1.3494611131619582e-06,1.5211491357415381e-06,1.1057079046209265e-07,1.7535400243092972e-06,-3.1837541395031385e-07,3.1323380999920165e-06,-1.5462760847284487e-07,7.438250364259288e-07
-8.289502019377524e-07,2.2929173898799984e-07,-7.023135351663188e-07,-1.1476069181776435e-06,1.1875749373739713e-06,-1.473807094239337e-07,-2.0396744721825964e-06,8.820462123463741e-07,7.472148183751413e-07,-8.168397427020038e-07,1.3369261956939103e-06,1.5398800763716268e-06,1.2545328178853774e-07,1.7752204071875962e-06,-3.016063960310875e-07,3.2116005186526586e-06,-1.4848737562319643e-07,7.829351357088927e-07
-7.83181113611789e-07,1.963679710381347e-07,-6.909879243686849e-07,-1.1434178092185038e-06,1.1632817894326342e-06,-1.7256832091883732e-07,-1.9987204521857095e-06,8.580164295347404e-07,7.303010590417211e-07,-8.201920340905523e-07,1.3311965060151897e-06,1.5556062048911537e-06,1.2260621083487726e-07,1.8007648079449109e-06,-2.980675895408924e-07,3.3150504568966908e-06,-1.4478273426867834e-07,8.345690409052916e-07
-7.012805914824009e-07,1.7396475939527577e-07,-6.78887849029617e-07,-1.1422358193685047e-06,1.1315408822238108e-06,-2.0680479993314498e-07,-1.9365440126824095e-06,8.30470457603406e-07,7.172684083628669e-07,-8.128014914383218e-07,1.3293315313164806e-06,1.57111782870869e-06,1.077785623696888e-07,1.8303788165793029e-06,-3.029908606418036e-07,3.408436712509317e-06,-1.2836268332690195e-07,9.067152098001907e-07
-5.9080754000844e-07,1.6136600364710837e-07,-6.64120447365584e-07,-1.1413162018783378e-06,1.1005884642891137e-06,-2.41961377599145e-07,-1.8713040744770108e-06,8.069385344398696e-07,7.096913429716174e-07,-7.988248526502823e-07,1.3296032297102957e-06,1.5873641045101036e-06,9.189171367532384e-08,1.860928102917692e-06,-3.098869116112237e-07,3.467519772670327e-06,-1.1371106679532898e-07,9.792015408617734e-07
-4.868994888242768e-07,1.5769291556441132e-07,-6.462775869172156e-07,-1.1384536706917562e-06,1.0785061852829099e-06,-2.7016427163850007e-07,-1.8181588246984953e-06,7.942884827801783e-07,7.056232803297598e-07,-7.85668041171825e-07,1.3275847459081583e-06,1.6010833764191166e-06,8.473650143598137e-08,1.8882717111560317e-06,-3.116296015053039e-07,3.4377455611353937e-06,-1.0325816642823e-07,1.0336333578364437e-06
-4.2034626183373794e-07,1.5765991046760913e-07,-6.26401359561943e-07,-1.1326438637349753e-06,1.0705026001849713e-06,-2.8306980247299265e-07,-1.7494565786802907e-06,7.980907918466102e-07,7.006496345590581e-07,-7.795171428068573e-07,1.3183501861496844e-06,1.610127772970403e-06,8.537107547013998e-08,1.9057355300367506e-06,-3.054609761030623e-07,3.2707125125585873e-06,-9.890109037782852e-08,1.0502637805122326e-06
-4.24330184358287e-07,1.5449448217861708e-07,-6.057420325555364e-07,-1.1230601216431104e-06,1.078838337569607e-06,-2.749477237416036e-07,-1.6925943280733061e-06,8.214983754016425e-07,6.930431113167995e-07,-7.878606120459578e-07,1.3022891839659297e-06,1.6097023427040562e-06,9.37758928861905e-08,1.90966180397012e-06,-2.947322652319339e-07,3.163620274239402e-06,-1.0680371122490302e-07,1.0630764517564661e-06
-5.301401547569027e-07,1.444225047425862e-07,-5.861633583984923e-07,-1.114031773103794e-06,1.102311438705263e-06,-2.450531976862638e-07,-1.6914686434894039e-06,8.636004681929494e-07,6.775589300943862e-07,-8.082166657392258e-07,1.27964303935426e-06,1.594630381567606e-06,1.0506453427617885e-07,1.898206079602646e-06,-2.872457723917699e-07,3.0374876492782572e-06,-1.2200080489999645e-07,1.0898195061152163e-06
-7.450088913926182e-07,1.237001291149658e-07,-5.698631789722465e-07,-1.1084295159407316e-06,1.1336061306895046e-06,-2.0000396076001266e-07,-1.7403760204103777e-06,9.166059814172273e-07,6.457881576070303e-07,-8.401031959935542e-07,1.2487607415806229e-06,1.5619253405255111e-06,1.235269120607265e-07,1.8681375723325706e-06,-2.8880738468114365e-07,2.900378727161103e-06,-1.4549831776277547e-07,1.1098793719342413e-06
-1.0218143566417123e-06,9.117189455581993e-08,-5.589759804652401e-07,-1.1097705747340592e-06,1.1641194113302071e-06,-1.4781941939629952e-07,-1.796948308128936e-06,9.645869506075945e-07,6.07596752812985e-07,-8.823248957081634e-07,1.2115401075296587e-06,1.5114451589566023e-06,1.450186530778654e-07,1.8210035905889777e-06,-3.0747457054320487e-07,2.7289566408058454e-06,-1.7870027656384424e-07,1.0903015648834883e-06
-1.3353590586890578e-06,4.9043155372893686e-08,-5.550768377183585e-07,-1.1197059975851974e-06,1.1828883181688705e-06,-1.0238962261266921e-07,-1.8020254142641444e-06,9.97673666005522e-07,5.638578206335381e-07,-9.295131618145801e-07,1.166479904363997e-06,1.4473631594130372e-06,1.5450152522214062e-07,1.7606645667421062e-06,-3.424861527368463e-07,2.4754456465555433e-06,-2.2277228978682878e-07,1.0574642095597225e-06
-1.646087241058295e-06,2.864861275540471e-09,-5.587809456224319e-07,-1.1406023444041651e-06,1.187080678950048e-06,-7.591935515081813e-08,-1.6857620026431128e-06,1.0090739128447523e-06,5.100886063145611e-07,-9.760771991076753e-07,1.1161613491303023e-06,1.3782272824359002e-06,1.6518611476607846e-07,1.6919907292989258e-06,-3.868979593497549e-07,2.2412330237207923e-06,-2.710720849752051e-07,1.015253601756434e-06
-1.8348808378676957e-06,-5.251977208353001e-08,-5.700868053066815e-07,-1.1770449051183359e-06,1.173142925032063e-06,-8.021967573243193e-08,-1.5237561057913787e-06,9.88064528371441e-07,4.7232702996317966e-07,-1.0164087068956985e-06,1.0657465871795684e-06,1.3132030808236651e-06,1.801511565444938e-07,1.621261206646313e-06,-4.295903643419204e-07,2.1883924111591505e-06,-3.185252627522099e-07,9.854506165717203e-07
-1.8075474476993184e-06,-1.0232094552507532e-07,-5.877948261252281e-07,-1.225651774326348e-06,1.146744448608812e-06,-1.1676435789434225e-07,-1.4110231689394185e-06,9.335887320274183e-07,4.6797891607152137e-07,-1.0415600895380132e-06,1.0201104212101567e-06,1.2599443259542048e-06,2.03223518916208e-07,1.5588404023768801e-06,-4.5418468863916743e-07,2.125759452513368e-06,-3.330608652092623e-07,9.749244922556704e-07
-1.5569323022948936e-06,-1.3585942193584246e-07,-6.086350561975641e-07,-1.2891781981063702e-06,1.1121194671411912e-06,-1.659713585328976e-07,-1.3474012137117873e-06,8.63997946767578e-07,4.938365110553778e-07,-1.0478030339884646e-06,9.826082821702315e-07,1.2260690260172957e-06,2.488242634607281e-07,1.5125178659842788e-06,-4.4515802561110323e-07,2.083536277161332e-06,-3.079047436303242e-07,9.800414992894822e-07
-1.3233993620480343e-06,-1.6830061459293338e-07,-6.288408742827862e-07,-1.3349874105715234e-06,1.0792808415750304e-06,-2.1697943409917288e-07,-1.3361765436895267e-06,7.965287796484863e-07,5.06088834491611e-07,-1.045304366607582e-06,9.330639241950721e-07,1.2135218543983246e-06,3.2957084018213954e-07,1.486597242848861e-06,-3.894781192415687e-07,2.082529250825957e-06,-2.6738715413658085e-07,9.57808812550526e-07
-1.080771406430126e-06,-1.973581096038964e-07,-6.444358649476614e-07,-1.3413503679375215e-06,1.0546819066598281e-06,-2.636768906718219e-07,-1.3692458317976262e-06,7.457254899523913e-07,5.14995082022133e-07,-1.046453730913202e-06,8.910976021824501e-07,1.2183877608150019e-06,4.556323202508322e-07,1.482587957371226e-06,-2.793549629846012e-07,2.1131487831755194e-06,-1.8020471434381548e-07,9.130600003459087e-07
-9.95360075485831e-07,-2.70291697399622e-07,-6.534729416165069e-07,-1.2899266826320157e-06,1.0516613367944468e-06,-2.931472198027336e-07,-1.304351861209235e-06,7.024584908958877e-07,5.615474482928445e-07,-1.0672428906762686e-06,8.233862117355967e-07,1.236528662609202e-06,5.475635339639991e-07,1.4919062753943288e-06,-1.1760371518073499e-07,2.2272394575679613e-06,-9.167146866050555e-08,8.705046361683127e-07
-9.051790055537997e-07,-3.977354885308198e-07,-6.55063794021481e-07,-1.2216115235432252e-06,1.0865535199113735e-06,-2.8916614847753276e-07,-1.225246025076722e-06,6.637712504887195e-07,6.39030995269127e-07,-1.1180307210625577e-06,7.232780558154922e-07,1.2626344668339197e-06,5.710622678035678e-07,1.5074760615588315e-06,7.744116171836887e-08,2.3968592908400883e-06,-4.312967594926985e-08,8.00393028068307e-07
-8.679188058921011e-07,-5.279994855201115e-07,-6.488597819226097e-07,-1.1773885661492914e-06,1.1311725368068772e-06,-2.5442697309105367e-07,-1.2128497335547542e-06,6.170468039455073e-07,7.148028130160626e-07,-1.1972058744834208e-06,6.474272105285368e-07,1.2939115985648263e-06,5.795243935342727e-07,1.5253084932273979e-06,3.028029313490765e-07,2.5381689359148402e-06,6.215596672116676e-08,7.167214870504304e-07
-7.348833726617502e-07,-6.230112129153328e-07,-6.364701736312762e-07,-1.129059602742765e-06,1.1765035372139018e-06,-1.8502259981000432e-07,-1.2747091406806672e-06,5.088331660774131e-07,7.923721362667853e-07,-1.2682182087824661e-06,5.554814692336884e-07,1.341187650417891e-06,5.83566376683787e-07,1.5245924195618258e-06,4.941246421326852e-07,2.637829317524443e-06,1.937637580420323e-07,6.217059171989284e-07
-6.092826084799888e-07,-7.077111776746048e-07,-6.219080627943396e-07,-1.060118410591443e-06,1.1598968148937955e-06,-1.0558286644085152e-07,-1.3715652491712364e-06,4.4728374707800666e-07,8.8338902129459e-07,-1.2924865893436547e-06,4.485587618447617e-07,1.391470571841705e-06,6.022337131737879e-07,1.5136876987748376e-06,5.542186551551923e-07,2.7142696502450172e-06,3.5200259829046907e-07,5.261907476601376e-07
-5.004635839041732e-07,-7.899441306322701e-07,-6.101602142479635e-07,-9.9992945970417e-07,1.061685986231617e-06,-8.761260826887537e-08,-1.4251131930101814e-06,4.001896268426334e-07,9.515387044300234e-07,-1.23050565143717e-06,4.418492252984288e-07,1.4538409663180407e-06,6.201248921405205e-07,1.5036381257227237e-06,6.678992741854272e-07,2.738064745319877e-06,5.342963614876669e-07,4.541053924508627e-07
-1.893738896836283e-07,-8.971164780392334e-07,-6.052671789881824e-07,-9.858917099774435e-07,9.740592521705735e-07,-9.239668258914264e-08,-1.4070413837290803e-06,3.512980747777289e-07,1.0091470932296976e-06,-1.153319299979761e-06,4.367573030225484e-07,1.5400162182762764e-06,6.508132346132416e-07,1.4932630247453664e-06,7.289673299148567e-07,2.7138238320513753e-06,6.725524718276851e-07,4.135705202525562e-07
4.807568201858909e-08,-1.0158377752498582e-06,-6.087810192664299e-07,-9.85208449588361e-07,9.457294340043704e-07,-1.082376860946716e-07,-1.4004053689248975e-06,3.2999218129858174e-07,1.0503767513631662e-06,-1.068035402329638e-06,4.320292257106853e-07,1.6466256237345725e-06,6.930958045995955e-07,1.4686300085568333e-06,6.56474624276728e-07,2.6447149846514077e-06,7.504931135389726e-07,3.4724640341023824e-07
-3.722469389008079e-10,-1.1219613110554997e-06,-6.201840720462635e-07,-9.661162605344393e-07,9.276062978730666e-07,-1.6604128712830043e-07,-1.3977127483401295e-06,2.886567674260656e-07,1.092145700117302e-06,-9.845754916515142e-07,4.379878446679415e-07,1.747605911841154e-06,7.6308000272495e-07,1.4246820010681232e-06,5.829343822048901e-07,2.480542264191872e-06,7.857372743880417e-07,2.9608715972782097e-07
-2.2275246760942777e-07,-1.2049069033304837e-06,-6.360210895835988e-07,-9.503144514540644e-07,8.759718396512264e-07,-1.6978689807751194e-07,-1.4094110499662843e-06,2.834199099064282e-07,1.141358503863053e-06,-8.335200204354015e-07,4.5389816435845695e-07,1.8174263975597978e-06,8.795375183625162e-07,1.3250177738062712e-06,5.871615392399598e-07,2.2283783411009047e-06,8.428413690854244e-07,3.086594054732696e-07
-4.083732511764834e-07,-1.276498926502917e-06,-6.467735540706564e-07,-9.533820340072477e-07,8.897648557883643e-07,-7.68982293054479e-08,-1.4236367227064295e-06,2.7600759959499905e-07,1.1695583675847336e-06,-6.362825452871108e-07,4.815610980104927e-07,1.8115271948476904e-06,9.63805247999399e-07,1.1523815940656818e-06,6.689142822716799e-07,2.008283908518639e-06,9.63637605817386e-07,3.140791981580256e-07
-4.986596369811527e-07,-1.3193590506212361e-06,-6.45433385700857e-07,-9.9253484063569e-07,9.173402315029122e-07,9.586946271299504e-08,-1.4747719587076392e-06,2.236725728785284e-07,1.1915623531502063e-06,-4.854188157812661e-07,5.269747508475341e-07,1.7507421063808591e-06,1.0402494431692996e-06,1.0869135342464261e-06,7.888387637473095e-07,1.7756435833327012e-06,1.0940052533719223e-06,2.9166720031041865e-07
-6.715574072516008e-07,-1.3344796364494805e-06,-6.286067254901226e-07,-1.0545645427211316e-06,9.530994367975484e-07,2.449586820137494e-07,-1.5217338014547037e-06,2.1591574619418243e-07,1.1972920287653009e-06,-3.6961626985656235e-07,5.553649427733817e-07,1.7039876245366258e-06,1.1325597118565577e-06,1.025723976011214e-06,9.616848838637203e-07,1.5768148319103108e-06,1.2003196967932125e-06,2.6046906875060143e-07
-7.940262631408646e-07,-1.3255858817895097e-06,-5.989901278944229e-07,-1.0872626626206226e-06,1.0073614343333832e-06,3.666789571965203e-07,-1.5448910661013045e-06,2.0595331665951947e-07,1.1882027173413042e-06,-2.392797996912478e-07,5.610138481815982e-07,1.662087337532298e-06,1.1262725268667557e-06,9.57763506695238e-07,1.1735427562698591e-06,1.4213155733995303e-06,1.3390150525607064e-06,2.2976175165745682e-07
-1.0087948896805575e-06,-1.2737210474629327e-06,-5.616901091229679e-07,-1.1220484569029244e-06,1.0762030213562752e-06,4.5031532518488443e-07,-1.5901832833379133e-06,2.174735180833707e-07,1.177341177389848e-06,-2.2277874059261376e-07,5.668827152930564e-07,1.6220614632366296e-06,1.0731833672562938e-06,8.319460626904189e-07,1.3902399379842213e-06,1.2210945546021583e-06,1.4321597157121162e-06,2.0221950598185259e-07
-1.2497411910699036e-06,-1.266925822222917e-06,-5.41953425945583e-07,-1.1826901646561437e-06,1.1462849240566763e-06,5.69177977660825e-07,-1.6361638442192632e-06,2.6440276266865826e-07,1.170227399201315e-06,-2.5563078567089785e-07,5.50601131560486e-07,1.5823192442453634e-06,1.0612185170323705e-06,6.309270394041825e-07,1.59168438707348e-06,9.54141417673535e-07,1.4167793431074722e-06,1.9807750081987828e-07
-1.5075460083371399e-06,-1.2698964728546628e-06,-5.554054739625012e-07,-1.185090211463643e-06,1.224428919155563e-06,7.424376365521776e-07,-1.6831574587756487e-06,2.6937816660700526e-07,1.1653329558749824e-06,-2.624020678651979e-07,5.262819307453897e-07,1.4711629308603263e-06,1.0972870886020115e-06,4.64947159037412e-07,1.6648196063119066e-06,7.173792757696751e-07,1.4223425998074134e-06,1.8957231328718297e-07
-1.9319048222271247e-06,-1.293377073320491e-06,-5.962404002579687e-07,-1.1621561781597309e-06,1.2558004363952624e-06,8.838448076095748e-07,-1.7777157922616293e-06,2.620151177838883e-07,1.1644930762147473e-06,-2.5689051418559437e-07,4.726269014692243e-07,1.3393977325069129e-06,1.1282332264209102e-06,3.954849612841811e-07,1.6715524054170797e-06,5.433449541241298e-07,1.4416579840684802e-06,1.6208560488070934e-07
-2.2429376584759065e-06,-1.3257826396437915e-06,-6.372900857444629e-07,-1.1458714050684168e-06,1.3318992162741736e-06,9.572186154248025e-07,-1.8474748517249635e-06,2.925647996301493e-07,1.1685177572676157e-06,-2.482994010987725e-07,4.246808367380097e-07,1.2660964554342505e-06,1.1935826634460456e-06,3.355769165645116e-07,1.7321161741804152e-06,4.713335381037549e-07,1.4438408489893167e-06,1.4750358900185433e-07
-2.5714103910657503e-06,-1.343056344452572e-06,-6.509797040197472e-07,-1.1337645890638447e-06,1.3757554094374586e-06,1.015573938140312e-06,-1.8802641557152328e-06,3.444471451181736e-07,1.1700332169857715e-06,-2.5791002218402155e-07,4.466049701144811e-07,1.2512431199916543e-06,1.2391731100213192e-06,2.9527938737264657e-07,1.7533177490061381e-06,3.967159948246153e-07,1.446237789527668e-06,1.7136759550616327e-07
-3.0224270881838913e-06,-1.3560261769567617e-06,-6.90982163302196e-07,-1.125613215975518e-06,1.4350374000871912e-06,1.109575389081176e-06,-1.9688420146569366e-06,3.9595011473952963e-07,1.1654830030846804e-06,-3.6153425951910406e-07,4.760348828458711e-07,1.196594275851604e-06,1.2612361959136265e-06,2.526132228416285e-07,1.6708998622386415e-06,3.295999245576809e-07,1.4468496972099996e-06,1.947199012896218e-07
-3.4649528978701324e-06,-1.3257466644478404e-06,-7.739192349978064e-07,-1.1145454554313182e-06,1.5373780897833692e-06,1.1745326994230579e-06,-2.0747566082936512e-06,4.013943191405921e-07,1.1427786934794693e-06,-5.031299807924932e-07,4.997328025833036e-07,1.1748447766830077e-06,1.2821181570337615e-06,2.0544562368142803e-07,1.5586834052374376e-06,2.5351365633230455e-07,1.409184710646428e-06,1.895943164324846e-07
-3.780901184836298e-06,-1.260566583667995e-06,-8.579242543157489e-07,-1.1017739574647145e-06,1.5796943918006363e-06,1.2339290924877133e-06,-2.1430776351091027e-06,3.9505114501257204e-07,1.092837044857742e-06,-5.734805328800605e-07,5.460032143948829e-07,1.1605679592716713e-06,1.3038376509311858e-06,2.2494347525829847e-07,1.553794037442593e-06,1.018165080037536e-07,1.4252005036371646e-06,1.529051237272344e-07
-4.138072649015765e-06,-1.2195641103742003e-06,-9.140416103723056e-07,-1.0863738490439777e-06,1.614792240254565e-06,1.277905344202842e-06,-2.2421440596003943e-06,4.538418206711803e-07,1.0129477817069802e-06,-5.664411562351997e-07,5.934078122757973e-07,1.1615162759558253e-06,1.3104533157432743e-06,3.020580654999274e-07,1.5808588538015736e-06,-1.4445850330237507e-08,1.3630434095548567e-06,1.205360724463125e-07
-4.379504802525033e-06,-1.2038019308385182e-06,-9.559489146984869e-07,-1.0259392333986617e-06,1.6121370439820036e-06,1.2014545217254299e-06,-2.3463390180802777e-06,5.348565391754067e-07,9.078875554588332e-07,-6.12890209934861e-07,6.785119792720128e-07,1.195101246294174e-06,1.2993952554626287e-06,4.1515118525024447e-07,1.6986056775343387e-06,4.514848779738138e-08,1.3045205488504748e-06,1.1057850257046091e-07
-4.49044249475546e-06,-1.1815970417277855e-06,-9.65118689561749e-07,-9.545742136868549e-07,1.6491733083229114e-06,1.1933329618836666e-06,-2.439494904244476e-06,5.913943066261024e-07,7.901816716305832e-07,-6.851736871943817e-07,7.612115590596618e-07,1.2896923579228287e-06,1.2554320091098774e-06,5.333614861152694e-07,1.8427124428793659e-06,1.1538147102937786e-07,1.2439865847142585e-06,1.0311506065305328e-07
-4.410106272775596e-06,-1.1549997523017207e-06,-9.628797093671595e-07,-8.90019109341094e-07,1.6623436250348085e-06,1.2221450432945478e-06,-2.544505332102517e-06,6.961459650149581e-07,6.986606392743571e-07,-7.76123733078807e-07,8.32008929131849e-07,1.3893756694961078e-06,1.240118747945387e-06,6.448395077209142e-07,1.990383462999778e-06,1.2080360626413868e-07,1.136149010667563e-06,5.5663995154435226e-08
-4.217466893726815e-06,-1.1084991787324538e-06,-9.633024875501284e-07,-8.344779592012047e-07,1.7187872979658788e-06,1.2103423171592733e-06,-2.6621891355215146e-06,8.122843181749702e-07,6.524765904326854e-07,-8.719554262552523e-07,8.839797627995832e-07,1.4708515259156816e-06,1.228337289339141e-06,7.238661444304011e-07,2.1313697576248832e-06,7.807053268212641e-08,1.0464255225641492e-06,-3.614509262223787e-10
-4.043217491885996e-06,-1.0291937938830895e-06,-9.714971718636006e-07,-7.655763756926599e-07,1.7954274923467926e-06,1.234590025038818e-06,-2.77169438575579e-06,9.040293215017507e-07,6.685801018916442e-07,-9.49961658402131e-07,9.458193431658347e-07,1.51738577935693e-06,1.2054694723423558e-06,7.445484634239421e-07,2.229863385928255e-06,1.5108538222405931e-07,1.0192685493999237e-06,-4.534198330679962e-08
-3.959863581925991e-06,-1.0046084451489297e-06,-9.995315307302622e-07,-7.02945420479022e-07,1.8639807774780524e-06,1.2915008949705637e-06,-2.8359945575341916e-06,9.519291196846364e-07,6.853592386299875e-07,-1.0144422240007111e-06,1.0151830725217118e-06,1.4684557637310946e-06,1.2155720972886385e-06,7.29074266549353e-07,2.3246531553000267e-06,2.2772967092758748e-07,1.0045982978724236e-06,-4.5882402590965215e-08
-4.081110930607847e-06,-1.0098843604926393e-06,-1.0378495687483153e-06,-6.639341695828766e-07,1.915469685199121e-06,1.3787294852078824e-06,-2.882390127592093e-06,9.564382064907302e-07,6.840820912685796e-07,-1.0189763096156196e-06,1.06068544617853e-06,1.3901427123292946e-06,1.2191946455536655e-06,6.959114549400058e-07,2.411325518334367e-06,2.304766875711687e-07,1.0105680599708181e-06,-1.3038907140997179e-08
-4.3792975133213045e-06,-1.0247639566898012e-06,-1.0900142367511947e-06,-6.709936381699687e-07,1.9447107575605234e-06,1.4346941589654818e-06,-2.930924842079766e-06,9.65325058148179e-07,6.724544560521607e-07,-1.0394940556106969e-06,1.0902792086576166e-06,1.3121311145832702e-06,1.1751632464416562e-06,6.522159122010086e-07,2.4783610103584886e-06,2.2425718188138703e-07,1.034586689712539e-06,9.937990225977812e-09
-4.779947374687157e-06,-1.0565008836132918e-06,-1.1476332372092385e-06,-7.148550187510889e-07,1.896399177552792e-06,1.4002884080365908e-06,-2.9697167285289046e-06,9.724140125015316e-07,6.62670198200222e-07,-1.073977632243879e-06,1.0743462309677904e-06,1.2508037991823955e-06,1.1484477565202452e-06,6.249165035756163e-07,2.5259362845123005e-06,2.3178920291142635e-07,1.0889468849745187e-06,3.858055411934627e-08
-5.199724570079891e-06,-1.0872895971065635e-06,-1.1947206825310395e-06,-7.670179613109397e-07,1.8396059922962522e-06,1.3517293994448568e-06,-3.034350672337474e-06,9.724284755426909e-07,6.614376229807767e-07,-1.0524874515511434e-06,1.073913679006893e-06,1.217340065154551e-06,1.1785831564801196e-06,6.288397860140046e-07,2.5295896407016135e-06,3.191062024379212e-07,1.1318152141242274e-06,6.275780289042076e-08
-5.387304370160343e-06,-1.1097757042118877e-06,-1.2208200494226902e-06,-8.315632593503695e-07,1.8253621218161934e-06,1.317585824981279e-06,-3.0635345107364736e-06,9.55283182536032e-07,7.194650998338293e-07,-1.0537341217275197e-06,1.10880732261607e-06,1.224866688100366e-06,1.2671506700644201e-06,6.730127955592225e-07,2.49168599075588e-06,3.379133966446631e-07,1.1262711586420536e-06,5.7134084520644234e-08
-5.4668577761476356e-06,-1.091791635213854e-06,-1.2174296903497313e-06,-8.668855175554594e-07,1.8368430506792552e-06,1.3077613259265335e-06,-2.9848386408096426e-06,9.35020150233943e-07,7.914921463904596e-07,-1.0103422753288868e-06,1.1053887870236853e-06,1.2701234221610112e-06,1.3146702247703725e-06,7.668026094347317e-07,2.3519934135373914e-06,3.7843425647072036e-07,1.0775925284058913e-06,7.581231413855439e-08
-5.449369170735302e-06,-1.0388032762620743e-06,-1.1867139191326299e-06,-8.889964076833946e-07,1.8674127223722099e-06,1.3373669604010198e-06,-2.918195184280942e-06,9.173199497925431e-07,8.569718682533431e-07,-9.117618176761326e-07,1.1474648106837935e-06,1.3309298949036646e-06,1.349523567361158e-06,8.928312416134698e-07,2.2301949906400995e-06,3.9200364370451097e-07,1.0130249519860949e-06,1.3934159042254744e-07
-5.425173133269769e-06,-9.711551373749477e-07,-1.1383914447288209e-06,-9.048116119037802e-07,1.9056881950407246e-06,1.371810432831068e-06,-2.792589532940842e-06,8.935651074201867e-07,9.160212659323349e-07,-8.308821686449026e-07,1.2080499170921134e-06,1.4013913874680704e-06,1.383739941936953e-06,1.0139823678310404e-06,2.0537288894914024e-06,5.807671440304858e-07,9.259195850105393e-07,1.8662840767176607e-07
-5.337065446152683e-06,-8.93821109250685e-07,-1.0859381747568265e-06,-9.080438103695151e-07,1.8733457830190427e-06,1.3098275146449658e-06,-2.649426282500824e-06,8.71948944592304e-07,9.334701214930227e-07,-7.353873604897123e-07,1.2619568584626248e-06,1.469019851604968e-06,1.3411775352189924e-06,1.1175269164705748e-06,1.8682895039250092e-06,7.974255600886263e-07,8.370024542636988e-07,1.827564818833135e-07
-5.062141312156072e-06,-8.293028673678814e-07,-1.0381192753487423e-06,-9.198644208269341e-07,1.8277785242389286e-06,1.2388504900276983e-06,-2.562817531891647e-06,8.288698039649578e-07,9.270565103365241e-07,-6.468581488521926e-07,1.2695684814059854e-06,1.5206565609616226e-06,1.264331059894349e-06,1.1645419234343853e-06,1.7048243194222357e-06,9.449645733191462e-07,7.600301475401861e-07,2.0175654320499829e-07
-4.7139781898247345e-06,-7.789730701471834e-07,-1.002175891161601e-06,-9.390977328463676e-07,1.7922060779723022e-06,1.1650442682900371e-06,-2.4998331398880846e-06,7.82063293463951e-07,9.064840391502346e-07,-5.813394800178451e-07,1.2148480307962755e-06,1.5500209525213646e-06,1.194281206558759e-06,1.1468099277141295e-06,1.5361448899028339e-06,1.0847634749615412e-06,6.869711090694622e-07,2.1086818461756803e-07
-4.441982710497861e-06,-7.399702708956059e-07,-9.81091928396783e-07,-9.637340327290999e-07,1.7117924318652997e-06,1.0987257454713525e-06,-2.4897970451070773e-06,7.341154943645708e-07,8.72014885808335e-07,-5.360248295775381e-07,1.1560645438807839e-06,1.5491371678773478e-06,1.102678950595881e-06,1.186422668140339e-06,1.3774486013531672e-06,1.1343436992455598e-06,6.202258357734161e-07,2.3747511051557522e-07
-4.13484385995851e-06,-7.329227719873405e-07,-9.722152893665392e-07,-9.87903385766441e-07,1.6068257197074881e-06,9.998521290418337e-07,-2.5065555310756714e-06,6.836217387868239e-07,8.412790728138957e-07,-4.913572590872489e-07,1.1110246053459001e-06,1.515005024331131e-06,1.0022493408505335e-06,1.194416225695372e-06,1.2207288022166673e-06,1.1040021047839946e-06,5.55193984139921e-07,2.5697145552232767e-07
-3.888082474185078e-06,-7.511912414651812e-07,-9.714551503416224e-07,-1.0170501660276339e-06,1.5041256182137137e-06,9.213332578623435e-07,-2.5238260597801034e-06,6.066438205129081e-07,7.956173530890402e-07,-4.802130711768867e-07,1.093764067567542e-06,1.4542848731198203e-06,9.000010039432862e-07,1.1321928628960292e-06,1.0834756147376142e-06,1.028023217926854e-06,4.888429799991681e-07,2.8814398937872167e-07
-3.7244773336693245e-06,-7.86296470664665e-07,-9.7393742439984e-07,-1.0485346353700797e-06,1.4551521727491812e-06,8.794493896171888e-07,-2.5506898436310888e-06,5.068937384611686e-07,7.416099510563067e-07,-5.020929761925693e-07,1.0882748521147588e-06,1.375872057003286e-06,7.965355704876558e-07,1.0183791238115673e-06,9.29967486333054e-07,8.971379328069864e-07,4.2892323295087604e-07,2.725882062978293e-07
-3.603328308408778e-06,-8.346145896439052e-07,-9.765297750987706e-07,-1.075649935743255e-06,1.4294511766326508e-06,8.360454937441965e-07,-2.600616654825214e-06,3.9379700895356814e-07,6.894757965282908e-07,-5.431377797913812e-07,1.0879332903738059e-06,1.2883320794806165e-06,7.075910549563897e-07,9.374708414715162e-07,8.217014713447685e-07,7.560880379501483e-07,3.796590523454615e-07,2.4881968356123777e-07
-3.5656726335896134e-06,-8.854459609677849e-07,-9.764015251997172e-07,-1.0966811126625455e-06,1.3676348636261905e-06,7.764267326003694e-07,-2.6623076908496457e-06,3.2803647519924337e-07,6.413156435086104e-07,-6.085344885101824e-07,1.0591442556242833e-06,1.1984434164090896e-06,6.51442233103293e-07,8.752221770265181e-07,7.509636180602997e-07,6.14857590361279e-07,3.459720613969494e-07,2.311503478754114e-07
-3.5981680663175113e-06,-9.401747842557396e-07,-9.742382474689514e-07,-1.1071488380686784e-06,1.3011544049178732e-06,6.857724987174611e-07,-2.7416486218321288e-06,3.5875185768749606e-07,5.959242839153033e-07,-6.866447612019318e-07,1.029990763670619e-06,1.1074321583687325e-06,6.114920144181216e-07,8.131790468148628e-07,7.028979803644955e-07,4.7441749685099135e-07,3.2432016747821406e-07,1.8100206387602682e-07
-3.7052474134480644e-06,-9.953322338947535e-07,-9.731859411544033e-07,-1.1083064667988533e-06,1.2678649840583167e-06,6.552777944880772e-07,-2.853851187000119e-06,4.1269298213302604e-07,5.475417463557361e-07,-7.72990097968116e-07,9.97928258772251e-07,1.012828074530411e-06,5.826440778973695e-07,7.24010221678354e-07,6.953293685567278e-07,3.381736102237175e-07,3.139966504459965e-07,1.3920320332698765e-07
-3.899756777150011e-06,-1.0498746524050777e-06,-9.761385326672124e-07,-1.1048061789096521e-06,1.3252277450010137e-06,6.825067434934205e-07,-2.981182027296598e-06,4.64936369083605e-07,4.887950097385064e-07,-8.624594656625297e-07,9.404225637309246e-07,9.109778018581974e-07,5.697142900579483e-07,6.066363938037184e-07,7.059568602952317e-07,2.0226747265822582e-07,3.161382237810676e-07,1.0563783722629843e-07
-4.1682854936112784e-06,-1.0987120164356239e-06,-9.854115491552914e-07,-1.1041781048925696e-06,1.3920632089408411e-06,7.5073205284038e-07,-3.1116918900820324e-06,4.947751747440733e-07,4.16395234079057e-07,-9.583250531969243e-07,8.920555514846598e-07,7.985916081385603e-07,5.594849017705804e-07,4.719897021067267e-07,7.283435557483648e-07,6.132280596031173e-08,3.2732888261785757e-07,6.981160814948125e-08
-4.487396872013204e-06,-1.1399716329409923e-06,-1.0016096155293915e-06,-1.109730249151053e-06,1.451522311026085e-06,8.532486910513893e-07,-3.244151502543147e-06,4.974765182633766e-07,3.394868699491539e-07,-1.047495248022665e-06,8.383908350445505e-07,6.747373144656366e-07,5.497523465030693e-07,3.2383260741800927e-07,7.501518942166757e-07,-8.39087475070619e-08,3.438733423113122e-07,2.6641988716316855e-08
-4.838651111219371e-06,-1.173948119433738e-06,-1.0234594733167135e-06,-1.125852490688055e-06,1.5048849632674214e-06,9.076237934830381e-07,-3.3663245738200308e-06,4.802971552245451e-07,2.6243552825967123e-07,-1.1271897824525773e-06,7.722526747675696e-07,5.429267717216652e-07,5.401389523213488e-07,1.791259454729132e-07,7.746419058250155e-07,-2.3019437244552372e-07,3.630243977049651e-07,-2.155259612543925e-08
-5.1848939125890725e-06,-1.1993999500189396e-06,-1.0477028744770233e-06,-1.154316924920178e-06,1.5144176046717943e-06,9.293643260637516e-07,-3.465983556882286e-06,4.457264206100395e-07,1.926597325570795e-07,-1.197483441731215e-06,7.061845871764371e-07,4.1105674882014175e-07,5.288601796049431e-07,2.3038358428102786e-08,7.852991587066216e-07,-3.6993659152980673e-07,3.8291751123795116e-07,-6.776952655599053e-08
-5.486156874585638e-06,-1.2175717116717433e-06,-1.0698783203905892e-06,-1.192311296838483e-06,1.5031882185178915e-06,9.256043154831528e-07,-3.5533266086494853e-06,4.166957333986132e-07,1.36897776473376e-07,-1.254416495469405e-06,6.353859379585461e-07,2.885596063127978e-07,5.154797570092495e-07,-1.2953455511467627e-07,7.843095741788318e-07,-4.899575559242337e-07,4.009263747790172e-07,-1.0867181057836964e-07
-5.711337628043963e-06,-1.2299680242276347e-06,-1.0883530330424035e-06,-1.2370001810506203e-06,1.4822521757325912e-06,9.356882803731551e-07,-3.6195268156867796e-06,3.846756709031791e-07,9.477345878671159e-08,-1.301913565163924e-06,5.65287942602244e-07,1.8362159486117703e-07,5.02770806830766e-07,-2.5427570016486797e-07,7.7272582580164e-07,-5.605146806682493e-07,4.0836470101615715e-07,-1.2815986643923068e-07
-5.845633570853412e-06,-1.2406484751244395e-06,-1.103671481610628e-06,-1.2845184036142061e-06,1.4449800483736e-06,9.598507394032936e-07,-3.6663178650510213e-06,3.5084212900760723e-07,6.227757091602704e-08,-1.342377841707657e-06,4.97750150799988e-07,1.0218643791832738e-07,4.911683007004676e-07,-3.291185462799966e-07,7.449520592742044e-07,-5.832886953472809e-07,4.0286503358288883e-07,-1.3350149785757147e-07
-5.888956950345366e-06,-1.2545172654259185e-06,-1.1160645875424236e-06,-1.3308202259771044e-06,1.4127841972052454e-06,9.791748460516253e-07,-3.693155829062894e-06,3.1850057792163704e-07,3.681430313825432e-08,-1.3778815217341234e-06,4.4865833966416775e-07,4.702960639046479e-08,4.7456095384066453e-07,-3.5866880549211923e-07,7.073176534174108e-07,-5.609733824060691e-07,3.8406053491222356e-07,-1.3288329021270123e-07
-5.846894074448873e-06,-1.2695174819794454e-06,-1.1253604898146642e-06,-1.3728292372871201e-06,1.3801992567800832e-06,9.604818650535796e-07,-3.704344919630685e-06,2.8261056818913294e-07,1.782120885043868e-08,-1.4098516940450403e-06,4.121474844520069e-07,1.6162558326156358e-08,4.568419912430388e-07,-3.5898704270673663e-07,6.606584211495182e-07,-5.004668631292908e-07,3.542736735623606e-07,-1.3016221100902442e-07
-5.755815236044471e-06,-1.2887428761762412e-06,-1.1325002535499977e-06,-1.4099280220912918e-06,1.3424577355451413e-06,9.077368163195859e-07,-3.709829602243305e-06,2.4699068493585664e-07,-3.81581123960491e-09,-1.4416522908639404e-06,3.905961709548116e-07,2.8379126210916603e-09,4.410325928235159e-07,-3.469331644738599e-07,6.05492711811626e-07,-4.2791937439456165e-07,3.1822881505948787e-07,-1.321779412063639e-07
-5.672033715745827e-06,-1.3145425947242864e-06,-1.1360054538016781e-06,-1.4406463855261418e-06,1.3106284509088452e-06,8.551830604964077e-07,-3.715746696981832e-06,2.1050996740200722e-07,-3.577539619001315e-08,-1.4758987932456526e-06,3.686489456744635e-07,-2.0393448161966464e-09,4.2856937334189144e-07,-3.4327035762559154e-07,5.439779973053442e-07,-3.6447718794422977e-07,2.824802541951604e-07,-1.4316685282237872e-07
-5.599420441614734e-06,-1.3466431869530253e-06,-1.1328854253319329e-06,-1.4654144389515884e-06,1.2792883331398156e-06,8.075438510540226e-07,-3.7262676338782127e-06,1.719665401571689e-07,-7.664952623034173e-08,-1.514382614196309e-06,3.386059106688932e-07,-7.518380837342788e-09,4.2320442331931547e-07,-3.511587746127071e-07,4.808811456004745e-07,-3.283532564632662e-07,2.571879769076994e-07,-1.6497492049852667e-07
-5.71520826901076e-06,-1.3856775602290513e-06,-1.1208496371971172e-06,-1.4854618261543673e-06,1.2505168337155958e-06,7.848515871934112e-07,-3.73497721206041e-06,1.3073183509959577e-07,-1.26814860592203e-07,-1.558665256686735e-06,3.0321542861493043e-07,-2.131098560761003e-08,4.2023531690582943e-07,-3.7721821383532554e-07,4.225514890052913e-07,-3.2696572099413034e-07,2.5207733807889683e-07,-1.970275610561844e-07
-5.984580055604624e-06,-1.4292716892816161e-06,-1.0970450539127268e-06,-1.5020370736070678e-06,1.2266815682246246e-06,7.769386212070161e-07,-3.732584329127509e-06,8.74157838152479e-08,-1.8184273201067474e-07,-1.608288229083523e-06,2.596467275547961e-07,-4.7911442531635994e-08,4.1983878524880944e-07,-4.2596352688718577e-07,3.835743164362635e-07,-3.763362983813197e-07,2.7566484147477997e-07,-2.4022802693006135e-07
-6.176010318694665e-06,-1.473342678379564e-06,-1.0601634442594822e-06,-1.5172479901115122e-06,1.207009994183261e-06,7.811677717298036e-07,-3.7137937822447684e-06,4.31503216908359e-08,-2.3214582149015558e-07,-1.659908211875985e-06,2.2558786225725716e-07,-8.632643270220141e-08,4.2499013163276267e-07,-4.94540868377603e-07,3.747480347535572e-07,-4.5644792908571856e-07,3.3060028558323066e-07,-2.855465094030987e-07
-6.480917044683325e-06,-1.5124036155696926e-06,-1.0109549964645293e-06,-1.5324698965160476e-06,1.1964496734269836e-06,8.029470009941817e-07,-3.704877558603319e-06,7.661020147416765e-11,-2.6769279422248994e-07,-1.706723886630603e-06,1.9780152700027218e-07,-1.3046673389240806e-07,4.34789962213372e-07,-5.689045870341117e-07,4.0365047679091116e-07,-5.417813722685408e-07,4.1653637040524757e-07,-3.2300035087661236e-07
-6.887451686230688e-06,-1.541970248709263e-06,-9.522846881473148e-07,-1.5487740846287018e-06,1.1974033491180412e-06,8.453962837419887e-07,-3.69174433128204e-06,-3.955362122592011e-08,-2.819615851818548e-07,-1.7411810226851613e-06,1.7114889392181638e-07,-1.7265731162287912e-07,4.480763428625405e-07,-6.33663076038219e-07,4.7074819899254223e-07,-5.867656157147985e-07,5.236588502201335e-07,-3.477428854723865e-07
-7.332379276497238e-06,-1.558208452531364e-06,-8.881652774861646e-07,-1.567169106374234e-06,1.208010451580624e-06,9.013068856669966e-07,-3.641364522681026e-06,-7.598696011991235e-08,-2.7898374457962867e-07,-1.7573538712097435e-06,1.5046060638311407e-07,-2.0659842407052318e-07,4.630688808951561e-07,-6.852279500923005e-07,5.608808729620993e-07,-5.909562444331394e-07,6.366729482588176e-07,-3.545162112311205e-07
-7.654995581179617e-06,-1.5609800837723054e-06,-8.262507118502009e-07,-1.5885636798088898e-06,1.2212494990078945e-06,9.55057998541592e-07,-3.581040882072306e-06,-1.1065494481054975e-07,-2.5952972780979787e-07,-1.753161856371852e-06,1.378832559198652e-07,-2.2774422093399534e-07,4.778860823155653e-07,-7.141877091106264e-07,6.584147735293736e-07,-5.531304334354599e-07,7.421920341802641e-07,-3.441678761644345e-07
-7.834077086377153e-06,-1.5527906632839207e-06,-7.718940208998318e-07,-1.6117236528860278e-06,1.2330281145237522e-06,1.0000747401304298e-06,-3.5098101124020214e-06,-1.4494093110243245e-07,-2.2842810205639014e-07,-1.730647776431596e-06,1.3475570004075477e-07,-2.331780521104289e-07,4.923016010404407e-07,-7.168054517462606e-07,7.509535001764647e-07,-4.664704736102932e-07,8.29827770666239e-07,-3.1828894044777893e-07
-7.927018881082077e-06,-1.5371674509730305e-06,-7.387039801015627e-07,-1.6351170695129638e-06,1.2407991035712673e-06,1.031784724331212e-06,-3.4329876114963995e-06,-1.8048764995621305e-07,-1.9236198626338756e-07,-1.6949318379987808e-06,1.4209663709125505e-07,-2.22224790096244e-07,5.116072788276547e-07,-6.948411980435327e-07,8.231530627309526e-07,-3.4062938252730684e-07,8.971808541485008e-07,-2.862432168437289e-07
-8.008525937274785e-06,-1.519364855864414e-06,-7.229597337631818e-07,-1.6553944827467692e-06,1.24284304757571e-06,1.0438189681297005e-06,-3.367483214157064e-06,-2.1916312473029255e-07,-1.5929771911981703e-07,-1.652573483910951e-06,1.5918578341860145e-07,-1.9602709863982237e-07,5.317288350200866e-07,-6.670805023688959e-07,8.686139778315077e-07,-2.1247779914813115e-07,9.463276181050351e-07,-2.5373852668438266e-07
