0,1,2,3,4,5,6,7,8,9,10,11,12,13,14,15,16,17
-8.291199370604222e-08,1.9156854375790472e-08,1.9235391084208622e-07,3.206824961442533e-07,-7.624797960834991e-07,3.46113279705826e-07,-2.015369977786131e-07,2.8518647124199963e-07,-5.046305532680597e-07,2.665759696095411e-07,-3.724633426364549e-07,-6.975916398466889e-07,-5.502484909143742e-07,2.526269583358804e-07,7.264423525049182e-07,-1.1778615434263417e-07,1.6056730899036468e-07,4.345407501817464e-07
-9.965387990594561e-08,6.332454258686733e-09,1.7171512587383974e-07,3.161797871099001e-07,-7.636650111929512e-07,2.8098453826625106e-07,-1.9331292050763373e-07,2.8240092397210996e-07,-4.997925481825451e-07,2.408095530278167e-07,-3.6556314314029837e-07,-6.474669918368101e-07,-5.208640045885956e-07,2.1868508961446918e-07,9.48110834662263e-07,-1.5866014079850473e-07,1.8502873934198986e-07,4.830837323844222e-07
-1.0517134118032911e-07,-5.7081894636561586e-09,1.6585387030291415e-07,3.295047559510621e-07,-7.031139210242957e-07,2.3455145481475864e-07,-1.69657972683875e-07,2.7784559063034615e-07,-4.6979460520984135e-07,2.15739362331688e-07,-3.4300044907293894e-07,-5.974129937353235e-07,-4.637372104791982e-07,1.9938366872986372e-07,1.302405152804849e-06,-9.761174606172315e-08,2.529408454942852e-07,5.405770120519261e-07
-1.0104135996691841e-07,-1.3493304377826634e-08,1.6619131293055932e-07,3.316396087482884e-07,-6.011314637262055e-07,1.9070252120656854e-07,-1.3915868701656446e-07,2.8294833108301236e-07,-4.234936528550074e-07,1.9138477097928402e-07,-3.0661796986399316e-07,-5.407318239920484e-07,-3.843542648307826e-07,1.9800592270110245e-07,1.5930399665155468e-06,3.951761922289732e-08,3.0293298782938757e-07,5.882306619066146e-07
-8.768501534387516e-08,-1.1598582823663642e-08,1.8119196321531453e-07,3.20936010430525e-07,-4.759913627611092e-07,1.4908984834249327e-07,-1.1086754809813733e-07,2.780256517301404e-07,-3.71073231595866e-07,1.6632337934819597e-07,-2.614328560047917e-07,-4.657475012256069e-07,-2.9231105005532353e-07,2.228852869032859e-07,1.6833900984162923e-06,1.9816725092579575e-07,3.472777639736317e-07,5.719187705528636e-07
-6.932260051112583e-08,-2.2246039306665958e-10,2.06268806669581e-07,3.011698873034359e-07,-3.28246076026392e-07,9.266251039040483e-08,-8.660874377611707e-08,2.6346549037395114e-07,-3.087281250321477e-07,1.387401860852991e-07,-2.1374133581791635e-07,-3.6580825930417827e-07,-1.900810973199627e-07,2.1525594654876845e-07,1.4784049762499505e-06,3.3410007474473917e-07,3.660479878558413e-07,5.145559772254475e-07
-4.951663553249095e-08,1.8108131030628094e-08,2.4073075132125666e-07,2.637860471677966e-07,-1.787585836015271e-07,2.2041879930153023e-08,-6.684105658063166e-08,2.3260953950791916e-07,-2.303695096419355e-07,1.0695905256508204e-07,-1.6326754426063875e-07,-2.603255130586206e-07,-8.211720453576207e-08,1.8746105207187802e-07,1.0746073471368504e-06,4.2034466899756993e-07,3.293923457214301e-07,4.197240989453677e-07
-2.941419203161439e-08,3.838154280173263e-08,2.4022712213354466e-07,2.1070708182169323e-07,-2.4644182083369447e-08,-5.8909194002770834e-08,-5.634380670518323e-08,1.651569362783657e-07,-1.3470507947679602e-07,6.966022578575093e-08,-1.080279460316428e-07,-1.3260742085424046e-07,3.237419642123096e-08,1.8824685229654568e-07,6.681949373326422e-07,4.5939824615759163e-07,2.896958163717827e-07,2.72550399142052e-07
-8.975485299297687e-09,5.636121724622221e-08,1.992044406338798e-07,1.3444320459711414e-07,1.37002797978758e-07,-1.3607449915136274e-07,-5.221347265102175e-08,7.539419389509545e-08,-2.9644647472662558e-08,2.5701487447392128e-08,-4.344140319659929e-08,2.1714762417505547e-08,1.2127199416636104e-07,1.8106471775348374e-07,2.452488009117995e-07,4.5291015684818643e-07,2.2734353169379872e-07,1.3544031424415802e-07
1.2935272814009049e-08,6.542810869822997e-08,1.3474694413648304e-07,1.3123360829270838e-08,2.8448929449789794e-07,-1.8450519477065023e-07,-1.1785278617510999e-08,-1.7891769228555292e-08,9.004589137897145e-08,-2.5266400067706392e-08,3.568449652507013e-08,1.6774471245627842e-07,2.08143580463945e-07,1.3783077441574263e-07,-1.9839040238456407e-07,3.8105919160470596e-07,1.2266857256251292e-07,-5.521341027503738e-08
3.7605081873080747e-08,6.100198666712363e-08,2.053725088598278e-08,-1.2721426598555693e-07,4.225177578064875e-07,-2.046338649543709e-07,4.354505459919253e-08,-1.2478325404191e-07,2.253041846303731e-07,-8.236075074225219e-08,1.3099623888559503e-07,3.344349516666274e-07,2.9536538836986623e-07,4.994958747048692e-08,-6.788093306367306e-07,2.1702649472370693e-07,-3.0096988501032076e-08,-2.67925105934687e-07
6.52820716410681e-08,3.979257996813227e-08,-1.2595595491284512e-07,-2.732243556670693e-07,5.499193923124728e-07,-1.9872732819762187e-07,1.0664640736425229e-07,-2.3297758334263206e-07,3.7264055606485915e-07,-1.4369934658749597e-07,2.3803798173679268e-07,5.002459416306737e-07,3.673077231061703e-07,-7.986017528306605e-08,-1.2238736518872891e-06,-3.753037114862751e-08,-1.968490452180139e-07,-4.933595555886255e-07
9.418942821914938e-08,3.1783909585562852e-09,-3.0068081781044495e-07,-4.2728473208958963e-07,6.307217700593619e-07,-1.7266634589620893e-07,1.763556604308755e-07,-3.5870472985085175e-07,5.156242111885352e-07,-2.0666291103176257e-07,3.440669669914537e-07,6.680675911365274e-07,4.2067382170419467e-07,-2.501958905898446e-07,-1.7422531461910647e-06,-3.2803800759965326e-07,-3.8516220730748466e-07,-7.118941350380799e-07
1.2138398564575587e-07,-4.3679203905501433e-08,-4.508958767928231e-07,-5.467771339256049e-07,6.644907446736803e-07,-1.4061603695593334e-07,2.3109474025427598e-07,-4.628326108484104e-07,6.035483403751101e-07,-2.6783858076986325e-07,4.3321459292391583e-07,7.703560808215037e-07,4.248830441799912e-07,-4.4810353018608074e-07,-2.077019133891764e-06,-5.609435136913346e-07,-5.689122906402318e-07,-8.451799924802738e-07
1.437483962858414e-07,-9.378009817437647e-08,-5.431264612245202e-07,-5.987844287086578e-07,6.47179231446076e-07,-1.1366715480177633e-07,2.645393178989554e-07,-4.974267290822562e-07,6.322095922515465e-07,-3.23779370137593e-07,4.907528080200476e-07,6.919625228065244e-07,3.67365283078358e-07,-6.048090804443694e-07,-2.0846903057503645e-06,-6.487291767430896e-07,-6.73064285536405e-07,-8.608246589694927e-07
1.58548266998735e-07,-1.3925942686701107e-07,-4.983623882048088e-07,-5.688873237268587e-07,5.017094077246142e-07,-1.0634641392576043e-07,2.661453038677376e-07,-4.4841645231832216e-07,5.328591768454657e-07,-3.722866278433767e-07,5.048029049423996e-07,5.531655809178748e-07,2.463282912338816e-07,-6.684271803381457e-07,-1.7148084957933328e-06,-5.532245928396244e-07,-7.298110826318594e-07,-7.262248583484028e-07
1.6391277775429076e-07,-1.7528618223944483e-07,-4.205834370826922e-07,-5.216507172777574e-07,4.5696345388392707e-07,-1.217052848296865e-07,2.2156263485961626e-07,-3.873039071822971e-07,4.274741100534917e-07,-4.122977193468511e-07,4.6828140100652566e-07,4.170415234593365e-07,1.5406219420788063e-07,-5.777376544908903e-07,-9.764177720851935e-07,-2.99474088734018e-07,-6.949907791131951e-07,-6.154594238643891e-07
1.593894371808995e-07,-1.9857351817555045e-07,-3.5579526369014266e-07,-4.518362637947676e-07,4.8580717671527e-07,-1.7097005338524266e-07,1.2999524780987514e-07,-3.6416551902068646e-07,4.320849633030127e-07,-4.4261322778005066e-07,3.809157558865428e-07,4.569303141124e-07,9.507554361462474e-08,-4.828239021493388e-07,1.724642672979467e-08,4.1261156031908523e-08,-6.018886638500723e-07,-5.822017895460772e-07
1.4641145803727e-07,-2.077371885677935e-07,-3.0677073655057714e-07,-4.31924022126603e-07,5.126258961235259e-07,-2.545753482210397e-07,2.0892654303959377e-09,-3.8998378259787663e-07,3.9206186840997764e-07,-4.614793409348693e-07,2.476541597230517e-07,3.656142480044022e-07,4.5779218587147515e-08,-4.1065313784037176e-07,1.1007111060453113e-06,3.7451394446305454e-07,-5.149596415661803e-07,-5.652125183165169e-07
1.279562564929109e-07,-2.0335794629024167e-07,-3.086556544802808e-07,-4.4406002204642984e-07,4.4685756831730694e-07,-3.6465747106838957e-07,-1.5095245828833066e-07,-4.2431319104903474e-07,3.0848250814122846e-07,-4.671598262061446e-07,7.634228689985402e-08,2.6588298606672277e-07,1.2214627223409682e-08,-4.375811624188285e-07,2.104545911196537e-06,6.273361943821821e-07,-4.931771155439301e-07,-6.10125586883002e-07
1.0740870909035706e-07,-1.8839751367282384e-07,-3.809104149204289e-07,-4.4560562313120835e-07,2.802359455066906e-07,-4.945494260824485e-07,-3.1473586313594037e-07,-4.66270136862605e-07,1.893628630031108e-07,-4.5874527705667807e-07,-1.227792560843369e-07,1.557844006108476e-07,-6.71603670951094e-08,-5.364539304953993e-07,2.919543257241834e-06,7.585968371064038e-07,-5.319161373810167e-07,-6.099948527960935e-07
8.737020767765069e-08,-1.6614309328169052e-07,-3.6543178324572735e-07,-4.162452233384957e-07,1.255372832516799e-07,-6.316771421958843e-07,-4.773488701691642e-07,-4.658995340604528e-07,1.5785291120373892e-08,-4.3634543940945423e-07,-3.3835749289435724e-07,-6.231966109887649e-08,-2.3649386984376486e-07,-5.601874367708321e-07,3.5219933691236968e-06,7.696639172842077e-07,-5.486232164435217e-07,-5.508826859251521e-07
6.916207460841736e-08,-1.3822881618345032e-07,-3.202912415040109e-07,-3.2070684951354964e-07,-4.752335335181331e-08,-7.654400758259341e-07,-6.343216008380318e-07,-4.2883742888806e-07,-1.9022355744470993e-07,-4.020584133981607e-07,-5.583271653902393e-07,-3.240606805866583e-07,-4.3988375941913845e-07,-5.402009619298672e-07,3.9394968293504095e-06,6.857031096481182e-07,-4.997676338677275e-07,-3.871014798219824e-07
5.135877570268978e-08,-1.0485339290759677e-07,-2.2712352792628688e-07,-2.0154764890651768e-07,-2.474127418450349e-07,-8.880361423796478e-07,-7.879127957659936e-07,-3.728399958602186e-07,-4.0553060603465374e-07,-3.6023916895888497e-07,-7.524979435387094e-07,-5.865376803399563e-07,-6.494267846058704e-07,-4.6273962160970774e-07,4.211929096233547e-06,5.44301095553557e-07,-3.3124198416706543e-07,-1.7618661684127847e-07
3.111320706365895e-08,-6.594799115022126e-08,-6.672196662257535e-08,-8.522073703649165e-08,-3.752282903465116e-07,-9.962356832933165e-07,-9.44010254331835e-07,-2.82405248380163e-07,-5.737454066850151e-07,-3.1606778371657013e-07,-9.199086337025853e-07,-7.821215416495843e-07,-8.6996525589759e-07,-3.636488974093016e-07,4.360988012892981e-06,3.76861014360182e-07,-9.722016389943843e-08,2.7177213692925e-08
6.5186286256183306e-09,-2.1276721409710584e-08,8.79905182790304e-08,-5.209327902197052e-09,-5.076254612277446e-07,-1.088723072275312e-06,-1.1166380927665465e-06,-1.6331310369006417e-07,-6.965456096232057e-07,-2.7393778667951714e-07,-1.062070334779944e-06,-9.714926148361162e-07,-1.0427874076958972e-06,-2.1449296410572423e-07,4.3911571104104985e-06,1.843699554748032e-07,1.0369870910380837e-07,1.7848463797383434e-07
-2.1824611017981415e-08,2.753006827306319e-08,2.4478165988972323e-07,5.9043229532898277e-08,-6.411612034052827e-07,-1.1564816450829117e-06,-1.2955043646528423e-06,-6.04375372231648e-08,-7.907659280234024e-07,-2.3649993245987128e-07,-1.163448411153965e-06,-1.1318174239932748e-06,-1.1921096426158466e-06,-6.420112027830262e-08,4.3009824055117794e-06,4.881343565904573e-08,2.52490393570992e-07,2.994557395484891e-07
-5.0587935797004473e-08,7.69130171396025e-08,4.0770466725326986e-07,1.0456466097439192e-07,-7.531006213003378e-07,-1.1907265000095034e-06,-1.4653670389637586e-06,2.8584021018656096e-08,-8.535610488910199e-07,-2.0412747537418407e-07,-1.2215122359292317e-06,-1.2471518670792428e-06,-1.2972971871622918e-06,5.7418918036661584e-08,4.099646887643863e-06,-1.2361223822696237e-08,4.021807904835181e-07,3.8901742601289386e-07
-7.46958821314608e-08,1.2151734216217458e-07,4.6681672781692445e-07,1.3730507768710004e-07,-8.592064838156181e-07,-1.18479092540255e-06,-1.6076814066625832e-06,1.0712756070787477e-07,-8.940736466555922e-07,-1.7466049460531023e-07,-1.2338483101788744e-06,-1.2972086242701484e-06,-1.3088408000285072e-06,1.7856680553264443e-07,3.7921127022593642e-06,2.049601847191775e-08,5.620868286301474e-07,4.4413518068677753e-07
-8.896077583368967e-08,1.5626641025648855e-07,5.095705066043418e-07,1.76869135794488e-07,-9.277740676375078e-07,-1.135648785993637e-06,-1.6992543532535139e-06,1.72739687018432e-07,-9.029236676875674e-07,-1.4470458558717814e-07,-1.2021906430755483e-06,-1.2761589040284001e-06,-1.2721710312978705e-06,2.9604700473167896e-07,3.378782841775897e-06,2.9941638545601287e-07,7.611814207859819e-07,4.893117654390359e-07
-9.060319750995036e-08,1.7793386281790853e-07,5.855394473142407e-07,2.248233699039556e-07,-9.289734512693879e-07,-1.049191344057733e-06,-1.7317382481884512e-06,2.3829372403672482e-07,-8.750124165710175e-07,-1.1186419629052645e-07,-1.1385128915864552e-06,-1.2149493916844148e-06,-1.234098420444096e-06,4.0698261958833027e-07,2.8733980594292544e-06,5.588482992774117e-07,9.869885414250313e-07,5.266619772023915e-07
-8.037208864681028e-08,1.8549391063601716e-07,5.960399689836228e-07,2.676533187497968e-07,-8.822324530838881e-07,-9.385158178062753e-07,-1.7107672404327404e-06,2.964481763398797e-07,-8.167002908893066e-07,-7.597620663676165e-08,-1.0612392415214528e-06,-1.1304586370747278e-06,-1.1733146932828962e-06,5.060038786265505e-07,2.3239434027545674e-06,5.883690112951753e-07,1.1595207148348836e-06,5.269719116617164e-07
-6.190873217529417e-08,1.8095622040404226e-07,6.188085161177654e-07,3.1407378143045596e-07,-8.056236845150232e-07,-8.205953305914719e-07,-1.651925257286296e-06,3.2046994704331883e-07,-7.377534620050146e-07,-3.88335531653284e-08,-9.796277018563693e-07,-1.045192055618662e-06,-1.091355563579836e-06,5.724936761636154e-07,1.8159698258321584e-06,5.859763733808777e-07,1.2865742688713448e-06,5.060912036572703e-07
-4.012407594626465e-08,1.681397023136434e-07,5.91644303405368e-07,3.696077303086678e-07,-7.017769197379735e-07,-7.109267503615993e-07,-1.5724086476018304e-06,3.1129388974180144e-07,-6.492830668051057e-07,-3.5215655189820965e-09,-8.999310436245985e-07,-9.479103054331003e-07,-1.0295535799754886e-06,5.598558561841694e-07,1.4484085235061535e-06,8.195386948449283e-07,1.3685973416148188e-06,4.876630251771496e-07
-1.9910685166912575e-08,1.5120311382238436e-07,5.260682939392092e-07,4.173675839792902e-07,-5.927204492810165e-07,-6.224060040210135e-07,-1.4902690989044436e-06,2.7552120633250236e-07,-5.61151685499975e-07,2.6198059278127407e-08,-8.288442649005378e-07,-8.496222832067464e-07,-9.875338365185034e-07,4.865492166765664e-07,1.2911560795071064e-06,1.1980332134620703e-06,1.3985428475515878e-06,4.4848645318753766e-07
-5.0983598754961286e-09,1.3366953239807544e-07,5.083563280098066e-07,4.464481423136114e-07,-4.880376515125907e-07,-5.61504075387227e-07,-1.416239107313162e-06,2.15494486005673e-07,-4.798219703294572e-07,4.7077610895159594e-08,-7.672852380447161e-07,-7.517211049572701e-07,-9.560077137493296e-07,3.663164221347903e-07,1.347341966565374e-06,1.2683375885265697e-06,1.372544565526377e-06,3.92457945866659e-07
2.290584001087051e-09,1.1881532291907665e-07,4.841446720862055e-07,4.5122855012917086e-07,-3.89257949228909e-07,-5.277745664688872e-07,-1.35292416524369e-06,1.4993531428622178e-07,-4.0765121389937247e-07,5.7109547873247304e-08,-7.079574048872333e-07,-6.566058894890176e-07,-9.296947308976926e-07,2.18788437320685e-07,1.5503433999496533e-06,1.2881836972411425e-06,1.2917653843145722e-06,3.108460223988112e-07
2.7786327170626664e-09,1.0965589209188046e-07,4.620543781056645e-07,4.283356853631107e-07,-3.015949126828682e-07,-5.167478360136954e-07,-1.2980028071116563e-06,8.094164376305081e-08,-3.430274992056048e-07,5.538527009753782e-08,-6.427239752911218e-07,-5.596845588980473e-07,-9.013168203756084e-07,7.814659393121095e-08,1.792226581295164e-06,1.298642190876544e-06,1.1640683107792106e-06,2.0336465450132485e-07
-1.3132225814392463e-09,1.0862559105571836e-07,4.528455077611757e-07,3.826563633318899e-07,-2.3337279919204806e-07,-5.21105474401164e-07,-1.244538896131177e-06,1.0258699563800515e-08,-2.815762507628392e-07,4.226974533359667e-08,-5.632908884074149e-07,-4.498129265882661e-07,-8.57974734332434e-07,-4.29812529955837e-08,1.9641662096798552e-06,1.0085903150812996e-06,1.009280124324005e-06,8.243233163788475e-08
-5.9500691363828486e-09,1.1792946104516483e-07,4.484956699996453e-07,3.2777017029686563e-07,-1.7664741111084132e-07,-5.314557726056779e-07,-1.1836757958633548e-06,-5.2090761157929974e-08,-2.167652161684322e-07,2.0600086340543833e-08,-4.981549166936426e-07,-3.234495396859407e-07,-7.887654670525931e-07,-1.3548801314394313e-07,1.9871931241968554e-06,5.328111922953863e-07,8.684118851100366e-07,-3.667399585426344e-08
-5.637021665334e-09,1.3912170415772585e-07,4.5042555215823603e-07,2.700341567997564e-07,-1.2134325786306253e-07,-5.367639846553158e-07,-1.1064041333520768e-06,-9.636741876166009e-08,-1.4114982873854007e-07,-4.653823199053407e-09,-4.195773309875069e-07,-1.7608891034193267e-07,-6.88940395525293e-07,-1.9925893331548393e-07,1.8222266833978205e-06,7.264722534091006e-08,7.578524085614436e-07,-1.447228663756009e-07
5.132251536096291e-09,1.736034395687951e-07,4.597618702177607e-07,2.1600948732534316e-07,-5.984586671144942e-08,-5.261762309749904e-07,-1.006229261620019e-06,-1.2285163525450843e-07,-4.8697168120927774e-08,-2.796158502691434e-08,-2.994840122235255e-07,-7.770468884127537e-09,-5.572102074712534e-07,-2.3307478008903538e-07,1.468490750063977e-06,-2.813253090279524e-07,6.866552738658938e-07,-2.4032396962143967e-07
3.022416491959043e-08,2.207943219906964e-07,4.7070634585410444e-07,1.6979175784721475e-07,1.9955783007691513e-08,-4.912387394165057e-07,-8.806600306098301e-07,-1.3462460497522e-07,6.385609003930598e-08,-4.467130118823978e-08,-1.5322625461425873e-07,1.7967296027160565e-07,-3.987702258330729e-07,-2.5111210384586233e-07,9.58340440779964e-07,-5.363044408728216e-07,6.560486902880339e-07,-3.2041376384681504e-07
7.084077678010956e-08,2.7849684786885385e-07,4.760320679745236e-07,1.331195120024438e-07,1.2440824244380573e-07,-4.2711971600563224e-07,-7.306014719154415e-07,-1.3634614586394022e-07,1.9670012945249675e-07,-5.21385198785383e-08,1.9066490465587274e-08,3.838287818109799e-07,-2.215296894753958e-07,-2.6559632906356047e-07,3.484277742311671e-07,-6.656823884509512e-07,6.518892978011759e-07,-3.903071911502497e-07
1.25359387283852e-07,3.4262966759043835e-07,4.751431975761313e-07,1.0352847600705378e-07,2.5590166068431797e-07,-3.338836951637405e-07,-5.609823518954129e-07,-1.4336999801736744e-07,3.465407541399588e-07,-5.061435154963392e-08,2.0543002882308177e-07,5.997286791119907e-07,-3.4275322443812214e-08,-2.815841247274306e-07,-2.958786717718966e-07,-6.676939838474654e-07,6.583214250283267e-07,-4.575469325704418e-07
1.8896718264127874e-07,4.079697760704723e-07,4.6372377872947025e-07,7.454064428078204e-08,4.109802300396202e-07,-2.178008188684305e-07,-3.8253752866355483e-07,-1.578740246296392e-07,5.059825144372331e-07,-4.353150651907638e-08,3.9052106737088755e-07,8.196931593552707e-07,1.5170345700913187e-07,-3.0258541908510184e-07,-9.151021046010583e-07,-5.697880904506061e-07,6.59026899486516e-07,-5.348367514531721e-07
2.5607743044623405e-07,4.6935557593913497e-07,4.375375693384289e-07,3.779365068935006e-08,5.815183681870111e-07,-9.076688906546914e-08,-2.108002870386833e-07,-1.816282626830187e-07,6.647301048403032e-07,-3.6211098391735206e-08,5.694608196196865e-07,1.0345982138965225e-06,3.274349135829981e-07,-3.2310867982532366e-07,-1.4571358877675718e-06,-4.275174210471077e-07,6.421424272381349e-07,-6.313424505171592e-07
3.2111951257474874e-07,5.228844620704329e-07,3.9357161528181673e-07,-1.4594932960955356e-08,7.521196942948348e-07,3.246173123696191e-08,-6.153125488229826e-08,-2.1858828168517147e-07,8.115102220069048e-07,-3.394384825700386e-08,7.454981153114748e-07,1.2357215638861011e-06,4.849153502927382e-07,-3.3562215820808373e-07,-1.8715859534265965e-06,-3.201058952607647e-07,6.034001418135396e-07,-7.463265259968241e-07
3.7972288172439627e-07,5.674473978918606e-07,3.406227483818735e-07,-8.597104209588063e-08,9.068787932628267e-07,1.3740151065959268e-07,5.397480322252403e-08,-2.650148214714542e-07,9.363417636493789e-07,-4.062088291090074e-08,9.057113238609731e-07,1.415949689788291e-06,6.176458792714339e-07,-3.365880814812502e-07,-2.1068692000695717e-06,-3.2628589410596226e-07,5.436806974139291e-07,-8.69863746429942e-07
4.292918959010265e-07,6.041049690841147e-07,2.8596449779625095e-07,-1.745149857830841e-07,1.033610693558844e-06,2.1261020781660568e-07,1.3189370068000512e-07,-3.1711805797580775e-07,1.0321820446490645e-06,-5.787683940936494e-08,1.039990678410535e-06,1.570155977437533e-06,7.251806078226915e-07,-3.277495620560044e-07,-2.123095796026865e-06,-4.83634626133267e-07,4.6719315883365693e-07,-9.83703186707595e-07
4.686778065565298e-07,6.356313560802845e-07,2.386334937771491e-07,-2.7452666689094254e-07,1.1252693838782828e-06,2.5233933174334955e-07,1.7708212090833093e-07,-3.6897070260757483e-07,1.0962792004010423e-06,-8.436982634894741e-08,1.1507325640001912e-06,1.6969273222691346e-06,8.079935918794816e-07,-3.144068402182979e-07,-1.9193560147727106e-06,-7.612271051974961e-07,3.812488451342836e-07,-1.0692525659397564e-06
4.987417111847416e-07,6.655587908993911e-07,2.0967542354740285e-07,-3.7703239660528397e-07,1.1817420605978748e-06,2.5773985006307417e-07,2.008563395416983e-07,-4.1238082782812513e-07,1.1310027353966837e-06,-1.1617268725690247e-07,1.2400056121957277e-06,1.7986064390844585e-06,8.693015210173426e-07,-3.013460595130092e-07,-1.5556969323496328e-06,-1.0725311244103e-06,2.94694755064062e-07,-1.1163146637158076e-06
5.222057252491823e-07,6.967837205921906e-07,2.033893960535203e-07,-4.72076870318577e-07,1.2084982314027258e-06,2.3565457444888018e-07,2.1568788508153698e-07,-4.393675599587449e-07,1.1430521528042798e-06,-1.4792169160010935e-07,1.3128110236566956e-06,1.8789305229987282e-06,9.143395096534755e-07,-2.8992733077549297e-07,-1.1449604081812583e-06,-1.320848642849565e-06,2.1438500169461014e-07,-1.1288572103009761e-06
5.430888960026086e-07,7.299237800357317e-07,2.1831973203261044e-07,-5.515656366545329e-07,1.2135187901873212e-06,1.9670502291153706e-07,2.3123137559038916e-07,-4.486213494619875e-07,1.1418239982099158e-06,-1.757265408397259e-07,1.3740173638992105e-06,1.942019555540088e-06,9.472228379423027e-07,-2.776156788389423e-07,-8.100577090921695e-07,-1.4429701868369364e-06,1.4288066102441465e-07,-1.1235208475544841e-06
5.65672100062741e-07,7.629857244031809e-07,2.465418920928632e-07,-6.098553337565545e-07,1.2049641237220042e-06,1.539395139246283e-07,2.5369588656315844e-07,-4.41745903171634e-07,1.1376364541264987e-06,-1.9571805219679115e-07,1.4252155026462595e-06,1.9921044151829066e-06,9.713858614633264e-07,-2.6037032543920576e-07,-6.438409876133217e-07,-1.4250305933148593e-06,7.869080863982994e-08,-1.1205988695889364e-06
5.942264740000895e-07,7.922162696134222e-07,2.756015073366359e-07,-6.440312346016e-07,1.1920603673155245e-06,1.2077249738456333e-07,2.852440930424806e-07,-4.216404578991671e-07,1.138934221309746e-06,-2.0537199519681687e-07,1.4952349940984568e-06,2.0325722670378756e-06,9.888235226719277e-07,-2.3693612031627274e-07,-7.002796510172486e-07,-1.290962962716748e-06,1.80513722366018e-08,-1.1339344899530456e-06
6.314529849183151e-07,8.130297006006902e-07,2.9210870901300584e-07,-6.578837505124321e-07,1.1840241954207776e-06,1.0697256031976455e-07,3.2206051650070095e-07,-3.9402149839960136e-07,1.1488717378187257e-06,-2.053180323155609e-07,1.5639461410842522e-06,2.065971534512092e-06,9.976246055525507e-07,-2.1141765050220676e-07,-9.944247843914705e-07,-1.0812238357766878e-06,-4.2252042365984295e-08,-1.1655461960928956e-06
6.774056154399667e-07,8.211668414987194e-07,2.85931907814968e-07,-6.578158289916197e-07,1.1827780854918328e-06,1.154317286811364e-07,3.5504281777251817e-07,-3.6462079704958597e-07,1.16604423547709e-06,-1.9866898574330793e-07,1.6061372438830448e-06,2.090048597800965e-06,9.933351905213999e-07,-1.9151566309446826e-07,-1.4778134908661605e-06,-8.38508073580969e-07,-1.0156393241998777e-07,-1.2061154026820565e-06
7.282827876808019e-07,8.152516990353347e-07,2.526636627062682e-07,-6.512775553705562e-07,1.186138380003877e-06,1.4187751137636466e-07,3.7469726913534457e-07,-3.3777607122057234e-07,1.1823529406591908e-06,-1.8981551869908216e-07,1.6281411652382397e-06,2.10043768227285e-06,9.71876153480657e-07,-1.846253829186706e-07,-2.0208364595423052e-06,-6.032441849336726e-07,-1.5384273090276984e-07,-1.2386401970251924e-06
7.784620060071285e-07,7.981962583498274e-07,2.0596755553575846e-07,-6.418053248116551e-07,1.1888843926184654e-06,1.7654451538791974e-07,3.760161739019231e-07,-3.1276396817438476e-07,1.1890148233076448e-06,-1.8180594114011948e-07,1.6245221366807656e-06,2.091863358571741e-06,9.314993257141962e-07,-1.9540921871994333e-07,-2.4477167473386956e-06,-4.0857392230224544e-07,-1.8847010296864956e-07,-1.2399745764372173e-06
8.222061228322339e-07,7.766728106851266e-07,1.602371503013841e-07,-6.31192345970178e-07,1.183127410862551e-06,2.0693297545669254e-07,3.602606011716803e-07,-2.8572837020399547e-07,1.17837910229108e-06,-1.7656288754676477e-07,1.5992639220927817e-06,2.058193200105699e-06,8.733413970416724e-07,-2.2364415613070115e-07,-2.607871847790548e-06,-2.687115374661736e-07,-1.916088336920354e-07,-1.2015900415754024e-06
8.561513851741067e-07,7.589982879871107e-07,1.3614404896358465e-07,-6.153834817774193e-07,1.1610222008347245e-06,2.2173527770491818e-07,3.3455087201760434e-07,-2.51018890482063e-07,1.1444408770877587e-06,-1.7390577232368423e-07,1.5594731169333273e-06,1.9957051818094563e-06,8.022530667980083e-07,-2.6029031172939275e-07,-2.437447137577681e-06,-1.717062847733285e-07,-1.4787192862691303e-07,-1.1186299092408726e-06
8.797140593538199e-07,7.531658206152857e-07,1.9174669074529854e-07,-5.890430812476192e-07,1.1098726946760126e-06,2.145937204897559e-07,3.0880695405530144e-07,-1.973341464963414e-07,1.0862075102216156e-06,-1.6971169235836916e-07,1.5049150593366074e-06,1.904726590394233e-06,7.163546241219164e-07,-2.85553522011479e-07,-1.982637426021896e-06,-8.928753562787199e-08,-4.545182198075972e-08,-9.795636955313853e-07
8.952868743797435e-07,7.649159808831623e-07,2.7448912193764335e-07,-5.425895401346525e-07,1.0314384280092228e-06,1.8517508024524543e-07,2.896245119673215e-07,-1.1594704257278845e-07,1.0078099827497323e-06,-1.5946036431680766e-07,1.4301965619589976e-06,1.7903036794803076e-06,6.25870905969334e-07,-2.7405875262855025e-07,-1.3751275580069728e-06,3.2944735102473516e-09,1.1632786714294319e-07,-7.805974422627892e-07
9.062779674341183e-07,7.953755761328967e-07,3.5447156185382914e-07,-4.6348224645269534e-07,9.318722074905557e-07,1.379878392385171e-07,2.761525888095623e-07,-1.5017723780648735e-09,9.181709968864568e-07,-1.4059703582047398e-07,1.3454651961931816e-06,1.6624349716617179e-06,5.457473835081791e-07,-2.058643165564483e-07,-7.621308602866371e-07,1.1573421513951843e-07,3.282269981109465e-07,-5.316164897511487e-07
9.147784260414606e-07,8.403061704279839e-07,5.104439553896056e-07,-3.5815328468574047e-07,8.205135394251281e-07,8.104597398349409e-08,2.62860756564453e-07,1.3816848476914957e-07,8.304096364875574e-07,-1.1335494560693551e-07,1.2643051538964072e-06,1.5375320153947395e-06,4.810345690842995e-07,-7.696667989198054e-08,-2.4117330195931494e-07,2.439154330304108e-07,5.635114122209774e-07,-2.539831096390321e-07
9.221100165082422e-07,8.913314809371961e-07,7.13007453372044e-07,-2.3743465384732906e-07,7.126948846855083e-07,2.43100587856196e-08,2.453757641127952e-07,2.8819395756397915e-07,7.57538829512246e-07,-8.294199624379743e-08,1.1955510004205846e-06,1.4350273962387577e-06,4.3985786383464525e-07,9.563739762190812e-08,1.4815355313418885e-07,3.715173246912111e-07,7.862268054141099e-07,2.1293507548055692e-08
9.301835352677927e-07,9.383572994989727e-07,8.698232953200036e-07,-1.3525243919944212e-07,6.241246125412568e-07,-2.3381411134784778e-08,2.2258887705643673e-07,4.048739329009284e-07,7.121258206619221e-07,-5.533613444749584e-08,1.1501911416517965e-06,1.370942666739656e-06,4.230694490990807e-07,2.762105670859115e-07,3.979823237063762e-07,4.6552362166744964e-07,9.748633108004896e-07,1.5820905996342286e-07
9.335331614183891e-07,9.722070156288118e-07,9.157060483481292e-07,-1.220724158382101e-07,5.608812355299953e-07,-5.752110235828382e-08,1.955066094114773e-07,4.3621215319836716e-07,6.947278028034448e-07,-3.7663063077900166e-08,1.130075255355956e-06,1.3477752216342655e-06,4.257220850302566e-07,4.206222008031523e-07,4.746373959607253e-07,4.782141495792092e-07,1.0646579147615692e-06,1.2188639560018758e-07
9.318144427231196e-07,9.8729780675473e-07,8.823827287866076e-07,-2.1299824836757324e-07,5.270970617807408e-07,-7.863600132411644e-08,1.6727110961186583e-07,4.2816581808266816e-07,7.063249098449513e-07,-3.496443673394811e-08,1.1338909688922786e-06,1.360409999692212e-06,4.4028638405317185e-07,4.93132584320325e-07,3.6993792883331683e-07,3.688691350260916e-07,1.025676898996256e-06,1.2836527189657614e-07
9.258708902090869e-07,9.830485495730269e-07,8.333834513845662e-07,-3.36755441903563e-07,5.249263654584433e-07,-9.047972911607993e-08,1.4429021588492366e-07,3.9154951333457517e-07,7.444345534834897e-07,-5.0676690712681225e-08,1.1613567734583937e-06,1.4074764012784648e-06,4.584243880333901e-07,4.799648468139947e-07,1.1285803915177692e-07,1.3429435623762482e-07,1.0988579917872163e-06,1.197032850442446e-07
9.156666225897107e-07,9.629681688721757e-07,8.454227405107015e-07,-3.5506624841267695e-07,5.499553987570427e-07,-9.733186798687624e-08,1.3571830027174048e-07,4.027323995137514e-07,8.020858342901573e-07,-8.545460996990037e-08,1.1990017725793277e-06,1.4796110917965795e-06,4.785710161929472e-07,3.9449994266446875e-07,-2.451680823081126e-07,-1.8136989591918017e-07,1.133103496060273e-06,1.6362804658616787e-07
9.048601083618522e-07,9.32711713755251e-07,8.223709875862445e-07,-4.07973634852472e-07,5.977292607009116e-07,-1.0124111951283166e-07,1.5117681981051673e-07,3.999476748675063e-07,8.737739911568228e-07,-1.3495449579908662e-07,1.2445724460297115e-06,1.566689833774246e-06,4.990725366247708e-07,2.6982385025959427e-07,-6.339591320951674e-07,-5.114047938374857e-07,1.0576822542301065e-06,1.4461298833527825e-07
8.962386991572814e-07,8.985606437735876e-07,7.927674236895508e-07,-4.898694640303051e-07,6.636926496391903e-07,-1.006433275076868e-07,1.9764057136551523e-07,3.2737001173484787e-07,9.516937567412463e-07,-1.9183071823510834e-07,1.2989981587003362e-06,1.6602912720023976e-06,5.204206398660708e-07,1.4296061673416328e-07,-9.841950988424082e-07,-8.054366873290992e-07,9.158297041972549e-07,-2.344434666005931e-08
8.943386558193396e-07,8.66111442245192e-07,7.197248691224161e-07,-6.409810069226855e-07,7.406961312185373e-07,-9.185042671342237e-08,2.757510393231878e-07,2.2866915317861621e-07,1.0293032033589684e-06,-2.46953455208336e-07,1.3555946580412832e-06,1.748984317431129e-06,5.415147884412547e-07,3.9313750302820946e-08,-1.2253921635915303e-06,-1.0492819318075863e-06,8.056065075733553e-07,-1.86376731583728e-07
9.010773727753297e-07,8.387429664635677e-07,6.237382456855891e-07,-8.034284978169776e-07,8.191413227138733e-07,-7.215295540959037e-08,3.7774798685085773e-07,1.3730051191024108e-07,1.0996461881854126e-06,-2.936674880576977e-07,1.403095166760095e-06,1.8234922403618178e-06,5.574260103714632e-07,-3.5818445983708526e-08,-1.2980130339939903e-06,-1.252688867016835e-06,7.122408595068232e-07,-3.596970950327688e-07
9.165101946174859e-07,8.169336230016846e-07,5.269314543961213e-07,-9.480227247702754e-07,8.893041302810666e-07,-4.1639256554481474e-08,4.897125973959359e-07,5.4515944281875934e-08,1.157787404836783e-06,-3.2875319241135484e-07,1.4423377522409223e-06,1.8797870073559114e-06,5.636787042865083e-07,-9.401141849185593e-08,-1.1734342171614375e-06,-1.4227808531048613e-06,6.221432251549578e-07,-5.310503502380872e-07
9.372284941113693e-07,7.99093443226169e-07,4.038226090795415e-07,-1.09677098623463e-06,9.4104916835661e-07,-3.1234539307459775e-09,5.965433933325723e-07,5.515401074173463e-09,1.1990160619905244e-06,-3.5232116108891485e-07,1.473247088693409e-06,1.921917305154365e-06,5.583630072965752e-07,-1.524272322782949e-07,-8.804201839727517e-07,-1.5507012715285942e-06,5.430798828018116e-07,-6.176667999435857e-07
9.581444899315206e-07,7.828745919023726e-07,3.0815105234288293e-07,-1.198730601394099e-06,9.67950978877372e-07,3.8387529439342806e-08,6.858818820510606e-07,-2.493620520827895e-08,1.2256987488571182e-06,-3.6747593631361186e-07,1.4960776039524463e-06,1.9455048868950796e-06,5.434173386917561e-07,-2.229302878833481e-07,-4.88108379956388e-07,-1.6193205068897094e-06,4.759775733985909e-07,-6.898789888022956e-07
9.750946756136365e-07,7.661324810116928e-07,2.334825414901759e-07,-1.2598696126604664e-06,9.669281149301306e-07,7.665588703007651e-08,7.502143690915615e-07,-4.518784786690611e-08,1.2342159935891678e-06,-3.784672078670697e-07,1.5083945621853937e-06,1.945050381684649e-06,5.128553249454774e-07,-3.07676556483059e-07,-6.810410844047842e-08,-1.618310352668897e-06,4.1943836062817656e-07,-7.489531532954844e-07
9.84852438245346e-07,7.487542863444177e-07,1.5944886489057142e-07,-1.305117280145802e-06,9.330391755784537e-07,1.0620523703539722e-07,7.877941542840951e-07,-5.608636393119706e-08,1.2192225345482248e-06,-3.892443460852964e-07,1.5093851183832798e-06,1.9310399215051045e-06,4.637633329998687e-07,-4.002884553848845e-07,3.3301679823425065e-07,-1.5513277128330408e-06,3.7230994840952677e-07,-7.99381224978078e-07
9.873539908474853e-07,7.307121133144742e-07,9.560306101702364e-08,-1.3343961021264204e-06,8.681166880920182e-07,1.2412723016443847e-07,8.0125967780116e-07,-7.012015410394134e-08,1.1875214834689843e-06,-4.0085007858140226e-07,1.4893998540669493e-06,1.894721413376272e-06,3.933247795986241e-07,-4.89861817217188e-07,7.098450821953035e-07,-1.4305899351936456e-06,3.4164356867211716e-07,-8.601979208040658e-07
9.847853439871264e-07,7.124108804167731e-07,3.3702403241694207e-08,-1.359287517248615e-06,7.773354061957638e-07,1.3042999664534177e-07,7.94324154406567e-07,-7.789573586649153e-08,1.13922838706636e-06,-4.104901332568618e-07,1.4442380921393452e-06,1.828766291017424e-06,3.1005743826239724e-07,-5.646188651172787e-07,1.0899401789726481e-06,-1.2657867078299553e-06,3.2745749367092496e-07,-9.033320918898021e-07
9.806174025538355e-07,6.949303011139704e-07,-1.6981448485936498e-08,-1.3779521993502872e-06,6.67712468482163e-07,1.2792841297145422e-07,7.70366545165414e-07,-6.787152003103618e-08,1.0754247978045894e-06,-4.155122511159794e-07,1.3786727660282948e-06,1.7365149672803567e-06,2.122356391446952e-07,-6.133789814322255e-07,1.417266532109364e-06,-1.0615814164614977e-06,3.3851790489827204e-07,-9.123595520768169e-07
9.793298815491007e-07,6.761106172699154e-07,-4.7690961984070296e-08,-1.3913141697231092e-06,5.535686910664803e-07,1.223415628566927e-07,7.338997523493041e-07,-3.531838944815794e-08,1.0038445990867575e-06,-4.114485959873556e-07,1.3085474068576332e-06,1.6436132328303046e-06,8.305532696478942e-08,-6.273108348119612e-07,1.8122800468954288e-06,-8.300658853173637e-07,3.825942063970775e-07,-8.844800680445103e-07
9.872900855155142e-07,6.537139733284521e-07,-5.979129255867287e-08,-1.392004614587017e-06,4.3967888473192483e-07,1.2120453950060748e-07,6.91312628485304e-07,2.410039108376833e-08,9.282848300392427e-07,-3.9619152740599336e-07,1.2326665681379638e-06,1.5402861515128602e-06,-6.935554704575262e-08,-6.049966888094755e-07,2.2320199809742933e-06,-6.030062101909702e-07,4.575080292668845e-07,-8.172155435272666e-07
1.001301860384826e-06,6.265459537120248e-07,-6.092475279058257e-08,-1.389990743128403e-06,3.313445765899426e-07,1.3156341451022167e-07,6.496392494861041e-07,1.0348938774312962e-07,8.5015058130026e-07,-3.707482588109296e-07,1.1217640085445663e-06,1.410973509098157e-06,-2.1833228175909276e-07,-5.579121121749554e-07,2.5617186836571863e-06,-4.2341900480292085e-07,5.562428366373887e-07,-7.148670204247406e-07
1.0148072287125192e-06,5.92892250888536e-07,-6.504044049666747e-08,-1.3946068502237412e-06,2.3282403779087844e-07,1.5863065557981865e-07,6.16740914281382e-07,1.863300135425362e-07,7.881062799447309e-07,-3.382962851338773e-07,1.039944163491904e-06,1.3287337007987044e-06,-3.350603480272503e-07,-5.08957159504225e-07,2.7583964461976583e-06,-3.1378444902550203e-07,6.630869184865233e-07,-5.956158713756246e-07
1.0203391147692315e-06,5.529703612703263e-07,-8.989769402646563e-08,-1.414809821741649e-06,1.2939628009820546e-07,2.0601886676623098e-07,6.03028260475226e-07,2.2930559198697986e-07,7.78830217394428e-07,-3.0416753484518234e-07,1.0398888766191195e-06,1.27903397696944e-06,-4.275771637945293e-07,-4.850580775610514e-07,2.7355651094553023e-06,-2.6607809888926764e-07,7.515209821575592e-07,-4.839502603782842e-07
1.011887047132458e-06,5.103712871863265e-07,-1.494832399704182e-07,-1.5124413273987666e-06,2.767970097797833e-08,2.756561632041179e-07,6.200162504480339e-07,2.0085317080187276e-07,7.749887329507619e-07,-2.737512467609892e-07,1.1551305873474456e-06,1.382072872318002e-06,-4.070815253192988e-07,-5.064182488409081e-07,2.5112634178017876e-06,-2.5511818311247454e-07,7.548728590108912e-07,-4.3302174799261984e-07
9.896822184174275e-07,4.708302723715922e-07,-2.4931782191388465e-07,-1.666181572531455e-06,-5.812891591287757e-08,3.6709270465170705e-07,6.753550091220679e-07,1.3338455646846169e-07,8.452521483558284e-07,-2.5290257583004307e-07,1.3044876515635718e-06,1.641508538569196e-06,-2.942040646819188e-07,-5.780619707782286e-07,2.0847799691496068e-06,-2.6148356612159905e-07,7.086206137808788e-07,-5.104385390423458e-07
9.541501396230139e-07,4.339365144429382e-07,-3.7915507968041035e-07,-1.7813571227043199e-06,-1.3482919805236315e-07,4.774958936402168e-07,7.691745831255258e-07,8.50821060192297e-08,9.61004863891747e-07,-2.476307089357716e-07,1.4261550580879392e-06,1.8312566842803814e-06,-2.288795627624958e-07,-6.881136417678897e-07,1.6144179384274495e-06,-2.8160449132902663e-07,6.049048623640251e-07,-7.26518857688501e-07
9.073347373554634e-07,4.085779538740828e-07,-5.290936548377747e-07,-1.8562637445822768e-06,-1.1175748562096173e-07,6.019612398846389e-07,8.939374955290796e-07,7.167486121463842e-08,9.920357547265244e-07,-2.5684818359880306e-07,1.4938070789938623e-06,1.8668344667718987e-06,-2.2104517754824256e-07,-8.141695164543322e-07,8.548611008209029e-07,-3.183589981609076e-07,4.282216898392286e-07,-8.530265186424891e-07
8.461726235712089e-07,4.1006745789848216e-07,-6.855780638555838e-07,-1.923025790979082e-06,-1.627273651543347e-08,7.333071087183542e-07,1.0367252205208617e-06,-1.3015485963350768e-08,1.1189864314945313e-06,-2.686512395059198e-07,1.5287108714336047e-06,1.8447944657140353e-06,-1.3169223227563377e-07,-9.356047308946795e-07,-1.8586593554722e-07,-3.6984850082704334e-07,2.8027997814462547e-07,-9.638857132430806e-07
7.758644472919865e-07,4.3560754417149776e-07,-8.337503931134352e-07,-1.9661008537897364e-06,8.027699575177624e-08,8.623244965215096e-07,1.1837779559909807e-06,-1.5638029378662222e-07,1.3230636743365053e-06,-2.8275586452116805e-07,1.666419249222433e-06,1.9470986701836046e-06,3.961610283365351e-08,-1.0428021809296892e-06,-1.3687341711904455e-06,-4.244664730361915e-07,5.7717227319737166e-08,-1.0519935683465934e-06
7.025112773648497e-07,4.961132245432663e-07,-9.62311883667921e-07,-2.145469647697905e-06,1.5557601012270633e-07,9.791529413598553e-07,1.3253735868942637e-06,-2.7144870700418236e-07,1.472998714969273e-06,-2.995521960087432e-07,1.8640178135485508e-06,2.1298133992240456e-06,2.1655872468533357e-07,-1.1374210504447393e-06,-2.623527175272102e-06,-4.641214977162751e-07,-2.1742444126504663e-07,-1.2444384622865357e-06
6.331506800869576e-07,5.696759954422506e-07,-1.0758880977815398e-06,-2.347832114015097e-06,2.722491767660024e-07,1.0742876570840515e-06,1.4561700836161592e-06,-4.19844764424224e-07,1.6098896602391335e-06,-3.1684806241628037e-07,1.992436375261882e-06,2.2339421694813268e-06,3.385587920852179e-07,-1.2255858382327865e-06,-3.533670728762463e-06,-4.7305601965626634e-07,-4.4635461703353116e-07,-1.4537019968888186e-06
5.763316023865889e-07,6.300638429875725e-07,-1.1504026123784357e-06,-2.440946471782895e-06,3.248779296858923e-07,1.1386358892502123e-06,1.5705949318063504e-06,-5.26744348214935e-07,1.6034171965679965e-06,-3.357404236005889e-07,2.012100246108829e-06,2.211471431805383e-06,3.5867936501544295e-07,-1.3100692555453955e-06,-4.161906138490669e-06,-4.461049570490585e-07,-6.784091042126552e-07,-1.5962712841413184e-06
5.376582011321891e-07,6.797961230785158e-07,-1.180906639741082e-06,-2.5049316221461374e-06,2.7453195422119287e-07,1.1645045075845726e-06,1.659651030529505e-06,-5.548673252033723e-07,1.498380142076891e-06,-3.515914640904572e-07,2.006783411556182e-06,2.161328025830775e-06,2.917156286747518e-07,-1.38556289567199e-06,-4.399072159416528e-06,-3.882865982613799e-07,-7.269330673124365e-07,-1.6216985325396545e-06
5.165096531837399e-07,6.938295349013106e-07,-1.1714823541196403e-06,-2.4398564627793232e-06,1.6566342389335564e-07,1.1481404137053938e-06,1.7128754175297924e-06,-5.565478358850402e-07,1.4039444387721934e-06,-3.617951997667834e-07,1.957871313878528e-06,2.035006468061974e-06,2.66041831092527e-07,-1.4406206683091501e-06,-4.278866959230392e-06,-3.1006669678083097e-07,-7.010358990802969e-07,-1.664255139487872e-06
5.214162728999805e-07,6.93931183153137e-07,-1.1021776509963558e-06,-2.3891593250323495e-06,2.5474212575033577e-08,1.0918805427695307e-06,1.7218884439710694e-06,-5.364116929871592e-07,1.3834175255477168e-06,-3.657396513875387e-07,1.8691053272227184e-06,1.8960952675523926e-06,3.060563263107466e-07,-1.4668067834490122e-06,-4.071945546103191e-06,-2.2152740104853202e-07,-7.56915479329582e-07,-1.731368208879619e-06
5.445982238702448e-07,6.766302867031608e-07,-1.0209433486425316e-06,-2.3734191404057783e-06,2.5165926174076333e-09,1.004462972126677e-06,1.6821286521191732e-06,-5.10797196258981e-07,1.376491513735843e-06,-3.722876830501703e-07,1.832116371883743e-06,1.9232762298381687e-06,2.3016967960303267e-07,-1.46788946562117e-06,-3.4365401138376124e-06,-1.2437794330310635e-07,-9.046373653447348e-07,-1.7799378851069e-06
5.746507427601627e-07,5.795034495438482e-07,-9.450057742637705e-07,-2.3988563993131243e-06,-7.695218096772586e-08,8.997003650334004e-07,1.5939530660435598e-06,-4.331359786468471e-07,1.2864663774135583e-06,-3.7535356428526814e-07,1.7844747172243906e-06,1.9334494700012855e-06,1.469054352272052e-07,-1.4604748543664755e-06,-2.620671501409829e-06,-7.156677528435886e-09,-9.821925959585338e-07,-1.818867467976764e-06
6.095919281435082e-07,5.099664092521272e-07,-8.856145835096305e-07,-2.375388483761495e-06,-1.7656328505345545e-07,7.937911696775812e-07,1.4639073551932162e-06,-3.417457489738593e-07,1.1776697560070034e-06,-3.6683614071345135e-07,1.7071485911216368e-06,1.8648090903485596e-06,1.8308168996816306e-08,-1.467645358849575e-06,-1.9063910458951166e-06,1.4701027770557595e-07,-9.194122782892201e-07,-1.739368400738195e-06
6.423345792174518e-07,4.781479066963632e-07,-8.553207411900156e-07,-2.3370893358629826e-06,-2.829870728435399e-07,7.018053165745056e-07,1.3047226971953004e-06,-2.7854070688825616e-07,1.0198795608323028e-06,-3.4904699954386274e-07,1.6450881457247534e-06,1.7793934098229168e-06,-9.450712771848386e-08,-1.506972712527597e-06,-1.1778791014075606e-06,3.4802642000361674e-07,-7.436356536432015e-07,-1.5776124108646572e-06
6.749672502713107e-07,4.301991910150534e-07,-8.488490195756898e-07,-2.32257893545367e-06,-3.995577499044409e-07,6.351660327449556e-07,1.1340825919051055e-06,-1.8739543902339671e-07,8.717584051234752e-07,-3.198073260140636e-07,1.5089554698055317e-06,1.6046101647744355e-06,-2.3565549016197798e-07,-1.5898485810085715e-06,-8.505946447529584e-07,5.884493516688505e-07,-5.772878132850507e-07,-1.4531978437053455e-06
6.401520520269432e-07,4.0672194781328223e-07,-8.748879314562656e-07,-2.2556976402917996e-06,-5.260436754875982e-07,6.007906139747572e-07,9.728553607397083e-07,-1.1449596864806259e-07,7.329781348284318e-07,-2.711494534870347e-07,1.3348995656969355e-06,1.4152217932951833e-06,-4.1435551296638993e-07,-1.7138226719444855e-06,-8.552248613409776e-07,8.412856948998236e-07,-4.282094195667228e-07,-1.3015367511254375e-06
5.561594299293872e-07,3.655191483442911e-07,-9.381039131573703e-07,-2.1784267710529823e-06,-6.545383395355472e-07,5.983912650441413e-07,8.408481688633543e-07,-6.30004100440351e-08,6.035637015817538e-07,-1.9775233398611308e-07,1.1850008757550426e-06,1.2699989146260357e-06,-5.737438503468818e-07,-1.863192567523395e-06,-9.559333265792964e-07,1.0694740907987147e-06,-3.4990467718172706e-07,-1.096579010018766e-06
4.515009896291651e-07,2.504302221227514e-07,-1.0196383633533276e-06,-2.114370900138383e-06,-7.459169698995378e-07,6.258417933755978e-07,7.494571192900022e-07,-1.812204566814246e-08,5.523362989587275e-07,-1.0376213595698136e-07,1.0273236012970573e-06,1.1486538997922152e-06,-6.716249172730392e-07,-2.010491140217884e-06,-1.1221875057970048e-06,1.2394424911994619e-06,-3.3239715493579156e-07,-9.89864782405641e-07
3.582662951127787e-07,1.1452905221916404e-07,-1.080901107928337e-06,-2.0927935209906058e-06,-7.787524437099595e-07,6.647387323786157e-07,6.965263657481377e-07,-1.523101909497299e-08,5.587179220818984e-07,-1.2158697365040134e-08,9.511496517708713e-07,1.052433986408825e-06,-6.982159073339143e-07,-2.128458591004058e-06,-1.122757528781053e-06,1.3293634921028646e-06,-3.3773685708546556e-07,-9.125904976114433e-07
2.651063544421638e-07,3.036624480585426e-08,-1.0664029792364852e-06,-2.0749784617875976e-06,-7.556480093656079e-07,6.960672668112975e-07,6.679785723178106e-07,-3.0383893086648584e-08,5.92708957332222e-07,7.088622262923751e-08,9.100341844852944e-07,1.0089131925280441e-06,-6.837318781027058e-07,-2.1967492936276566e-06,-9.000221629254722e-07,1.3258304386586136e-06,-3.5054142417736615e-07,-8.690035755381705e-07
1.9036442250914054e-07,9.958345800080981e-09,-9.691191569206685e-07,-2.054838500514082e-06,-7.241808317273381e-07,7.133509983594576e-07,6.42983293872926e-07,-2.459569947231924e-08,6.495207637389498e-07,1.4064551689419205e-07,8.530995089119851e-07,9.824750205864805e-07,-6.505553017707087e-07,-2.2121865115539245e-06,-5.687643246281087e-07,1.2166877861902996e-06,-3.3937640655447227e-07,-8.003246316591968e-07
1.4231314892363868e-07,-2.874133603305224e-08,-9.211234820217294e-07,-1.9932812730821603e-06,-6.933982370210662e-07,6.393795050650014e-07,5.980321901395936e-07,9.628954012326108e-09,6.710609291008662e-07,2.1664811115765951e-07,7.794973091042459e-07,9.38628439242097e-07,-6.366956646564421e-07,-2.214985902082098e-06,-3.318885821333657e-07,9.950685158215777e-07,-3.020749887638981e-07,-6.7896113769442e-07
9.901561911097245e-08,-1.057015163317725e-07,-8.819076990427499e-07,-1.889748552529434e-06,-6.813108060985944e-07,5.092279550123625e-07,5.112113847721599e-07,1.1244562140208694e-07,6.015562664774668e-07,3.002328953569091e-07,6.89924369000539e-07,9.069920338445144e-07,-6.906668260698529e-07,-2.2142435208961577e-06,-3.7025467374304407e-07,6.749521686755506e-07,-2.4100073572135456e-07,-4.783393165699369e-07
6.928339153623161e-08,-1.695078840806679e-07,-8.166569081473575e-07,-1.7358709883208764e-06,-7.710845025320219e-07,3.9190196582732936e-07,3.6868413520592695e-07,3.131044300564416e-07,4.2006603979224146e-07,3.791982343641225e-07,5.695325205058603e-07,7.679362368240157e-07,-7.638805980886957e-07,-2.2669700957893696e-06,-7.658727767845718e-07,3.035119262911137e-07,-1.5740969652124628e-07,-2.053258848665281e-07
4.4004934787108756e-08,-2.1055113958687114e-07,-7.619323631112444e-07,-1.530472264010826e-06,-8.826657888089029e-07,2.315396592852472e-07,1.7009619905351464e-07,4.059148540021361e-07,2.585139717884472e-07,5.109630989495136e-07,3.770767113981798e-07,5.652760389037505e-07,-8.351568177758434e-07,-2.3020515920981424e-06,-1.300916635548974e-06,-4.6516352437998643e-08,-6.002935670939246e-08,-9.506318857829017e-08
1.0709692867010685e-08,-2.2090118899341127e-07,-7.277267421237346e-07,-1.4321175740619999e-06,-1.0420926777483813e-06,3.0478966560914535e-08,-7.091011103264811e-08,4.708282152881714e-07,1.471960745765163e-07,5.956595797432516e-07,1.4856802863799565e-07,2.8206932465669016e-07,-8.218811049392095e-07,-2.198476881259494e-06,-1.614392748760474e-06,-2.977434452626994e-07,3.8958880921022426e-08,3.747647573512376e-08
-6.126239689761057e-08,-2.0437664640528032e-07,-6.703051785769291e-07,-1.3311905970936481e-06,-1.1283647908450645e-06,-1.4790739162854346e-07,-3.303083153218769e-07,5.508265425552164e-07,8.668114752385744e-08,6.763947271800663e-07,-1.310524520963331e-07,-4.811127994658979e-08,-7.915611963863614e-07,-2.0585064629630703e-06,-1.801035317010686e-06,-3.9050308071644933e-07,1.280012941443159e-07,1.926158139551755e-07
-9.018698715153543e-08,-2.2693369611210271e-07,-5.420914901569115e-07,-1.2511906737751604e-06,-1.2101099443992595e-06,-2.757918570025472e-07,-5.791776271965518e-07,6.197984003950616e-07,-1.1935944099888723e-07,7.677714517716535e-07,-4.1854437003925305e-07,-4.658124370691388e-07,-7.946130211074068e-07,-1.980547087003571e-06,-1.9563313694606936e-06,-2.7949011178645437e-07,1.9895315833656773e-07,4.638412804107224e-07
-9.015729544692162e-08,-2.3305790103766642e-07,-3.699840141785811e-07,-1.092333582260275e-06,-1.4119587057148613e-06,-3.563928235986395e-07,-7.906113016971484e-07,7.680755873580279e-07,-3.257647772097434e-07,8.554725592878919e-07,-6.618688599221243e-07,-8.469827882047374e-07,-9.358092525859074e-07,-1.994013466867918e-06,-1.79532490195474e-06,3.5013804820898674e-08,2.4459861853175587e-07,8.392545821933416e-07
-1.1163917625495974e-07,-2.501092074803421e-07,-2.782786005818278e-07,-9.13394872703413e-07,-1.594340681168584e-06,-3.8872427223765785e-07,-9.469190739714005e-07,8.839075346224609e-07,-4.1915182150541395e-07,9.674832394645064e-07,-7.695960204675434e-07,-1.0102630792046166e-06,-1.0524028155515616e-06,-2.0264636781770305e-06,-6.324941667271875e-07,5.268380187869238e-07,2.6067937062790004e-07,1.096285185762851e-06
-2.0067148534656604e-07,-3.353086718819395e-07,-1.896313485489096e-07,-8.107117028503523e-07,-1.6694030048010754e-06,-3.842997176229592e-07,-1.044263915481736e-06,8.854765790749943e-07,-4.795786218533777e-07,1.0685396038928051e-06,-7.967157718612787e-07,-1.0087168699526409e-06,-1.1024091728581168e-06,-2.000945323954696e-06,1.0264875875022145e-06,1.1269045852376882e-06,2.4904132074365367e-07,1.2416950709039417e-06
-3.2074180511044725e-07,-4.360145791436519e-07,-9.107937401423439e-08,-7.024500521495603e-07,-1.7172905888679943e-06,-3.598611719223136e-07,-1.0928645739483608e-06,8.766147717928975e-07,-4.665418750935299e-07,1.131423009710215e-06,-7.945233289120169e-07,-1.0595351422235913e-06,-1.1063410674736154e-06,-1.9860120467573563e-06,2.071643628725637e-06,1.7105895428761456e-06,2.1818834350085338e-07,1.3512638071890419e-06
-3.809514711466095e-07,-5.16979980436206e-07,-2.6048234306956374e-08,-6.180009750525015e-07,-1.7051342363946306e-06,-3.3208323300475585e-07,-1.1121489562873155e-06,8.674600394038733e-07,-4.279320132290326e-07,1.1442347962853849e-06,-8.450998159416163e-07,-1.1747719006714111e-06,-1.1329916678388637e-06,-2.005656761306902e-06,2.745352720825536e-06,2.159417447040339e-06,1.7975395149549468e-07,1.5012942597373392e-06
-4.02637849039519e-07,-5.850075725969988e-07,8.578775260705213e-08,-5.616616982357456e-07,-1.6092572779563331e-06,-3.1299784807558174e-07,-1.1212945423925367e-06,9.057377474549337e-07,-4.4767965421569356e-07,1.178722886154272e-06,-1.0066129569249877e-06,-1.3031188390372363e-06,-1.1263504967871311e-06,-2.0346054103232116e-06,2.747450378737768e-06,2.400686800345506e-06,1.4484996612890556e-07,1.6901997011981358e-06
-3.8486547162877216e-07,-6.428324129939783e-07,2.1489931737571312e-07,-4.6651716521220633e-07,-1.5665576963197408e-06,-3.070801492727589e-07,-1.1298199706051515e-06,9.772202093185023e-07,-5.050280462497774e-07,1.2189637830887683e-06,-1.156551629848798e-06,-1.3717731597905637e-06,-1.1995018599443579e-06,-2.012559272038338e-06,2.5323816909938665e-06,2.4451670502761683e-06,1.2204423121401187e-07,1.8176473463729649e-06
-4.2601127726069754e-07,-6.850530032129171e-07,3.075473601531371e-07,-3.6775516428615196e-07,-1.6131303065246229e-06,-3.1185433987216954e-07,-1.1356464171378645e-06,9.725456064876445e-07,-6.168420597352807e-07,1.2907859026264468e-06,-1.3019452434924985e-06,-1.3450710006246124e-06,-1.3155294028182974e-06,-1.90664809281488e-06,2.322490673339735e-06,2.382571931704604e-06,1.1508403949359086e-07,1.8998102839648753e-06
-4.5430602297904607e-07,-7.143553917234485e-07,3.682080599035811e-07,-2.807317391822666e-07,-1.6707613427508993e-06,-3.218662510965755e-07,-1.1319061493423365e-06,9.781957804817014e-07,-7.167347525715187e-07,1.4078915628638866e-06,-1.3624730100070264e-06,-1.292595216276243e-06,-1.3732754646768579e-06,-1.8198993393592622e-06,1.657107411499633e-06,2.332723019641662e-06,1.2257652075873893e-07,1.9006277457131905e-06
-5.049099617601591e-07,-7.337792731442256e-07,3.9863077217563833e-07,-2.2685017816489064e-07,-1.702680489449869e-06,-3.3274474359861613e-07,-1.1152258246922919e-06,9.685505156174482e-07,-7.868143175212056e-07,1.4618157487622878e-06,-1.4256760582717514e-06,-1.2657112167482048e-06,-1.406327982348016e-06,-1.7155088226809695e-06,8.139624894713519e-07,2.3748006281912845e-06,1.3931627265802923e-07,1.9408588590650164e-06
-5.491593671960504e-07,-7.481985580082562e-07,4.140398566842903e-07,-2.280139665818513e-07,-1.7356969581844039e-06,-3.4300909640148885e-07,-1.0888986130116071e-06,9.584325024779976e-07,-8.300789417211993e-07,1.4917485323708784e-06,-1.4520123033770521e-06,-1.2793862110743746e-06,-1.4338706957458981e-06,-1.5879134224705658e-06,-1.7280274999327052e-07,2.510826120602672e-06,1.5954190957958547e-07,1.958633957182876e-06
-5.662006340078983e-07,-7.617380321391694e-07,4.0577805701725905e-07,-2.539865145010448e-07,-1.7598065522280165e-06,-3.5429141084828096e-07,-1.0608712654812264e-06,9.617140922457509e-07,-7.581825046126012e-07,1.512891659324028e-06,-1.4389246309564663e-06,-1.308461699939954e-06,-1.452775965476668e-06,-1.4876191492264795e-06,-1.0395971818973094e-06,2.6834508556436975e-06,1.789950395092559e-07,1.9464117700195388e-06
-5.666303301017529e-07,-7.767807200219415e-07,3.7955143956894236e-07,-2.9053462738773393e-07,-1.7896606561489448e-06,-3.706280079710291e-07,-1.0390430882435645e-06,9.346135671955101e-07,-6.57818567237807e-07,1.531985806283977e-06,-1.4563119245172398e-06,-1.3453704421193188e-06,-1.4987757725244584e-06,-1.3934135832586935e-06,-1.600401013385689e-06,2.8347044924516874e-06,1.9526972304420922e-07,1.9824771730544386e-06
-5.819285619509634e-07,-7.938034306705405e-07,3.393483883959596e-07,-2.894122925994567e-07,-1.8236374770065028e-06,-3.9658757168569155e-07,-1.0264536023266344e-06,8.938364308350885e-07,-6.221723824658378e-07,1.5648566222628272e-06,-1.4286660441678104e-06,-1.3632810637316679e-06,-1.5808921933393914e-06,-1.3020596935085251e-06,-1.5990769153582923e-06,2.9353405379146313e-06,2.071370731918085e-07,1.96572446459382e-06
-6.157559682378233e-07,-8.112519154004854e-07,2.8119627335226796e-07,-2.9150720913017105e-07,-1.793222404613013e-06,-4.3513881767576205e-07,-1.019882977074976e-06,8.484686799835986e-07,-5.798131162899246e-07,1.557128308783564e-06,-1.391528802401072e-06,-1.4171516106981266e-06,-1.6288412077308794e-06,-1.2132097371555633e-06,-1.0898723024728528e-06,3.0043104325053957e-06,2.1466443924199403e-07,1.9127239980862385e-06
-6.845522810031036e-07,-8.266481600501864e-07,2.1580588676301562e-07,-3.0952497286809116e-07,-1.7745783666916147e-06,-4.863944172355506e-07,-1.013006105861108e-06,7.926789250530585e-07,-5.600791041988829e-07,1.5596920632702956e-06,-1.390692465285278e-06,-1.4414711491155035e-06,-1.6394081620455533e-06,-1.1241253856166227e-06,-1.4122774440892651e-07,3.0694788201979823e-06,2.2009753968451685e-07,1.8836500248323266e-06
-7.484433832055411e-07,-8.375005237535498e-07,1.544407446465855e-07,-3.2609411383448444e-07,-1.7723787812426908e-06,-5.468804609151246e-07,-1.0004702697037703e-06,7.442981138971746e-07,-5.662361843272026e-07,1.5617662470935142e-06,-1.3692980044330368e-06,-1.4456705023117407e-06,-1.63521483857522e-06,-1.050859342477749e-06,1.0082421371576491e-06,3.155572353421028e-06,2.284599528594835e-07,1.8504904962014381e-06
-7.817755292085186e-07,-8.41773712158376e-07,9.703509589276258e-08,-3.5668502777146544e-07,-1.7721440918183805e-06,-6.093120541262673e-07,-9.798346331155532e-07,7.074674849781636e-07,-5.730510310456788e-07,1.5546442302375462e-06,-1.3239251229964377e-06,-1.4604970314405077e-06,-1.6493222451277588e-06,-9.917900803173868e-07,1.4629586665636822e-06,3.327653820278146e-06,2.455430173464438e-07,1.8468151158144613e-06
-8.172386364388521e-07,-8.380550250873553e-07,4.436230687314465e-08,-3.4023127299587154e-07,-1.7976654306421085e-06,-6.639663645891846e-07,-9.51887913070566e-07,6.876798184310229e-07,-5.886870125575987e-07,1.5660394417988412e-06,-1.327047730474476e-06,-1.4400382842436926e-06,-1.674649597776785e-06,-9.340645934347422e-07,1.3910895216176523e-06,3.6164402480805296e-06,2.7409247429679787e-07,1.9136704271094095e-06
-8.474302097307224e-07,-8.260284011298244e-07,2.5895221957691623e-08,-3.0094808344856767e-07,-1.8249966078786416e-06,-7.013028549146547e-07,-9.194423432637371e-07,6.884855709702248e-07,-6.568292827163478e-07,1.5755747463627002e-06,-1.3087851158581718e-06,-1.4620603067608058e-06,-1.6956171240660614e-06,-8.589307620383201e-07,1.713399168818235e-06,4.028090647845314e-06,3.14066624615309e-07,2.021644854524317e-06
-8.766650479349692e-07,-8.06622089431975e-07,1.9086154397559274e-08,-2.5468863395623585e-07,-1.8439170463428267e-06,-7.140026477117e-07,-8.844860901447321e-07,7.159826734672885e-07,-7.35124536363681e-07,1.5860553473304515e-06,-1.2826037758719163e-06,-1.4914142798887623e-06,-1.6965299492402815e-06,-7.589837724208858e-07,2.131786986035415e-06,4.366312862807339e-06,3.6461653330014847e-07,2.095674121137795e-06
-8.99527911610371e-07,-7.816365812973282e-07,1.1808577479019073e-08,-2.1292701369369664e-07,-1.8535342641659398e-06,-6.982120529971647e-07,-8.467923909365089e-07,7.45872209047545e-07,-7.911524843367978e-07,1.6062600995772487e-06,-1.2679093989762133e-06,-1.4964339027785392e-06,-1.6343283419771651e-06,-6.477081503106128e-07,2.161899979972078e-06,4.488830173910997e-06,4.2403220038871444e-07,2.07793143985985e-06
-9.046147601866745e-07,-7.533509729249654e-07,-8.733904257077226e-09,-2.1418927361328907e-07,-1.871192023314552e-06,-6.54953900391763e-07,-8.060709772359895e-07,7.587387406413202e-07,-8.049141324636708e-07,1.6167084480760833e-06,-1.2197218472464858e-06,-1.4570996133451506e-06,-1.5536504962031774e-06,-5.811481093487046e-07,2.0729341874312314e-06,4.157450488009496e-06,4.897358005779717e-07,1.9519349306770603e-06
-8.875504754168034e-07,-7.240718989064053e-07,-6.503409503518567e-08,-2.453543083798918e-07,-1.8840879556738062e-06,-5.909576369139612e-07,-7.641613092543067e-07,7.403007825844788e-07,-7.522050696922339e-07,1.5946953104786887e-06,-1.1394531482546784e-06,-1.3643332569600648e-06,-1.5038296020178471e-06,-6.123965276018623e-07,1.9797896553480343e-06,3.470784472470641e-06,5.571312572941533e-07,1.838284372099303e-06
-8.88565517368584e-07,-6.956413205727847e-07,-1.578381187599389e-07,-3.2861918036452426e-07,-1.8554724960493408e-06,-5.174677657042708e-07,-7.238248209000173e-07,6.793467043363538e-07,-6.49035570156753e-07,1.5512157794061856e-06,-1.0423539880878978e-06,-1.202384840635441e-06,-1.519939582756651e-06,-7.444935136187277e-07,2.428939948102942e-06,2.9853791348940184e-06,6.195483032826479e-07,1.8205454020462827e-06
-8.823870512610064e-07,-6.694488041028178e-07,-2.825725582822041e-07,-4.5422428535869403e-07,-1.8124556796579797e-06,-4.4730569380421204e-07,-6.860883555423828e-07,5.689408770905924e-07,-5.139908281208327e-07,1.4856625224887247e-06,-9.328640496397835e-07,-9.81433592687865e-07,-1.458500664531945e-06,-8.101819975796123e-07,2.6743628349552315e-06,2.763610155827658e-06,6.691517831413528e-07,1.8095830061531914e-06
-8.537284724759752e-07,-6.474139550379986e-07,-4.273574268426316e-07,-6.323596263474429e-07,-1.7232165666728993e-06,-3.913099689003352e-07,-6.492571276950967e-07,4.2209947517692936e-07,-3.6884648593682006e-07,1.409997613387596e-06,-8.108456552392274e-07,-7.525843092741546e-07,-1.3536233848435755e-06,-7.880809864751044e-07,2.5939268564367233e-06,2.587144264825802e-06,6.982008046849586e-07,1.5339185357415632e-06
-8.164952236709582e-07,-6.323694522123601e-07,-5.841954760160879e-07,-7.753442990521108e-07,-1.6267636762140878e-06,-3.551750905026912e-07,-6.098530051196021e-07,2.598148213363802e-07,-2.3252108552063784e-07,1.2900911741124139e-06,-7.089347467892365e-07,-5.303405791711531e-07,-1.2778671480545444e-06,-8.844980135298391e-07,2.185307547023768e-06,2.130878321738478e-06,7.021266864916618e-07,1.1988547237629262e-06
-7.796020486250826e-07,-6.268348617689241e-07,-7.236724095597067e-07,-9.003952246191086e-07,-1.5255396574408229e-06,-3.3848187637979753e-07,-5.649324870206804e-07,9.747193492784663e-08,-9.962047287131236e-08,1.1502962383532868e-06,-6.34552906387646e-07,-3.1901102824785954e-07,-1.263360798807261e-06,-1.0855359080443916e-06,1.487885103654745e-06,1.4568863099277647e-06,6.821424483327785e-07,8.702561942927685e-07
-7.200542743301197e-07,-6.315607019745103e-07,-8.281348598915918e-07,-1.042734130095866e-06,-1.4576800356111687e-06,-3.3694706776074915e-07,-5.149669958484024e-07,-4.1194137970854274e-08,1.5151845083821e-08,1.0262046472685468e-06,-5.860955143644395e-07,-1.5217343668684214e-07,-1.3618832324805711e-06,-1.2621749975860233e-06,5.96844801912307e-07,1.131290817296225e-06,6.447243707040136e-07,6.60343295455534e-07
-6.707551655119108e-07,-6.453215960818821e-07,-8.94001231544338e-07,-1.1531097985769395e-06,-1.4307448975858106e-06,-3.458007310785321e-07,-4.6481078246911837e-07,-1.4876216420799363e-07,9.623405761597761e-08,8.927535504555792e-07,-5.6764143213476e-07,-2.4171326587460074e-08,-1.4196653552190732e-06,-1.4499677456091678e-06,-4.887191287833765e-07,1.0253841439378151e-06,5.975765033530717e-07,4.843980475660274e-07
-6.396836294510995e-07,-6.65508673319235e-07,-9.168607148726329e-07,-1.2102928246869622e-06,-1.4326741125555034e-06,-3.6156423436126804e-07,-4.215112049282096e-07,-2.2710839572057196e-07,1.4657847848795484e-07,8.008501055940596e-07,-5.416957948928139e-07,6.683782064114257e-08,-1.45088794913441e-06,-1.6348819864532013e-06,-1.5014504271029062e-06,9.8894560770836e-07,5.471353797010938e-07,3.696964846582693e-07
-6.04718574472789e-07,-6.888389922468912e-07,-9.00655149566376e-07,-1.2414766768964361e-06,-1.4630706983031624e-06,-3.8231756078753475e-07,-3.9187802253862106e-07,-2.793079220421196e-07,1.68541978296846e-07,7.442795697948029e-07,-5.236149576577023e-07,1.1024897692236037e-07,-1.4557191829270475e-06,-1.731554326193219e-06,-2.328313562883023e-06,8.28927463702125e-07,4.995868567348811e-07,3.0420479147251426e-07
-5.827701601766625e-07,-7.119748228112628e-07,-8.48551695814861e-07,-1.197028086065865e-06,-1.4734707541368614e-06,-4.075787976817165e-07,-3.8205708054985977e-07,-3.0804419520749657e-07,1.6782435702374123e-07,6.942185152815448e-07,-5.177303300024469e-07,1.1716910623167113e-07,-1.5063348455197883e-06,-1.7638276832888544e-06,-2.9654064127329338e-06,6.262320929116475e-07,4.620927051364061e-07,3.4233020231887843e-07
-5.903274173949042e-07,-7.319663462698848e-07,-7.619977861448152e-07,-1.1707237866239335e-06,-1.5060462641375075e-06,-4.37296910747401e-07,-3.9671138644791966e-07,-3.170372651703348e-07,1.497245765298852e-07,6.595512592964564e-07,-5.047341439607263e-07,9.838116528296033e-08,-1.5032053421692105e-06,-1.7350449281639558e-06,-3.340830465925166e-06,4.6437409596951794e-07,4.4321883197850227e-07,3.6657390330681154e-07
-6.075997377317725e-07,-7.464109945620866e-07,-6.5189228261807e-07,-1.2157505035383123e-06,-1.50387178515511e-06,-4.700045365175813e-07,-4.364019968888418e-07,-3.0922684108927484e-07,1.1848679292159854e-07,6.635615329258406e-07,-5.192782477850506e-07,6.431792253284629e-08,-1.412152297437275e-06,-1.6507288897515844e-06,-3.4404769898811533e-06,3.980059588918075e-07,4.496025858365264e-07,3.7284364827688363e-07
-6.329783875035045e-07,-7.540097463601948e-07,-5.236220630759052e-07,-1.2229289392678763e-06,-1.574812341137785e-06,-5.020745873730827e-07,-4.962383563691183e-07,-2.871363788072041e-07,7.080981663584355e-08,6.814595100087558e-07,-5.430172270860638e-07,1.7866798171330035e-08,-1.4504358552195989e-06,-1.5402737294251368e-06,-3.198675560041694e-06,4.090542463565854e-07,4.795269961779022e-07,3.983446929655536e-07
-6.705162268881942e-07,-7.555412934961903e-07,-3.854814339489931e-07,-1.2125763733077652e-06,-1.7138304728993673e-06,-5.289678285710579e-07,-5.674273286243513e-07,-2.473283919215313e-07,1.365529208473707e-08,6.952477399317487e-07,-5.652829557069981e-07,-3.066191449713366e-08,-1.5520780729580652e-06,-1.4188017302874123e-06,-2.631394464701555e-06,5.839584181528141e-07,5.203711007715158e-07,4.2631704865105796e-07
-7.038589613799665e-07,-7.53936701132513e-07,-2.5169134529051314e-07,-1.1415167746161306e-06,-1.8681379943630927e-06,-5.471614436477693e-07,-6.39361327895808e-07,-2.0120070019272432e-07,-6.088099298344167e-08,7.019920401500247e-07,-5.915160352901169e-07,-7.636983413842874e-08,-1.6899227248514836e-06,-1.3139448345271497e-06,-1.871655525082435e-06,8.385026713190778e-07,5.524704391861971e-07,4.495347706099296e-07
-7.328673735320903e-07,-7.528559003016941e-07,-1.3503287199439603e-07,-1.0272320066212999e-06,-2.033673242755476e-06,-5.555760036997281e-07,-7.011630369137795e-07,-1.609664358417925e-07,-1.3916989277855917e-07,7.015428874865101e-07,-6.122885835417921e-07,-1.0747442683990324e-07,-1.814815384445205e-06,-1.2590583289738755e-06,-1.1608738429077385e-06,1.0577813691121022e-06,5.599082460048086e-07,4.618368325557207e-07
-7.609493935999649e-07,-7.546777675435525e-07,-4.62638827941973e-08,-9.58222069449215e-07,-2.137048213609357e-06,-5.560204022819719e-07,-7.435990104557113e-07,-1.362492599864256e-07,-2.0251535348983552e-07,7.189172326984082e-07,-6.187622605884858e-07,-1.2902606112714601e-07,-1.8306285722225155e-06,-1.2727310900951426e-06,-7.191187460625649e-07,1.1386080000141702e-06,5.409346512532122e-07,4.6941314030374424e-07
-7.815051120450766e-07,-7.588041345206719e-07,1.0823535852252045e-08,-9.044851320584694e-07,-2.176918640144206e-06,-5.519491492789659e-07,-7.603753929654384e-07,-1.3227639935771475e-07,-2.4212365475027523e-07,7.504133333269939e-07,-6.095674239366998e-07,-1.3112323069268614e-07,-1.6759957843934371e-06,-1.3514397064389038e-06,-6.121796920687711e-07,1.0951206421750957e-06,5.109417820619179e-07,4.871935921608132e-07
-7.890954520784047e-07,-7.60808862637007e-07,4.051306571505583e-08,-8.81259203479483e-07,-2.1366253001148575e-06,-5.461302830988172e-07,-7.477582402125667e-07,-1.5120240245885507e-07,-2.448437755039891e-07,7.8126576924691e-07,-5.719692603302293e-07,-8.355776285394124e-08,-1.5615467266000495e-06,-1.4709924717728226e-06,-7.482987979954849e-07,9.905582143182194e-07,4.954059215500032e-07,5.0130412330205e-07
-7.849684935032895e-07,-7.536384962508213e-07,5.3862712635594755e-08,-8.795482602616755e-07,-2.0374058292472955e-06,-5.392464328016359e-07,-7.041351319815765e-07,-1.9161434708985733e-07,-2.0434099705640782e-07,8.003705132540382e-07,-4.819772311959041e-07,2.906911080268628e-08,-1.5112937168931195e-06,-1.5964709052902245e-06,-9.509825233273777e-07,8.359689240125017e-07,5.159597624703796e-07,5.006851013092994e-07
-7.653901382221774e-07,-7.311000900982308e-07,5.627067452744966e-08,-8.830201351893046e-07,-2.055678646142074e-06,-5.301802958275908e-07,-6.30251420397395e-07,-2.482719705199012e-07,-1.255520956789242e-07,7.540081145016967e-07,-3.423054264758059e-07,2.0988211354176962e-07,-1.487445110064178e-06,-1.6959999997679644e-06,-1.0714496253008927e-06,6.871510551511112e-07,5.790748978730347e-07,4.772123882586643e-07
-7.386043058021937e-07,-6.915385405512931e-07,5.233650235138333e-08,-9.189790912325134e-07,-2.0412512757696148e-06,-5.168983669646317e-07,-5.290741641890413e-07,-3.173851732391096e-07,-8.324837586264968e-09,6.600339071569479e-07,-1.5410996956615265e-07,4.4791112628854135e-07,-1.4410344994382383e-06,-1.751321245636653e-06,-1.0581059840346815e-06,5.6863692569564e-07,6.738226358091037e-07,4.226086468011299e-07
-6.955688401806194e-07,-6.392437803614758e-07,4.377528306834002e-08,-9.83788180144624e-07,-2.001716286913545e-06,-4.977464163005774e-07,-4.0641606015823964e-07,-3.8886956044512365e-07,1.4447505583155876e-07,5.787681031215233e-07,6.40761581047179e-08,7.146765510186835e-07,-1.2522082922106906e-06,-1.7606136794305192e-06,-9.107912560671782e-07,5.019147004133941e-07,7.783085786162904e-07,3.4154620807030283e-07
-6.335578560233811e-07,-5.828917328226529e-07,2.9225756530041152e-08,-1.0660760902170828e-06,-1.8847421054175242e-06,-4.737249599595778e-07,-2.733672382459259e-07,-4.5344165316969075e-07,3.0542162707945044e-07,5.119143743687807e-07,2.2175477135375937e-07,9.339038575110883e-07,-1.0066484311113961e-06,-1.7353121916485363e-06,-7.047002170633084e-07,5.013057524392996e-07,8.689340466525232e-07,2.4073551463333834e-07
-5.608811354354317e-07,-5.321377520100175e-07,9.587356772383682e-09,-1.1543534153077248e-06,-1.7543942201220264e-06,-4.5025092061185827e-07,-1.4696843011465207e-07,-5.061013396178618e-07,4.5417850185524e-07,4.325493622543837e-07,3.0177385303005774e-07,1.0443526191828425e-06,-8.795828320017201e-07,-1.6939930856758135e-06,-5.511602355349438e-07,5.435028007895076e-07,9.281125706647234e-07,1.428818791732923e-07
-4.84089567343587e-07,-4.941946057264746e-07,-1.3209473458802481e-08,-1.2376412827029478e-06,-1.6430225152930025e-06,-4.3612450721428214e-07,-4.58788270514988e-08,-5.461082134781794e-07,5.659210501140323e-07,3.670852939277601e-07,2.845579695023335e-07,1.061283476852738e-06,-8.302656840760883e-07,-1.6553554095644513e-06,-5.370402880156071e-07,5.728292056293083e-07,9.477959195828986e-07,5.388683912320585e-08
-4.180645374055277e-07,-4.724523340240147e-07,-3.631937973811856e-08,-1.309212350485641e-06,-1.6042588443001284e-06,-4.399054635180347e-07,1.6254593661597465e-08,-5.742547825860606e-07,5.631377540653341e-07,3.024625475624092e-07,1.826584313036947e-07,1.0617794151856151e-06,-8.180054394816847e-07,-1.6306662036454376e-06,-7.226521163042357e-07,5.455261970479896e-07,9.283289145167881e-07,-1.824673933570851e-08
-3.693944014939782e-07,-4.672610073419621e-07,-5.499546428686228e-08,-1.367372836835635e-06,-1.5762567085719632e-06,-4.65840553120021e-07,3.526849680200512e-08,-5.911166227080473e-07,5.684497608296446e-07,2.435422191009508e-07,1.9242171856240823e-07,1.096924659043732e-06,-7.848875016475281e-07,-1.6190267290587125e-06,-1.0805223223505263e-06,4.6160396395226147e-07,8.754161216820466e-07,-6.622828648647284e-08
-3.402154871885635e-07,-4.770064002672304e-07,-6.753108524785242e-08,-1.4051751838464862e-06,-1.6012982024332104e-06,-5.114364288950264e-07,1.7062764537878034e-08,-5.966294956174669e-07,5.509768368807482e-07,1.9856158440571213e-07,2.763095793437319e-07,1.1395564774205318e-06,-7.582781515569645e-07,-1.6090904371624521e-06,-1.4767557113939406e-06,3.5607203662291646e-07,7.989543784942537e-07,-9.328969370758867e-08
-3.283492005597822e-07,-4.987529747983284e-07,-7.332759499246018e-08,-1.4120212303178736e-06,-1.6696937686033904e-06,-5.684186698850289e-07,-2.6004794849996683e-08,-5.931314950038946e-07,4.892420877605848e-07,1.6436071088127103e-07,2.0808592393906026e-07,9.371681830715578e-07,-7.831461893833585e-07,-1.587999255264177e-06,-1.7165780101579135e-06,2.763591526460288e-07,7.119768527723518e-07,-1.0110239857807075e-07
-3.2867514567892345e-07,-5.28424723101469e-07,-7.174252735403022e-08,-1.4032053048191473e-06,-1.7912677479738303e-06,-6.270037473981519e-07,-8.123819912713669e-08,-5.82351047179663e-07,3.6235758027312814e-07,1.4166764195752277e-07,4.964371939894453e-08,6.9751484573178e-07,-8.642441936097608e-07,-1.5531446683768285e-06,-1.640147095704155e-06,2.4944723122596373e-07,6.272909224279808e-07,-9.585018477134561e-08
-3.452191384205267e-07,-5.60974039379274e-07,-6.413922717319753e-08,-1.3890015400287469e-06,-1.890301789890607e-06,-6.803752974523534e-07,-1.396577240648595e-07,-5.698515868951548e-07,2.5425027480153566e-07,1.2498432212250792e-07,-1.1908025184024243e-07,4.689875074933951e-07,-1.0010675136862706e-06,-1.5179467084085176e-06,-1.2079324429298762e-06,2.644899084495474e-07,5.534565740355247e-07,-8.55271662048377e-08
-3.75816454406132e-07,-5.90867850838947e-07,-5.271335933015143e-08,-1.379800246826847e-06,-1.9423650679420927e-06,-7.264533487083242e-07,-1.9584141306966335e-07,-5.637611057822005e-07,1.7827453221992506e-07,1.040278517160141e-07,-2.937952779994895e-07,2.4802116549561116e-07,-1.1148320264928142e-06,-1.5069077081414402e-06,-5.482428651086235e-07,2.752732862567858e-07,4.917265692678018e-07,-8.084984426660288e-08
-4.149870263284399e-07,-6.131480527662149e-07,-4.0315460865822496e-08,-1.3875458466617639e-06,-1.9604148344328187e-06,-7.674297392887911e-07,-2.4695612104244545e-07,-5.701229655621727e-07,1.2356221010022565e-07,7.354902969977859e-08,-3.9783834502158097e-07,1.3709499463613858e-07,-1.2020040885281715e-06,-1.542644822853038e-06,8.595957482900332e-08,2.314520674517125e-07,4.3579153053968334e-07,-9.23453420854905e-08
-4.5655290290733845e-07,-6.247803527466799e-07,-3.054939843283109e-08,-1.4200635358424689e-06,-1.94962208622826e-06,-8.085565188156442e-07,-2.933194320158358e-07,-5.931077669547371e-07,8.94665635505073e-08,3.135697746103752e-08,-4.500879760709273e-07,6.926468477659183e-08,-1.238763145363456e-06,-1.6316323601354014e-06,4.3973779122950133e-07,1.0887709109006982e-07,3.7595767309059543e-07,-1.1957814870681535e-07
-4.935909007317554e-07,-6.251411945533559e-07,-2.6906628078222663e-08,-1.476561718407539e-06,-1.9307555558868647e-06,-8.561234536200383e-07,-3.377872906170646e-07,-6.332348133852094e-07,6.856663492543792e-08,-2.2095541366795115e-08,-4.667877227396086e-07,3.310705924404031e-08,-1.2284401899015496e-06,-1.7579471961707854e-06,3.52238075053372e-07,-7.591440058423782e-08,3.060958293541933e-07,-1.586174733076875e-07
-5.217565719591601e-07,-6.155211244238137e-07,-2.959681883840888e-08,-1.5518335088905718e-06,-1.9143774654438687e-06,-9.148062855466941e-07,-3.826687114135005e-07,-6.866378369544878e-07,5.222884650830059e-08,-8.303126363684495e-08,-4.5857781943992985e-07,2.7864737929479843e-08,-1.2013915063178145e-06,-1.8887481427903327e-06,-2.014650245822178e-07,-2.755094232552462e-07,2.276557000250677e-07,-2.0202268649278996e-07
-5.365741783673706e-07,-5.986627537824216e-07,-3.631147580220774e-08,-1.6376564945625912e-06,-1.90889394036055e-06,-9.859360602912829e-07,-4.275875887266029e-07,-7.459243382187586e-07,3.356677119265403e-08,-1.542352930741833e-07,-4.595567216618259e-07,1.1796725154380799e-08,-1.1684786039919187e-06,-1.9888124684686856e-06,-1.1188611649897467e-06,-4.4594449367038907e-07,1.4787094428502208e-07,-2.3990456675628805e-07
-5.434070807702324e-07,-5.786054978514314e-07,-4.4320771835915647e-08,-1.7200423773424098e-06,-1.9167487234466663e-06,-1.0673643946472157e-06,-4.7005565081793484e-07,-8.042700254734803e-07,9.127339047743421e-09,-2.225429152774446e-07,-4.708698338975101e-07,-3.9338826851276116e-09,-1.143333293177213e-06,-2.0338178514310457e-06,-2.2027994213719083e-06,-5.735428132565602e-07,7.567144837751703e-08,-2.658428498285729e-07
-5.413367143487911e-07,-5.600087249175918e-07,-5.1642835742948604e-08,-1.7917957316081915e-06,-1.9325023555544965e-06,-1.154291993007446e-06,-5.065808524299833e-07,-8.559698692377402e-07,-1.9057025298491864e-08,-2.8501672902808066e-07,-4.897432078922641e-07,-1.840666790034427e-08,-1.1255305983747345e-06,-2.0156833849164442e-06,-3.193929573436151e-06,-6.753348910520292e-07,1.813970430629655e-08,-2.777283938800908e-07
-5.294552146725094e-07,-5.471647285976174e-07,-5.8435318443125864e-08,-1.850118471084437e-06,-1.952837846359803e-06,-1.2410189063846618e-06,-5.333336932571284e-07,-8.978872984516239e-07,-4.8505296241047404e-08,-3.412041276163497e-07,-5.193327385377425e-07,-3.954988721693392e-08,-1.0995866741790282e-06,-1.9429319694272395e-06,-3.834859489977897e-06,-7.800947436167689e-07,-2.224840800753756e-08,-2.8092383755969745e-07
-5.089662670410397e-07,-5.437360347525281e-07,-6.838905910441573e-08,-1.8958538758245298e-06,-1.970422054262904e-06,-1.323118585105053e-06,-5.471337697624601e-07,-9.319901152675779e-07,-7.755218196806673e-08,-3.899204722097725e-07,-5.627036438307823e-07,-6.976072382958075e-08,-1.071353317368346e-06,-1.8390356996603658e-06,-3.952135121393524e-06,-9.105660102062198e-07,-5.1519976925771006e-08,-2.891381016928477e-07
-4.8615617164955e-07,-5.527345050634047e-07,-8.965571902612711e-08,-1.933320574090626e-06,-1.982914618978016e-06,-1.3982518715517198e-06,-5.462077997125239e-07,-9.650664750186836e-07,-1.0590691761321405e-07,-4.3744365166827494e-07,-6.260528477717097e-07,-1.1645670164459096e-07,-1.0673504929034861e-06,-1.7385805967516353e-06,-3.5019420342268567e-06,-1.0760893240589437e-06,-8.558376983603143e-08,-3.2349878926261717e-07
-4.59499917058728e-07,-5.758512572247594e-07,-1.3342318948344915e-07,-1.9697805375282794e-06,-1.9851633070119237e-06,-1.4647791718052385e-06,-5.306976785844624e-07,-1.0066992902590578e-06,-1.3540180993532843e-07,-4.880717166852377e-07,-7.146788920476691e-07,-1.884776336161374e-07,-1.0953105369800622e-06,-1.6760028801525576e-06,-2.583827399750107e-06,-1.2696734934070978e-06,-1.4697509369260274e-07,-4.0211903822883385e-07
-4.3178122680913375e-07,-6.129052577262814e-07,-2.1090607123158904e-07,-2.0124644238148576e-06,-1.9772579350626657e-06,-1.5200123837803403e-06,-5.042961533308972e-07,-1.0659919755635988e-06,-1.6789841391665183e-07,-5.469404641976099e-07,-8.324452286794829e-07,-2.9022417167270076e-07,-1.162623821382782e-06,-1.6871111024546426e-06,-1.4120842311012652e-06,-1.4678669439728453e-06,-2.576491476267656e-07,-5.328463625384958e-07
-4.099728276429504e-07,-6.621502483833738e-07,-3.3024811673463155e-07,-2.0682977209279817e-06,-1.9615665707766196e-06,-1.5598305577318099e-06,-4.753439260954254e-07,-1.1486304668124654e-06,-2.0459716712885797e-07,-6.123924242505956e-07,-9.767571296520279e-07,-4.2141939302398283e-07,-1.2729574134730687e-06,-1.8174318766802924e-06,-2.4900877095984875e-07,-1.6365666552958995e-06,-4.30137743718657e-07,-7.129120395642685e-07
-3.9953932333905233e-07,-7.205355673482169e-07,-4.928062890558977e-07,-2.1398977066513637e-06,-1.9419897718844706e-06,-1.57911478270205e-06,-4.5356627264788643e-07,-1.2544579158160433e-06,-2.458645668476324e-07,-6.84287752629191e-07,-1.1380209264558221e-06,-5.738811574998484e-07,-1.4155224395428927e-06,-1.9632236808017574e-06,6.715187052279733e-07,-1.7421384477776826e-06,-6.602310585954885e-07,-9.287446325248418e-07
-4.072341294798873e-07,-7.831429063096671e-07,-6.898251389214868e-07,-2.2254769769219835e-06,-1.9248138399689173e-06,-1.5725581730788111e-06,-4.4389129068148153e-07,-1.376102768272266e-06,-2.895900921448171e-07,-7.580901966885749e-07,-1.3002367722424465e-06,-7.318726157907733e-07,-1.575549227039771e-06,-2.2079846973050794e-06,1.207930404925586e-06,-1.7642984679828003e-06,-9.272726052022377e-07,-1.1616396339746974e-06
-4.37625458821198e-07,-8.432100321944267e-07,-9.032331416161945e-07,-2.318188042868942e-06,-1.9122727984711075e-06,-1.5363672711385274e-06,-4.4337205565352713e-07,-1.5009161737674612e-06,-3.3329198318078376e-07,-8.264113656493382e-07,-1.4427768814561453e-06,-8.753964527007044e-07,-1.7364333503417404e-06,-2.4498495387016268e-06,1.3371560399624632e-06,-1.7057325548994047e-06,-1.2036006822146906e-06,-1.3935224066642221e-06
-4.909622983188191e-07,-8.939786872925434e-07,-1.1114802708067054e-06,-2.408593309246175e-06,-1.90565458887976e-06,-1.4699802927811871e-06,-4.427605969579987e-07,-1.6156734143806316e-06,-3.7469762153153577e-07,-8.843488492881506e-07,-1.5454671106000455e-06,-9.831335497512956e-07,-1.8764694513507117e-06,-2.67068266207462e-06,1.1388123461749853e-06,-1.5927766154528073e-06,-1.46613089391061e-06,-1.609575971951573e-06
-5.610086369259423e-07,-9.311105047565045e-07,-1.2964866748197758e-06,-2.486278828058731e-06,-1.9041360644870404e-06,-1.3758926103992883e-06,-4.2916613559405526e-07,-1.71057730963967e-06,-4.114959523892581e-07,-9.273044258131879e-07,-1.5948633708209935e-06,-1.03924798355194e-06,-1.9750419880075615e-06,-2.8603050916990448e-06,7.498881847284566e-07,-1.4657217604023558e-06,-1.7034183078018044e-06,-1.7985230388535252e-06
-6.404947280375043e-07,-9.540630615726468e-07,-1.4483050903507123e-06,-2.5450034669164226e-06,-1.9019389637521565e-06,-1.258357385778113e-06,-3.8920544350711176e-07,-1.7808952345432425e-06,-4.410356181386098e-07,-9.536830370182788e-07,-1.586053642067368e-06,-1.036464830780718e-06,-2.0238400981377678e-06,-3.026774717664256e-06,3.168215913782426e-07,-1.3631019249589136e-06,-1.915858437765497e-06,-1.952222009839141e-06
-7.190335147526634e-07,-9.663261649914652e-07,-1.5669786915081294e-06,-2.584169102803928e-06,-1.896004171852591e-06,-1.1235770498254321e-06,-3.150158178851024e-07,-1.8273495165731727e-06,-4.605332251279947e-07,-9.650839249369006e-07,-1.52501257590444e-06,-9.79025677463748e-07,-2.0229486298717636e-06,-3.1824311322204082e-06,-4.2885146908003706e-08,-1.3062624901888271e-06,-2.110474291825588e-06,-2.0672342040776474e-06
-7.870498241277779e-07,-9.7450494210494e-07,-1.6608057819980432e-06,-2.608999366141291e-06,-1.8844246939368835e-06,-9.812399238216197e-07,-2.1074400560018999e-07,-1.8554372389135958e-06,-4.697173325428498e-07,-9.656971157015603e-07,-1.432498095104265e-06,-8.848995015792723e-07,-1.9827312212748293e-06,-3.330047808780297e-06,-2.6114744579455066e-07,-1.2903696972030787e-06,-2.292672499486389e-06,-2.1461567417387063e-06
-8.389212012200105e-07,-9.85774315058756e-07,-1.74064830199817e-06,-2.6291591327420976e-06,-1.8690746549695831e-06,-8.446014801446072e-07,-9.331855125176747e-08,-1.872654161708723e-06,-4.7263858408852953e-07,-9.65842178462748e-07,-1.3351340290669268e-06,-7.801349535007972e-07,-1.9205248670323e-06,-3.458788383962594e-06,-3.175583192865196e-07,-1.2889627598632176e-06,-2.45999185672502e-06,-2.1967990159906468e-06
-8.738835565220339e-07,-1.0047903635567933e-06,-1.8138010063320784e-06,-2.652225858538252e-06,-1.8563276964480489e-06,-7.279886421330296e-07,1.3975649992858367e-08,-1.8854719164299465e-06,-4.77062812958991e-07,-9.731831029935374e-07,-1.2580436432082228e-06,-6.906143565656797e-07,-1.8567587095339585e-06,-3.5503944989875113e-06,-2.2469474036993383e-07,-1.2734977166893513e-06,-2.6018271909410493e-06,-2.2294133319485896e-06
-8.948825651741099e-07,-1.0323493697715372e-06,-1.8816274038745288e-06,-2.6813917171732235e-06,-1.8535875595540144e-06,-6.430690098647256e-07,9.078937673537436e-08,-1.8980481750459598e-06,-4.911583720910347e-07,-9.917964597294664e-07,-1.2188760608476139e-06,-6.346755039244034e-07,-1.803896695537494e-06,-3.5897331394857465e-06,-2.096279068810109e-08,-1.238106112996795e-06,-2.7041410155990364e-06,-2.253911802190817e-06
-9.073721701736924e-07,-1.065830374267663e-06,-1.9405327291273467e-06,-2.7154752263433975e-06,-1.8668586979463699e-06,-5.952646336874375e-07,1.272074304108691e-07,-1.9121156597580297e-06,-5.196778725212735e-07,-1.0236089406251095e-06,-1.2223461301129226e-06,-6.180364947088686e-07,-1.7671191179559406e-06,-3.5725765894393623e-06,2.3690792422072033e-07,-1.2116156062808457e-06,-2.754780820912209e-06,-2.2777046487638252e-06
-9.155708683889854e-07,-1.1001946268508722e-06,-1.983922993860526e-06,-2.7508941097667955e-06,-1.8995346573625661e-06,-5.815967489671241e-07,1.2611460638476566e-07,-1.9267273765266757e-06,-5.609049079449697e-07,-1.0659879625345513e-06,-1.2598646876047776e-06,-6.322782052591941e-07,-1.7407314724881372e-06,-3.5072730222230526e-06,4.956723782404181e-07,-1.2452398353020296e-06,-2.747937300478231e-06,-2.3038708246943037e-06
-9.243386576201243e-07,-1.1293742361335424e-06,-2.0053718711067435e-06,-2.7835059218962162e-06,-1.9455142005202854e-06,-5.91760950861358e-07,9.875321280261778e-08,-1.9390573264108552e-06,-6.070039196771034e-07,-1.1140833695831269e-06,-1.3140369246092544e-06,-6.596311355781821e-07,-1.7174579155745687e-06,-3.4115023298260847e-06,7.064914480885098e-07,-1.3920063745693715e-06,-2.688707834556634e-06,-2.3313050738677354e-06
-9.350967321542502e-07,-1.1483995963676111e-06,-2.002798177750096e-06,-2.811257093900736e-06,-1.993459980589966e-06,-6.124234137728806e-07,5.683570489129995e-08,-1.9464965174736658e-06,-6.483077776500984e-07,-1.1619957146081423e-06,-1.365686160357453e-06,-6.806894787123448e-07,-1.6896442587846447e-06,-3.305183035693932e-06,8.14187800991932e-07,-1.6458928796604834e-06,-2.5941821615480575e-06,-2.355317565384222e-06
-9.46653084360643e-07,-1.15501194469364e-06,-1.9804140947154542e-06,-2.835545763359379e-06,-2.034601159103324e-06,-6.320138717861049e-07,8.089128058386909e-09,-1.948177874922287e-06,-6.779243889135256e-07,-1.2059306027810014e-06,-1.3994969381882192e-06,-6.805089568949284e-07,-1.6502083116389014e-06,-3.204306297670869e-06,7.597686469461739e-07,-1.9592758096675846e-06,-2.488944383972658e-06,-2.369340116311602e-06
-9.593359334881195e-07,-1.149602149617007e-06,-1.9469033325055573e-06,-2.856488017367152e-06,-2.0640144071830382e-06,-6.437250488842826e-07,-4.26675708476971e-08,-1.9452547152424335e-06,-6.942232019012664e-07,-1.2428173551789939e-06,-1.4088824145186922e-06,-6.530183059926544e-07,-1.5971142493913454e-06,-3.1172946867441246e-06,5.093273291648527e-07,-2.251408082454887e-06,-2.396720595445081e-06,-2.368387681298998e-06
-9.695716031126628e-07,-1.1343797633794935e-06,-1.9123720633451055e-06,-2.874785991654313e-06,-2.0848310450402343e-06,-6.464016708714249e-07,-9.138201426649881e-08,-1.9403596870801256e-06,-7.01049517939312e-07,-1.2723737403718364e-06,-1.3971777094020745e-06,-6.027275832830782e-07,-1.532864045818744e-06,-3.0479200573587094e-06,9.211449634146598e-08,-2.326599584929138e-06,-2.3344583423732757e-06,-2.3522416068223157e-06
-9.75581172830201e-07,-1.1128394942749978e-06,-1.886013840094474e-06,-2.8909247746884747e-06,-2.104990195318821e-06,-6.433292182531981e-07,-1.347330686596547e-07,-1.9368528555749416e-06,-7.060293986435848e-07,-1.2973480560602127e-06,-1.3754244395856337e-06,-5.424257871603118e-07,-1.4668766818610902e-06,-2.997746411528793e-06,-3.9081489351074663e-07,-2.156357437740857e-06,-2.3078692139813956e-06,-2.3263621349063138e-06
-9.775480099943855e-07,-1.0892927381048523e-06,-1.8741729151360736e-06,-2.9058005371991636e-06,-2.1338408298218706e-06,-6.393647031101453e-07,-1.7089373585241575e-07,-1.9376692938584992e-06,-7.174839379558553e-07,-1.3209619608184924e-06,-1.3575036183726173e-06,-4.875563477022626e-07,-1.4108810247758999e-06,-2.9660307944528625e-06,-8.021867940402239e-07,-2.1193743953863702e-06,-2.3101322426897584e-06,-2.298997939709976e-06
-9.762830649062529e-07,-1.0681387321947224e-06,-1.879344777631638e-06,-2.9196667464724865e-06,-2.1777894793124232e-06,-6.383517998663117e-07,-1.9993444193637452e-07,-1.944615694828658e-06,-7.415613729165469e-07,-1.3463226378870097e-06,-1.355153331347178e-06,-4.5047650972709317e-07,-1.3762511892787117e-06,-2.9516768370269676e-06,-1.0233007513157263e-06,-1.7967546630546182e-06,-2.3251084254842974e-06,-2.277464043393657e-06
-9.733782029621172e-07,-1.053179203961703e-06,-1.9007156229237832e-06,-2.934884444406122e-06,-2.236579917227845e-06,-6.420462576838427e-07,-2.2371338118952565e-07,-1.9583291531377357e-06,-7.807490853979338e-07,-1.3753177109053936e-06,-1.3735636834103755e-06,-4.3698217241300186e-07,-1.36550576574691e-06,-2.9557112112579364e-06,-9.904413863514571e-07,-1.3356456295808325e-06,-2.336074637637436e-06,-2.266391653284998e-06
-9.704801815042032e-07,-1.0467709257411955e-06,-1.934728285175412e-06,-2.9544784417788018e-06,-2.308808801761186e-06,-6.495919425664347e-07,-2.440779313217511e-07,-1.9778901724182544e-06,-8.33199355454022e-07,-1.4080776179166427e-06,-1.4115947154682645e-06,-4.452063227333708e-07,-1.3760091490855267e-06,-2.9813208297249863e-06,-7.093684338356427e-07,-9.361093903844645e-07,-2.332092083113163e-06,-2.267343804211731e-06
-9.682367668300765e-07,-1.0488898418903277e-06,-1.975187371877418e-06,-2.9790740838904926e-06,-2.3877495939702286e-06,-6.572082188400045e-07,-2.6016625818298713e-07,-2.0000578561442465e-06,-8.927921914461184e-07,-1.4407240282846911e-06,-1.4622434585396685e-06,-4.6726426505949404e-07,-1.399878246951301e-06,-3.029642134821397e-06,-2.6030840432178905e-07,-6.226341083381443e-07,-2.309227926890865e-06,-2.2790435048347433e-06
-9.654086047517915e-07,-1.0573093447352647e-06,-2.014988509988684e-06,-3.0077473944830974e-06,-2.4633056170556934e-06,-6.594941814115503e-07,-2.6859033034686156e-07,-2.020171610941015e-06,-9.511649245521978e-07,-1.4725843883905447e-06,-1.5159485713204396e-06,-4.933134616598852e-07,-1.426517649584503e-06,-3.0950816027362146e-06,2.1275402159587177e-07,-3.403109523593128e-07,-2.269764441139512e-06,-2.2992681184988917e-06
-9.614734665765676e-07,-1.0691432258238838e-06,-2.049287473610557e-06,-3.0374479378768786e-06,-2.527032376981906e-06,-6.522115387810648e-07,-2.6684094384731655e-07,-2.0348830554194992e-06,-1.000332070190036e-06,-1.5015076287893181e-06,-1.564266240505421e-06,-5.151486609640493e-07,-1.4470606343970046e-06,-3.1634062796133616e-06,5.438860097674384e-07,-7.458195215195809e-08,-2.2193834797713524e-06,-2.3253468538361926e-06
-9.562544130295993e-07,-1.0819374998247445e-06,-2.076648344890083e-06,-3.0648107255754637e-06,-2.5733620268047083e-06,-6.341275727230253e-07,-2.552140182660281e-07,-2.0436066858843344e-06,-1.0345000726440754e-06,-1.5263153976962185e-06,-1.6007567545197132e-06,-5.271321900255359e-07,-1.45880429188055e-06,-3.2146874302270703e-06,6.093389801000569e-07,1.8805496255677863e-07,-2.1649934163504343e-06,-2.3542609593921144e-06
-9.507780026219038e-07,-1.0934509176461675e-06,-2.0975121186940287e-06,-3.0870256844270433e-06,-2.6001884470696797e-06,-6.070366432377862e-07,-2.3534364121139e-07,-2.0483783994114317e-06,-1.0505679331034632e-06,-1.5481097545933212e-06,-1.6211546924052415e-06,-5.257907891167484e-07,-1.4585825235239114e-06,-3.230061083735394e-06,4.053706105680624e-07,4.354380240206245e-07,-2.112495849615388e-06,-2.383707389741545e-06
-9.453260786680416e-07,-1.1015701320637204e-06,-2.1132004423300066e-06,-3.1034347722028493e-06,-2.60777866300943e-06,-5.752932600492077e-07,-2.0855123943568976e-07,-2.0532482793340863e-06,-1.0477620786229775e-06,-1.567667320273024e-06,-1.623539340067067e-06,-5.098805472639771e-07,-1.442275591908679e-06,-3.1998519286985334e-06,6.644256205776853e-08,6.28837083794046e-07,-2.065472992795427e-06,-2.4135980646578615e-06
-9.431225268479967e-07,-1.1051715515442113e-06,-2.12625296527519e-06,-3.1163954820482392e-06,-2.6014328202325104e-06,-5.451722748841653e-07,-1.7563839953869672e-07,-2.0633037932663282e-06,-1.0280769616867342e-06,-1.5872920985780506e-06,-1.6091859659217866e-06,-4.80228875265235e-07,-1.4143120405962832e-06,-3.12894999599683e-06,-1.946689243616124e-07,7.172412132235742e-07,-2.0234988503872254e-06,-2.444996975947464e-06
-9.461162832754059e-07,-1.1045196691707314e-06,-2.13953160937735e-06,-3.130767176953783e-06,-2.587990542665486e-06,-5.230442131736546e-07,-1.3661422158013468e-07,-2.0824078777532163e-06,-9.96016296612408e-07,-1.60854843570215e-06,-1.5814700722451698e-06,-4.386458229873427e-07,-1.377837586522943e-06,-3.036027132561893e-06,-1.827736070010511e-07,6.611835166067485e-07,-1.9826865647249705e-06,-2.4768675135059986e-06
-9.536858618600617e-07,-1.1004806787217778e-06,-2.1541220505148753e-06,-3.151219046229535e-06,-2.572921540646744e-06,-5.129160911886012e-07,-9.035128112638542e-08,-2.1108214894979483e-06,-9.572262952530525e-07,-1.632829739022373e-06,-1.5444447467086459e-06,-3.8719380680435895e-07,-1.334563982192625e-06,-2.9466298553867513e-06,1.8343073652076307e-07,4.556227694344404e-07,-1.940038935738402e-06,-2.505175598224241e-06
-9.6324480908227e-07,-1.0938082415734497e-06,-2.1689479584788017e-06,-3.180657361695489e-06,-2.5608055950001963e-06,-5.151285179889596e-07,-3.530916152142188e-08,-2.1451284278880716e-06,-9.172650915657477e-07,-1.659094250387175e-06,-1.501775599169506e-06,-3.2826429053849373e-07,-1.2869692594122477e-06,-2.8836510504346263e-06,8.112099769880818e-07,1.4030634358914676e-07,-1.8980991637517338e-06,-2.5258056216117628e-06
-9.707836195805721e-07,-1.0850930897003243e-06,-2.182182746435174e-06,-3.2187697394627002e-06,-2.551639615328764e-06,-5.263336734423013e-07,2.9525291531659226e-08,-2.180098800941886e-06,-8.804420863838305e-07,-1.6856364334014592e-06,-1.4557127693217162e-06,-2.6382040939799605e-07,-1.2353210712619807e-06,-2.858021701099912e-06,1.4544952887295089e-06,-2.088001016834124e-07,-1.864730419603404e-06,-2.5367776997079168e-06
-9.719490380074712e-07,-1.0745385271016418e-06,-2.192086503553424e-06,-3.2614630529092033e-06,-2.5410334388220017e-06,-5.3989321390326e-07,1.0430281571080823e-07,-2.210102344912879e-06,-8.481296639844989e-07,-1.7099828184095738e-06,-1.4060944202031605e-06,-1.9379478939138134e-07,-1.177474140187154e-06,-2.864642741528078e-06,1.8277740172722777e-06,-5.059127706266547e-07,-1.8477218009457407e-06,-2.5380398364090506e-06
-9.628041001535647e-07,-1.0617070981901734e-06,-2.1975898365033217e-06,-3.3016563819538075e-06,-2.5211032210152805e-06,-5.473128200948128e-07,1.8727893583320288e-07,-2.230424720143516e-06,-8.177798395118955e-07,-1.728772444054804e-06,-1.3507092165474836e-06,-1.1637157461752312e-07,-1.1115720729959492e-06,-2.88606845625314e-06,1.7485318078112692e-06,-6.886021282943684e-07,-1.8505677186450623e-06,-2.5315882009016763e-06
-9.410697180298075e-07,-1.0464024793931786e-06,-2.2002697155091336e-06,-3.3336766733997194e-06,-2.48365871052265e-06,-5.412489425181221e-07,2.7315999139256167e-07,-2.237173843847556e-06,-7.844542489090132e-07,-1.740704587925687e-06,-1.28782193585323e-06,-3.0939491846276644e-08,-1.0384429880840155e-06,-2.901003691297111e-06,1.2152897760495754e-06,-7.425964175779443e-07,-1.8733340418174309e-06,-2.522277149439598e-06
-9.064588911822508e-07,-1.030017978369226e-06,-2.205807830950805e-06,-3.3566267070772183e-06,-2.425943151382949e-06,-5.159757884145844e-07,3.5736829688012117e-07,-2.2332553497307404e-06,-7.438441734011053e-07,-1.7473458423165922e-06,-1.2190258733307728e-06,5.919356250889445e-08,-9.620690095991473e-07,-2.8937237476950488e-06,3.7925056431455357e-07,-7.054930922614617e-07,-1.914020552760943e-06,-2.5166861466080175e-06
-8.618933283585648e-07,-1.01534872983914e-06,-2.221884980563128e-06,-3.3742701451856388e-06,-2.351609693531109e-06,-4.725143287081885e-07,4.312571106296223e-07,-2.2243296451372684e-06,-6.918682602585712e-07,-1.7523921769572914e-06,-1.148402476913505e-06,1.4606514006678046e-07,-8.894216018421048e-07,-2.860965666133382e-06,-5.43690172337456e-07,-6.466220716222017e-07,-1.9671515275990653e-06,-2.5194026730448727e-06
-8.116802933024297e-07,-1.0050364639552646e-06,-2.2539394544429155e-06,-3.391430490314488e-06,-2.275183564376246e-06,-4.155214742470942e-07,4.877224707532114e-07,-2.2131646211652774e-06,-6.38098360080653e-07,-1.7599561632010613e-06,-1.0850377123534425e-06,2.168587854096388e-07,-8.298794329246176e-07,-2.814008877487802e-06,-1.346368872569618e-06,-6.34314676415047e-07,-2.0224528773730356e-06,-2.530147919121391e-06
-7.602374485404596e-07,-1.000815010551343e-06,-2.3025712321671505e-06,-3.4101554199241936e-06,-2.212713861995543e-06,-3.511548137974813e-07,5.202821763451136e-07,-2.201314364232948e-06,-5.932977005048628e-07,-1.771938308933985e-06,-1.0403574112986397e-06,2.5443794753714876e-07,-7.952932720864399e-07,-2.7740604823620048e-06,-1.8690353304322763e-06,-7.084919626110819e-07,-2.0659410404569224e-06,-2.543412365638922e-06
-7.121549143170935e-07,-1.0039907283511835e-06,-2.3631253573094557e-06,-3.4288726934362603e-06,-2.183708439547161e-06,-2.8992504096396596e-07,5.158875265544436e-07,-2.1888348618565234e-06,-5.71530370579768e-07,-1.7886941018628445e-06,-1.025351524793343e-06,2.418916618371789e-07,-7.980123819450774e-07,-2.762220048817466e-06,-2.0105431107782555e-06,-8.709513699957747e-07,-2.085199709490208e-06,-2.5506113239486586e-06
-6.723227444556025e-07,-1.0155377167148033e-06,-2.4262166163035443e-06,-3.4422918009212017e-06,-2.1990060412881596e-06,-2.4324498539443686e-07,4.681231195948178e-07,-2.1707165789808684e-06,-5.877414758871691e-07,-1.8074164030547829e-06,-1.0455806188609255e-06,1.7115636635776737e-07,-8.436485323344889e-07,-2.7890149248489284e-06,-1.7508686918070764e-06,-1.0911484033579103e-06,-2.0741795488793323e-06,-2.5426094180397327e-06
-6.451034337983904e-07,-1.0355250750801823e-06,-2.480197180309259e-06,-3.443248895937987e-06,-2.2642232068287726e-06,-2.13872775743681e-07,3.771483866310888e-07,-2.1424768726013606e-06,-6.476350604278422e-07,-1.8224609157475334e-06,-1.0953785723223823e-06,4.964102541817651e-08,-9.263691325331377e-07,-2.849995054697833e-06,-1.1821116156014162e-06,-1.317942900884506e-06,-2.036447010443964e-06,-2.513137803605463e-06
-6.340343675426807e-07,-1.0629745775288626e-06,-2.5160090117318347e-06,-3.42645767178849e-06,-2.3767338602205484e-06,-1.998084172063497e-07,2.518068227412278e-07,-2.1036174673531657e-06,-7.504540078184193e-07,-1.8286205213541455e-06,-1.1593015766662866e-06,-1.0059259327682015e-07,-1.0293559310942442e-06,-2.9281436923086695e-06,-4.663122380845162e-07,-1.4917966092750843e-06,-1.9840686026069995e-06,-2.4618204909818457e-06
-6.394113479373958e-07,-1.0961101473165585e-06,-2.530649478477514e-06,-3.3914065836061496e-06,-2.5171690223559655e-06,-1.9542367311505637e-07,1.1136961980161104e-07,-2.05551498429843e-06,-8.787308923757063e-07,-1.8227047490262687e-06,-1.2174506086945689e-06,-2.4986031129237815e-07,-1.1274113570321474e-06,-2.9988818408571855e-06,2.290371843629743e-07,-1.55787235086067e-06,-1.930151553656245e-06,-2.3930803047696786e-06
-6.578531554483327e-07,-1.1317468344699717e-06,-2.5258226744580774e-06,-3.3413483535126286e-06,-2.6664019796054813e-06,-1.896803624476097e-07,-1.7318448081765183e-08,-2.000047316647576e-06,-1.0072024725940373e-06,-1.8036537892604486e-06,-1.2520089962666037e-06,-3.694961666475158e-07,-1.1955313699598118e-06,-3.0358878523410565e-06,7.923237456742308e-07,-1.4819372865295996e-06,-1.8800191286419656e-06,-2.3119100844638755e-06
-6.820391312326759e-07,-1.164622134479462e-06,-2.5042362746633545e-06,-3.2805504029007372e-06,-2.756624547777974e-06,-1.7241610719986247e-07,-1.0056480940870914e-07,-1.933428070218075e-06,-1.0678538646206542e-06,-1.7712043708816047e-06,-1.2517162758537564e-06,-4.393824713223764e-07,-1.2159034380516987e-06,-3.0176218629508347e-06,1.1855068804069327e-06,-1.2641149107289396e-06,-1.827711157940264e-06,-2.219695223326374e-06
-7.021302383885909e-07,-1.1880666945265606e-06,-2.4681230096939775e-06,-3.213387783096454e-06,-2.712099710409162e-06,-1.288216497441821e-07,-1.1610992682260308e-07,-1.852206061414134e-06,-9.849084903694364e-07,-1.7266411432707892e-06,-1.2155465720482076e-06,-4.5275120162497875e-07,-1.1826416845843955e-06,-2.933010349228697e-06,1.4114950544617702e-06,-9.421228873567978e-07,-1.7604788852974554e-06,-2.1121276542854724e-06
-7.095167918377403e-07,-1.1959280907400606e-06,-2.420262513541698e-06,-3.1449091678868004e-06,-2.595966537563388e-06,-5.28859379857132e-08,-5.378809567481636e-08,-1.7526977943347288e-06,-8.264670793927209e-07,-1.672787276938983e-06,-1.1522346203493104e-06,-4.163229834805298e-07,-1.1048429386289841e-06,-2.7812069146818633e-06,1.4891159903116544e-06,-5.796679072615265e-07,-1.6652095316593822e-06,-1.9798054456632906e-06
-6.992150116532114e-07,-1.184310493315028e-06,-2.365131427352498e-06,-3.0809664270573883e-06,-2.4134423061692613e-06,5.671854854198946e-08,8.246130664577176e-08,-1.6353201277391687e-06,-6.969242949252584e-07,-1.613508028572784e-06,-1.0759340350575348e-06,-3.460058362903548e-07,-1.0011887104948925e-06,-2.5670998965042197e-06,1.457431592254882e-06,-2.4290259535861715e-07,-1.533912171599724e-06,-1.8119721287216118e-06
-6.708240434782832e-07,-1.152527835427363e-06,-2.3097438582357654e-06,-3.0275540829879705e-06,-2.349522259909536e-06,2.005610686085962e-07,2.71633952183827e-07,-1.501289276081722e-06,-6.735582624161568e-07,-1.553214553958002e-06,-1.0011688766951472e-06,-2.6097800112333176e-07,-8.92623486458338e-07,-2.299488541311663e-06,1.3876430167863725e-06,2.470487683645759e-08,-1.3674638801618005e-06,-1.6030448396934486e-06
-6.281721019232279e-07,-1.1038040259888028e-06,-2.26429406551606e-06,-2.9901167746479764e-06,-2.2537752756424674e-06,3.6965450800783296e-07,4.952046653520153e-07,-1.3752738475294607e-06,-5.495956688870442e-07,-1.4962447643050601e-06,-9.390312594437007e-07,-1.784453725695082e-07,-7.975792347840924e-07,-1.994614544551124e-06,1.3619192653003765e-06,2.1618654219287103e-07,-1.1767608441728142e-06,-1.3585571041709404e-06
-5.780830870736759e-07,-1.0452903542989212e-06,-2.240917146847492e-06,-2.9726976708351454e-06,-2.123832038979627e-06,5.43472127254941e-07,7.051824462185681e-07,-1.2630067341297228e-06,-3.9400058736561126e-07,-1.446721021856658e-06,-8.938063061390145e-07,-1.1020927604057071e-07,-7.261160412753478e-07,-1.6810437392235956e-06,1.4304075282799618e-06,3.5235760943526394e-07,-9.793416590168821e-07,-1.0964556411334627e-06
-5.283123895870993e-07,-9.867694591909279e-07,-2.2498363724219912e-06,-2.976954919670281e-06,-1.8933780125795654e-06,7.180140203200124e-07,8.866085530433854e-07,-1.1667884067383085e-06,-2.5384952580736945e-07,-1.4083016791707775e-06,-8.64782519364768e-07,-6.204420152593531e-08,-6.801976940702791e-07,-1.3963411334901478e-06,1.5765444130932796e-06,4.5422331690180465e-07,-7.938303024105282e-07,-8.428810270892423e-07
-4.860926367227734e-07,-9.383174258125528e-07,-2.2949181300489714e-06,-3.0016902682087295e-06,-1.6640805653514789e-06,8.99013942433064e-07,9.88637378270607e-07,-1.1324378284801548e-06,-1.1873869829508617e-07,-1.3840538451758082e-06,-8.483486981939658e-07,-3.533701897455583e-08,-6.572437743268781e-07,-1.1755508175857108e-06,1.7369927944452983e-06,5.182708211145326e-07,-6.357660712485875e-07,-6.250344149447521e-07
-4.5693157384983376e-07,-9.076980915146873e-07,-2.371002581657686e-06,-3.0427956071720067e-06,-1.5228447002213045e-06,1.0153836268160838e-06,1.0014963059872143e-06,-1.1574084376047537e-06,-3.941718661633508e-08,-1.375708867026005e-06,-8.405614104909499e-07,-2.889488455510852e-08,-6.52140340796793e-07,-1.0388689545661367e-06,1.8702368988693427e-06,5.175005007754669e-07,-5.163917695470767e-07,-4.646240258502257e-07
-4.4343668318409143e-07,-8.983563245386097e-07,-2.4646982584383486e-06,-3.0936552274520065e-06,-1.477646048644444e-06,1.0158386525797548e-06,9.227671159242624e-07,-1.2207238882212163e-06,-5.945637810345959e-08,-1.3829611139597387e-06,-8.385574106880702e-07,-4.031954572039916e-08,-6.591062753152773e-07,-9.875486658558867e-07,1.9993533534211384e-06,4.2213865066335456e-07,-4.442273449488584e-07,-3.747158508623671e-07
-4.45243174496273e-07,-9.092555130590966e-07,-2.5594279765952637e-06,-3.1469521042908787e-06,-1.4721834851864194e-06,9.635730024637438e-07,7.070609379748983e-07,-1.3101263998310195e-06,-6.975893678034606e-08,-1.4039790970397355e-06,-8.409404359155079e-07,-6.777735557862263e-08,-6.739891151781697e-07,-1.0095705961892785e-06,2.2042841492635427e-06,2.171286156522186e-07,-4.263513819772325e-07,-3.5929124653908523e-07
-4.598088293395432e-07,-9.366618536508984e-07,-2.6421272171631403e-06,-3.197262016119868e-06,-1.4355772825463649e-06,8.284624200223255e-07,6.380233186480081e-07,-1.378199839314741e-06,-1.0795661693398318e-07,-1.4365464291537703e-06,-8.48733204793658e-07,-1.1150180350672053e-07,-6.95902497727018e-07,-1.0881298661846315e-06,2.5758599567695495e-06,-9.220252194905169e-08,-4.676639719711735e-07,-4.1323879351090923e-07
-4.836619496415905e-07,-9.761491993884643e-07,-2.7067867967959467e-06,-3.242028431269507e-06,-1.34720953355037e-06,7.202677637573188e-07,6.956261406486065e-07,-1.396287670785216e-06,-1.4040160259203956e-07,-1.4785637568455698e-06,-8.648350094606266e-07,-1.736540523963419e-07,-7.266746350041792e-07,-1.206990239463368e-06,3.1503632002366693e-06,-4.785592579273756e-07,-5.669814207388808e-07,-5.227204024732818e-07
-5.132514441753479e-07,-1.0237861651887835e-06,-2.7539332917040645e-06,-3.280793298624841e-06,-1.3138679612504884e-06,7.111556491027489e-07,7.607309830011634e-07,-1.3861969283265605e-06,-2.024444349307477e-07,-1.5281052221781517e-06,-8.935711599916598e-07,-2.5704075410338414e-07,-7.705825530103776e-07,-1.3528969095383872e-06,3.861740905720017e-06,-8.926006536097159e-07,-7.14953661108984e-07,-6.685524526588302e-07
-5.458387204367054e-07,-1.0772376219848389e-06,-2.7894171107050253e-06,-3.315220230266397e-06,-1.313893361745731e-06,6.992477157038081e-07,8.130361603490561e-07,-1.4023378915791048e-06,-2.2990741230604593e-07,-1.5840293814346829e-06,-9.400343041033767e-07,-3.637970895712377e-07,-8.326650941000561e-07,-1.5175189389804323e-06,4.532247030316624e-06,-1.273089588462658e-06,-8.959326592459744e-07,-8.32236904084296e-07
-5.806860032245305e-07,-1.1366755860217626e-06,-2.8234043249143356e-06,-3.350159048110058e-06,-1.4694386408336221e-06,7.250402078231277e-07,7.195971009982801e-07,-1.4522102011398463e-06,-2.640014007987415e-07,-1.6464382025530273e-06,-1.0092978310615421e-06,-4.938155134113934e-07,-9.162787433043964e-07,-1.6956118448019188e-06,4.928016977210061e-06,-1.5651865839830838e-06,-1.0914702989803215e-06,-1.0000780215605645e-06
-6.191483767003629e-07,-1.2041580094368611e-06,-2.8670152072899364e-06,-3.3928548695985523e-06,-1.6822660192621796e-06,6.594574408033392e-07,5.958841976917589e-07,-1.5247066546821857e-06,-3.289943172025115e-07,-1.7157700413410161e-06,-1.1040328815481177e-06,-6.430405285168163e-07,-1.0207601943598296e-06,-1.8788581978057954e-06,4.864839747965507e-06,-1.734792355637698e-06,-1.2831900655434867e-06,-1.1638307883270492e-06
-6.633175136892343e-07,-1.281401533358954e-06,-2.9272328089179996e-06,-3.4495949377727186e-06,-1.9188790332234363e-06,5.725092170354376e-07,3.985455999819739e-07,-1.6462025646951025e-06,-4.0317186263003185e-07,-1.7913985158597636e-06,-1.2223404259024168e-06,-8.033826808594296e-07,-1.1403394716439336e-06,-2.052516927565265e-06,4.296890489246065e-06,-1.7781555497187856e-06,-1.4559592853299633e-06,-1.3194763425494417e-06
-7.146765353458854e-07,-1.3679535219968696e-06,-3.0046531179438644e-06,-3.5228928432497715e-06,-2.188418990505095e-06,4.4650431822496573e-07,1.3998917338967554e-07,-1.764961386245375e-06,-5.414253627163086e-07,-1.8713776873004642e-06,-1.3580546788857376e-06,-9.65036045381945e-07,-1.2672353759487947e-06,-2.1991213103538064e-06,3.3354492958323167e-06,-1.7293229166270642e-06,-1.6022558610373848e-06,-1.4668246388383565e-06
-7.737521255761938e-07,-1.4610151170270317e-06,-3.0953426061265933e-06,-3.6110654670948747e-06,-2.3977506824444125e-06,2.6194405265967853e-07,-5.1884467606653325e-08,-1.8710327820219162e-06,-7.194058650412135e-07,-1.952981932815479e-06,-1.5023121675281545e-06,-1.119188785689981e-06,-1.394483066226458e-06,-2.305391342437884e-06,2.1945058647852707e-06,-1.655356135736267e-06,-1.7235245632658641e-06,-1.6080888727320086e-06
-8.401748097777064e-07,-1.5559077879457985e-06,-3.1931047982805066e-06,-3.708754334533247e-06,-2.5636709856914853e-06,1.2031058806436954e-07,-1.9935552623602888e-07,-2.0053070832153662e-06,-8.626404797398172e-07,-2.032755471499897e-06,-1.644622729960026e-06,-1.2591767984381338e-06,-1.5159434368621556e-06,-2.367289490496989e-06,1.0977406401228064e-06,-1.6330611758466261e-06,-1.8274164195329515e-06,-1.744554692451388e-06
-9.120823184480418e-07,-1.6465105409867988e-06,-3.290316089092369e-06,-3.8077358712958264e-06,-2.7050592130912914e-06,-2.0134268594374778e-08,-3.5488085894317426e-07,-2.14458420834784e-06,-9.842924267201964e-07,-2.106517604558108e-06,-1.7743222117033002e-06,-1.3807216262756553e-06,-1.6266928011091966e-06,-2.3921301742604464e-06,1.8452053003134544e-07,-1.7209083325625333e-06,-1.9236248972718515e-06,-1.8748907246959325e-06
-9.861151121492766e-07,-1.7265681396791566e-06,-3.379514427481034e-06,-3.899337753859148e-06,-2.815057955583484e-06,-1.5629639751636422e-07,-5.045881839681917e-07,-2.2783595765456755e-06,-1.1229565397561312e-06,-2.1704508629040006e-06,-1.882855038735485e-06,-1.482219567563991e-06,-1.7239733714312514e-06,-2.3978687244455592e-06,-5.378430157473031e-07,-1.943040295911164e-06,-2.020816337041589e-06,-1.9968383251109512e-06
-1.0584624700478772e-06,-1.791901477271073e-06,-3.4560836677997664e-06,-3.977734393313851e-06,-2.9091941926965924e-06,-2.7251947698270154e-07,-6.590026387700379e-07,-2.4128810543890015e-06,-1.2592196672255482e-06,-2.222432240555863e-06,-1.965202899019468e-06,-1.5642025028812062e-06,-1.807174866576379e-06,-2.407265228452614e-06,-1.161317115373886e-06,-2.286829260613103e-06,-2.123828284608673e-06,-2.109632295871582e-06
-1.1258177195107264e-06,-1.84154433696302e-06,-3.518943452170161e-06,-4.041020171650075e-06,-2.9818265412642095e-06,-4.050090275491815e-07,-8.148427011057476e-07,-2.5349229888211205e-06,-1.3950227730372393e-06,-2.261996401601235e-06,-2.02084974092878e-06,-1.6276037179551818e-06,-1.8763108062583291e-06,-2.437874895813232e-06,-1.7835023676975625e-06,-2.7075550097570898e-06,-2.2310702602670557e-06,-2.2142496268254753e-06
-1.1856935028127561e-06,-1.8767759002593755e-06,-3.56859286211978e-06,-4.089433917951815e-06,-3.0281199728455285e-06,-5.338684980013275e-07,-9.08122507463779e-07,-2.618987120519683e-06,-1.5237151378807e-06,-2.2894510528187215e-06,-2.052303697287068e-06,-1.6728415099955028e-06,-1.930216635132089e-06,-2.4949014930215793e-06,-2.42542978596612e-06,-3.1379460691397526e-06,-2.3347417666454535e-06,-2.312507626364677e-06
-1.2365751868919589e-06,-1.899786571588246e-06,-3.605779309257002e-06,-4.123598400974049e-06,-3.049438567550861e-06,-6.128329652653982e-07,-9.60263096661784e-07,-2.680609888077236e-06,-1.5906570980520778e-06,-2.3057411764962386e-06,-2.0640816919879666e-06,-1.7009655590322122e-06,-1.9681298131440624e-06,-2.572684014479237e-06,-3.0177660150699452e-06,-3.506276941419503e-06,-2.4256661475689745e-06,-2.406472984769212e-06
-1.2783472823577188e-06,-1.9132453828564043e-06,-3.63202164312748e-06,-4.144359387801912e-06,-3.0482456905154808e-06,-6.641271884050519e-07,-9.920038327096477e-07,-2.727907958614491e-06,-1.6171168843742198e-06,-2.3127860807277415e-06,-2.062715799533619e-06,-1.7148456972639784e-06,-1.991822417451796e-06,-2.6614104425729983e-06,-3.461602159260432e-06,-3.7606944388906337e-06,-2.4979901866003776e-06,-2.496874497817589e-06
-1.3119989066623482e-06,-1.9200394831213256e-06,-3.6494032684790316e-06,-4.152695619958345e-06,-3.0302570400046193e-06,-7.02238261495379e-07,-1.0047097548355587e-06,-2.754324922578744e-06,-1.6272719193728687e-06,-2.313008265605229e-06,-2.055599122691499e-06,-1.7185525613963525e-06,-2.0054056840136027e-06,-2.7505496321327434e-06,-3.7178829166865726e-06,-3.8855548276851745e-06,-2.5498515729321462e-06,-2.5807005220972365e-06
-1.338731235550459e-06,-1.9222701186243755e-06,-3.658762340721638e-06,-4.148919726062953e-06,-3.002828708739297e-06,-7.261375546581814e-07,-1.0025300427338597e-06,-2.771968411932684e-06,-1.6295090839516799e-06,-2.3084411351416447e-06,-2.0496532479632077e-06,-1.7163306817236503e-06,-2.0136905066423957e-06,-2.8290205465870787e-06,-3.82808185838429e-06,-3.898419370070749e-06,-2.58264629585869e-06,-2.6510085433112476e-06
-1.3595350385445233e-06,-1.920573778730615e-06,-3.6586869823362117e-06,-4.1325872910900716e-06,-2.9733576769748608e-06,-7.566039775755212e-07,-9.882586268638196e-07,-2.7833026219685214e-06,-1.6322532072241374e-06,-2.3005009510216535e-06,-2.05088871920108e-06,-1.7125447858263728e-06,-2.0210686316864434e-06,-2.8866798580299335e-06,-3.856713306085481e-06,-3.832570992244132e-06,-2.600138382032423e-06,-2.7002880915878636e-06
-1.3754908690758588e-06,-1.9146100771792545e-06,-3.646065835805797e-06,-4.10328662255129e-06,-2.9483231113810148e-06,-7.973161465969188e-07,-9.665374007586399e-07,-2.783124579006185e-06,-1.641600289014068e-06,-2.2899039269832917e-06,-2.06394577048043e-06,-1.711063314384119e-06,-2.0301310309900913e-06,-2.917535044071714e-06,-3.826105228617939e-06,-3.719894849309903e-06,-2.6057630286826626e-06,-2.723462506955222e-06
-1.3876894680166895e-06,-1.9036488294382702e-06,-3.616537428565612e-06,-4.0607627825944495e-06,-2.932287321421852e-06,-8.430293648609139e-07,-9.431555741927617e-07,-2.7730272175816595e-06,-1.660769685647468e-06,-2.275986995974212e-06,-2.090130691706905e-06,-1.7132183260298428e-06,-2.0399606947528487e-06,-2.9229282072737788e-06,-3.7051327979093087e-06,-3.582234677430945e-06,-2.5995866511362923e-06,-2.717841355134235e-06
-1.3963575257441323e-06,-1.8865477057907878e-06,-3.565186287635109e-06,-4.00458885530991e-06,-2.9262726441696375e-06,-8.962180071348889e-07,-9.380731054878183e-07,-2.7576627274257203e-06,-1.6891414875611717e-06,-2.2564823958937283e-06,-2.126361462197827e-06,-1.7168398303237388e-06,-2.046455439886838e-06,-2.9117413596081436e-06,-3.4533896925702447e-06,-3.429245932636553e-06,-2.57722709853399e-06,-2.6822837256075304e-06
-1.4004728506006317e-06,-1.8620202127694938e-06,-3.489095910254605e-06,-3.934850070609519e-06,-2.9284663420485876e-06,-9.616860389553217e-07,-9.461358611814407e-07,-2.7306738660659066e-06,-1.735904074509927e-06,-2.2286266606806133e-06,-2.166395043468127e-06,-1.7179278002536816e-06,-2.045533522631311e-06,-2.897383018793976e-06,-3.064659375109023e-06,-3.2593400623416136e-06,-2.533188155758174e-06,-2.6173752979483578e-06
-1.3983710808015724e-06,-1.8294920970002095e-06,-3.390044824673833e-06,-3.85305158594674e-06,-2.9351926914307367e-06,-1.0255761122476798e-06,-9.572499112679955e-07,-2.6894796440540505e-06,-1.79073507611502e-06,-2.1903590581618237e-06,-2.202843714776658e-06,-1.7126663812666284e-06,-2.035512387556133e-06,-2.891308513424495e-06,-2.561326071278906e-06,-3.0649690894965378e-06,-2.4652737994541336e-06,-2.5258099607817235e-06
-1.3884112700610922e-06,-1.7893741781070536e-06,-3.2701420433526245e-06,-3.7615519166363303e-06,-2.9415754867170957e-06,-1.0758233423056534e-06,-9.626247695053236e-07,-2.6351380851223606e-06,-1.8424812844124434e-06,-2.1405563287710493e-06,-2.2286256889999475e-06,-1.6980569381451073e-06,-2.01678604371792e-06,-2.8966347381722356e-06,-1.9530843108369715e-06,-2.8447406825276634e-06,-2.3760121098118675e-06,-2.4120591586050086e-06
-1.3695856269990683e-06,-1.7427269153619295e-06,-3.1386430242041588e-06,-3.6624430426287783e-06,-2.9427607337016056e-06,-1.1047051590743603e-06,-9.489567465422772e-07,-2.5680877132936577e-06,-1.885418512040433e-06,-2.0792914904393124e-06,-2.239120419677145e-06,-1.6727327788333987e-06,-1.9924085264704027e-06,-2.9071330571644917e-06,-1.2228653376720378e-06,-2.6157145615217105e-06,-2.271029138580838e-06,-2.282103547484221e-06
-1.3424665889520311e-06,-1.6913228801679315e-06,-3.0096332239492367e-06,-3.5576786981252002e-06,-2.9362734567546644e-06,-1.1049587702479909e-06,-9.134790965497034e-07,-2.4943227171737355e-06,-1.913640812379587e-06,-2.0086614491752915e-06,-2.2339861680832887e-06,-1.6385603414473148e-06,-1.9678857235085444e-06,-2.911668398880569e-06,-3.6285846019526326e-07,-2.4117648238051894e-06,-2.1571946578715095e-06,-2.143471884774454e-06
-1.3099161741662473e-06,-1.6377340682066254e-06,-2.8891500274652747e-06,-3.449795389128824e-06,-2.923776024834912e-06,-1.084002772775377e-06,-8.616865284568975e-07,-2.4222088597907276e-06,-1.92953718272925e-06,-1.932806802127552e-06,-2.2175402562233417e-06,-1.6007292654640853e-06,-1.949735608955121e-06,-2.8993792819090072e-06,5.759700380873803e-07,-2.266061777422957e-06,-2.0409307082121426e-06,-2.004814633262536e-06
-1.2764786107527238e-06,-1.5844845313930865e-06,-2.7815729602404124e-06,-3.341954497859315e-06,-2.9095730888483584e-06,-1.0517969458317424e-06,-8.027482931511573e-07,-2.3596781843389344e-06,-1.9385944137367424e-06,-1.8566338366117923e-06,-2.1963050253989605e-06,-1.5653911605796583e-06,-1.9426104965073962e-06,-2.862401375649579e-06,1.4639096146007242e-06,-2.1970900224044444e-06,-1.9266218616152923e-06,-1.8755846488541456e-06
-1.2468408333556965e-06,-1.5331517192536447e-06,-2.6880626950666285e-06,-3.2380922377937326e-06,-2.8978293245742126e-06,-1.0180466969727009e-06,-7.460935740186313e-07,-2.3132612124470062e-06,-1.94613459552449e-06,-1.7847790643453107e-06,-2.176196326021342e-06,-1.5369121168503545e-06,-1.9476583073506755e-06,-2.797147191717567e-06,2.1198549051980685e-06,-2.2097702670206187e-06,-1.8171166846592715e-06,-1.7660263164777186e-06
-1.2246802490940703e-06,-1.4846219726478206e-06,-2.6090990050004665e-06,-3.141983990907958e-06,-2.8907653286344776e-06,-9.922388287850605e-07,-6.984877500383831e-07,-2.28768732133708e-06,-1.9564159612359823e-06,-1.721342917863425e-06,-2.16107829732381e-06,-1.5162548523821666e-06,-1.9625655012732814e-06,-2.704571879639519e-06,2.3814150736236396e-06,-2.2990036171156427e-06,-1.7146450309373243e-06,-1.6858144848324725e-06
-1.2114898810202718e-06,-1.4397089223199865e-06,-2.5416865432579704e-06,-3.0601011762443052e-06,-2.8880270170291415e-06,-9.769519738097297e-07,-6.62201063911673e-07,-2.2855368698748633e-06,-1.9703616388868378e-06,-1.6691563495865646e-06,-2.1515550469709772e-06,-1.5003896371633455e-06,-1.9819083031022426e-06,-2.589761072600759e-06,2.1818993164710044e-06,-2.4460061094171646e-06,-1.6206592262532376e-06,-1.6406299986962477e-06
-1.205579734914681e-06,-1.399034538533274e-06,-2.529826338502235e-06,-2.9975982066028367e-06,-2.8860395449525744e-06,-9.703090894884393e-07,-6.332015368396735e-07,-2.3059441288840837e-06,-1.984130039669015e-06,-1.6287493687634658e-06,-2.144651232200727e-06,-1.4833728267767565e-06,-1.9982809923410397e-06,-2.4618216195752426e-06,1.5874065202177453e-06,-2.617009097529211e-06,-1.5370052883480814e-06,-1.6297231473297906e-06
-1.2019242540341297e-06,-1.3631305920025927e-06,-2.5659434114442386e-06,-2.9577095360785457e-06,-2.878545798389825e-06,-9.624560830776858e-07,-6.022396657695479e-07,-2.3451345551623892e-06,-1.989602784412875e-06,-1.5988276446146615e-06,-2.1357200546075533e-06,-1.45965791153374e-06,-2.0046068420576612e-06,-2.334355551576785e-06,7.585323834702108e-07,-2.7733109248177104e-06,-1.4688225502841563e-06,-1.6471392265901504e-06
-1.1938353303598577e-06,-1.3335922774070538e-06,-2.606665903709008e-06,-2.940651653760326e-06,-2.859169069892207e-06,-9.511196910099974e-07,-5.595081005628473e-07,-2.399243843732928e-06,-1.9771551132629762e-06,-1.5780736215806804e-06,-2.121846980931283e-06,-1.4273699436069684e-06,-1.996773599086886e-06,-2.2241107822474437e-06,-1.3295818781374538e-07,-2.8872058662460414e-06,-1.424845164576557e-06,-1.6848365402210366e-06
-1.1755175540722305e-06,-1.31362513352337e-06,-2.7479109576444394e-06,-2.9462663263658137e-06,-2.8239892905278806e-06,-9.228323676785802e-07,-4.985449487975626e-07,-2.4655271410815875e-06,-1.9388171869568726e-06,-1.5658265500662404e-06,-2.1028738964499786e-06,-1.3884929693141958e-06,-1.9736110934900017e-06,-2.145930510829231e-06,-9.776556446370183e-07,-2.952514852181198e-06,-1.4133417914912725e-06,-1.73472005317181e-06
-1.1436623887813503e-06,-1.3062661375021268e-06,-2.8341228850844725e-06,-2.9718057865490147e-06,-2.7699736819529793e-06,-8.741810545963405e-07,-4.1670547750166096e-07,-2.5403824244957197e-06,-1.8705679273229448e-06,-1.5610070458804408e-06,-2.076296742164876e-06,-1.346617739452017e-06,-1.935392143893125e-06,-2.107045819748986e-06,-1.7536172540561364e-06,-2.9836627573795726e-06,-1.4372813273217077e-06,-1.7891589781284748e-06
-1.0983929765714337e-06,-1.3116831046774423e-06,-2.8229234934808056e-06,-3.0169200045346053e-06,-2.70453837099045e-06,-7.32305289711709e-07,-3.1512672043764335e-07,-2.61769844494122e-06,-1.7747251347343232e-06,-1.5614086761727953e-06,-2.040833121160179e-06,-1.305369214354387e-06,-1.8841794863475063e-06,-2.10606915935183e-06,-2.4826614326830014e-06,-3.015565440673957e-06,-1.4944267137828222e-06,-1.8420254485286547e-06
-1.0443069903513502e-06,-1.3261428649151771e-06,-2.937253965177247e-06,-3.083542942602021e-06,-2.63838290159858e-06,-4.903641905422835e-07,-2.0047321224753468e-07,-2.689823902178751e-06,-1.6624381856780675e-06,-1.5642774911318078e-06,-1.9919162152239763e-06,-1.267801671648862e-06,-1.8249792019953354e-06,-2.1363082918738677e-06,-3.153663816454296e-06,-3.054987634583416e-06,-1.5807459596540925e-06,-1.8898844309150325e-06
