0,1,2,3,4,5,6,7,8,9,10,11,12,13,14,15,16,17
2.366783478761467e-07,2.1924047752687554e-07,7.56051241760573e-08,5.297358730507852e-08,1.4325850359679866e-08,-4.302699747706108e-07,-4.7311498223877467e-07,-1.5871458082943127e-07,2.5767707751807876e-07,1.847632811491965e-07,1.821510546835532e-07,-1.0977244065225172e-07,-6.655672448028331e-08,-1.220923166836583e-07,-1.2673791658653124e-07,5.96120479639667e-08,-6.275887005637464e-08,-4.5928240390857434e-08
1.9948069431586453e-07,1.8625259014371572e-07,8.4244188751151e-08,1.0553246947873617e-08,6.404564652213898e-08,-4.3065067922183304e-07,-6.351027535032257e-07,-1.0292194132288875e-07,1.645958413992009e-07,7.956965619092608e-08,1.3236468551951485e-07,-6.996691284809816e-08,-8.619860564314861e-08,-1.0389666567583353e-07,-1.3857334235140046e-07,1.8090002248854077e-08,-7.531376216938149e-08,-3.199654848062602e-08
1.310320764304309e-07,1.4218760190899993e-07,5.746671951640831e-08,-3.709116178333628e-08,1.0401756646468239e-07,-4.212443249917906e-07,-7.538895330395348e-07,-5.6307516431377305e-08,8.023900610246177e-08,-5.946884441045976e-09,1.0424084080989554e-07,-2.337245128013455e-08,-1.010340454559813e-07,-8.244314675773198e-08,-1.4892073129118652e-07,-8.077101749379706e-09,-7.5302844794445e-08,-2.1149050468328853e-08
4.257858094491728e-08,9.262022841594919e-08,-6.3692983834646974e-09,-8.622278147533712e-08,1.3341191354140327e-07,-3.9518333931680955e-07,-8.134687223415643e-07,-1.790237469932671e-08,8.111336430246111e-09,-7.563943845842141e-08,9.627397395801418e-08,2.9850099878242996e-08,-1.0874630168292486e-07,-6.054234690772841e-08,-1.5772229669505377e-07,-1.949942535769811e-08,-6.684871828453234e-08,-1.5128093150799838e-08
-1.1135679185598393e-08,4.408953402361748e-08,-3.0654848665052984e-08,-1.1389814392994294e-07,1.521595770007282e-07,-3.115929708998193e-07,-8.065075200460115e-07,2.152083686291222e-08,-4.9117657672435134e-08,-1.1000727394936927e-07,9.546150434334386e-08,7.685369610488567e-08,-1.0913156792667145e-07,-3.851722541138672e-08,-1.6223272014525324e-07,-1.9799812190931243e-08,-5.236065702738667e-08,-1.2514419431131392e-08
-3.932213807167999e-08,2.609243823189256e-09,-1.7839669699608633e-08,-1.0259509041852137e-07,1.7459694372923024e-07,-2.0071983488117043e-07,-7.345939208623743e-07,5.419151829826608e-08,-9.000744638253657e-08,-1.1569176639390515e-07,1.0144689134326206e-07,1.1838584251938022e-07,-1.0253519975830436e-07,-2.0752848070180417e-08,-1.5917902861260366e-07,-1.4506162066842271e-08,-3.3689020045832924e-08,-1.0665992629120852e-08
-2.945552154845225e-08,-2.7786234758710985e-08,-2.67327388713077e-09,-3.7667763526916145e-08,1.8726191603568421e-07,-9.835897150971472e-08,-6.060446387980765e-07,7.68262643827242e-08,-1.146011741116597e-07,-1.0274816468756523e-07,9.954756261021515e-08,1.268840018576585e-07,-9.03853188278421e-08,-3.5223154865621826e-09,-1.4490651180783633e-07,-9.775692736453658e-09,-1.438461433357323e-08,-9.250501237357767e-09
-1.3289231230916373e-08,-4.631483894924644e-08,-6.846399201082285e-09,1.2190311581151338e-08,1.7853710228139658e-07,4.783044386826128e-09,-4.3262832106572237e-07,8.684888547059726e-08,-1.2442172368224682e-07,-8.915474297950972e-08,9.225291642658616e-08,9.295207708118786e-08,-7.54084166118212e-08,1.0391468187141442e-08,-1.1870739393878836e-07,-1.0875859227740864e-08,8.101266062745778e-10,-8.181718304320882e-09
-2.7089153213806426e-10,-5.562169821864516e-08,-9.496821877425742e-09,1.8491822491593723e-08,1.3513238487600866e-07,9.408014893359698e-08,-2.2589506160357578e-07,7.922087084918097e-08,-1.216424446330927e-07,-7.82559577827341e-08,5.993732445189562e-08,5.1381415979743924e-08,-5.8096257971492156e-08,1.7318714038322423e-08,-8.108744212514776e-08,-2.012193154310764e-08,7.541615514077327e-09,-7.717841152972478e-09
-8.275270536472406e-09,-6.036182025877857e-08,-1.6305578754206784e-08,1.4042307419504915e-08,6.373750092839157e-08,1.5671138506135364e-07,5.242221770567388e-09,5.7148498699922525e-08,-1.0809404720814863e-07,-6.544492893104302e-08,6.334232618837007e-09,1.0319336390743792e-08,-3.5901576805945176e-08,1.8880633329938485e-08,-3.188693572874578e-08,-3.526381486839568e-08,5.634772032844898e-09,-7.928492788523857e-09
-2.9605733546022364e-08,-6.510247279432041e-08,-3.2771963945260257e-08,2.104147759901428e-09,-2.8815913108165433e-08,1.9740022329355485e-07,2.5419327637476507e-07,2.8911772537354785e-08,-8.514740253492568e-08,-4.5237615608393356e-08,-5.723844579018081e-08,-3.215284821135546e-08,-6.846489237600002e-09,1.690078686872593e-08,2.8166523340713054e-08,-4.947795653570079e-08,-4.676055158831909e-10,-7.684555882030846e-09
-5.23087778592139e-08,-7.251935369230586e-08,-3.841364700055468e-08,8.140739564234268e-09,-1.239201932379849e-07,2.3102781400087004e-07,5.150538163762824e-07,-1.4533963233947576e-09,-5.393980917962034e-08,-6.552633547853907e-09,-1.174113348510871e-07,-6.634290083334996e-08,3.2173962282114675e-08,1.815432571822955e-08,9.806675843770475e-08,-5.308758162653928e-08,-2.102849907224813e-09,-4.437606920646784e-09
-6.686029869497457e-08,-8.225143885706834e-08,-3.8867107084022986e-08,3.073178789182017e-08,-2.0372988966965605e-07,2.721164879988677e-07,7.819683384790296e-07,-2.688582070677745e-08,-1.5208474211583707e-08,2.6917624161242028e-08,-1.7396471956688797e-07,-8.110604461098634e-08,8.499606861847732e-08,2.93055348893421e-08,1.7507260694248585e-07,-3.777349918060689e-08,1.0988489770229074e-08,5.454488965385857e-09
-9.817960621365845e-08,-9.110522479510579e-08,-2.7730612008736345e-08,5.314515280153157e-08,-2.6333988998201564e-07,3.3620664660110993e-07,1.0493474007456211e-06,-3.622350316515376e-08,3.060177316598636e-08,6.627406486848527e-08,-1.922230500268653e-07,-7.412438650752317e-08,1.5322443585743879e-07,5.565918203856535e-08,2.538469928055138e-07,3.0105761793584293e-09,4.784763810384958e-08,2.5188302715506052e-08
-1.3020962392559897e-07,-9.495535351097046e-08,-8.66840414813004e-09,8.211079959140862e-08,-2.923474559908521e-07,4.3470313512087937e-07,1.311777555648752e-06,-2.2665411222212192e-08,8.253971307589872e-08,1.2109753888480591e-07,-2.030433272600425e-07,-4.6628262561375516e-08,2.3839778247880445e-07,1.0071226308962382e-07,3.271222193390847e-07,6.345100561961068e-08,1.1146814244779399e-07,5.585444572583825e-08
-1.3085692722263352e-07,-9.09812400071951e-08,1.932159221105906e-08,9.299103777995547e-08,-2.950730597506703e-07,5.6099121019469e-07,1.5636628441038389e-06,1.8405897599604204e-08,1.3841543192437655e-07,2.1605724152518556e-07,-2.2613010927005417e-07,-3.1602223067673494e-09,3.3204825516518035e-07,1.644439568331926e-07,3.8767921841704505e-07,1.340952050716072e-07,1.9893815765956422e-07,9.608582342998563e-08
-9.376640079805553e-08,-7.860663817773739e-08,7.525405309312611e-08,1.1495352007999426e-07,-2.7151820131995444e-07,6.923361284791054e-07,1.7986194198502674e-06,8.769583580640449e-08,1.9445244408338168e-07,3.39256106203293e-07,-2.1101206643308968e-07,4.981500311419231e-08,4.348362162278914e-07,2.436483842289296e-07,4.3068701526646256e-07,2.1344779562707235e-07,2.927270697513665e-07,1.4258769130569953e-07
-5.275601063217969e-09,-5.915425310361264e-08,1.2748781286574464e-07,1.5262421242179105e-07,-2.232506568654903e-07,8.270993951355849e-07,2.008514369930712e-06,1.8014261952833815e-07,2.451900935384704e-07,4.757957769421864e-07,-1.68388505051389e-07,1.0432712909965702e-07,5.267011950658873e-07,3.3136910897581e-07,4.5509734557541775e-07,2.393963736970415e-07,3.8466443333571843e-07,1.908495886742319e-07
1.0295970071374129e-07,-3.491446320062302e-08,1.264577569415319e-07,1.865891813812503e-07,-1.5619961821802922e-07,8.988705960770697e-07,2.1837012231064236e-06,2.8559066306876873e-07,2.843347082106787e-07,6.14838087151884e-07,-1.2767201640366778e-07,1.5204438589511753e-07,5.621919271502558e-07,4.0699865046959406e-07,4.640087068343782e-07,2.4413749917893983e-07,4.66741498514521e-07,2.3633629955604667e-07
1.5024481040817716e-07,-7.939060923265636e-09,1.377753243684724e-07,2.3176036556575605e-07,-7.422216749002017e-08,9.160948179047986e-07,2.31585567231913e-06,3.9320218563474096e-07,3.068796839984699e-07,6.80250430195037e-07,-9.464612605300724e-08,1.8687355661194214e-07,5.554508946388371e-07,4.7490447182286394e-07,4.636444321408854e-07,2.520711099640404e-07,5.396706633568613e-07,2.754244228642792e-07
1.9057218955017113e-07,2.0727134376288167e-08,1.557244805759083e-07,2.734685158188498e-07,1.4570410706220664e-08,9.323409348573259e-07,2.401752880135626e-06,4.922025679850844e-07,3.111001917534748e-07,7.387681637649064e-07,-6.48358317671758e-08,2.0654682329184173e-07,5.385693745423746e-07,5.287321249766803e-07,4.605917107605464e-07,2.3748690075539306e-07,5.969472256954718e-07,3.0624669112468483e-07
1.969419568341571e-07,5.063222338171607e-08,1.977462548301842e-07,3.0921733630633543e-07,1.0172972938094245e-07,9.297538920053179e-07,2.4453452491271314e-06,5.72866056773908e-07,2.990837270315511e-07,8.028384674193422e-07,-3.9939985259800884e-08,2.1190993868373371e-07,5.551129532773801e-07,5.62777551355808e-07,4.588305180891135e-07,1.9975198988658768e-07,6.314566773536062e-07,3.2782976363688135e-07
2.3416336304917794e-07,8.095057098938551e-08,2.507240204825518e-07,3.4634411087517307e-07,1.7820123535069623e-07,8.844429945664794e-07,2.4572955727213953e-06,6.286567147870957e-07,2.758745023475278e-07,8.438554354482883e-07,-1.9294767646391638e-08,2.0519173671667722e-07,5.622487495859315e-07,5.79976325708055e-07,4.586202708861088e-07,1.6470224454233548e-07,6.425360412745482e-07,3.395457268030522e-07
2.8280865878075826e-07,1.0998372427911124e-07,2.94268050545732e-07,3.8099891682288385e-07,2.3540364612356426e-07,8.267050261532614e-07,2.4519039293607644e-06,6.567273051491704e-07,2.4760514191221047e-07,8.441005214957694e-07,-2.783877054630777e-09,1.8788044897407957e-07,5.800366432451852e-07,5.772363211521298e-07,4.5725518720633163e-07,1.399682208680788e-07,6.284734764817094e-07,3.4089361202753546e-07
3.257508927768663e-07,1.3502565390126322e-07,3.4681838257047244e-07,3.993654691426676e-07,2.6726740007629303e-07,8.190207402680683e-07,2.4421284826864614e-06,6.577315540997885e-07,2.191388257557165e-07,8.351091210419907e-07,8.19571222192384e-09,1.5879735569698853e-07,5.844134670929076e-07,5.5494467469661e-07,4.506396451354838e-07,1.1804006940702956e-07,6.134785651859686e-07,3.3111868346641425e-07
3.3582407786287566e-07,1.515177177647109e-07,3.886742336961238e-07,4.144581553256902e-07,2.70720326930899e-07,8.432406693030104e-07,2.4355629962940967e-06,6.345724678338875e-07,1.9264024583445017e-07,8.482860572441266e-07,1.0920821545459739e-08,1.1452267508578163e-07,5.799990964109798e-07,5.119556213453314e-07,4.352688323323145e-07,9.648083304792034e-08,5.95578107679258e-07,3.0925675119502285e-07
3.0432806982854244e-07,1.5636715312622192e-07,4.28132953350706e-07,4.307328502681347e-07,2.464249110973494e-07,8.739862196708682e-07,2.4337222149902954e-06,5.919625532714368e-07,1.6789634901640682e-07,8.653465780425994e-07,2.884568392290773e-09,5.23930447904794e-08,5.737949732135143e-07,4.71980638452124e-07,4.0993358824426097e-07,7.145367125633202e-08,5.713708204370458e-07,2.7578252565974496e-07
2.5273160297249203e-07,1.4748324634802351e-07,4.6461742950771354e-07,4.3557725532953254e-07,1.9894941198923162e-07,9.079286740671226e-07,2.433353352332007e-06,5.357210638594747e-07,1.433398811459614e-07,8.759965856895394e-07,-1.6726885182496777e-08,-2.6929563162427825e-08,5.488760258552821e-07,4.120819844824811e-07,3.761334210610854e-07,4.048418409460213e-08,5.257774234541316e-07,2.3328288022992868e-07
1.9025910934825533e-07,1.2511132648695737e-07,4.73033058122091e-07,4.3603553251363223e-07,1.3538008073000493e-07,9.161223174959073e-07,2.427761365592289e-06,4.7134999434017407e-07,1.168285785020261e-07,8.845749131982286e-07,-4.666762401124443e-08,-1.1882263716774133e-07,5.16183985917519e-07,3.373433555628089e-07,3.374553254145865e-07,2.9676229236790354e-09,4.6627290229868674e-07,1.8580174641193369e-07
1.5357739971132987e-07,9.124264757384646e-08,4.82591477995177e-07,4.268481607032745e-07,6.382821700421335e-08,9.100816577350923e-07,2.4086382040978452e-06,4.0367723536572103e-07,8.661548442008144e-08,8.799437961220152e-07,-8.384375982538045e-08,-2.149882759086817e-07,4.847717856860928e-07,2.6283152330736835e-07,2.9879102773032066e-07,-3.940837538916769e-08,4.0842698241276966e-07,1.3864508146236372e-07
1.4379879851671258e-07,4.86946566374327e-08,5.083745584567537e-07,4.0348670030303156e-07,-7.166580899691092e-09,8.869548270512523e-07,2.368790622315515e-06,3.3801924431101463e-07,5.246191171071962e-08,8.612533191649934e-07,-1.2361176079919783e-07,-3.048819518050275e-07,4.556083071022251e-07,1.898236701228563e-07,2.651452899878049e-07,-8.27932170665187e-08,3.6126084428558445e-07,9.752807201115081e-08
1.4788972717178368e-07,2.131348028910551e-09,5.183788921431677e-07,3.805214822158693e-07,-6.989432504595399e-08,8.48321133216924e-07,2.3041362113972126e-06,2.8022059841106827e-07,1.5846311807358955e-08,8.412989631046636e-07,-1.614243090960584e-07,-3.7885189545896043e-07,4.191173973028971e-07,1.3185212996759893e-07,2.398569773192002e-07,-1.2259236927223962e-07,3.36122716319134e-07,6.555882668550037e-08
1.5737408864334851e-07,-4.4100901764049206e-08,5.345151619725549e-07,3.637507172159041e-07,-1.1963170271488204e-07,7.896044009374593e-07,2.2142500266807298e-06,2.3504323441453565e-07,-2.0746971977312935e-08,8.235482233350051e-07,-1.9398167224394866e-07,-4.3088603002499225e-07,3.795770133708615e-07,9.184116593424936e-08,2.2356257672692092e-07,-1.5510215876908453e-07,3.146850444726586e-07,4.409173287422456e-08
1.4781900049702579e-07,-8.605739399022896e-08,5.584698303250864e-07,3.556068184986554e-07,-1.5533616929116793e-07,7.186585487456285e-07,2.1024987199956126e-06,2.051439327597232e-07,-5.4523317253074866e-08,8.205880933324868e-07,-2.1901974960728745e-07,-4.5911203709071465e-07,3.389929171910464e-07,7.234999104827199e-08,2.1486483423781786e-07,-1.7817169609060783e-07,2.964107570537351e-07,3.297172075261599e-08
1.37020795064292e-07,-1.2184696201104358e-07,5.782944693846506e-07,3.774593795388706e-07,-1.789757787791437e-07,6.566250886527636e-07,1.975824563034257e-06,1.9052565255801848e-07,-8.301301816298607e-08,8.125106127573187e-07,-2.354798937139031e-07,-4.653674988352501e-07,3.0039576824526153e-07,5.529452595516589e-08,2.1182004508575267e-07,-1.913686288206935e-07,2.8084609975807465e-07,2.9569879313139402e-08
1.3385553796460236e-07,-1.5051818565343047e-07,5.806721154628351e-07,4.0706228417698835e-07,-1.9173423701386233e-07,6.039148854259459e-07,1.843662038972989e-06,1.878385636651094e-07,-1.0481634519759403e-07,8.2161179607014e-07,-2.432421343530859e-07,-4.548710004361281e-07,2.6990608472252937e-07,6.250236628181055e-08,2.1319212082800168e-07,-1.9610985970460604e-07,2.794359945193436e-07,3.364524957682897e-08
1.5602259923583308e-07,-1.7244244056797912e-07,5.830839750788694e-07,4.319307430851212e-07,-1.9261355394691878e-07,5.797555357676777e-07,1.7169588975916293e-06,1.9124525623155654e-07,-1.1960576769173416e-07,8.168996722230969e-07,-2.42532905789435e-07,-4.348533856128423e-07,2.581672824472845e-07,9.121269557480342e-08,2.191792658223239e-07,-1.9533735374440742e-07,2.9093649375884217e-07,4.562660999108657e-08
1.7331820633530786e-07,-1.8828041384718338e-07,5.78865939662846e-07,4.3280533431432295e-07,-1.791964982954919e-07,5.791263574780778e-07,1.6078746958656593e-06,1.9554330538734667e-07,-1.2715274842352594e-07,7.492934851147925e-07,-2.333070454079726e-07,-4.123831268004138e-07,2.6020912091954364e-07,1.1883611993997298e-07,2.310548762002622e-07,-1.930659981809739e-07,3.1108715693182377e-07,6.531977772892828e-08
2.098442495142647e-07,-1.963491672063143e-07,5.330997325830536e-07,3.9369555977926943e-07,-1.4701634875622746e-07,5.962312385248245e-07,1.5287188996894024e-06,1.9862408495411158e-07,-1.2671080888210664e-07,7.3041989623567e-07,-2.151961745555342e-07,-3.931550984365152e-07,2.710620730579235e-07,1.4924576924117336e-07,2.4952476700103656e-07,-1.94473199364904e-07,3.41182395470867e-07,9.486423655898066e-08
2.3246503684248905e-07,-1.9865363180590729e-07,5.269437549996519e-07,3.888007402103333e-07,-9.409160523410933e-08,6.321883806103443e-07,1.4895817761647831e-06,2.0183750067723368e-07,-1.174432260070294e-07,7.304764413814587e-07,-1.8811202083439032e-07,-3.808551681761391e-07,2.9330412439010403e-07,1.8083884880280983e-07,2.731819263760593e-07,-2.0560720357411964e-07,3.7700722654568944e-07,1.362412514513183e-07
1.5808185455670785e-07,-2.028670724409992e-07,5.086380118480063e-07,3.944549200010392e-07,-1.9904244744406914e-08,6.788701091287853e-07,1.4963000845102087e-06,2.0971544201611502e-07,-9.917516633005738e-08,7.610788998375024e-07,-1.528102095330406e-07,-3.759791722373621e-07,3.2138996674379777e-07,2.1625737600761484e-07,2.98472528437613e-07,-2.3287790900491315e-07,4.233189613710756e-07,1.7086238365779843e-07
1.6503532270707618e-07,-2.2996534405519167e-07,4.968795205817224e-07,4.0501900402188966e-07,6.672943231930566e-08,7.315783921259223e-07,1.5496766356174724e-06,2.2864684385652507e-07,-7.313915090576872e-08,8.012246445280675e-07,-1.1131809117654105e-07,-3.7569739498974183e-07,3.542144101876059e-07,2.47903736900255e-07,3.209799224068676e-07,-2.763286191353846e-07,4.778354472536822e-07,1.9583796590730142e-07
1.8552616545171108e-07,-2.517189691206222e-07,5.035972865623102e-07,4.1391072071628367e-07,1.642845281232766e-07,7.91839810063776e-07,1.6454893974802558e-06,2.6330176113818434e-07,-4.260397793578175e-08,8.180040626645551e-07,-6.745822763258215e-08,-3.760793540761064e-07,3.906523971347171e-07,2.8081195227960354e-07,3.372602704721753e-07,-3.284482734011624e-07,5.37057045393391e-07,1.8811364357492826e-07
2.0049867164407144e-07,-2.8175947082617136e-07,5.024565109890283e-07,3.6079421707538497e-07,2.6625874348358206e-07,8.673052701185615e-07,1.7754912540173443e-06,3.141819046339062e-07,-1.2395244961406573e-08,8.675315797396096e-07,-2.7158619541220258e-08,-3.7429389570301865e-07,4.2770332963717625e-07,2.552252930989474e-07,3.4661039923307464e-07,-3.762558656596072e-07,5.958470040850016e-07,1.4655104399812665e-07
2.794213959998966e-07,-3.5601219918021283e-07,5.53756296502814e-07,3.5345371566909987e-07,3.215546945405023e-07,9.380169116073667e-07,1.9295629197862803e-06,3.750274483088489e-07,1.2850519328076205e-08,9.347917616726939e-07,2.756783911503255e-09,-3.6836191396333216e-07,4.6178617415594115e-07,1.289596616111825e-07,3.5159759853221443e-07,-3.8051035522902434e-07,6.5750348479982e-07,1.1015895891187063e-07
3.2635608260589245e-07,-4.033350529456356e-07,6.051958120829203e-07,3.9436299651478264e-07,3.5259316163222226e-07,1.0052699224858785e-06,2.0978567139818372e-06,4.370329793381854e-07,3.007318343201249e-08,9.714914044899292e-07,1.7347063014631614e-08,-3.55452766095035e-07,4.975267870003497e-07,4.281921185214783e-08,3.565064932776744e-07,-3.518848156507957e-07,7.201963338572302e-07,8.676020085582282e-08
3.8268540879460114e-07,-3.872795773589124e-07,6.254248770131048e-07,4.2281270084646217e-07,3.7353291110924285e-07,1.0543718281658525e-06,2.2723533324166692e-06,4.932615229049961e-07,3.7999861218791014e-08,1.006294290362702e-06,1.65779921707052e-08,-3.306864721068634e-07,5.403694235568367e-07,-1.2950365612149117e-08,3.6489386765875e-07,-3.18744490988416e-07,7.857048160856837e-07,4.941616873277995e-08
4.182354307207425e-07,-3.495014791831431e-07,6.451056303065144e-07,4.5960716589069174e-07,3.507726797447791e-07,1.082902309144326e-06,2.4483086190346893e-06,5.403590593931987e-07,3.709195543573473e-08,1.0377853008178263e-06,6.70858685146795e-09,-2.877273844747194e-07,5.931747740961044e-07,-5.5951437199389325e-08,3.782430655883351e-07,-2.864632366158287e-07,8.582069461696156e-07,-3.482758329587398e-08
4.5034198604143944e-07,-3.1753572345782593e-07,6.732502993491854e-07,4.894546147314209e-07,3.2402033363319445e-07,1.1317816681306753e-06,2.624613934410213e-06,5.825697999897284e-07,2.9394631879545054e-08,1.0789009278566716e-06,-2.6134011193211843e-09,-2.2229315146263048e-07,6.567163207842006e-07,-1.0097468064420256e-07,3.959309819680173e-07,-1.9248085825263507e-07,9.358834824903865e-07,-1.3087705904800696e-07
5.011389607070945e-07,-2.981715250102771e-07,7.156538965275932e-07,4.818050401259765e-07,3.263550085548857e-07,1.1893869074057201e-06,2.8017107573291665e-06,6.258492718367586e-07,1.7384005072556217e-08,1.143936881969224e-06,-4.37808431817292e-09,-1.3689315499416634e-07,7.256965607885931e-07,-1.976854112016737e-07,4.156385411306631e-07,-7.964946869475075e-08,1.0154160025897495e-06,-1.8741859791599155e-07
5.481216912331688e-07,-2.835634838935812e-07,7.837680702296489e-07,4.900051902169521e-07,3.601314524636524e-07,1.2512686642085254e-06,2.978719426461777e-06,6.730602451450344e-07,2.3444685644989812e-09,1.2042702829227397e-06,1.7535478405136009e-09,-4.202347604084378e-08,7.910014200478977e-07,-3.383748579694256e-07,4.341926984358431e-07,1.659189416656586e-08,1.0903149081578033e-06,-2.1228703942449936e-07
6.035676796593448e-07,-2.6401401809799833e-07,8.378131385191139e-07,5.272946758902957e-07,4.1403313776637927e-07,1.2832233690632588e-06,3.152352465843014e-06,7.238537424384884e-07,-1.6083650854236117e-08,1.238507413216376e-06,9.744515531179629e-09,4.765242834701206e-08,8.448922312756648e-07,-4.064212427830444e-07,4.488550784073272e-07,9.84779262715528e-08,1.1528180558898498e-06,-2.435078656797561e-07
6.65199447382174e-07,-2.197547988154699e-07,8.603887686563759e-07,5.636525631692882e-07,4.716505974202552e-07,1.2959449230724395e-06,3.31730484720456e-06,7.759497848192889e-07,-3.907584563873573e-08,1.2567896429311282e-06,1.1122017860124709e-08,1.18700861651125e-07,8.859850326402118e-07,-4.3102041570955e-07,4.583736029513952e-07,1.3254728069259596e-07,1.1965669122585265e-06,-2.4553262171375367e-07
7.228710497212138e-07,-1.7032322120611543e-07,9.132844119474885e-07,5.752933555737011e-07,5.255994928325145e-07,1.3029792934201893e-06,3.4670501821528743e-06,8.267010511136366e-07,-6.74462749154614e-08,1.3125821205564304e-06,-1.267717625850292e-09,1.6336597249154186e-07,9.053404671737724e-07,-4.264302402815696e-07,4.636275492589937e-07,1.3973985191911232e-07,1.2204974088895908e-06,-2.295241943068601e-07
7.728319134912058e-07,-1.3079058435872864e-07,9.810737710870295e-07,5.784789989754476e-07,5.667912500961288e-07,1.3213668084393152e-06,3.5955546181143192e-06,8.744635911255664e-07,-1.0049005543215093e-07,1.3663297018558933e-06,-2.9371624417715243e-08,1.8227644501460823e-07,9.179177331645554e-07,-4.459795810951774e-07,4.6787213376431396e-07,1.5386153124606818e-07,1.2293164946046766e-06,-1.9971363026669615e-07
8.006877927702617e-07,-8.397510949458853e-08,1.036553947114592e-06,6.085832699716796e-07,5.888014722202406e-07,1.3531357058446507e-06,3.699451224861816e-06,9.19613204785251e-07,-1.3546762553155478e-07,1.411685278571093e-06,-7.021541603412768e-08,1.8346637784926422e-07,9.235469399556455e-07,-4.825557864732248e-07,4.757905639878226e-07,1.4137771183805542e-07,1.231607382491427e-06,-1.6114363650779496e-07
8.513227987749174e-07,-7.630829433221313e-08,1.075360727392971e-06,6.187510297634946e-07,5.953533364030518e-07,1.4084445697900282e-06,3.778839609837267e-06,9.626542911614972e-07,-1.6842673435653395e-07,1.4461687853546563e-06,-1.1583385916639573e-07,1.775449017219521e-07,9.253609399662039e-07,-5.105580844635943e-07,4.913012285583351e-07,1.0795433171483408e-07,1.232853253369767e-06,-1.4250819263942798e-07
8.549031597474122e-07,-7.770973093619312e-08,1.0983323660080407e-06,6.04633943747518e-07,5.917222212450001e-07,1.410142342053804e-06,3.836720162752987e-06,1.0040767710706059e-06,-1.955794764273977e-07,1.4676959171801625e-06,-1.577417693612901e-07,1.7299193005013046e-07,9.298633853116376e-07,-5.406081433166798e-07,5.156408114825052e-07,8.015612975047043e-08,1.2286134318288303e-06,-1.0194593540567495e-07
8.383079635479014e-07,-7.818914390150257e-08,1.0931723775766927e-06,5.963408671808824e-07,5.836508938569325e-07,1.359168096356942e-06,3.8781263338403455e-06,1.0455296244779787e-06,-2.1420384648851765e-07,1.4867452725437528e-06,-1.8826631632997077e-07,1.7448109798087333e-07,9.387966612766724e-07,-5.132390540456393e-07,5.467125755861762e-07,6.522597708417668e-08,1.2254640021598078e-06,-5.0248367516699067e-08
8.414765516133656e-07,-6.985790811943877e-08,1.1117715955254447e-06,6.169186053163431e-07,5.790009079985585e-07,1.310029715772657e-06,3.908342074431223e-06,1.0790581873110837e-06,-2.2348487804272672e-07,1.5055004993635953e-06,-2.0468729777456243e-07,1.8289335823007953e-07,9.518043595854579e-07,-4.818514093467036e-07,5.793678994077954e-07,8.93790492541414e-08,1.2266612911722674e-06,-2.430898404960596e-08
8.318033487325011e-07,-5.499773360764302e-08,1.1323108682841529e-06,6.498522191655783e-07,5.837139131852291e-07,1.2561487871262276e-06,3.9301377582868424e-06,1.1083426708051766e-06,-2.2546254031301812e-07,1.5359009601140408e-06,-2.0979137279145607e-07,1.9583956863106856e-07,9.72821353818377e-07,-4.4823979504596577e-07,6.06556424335388e-07,1.4057944278860583e-07,1.2255572771267137e-06,-7.812418269280772e-10
8.486069159241419e-07,-4.206929442046073e-08,1.1360436484851107e-06,6.732074394220949e-07,5.993552251593638e-07,1.2310006212629525e-06,3.9423798403610125e-06,1.134913084152527e-06,-2.248697735179353e-07,1.554246535401653e-06,-2.0980622467232696e-07,2.09458577455307e-07,9.85094981158132e-07,-3.984663285900472e-07,6.214376901884723e-07,1.834059858993796e-07,1.2288649935548957e-06,1.873070173356162e-08
8.931299629967254e-07,-2.999824166606246e-08,1.1519423137499554e-06,6.875332904530235e-07,6.244886623920097e-07,1.2316308860297052e-06,3.940940512206124e-06,1.1550261750105665e-06,-2.2753655812514906e-07,1.5604670705584703e-06,-2.1469750955679383e-07,2.2060039351378525e-07,9.76324750558517e-07,-3.676915349349702e-07,6.193774432918755e-07,2.2588329430129702e-07,1.2327758717357226e-06,2.3427565218826462e-08
9.536644203189798e-07,-2.1569078985306534e-08,1.1753075222604353e-06,6.628911655867711e-07,6.55521323019578e-07,1.2372060554018735e-06,3.91970965649215e-06,1.1779046338691273e-06,-2.3870823091713036e-07,1.57811390028218e-06,-2.3036961288316503e-07,2.2745356931488017e-07,9.348743902002792e-07,-3.19111448751115e-07,5.986999953880615e-07,2.787811317332017e-07,1.2255291027074697e-06,1.913621971721397e-08
9.918671244325867e-07,-1.9290141338736242e-08,1.200738278181009e-06,6.343951185196847e-07,6.861774961599012e-07,1.2442091910194238e-06,3.87071457370111e-06,1.1937911530933571e-06,-2.619319989119769e-07,1.5887213076689244e-06,-2.583590694666932e-07,2.2933988412302112e-07,9.175274079804909e-07,-2.4193745092116926e-07,5.606019458819036e-07,3.174453670614703e-07,1.2037932562220153e-06,1.2653752850432305e-08
9.833879040646213e-07,-3.0342490192933994e-08,1.2296949228201293e-06,6.190680445538743e-07,7.076034752680576e-07,1.242990501832085e-06,3.7848453205606357e-06,1.1937119477957611e-06,-2.9817428332002313e-07,1.580984258092222e-06,-2.994224411530839e-07,2.2685817115856006e-07,9.213732233483272e-07,-1.5574608458932795e-07,5.087790820938477e-07,3.3961558011237044e-07,1.1860577485124435e-06,-1.5488276493148228e-08
9.69608975351035e-07,-5.4381085919299985e-08,1.235390918848655e-06,6.104118737963576e-07,7.144873639055387e-07,1.2169525594752474e-06,3.653340994891456e-06,1.1759393449850466e-06,-3.457485503780348e-07,1.566755983169155e-06,-3.505561963315872e-07,2.208463754632214e-07,9.102062104999083e-07,-5.6065714906329054e-08,4.481640358896962e-07,2.902409238400751e-07,1.1698111955231092e-06,-5.733303967171577e-08
9.096656251051383e-07,-8.895540384298601e-08,1.2050019269796977e-06,6.150865103531827e-07,7.034630588161751e-07,1.1667429396573975e-06,3.468809436136532e-06,1.1586364894909017e-06,-4.0168244810298986e-07,1.5552383608824234e-06,-4.070856185973684e-07,2.0984607420883744e-07,8.839561314303157e-07,4.22762040438078e-08,3.8285656557153724e-07,2.0165579300268335e-07,1.1539197930383924e-06,-9.17719784474018e-08
8.466480461711645e-07,-1.2940126277732762e-07,1.16969800001924e-06,6.099936315032555e-07,6.731822067646608e-07,1.1002930878853596e-06,3.226661076057537e-06,1.1382206804620298e-06,-4.6326040705094514e-07,1.5174304773652207e-06,-4.6877450787290014e-07,1.8952043197163223e-07,8.423717867796289e-07,1.2757923254031168e-07,3.149682835784945e-07,1.5405719267473773e-07,1.141593139652987e-06,-1.253127740432113e-07
7.813358837517713e-07,-1.7195288800672014e-07,1.1404833829693754e-06,5.969835701281214e-07,6.22085760540281e-07,1.0063545832449466e-06,2.928367471726728e-06,1.1106107207498454e-06,-5.283351231438719e-07,1.4776247369395471e-06,-5.317245287795479e-07,1.5548537097650666e-07,7.8598710188115e-07,1.93914487700554e-07,2.452649647021707e-07,1.380978108079682e-07,1.1286982659092986e-06,-1.7027036007590965e-07
6.947710333187537e-07,-2.1474518656581896e-07,1.1201691079194917e-06,5.874129407232035e-07,5.473504247450254e-07,9.089226218664858e-07,2.58448948552986e-06,1.0787248714558118e-06,-5.951100017067069e-07,1.443193641429934e-06,-5.924530457180273e-07,1.0615834533692337e-07,7.119893518247376e-07,2.3930972470194784e-07,1.7447653397268116e-07,7.12413446581483e-08,1.0994414020131394e-06,-2.1851242714832127e-07
6.482919706312425e-07,-2.5606263902898115e-07,1.1103501081144166e-06,5.783635441572713e-07,4.6299008341724883e-07,8.090175071604607e-07,2.2142976626526998e-06,1.0171314586597888e-06,-6.623587304930296e-07,1.4089701196857872e-06,-6.410083157723173e-07,4.344325217082811e-08,6.426641873959273e-07,2.5052825158622607e-07,1.042949500709454e-07,-2.595702278455855e-08,1.0529785672397738e-06,-2.692372478045115e-07
6.373857381831878e-07,-2.960301388866118e-07,1.0879660948777305e-06,5.666958228939705e-07,3.7773075998867997e-07,7.01940395486284e-07,1.8423316092133794e-06,9.385175391469398e-07,-7.293224314432673e-07,1.3656932651867197e-06,-6.790239732447835e-07,-2.7019656130740233e-08,5.739681112365072e-07,2.393718670137483e-07,3.803676056435877e-08,-1.5563759733090385e-07,9.993645640938105e-07,-3.2461267926277627e-07
6.125328169023238e-07,-3.3495246840378984e-07,1.0565122856871239e-06,5.489467487121748e-07,2.981145419888883e-07,6.187063797047101e-07,1.4941631482496276e-06,8.581480014445672e-07,-7.947642207845728e-07,1.3148712222296363e-06,-7.04826116013137e-07,-9.580831055796667e-08,5.102924772033562e-07,2.1900646333581207e-07,-1.9598128494439352e-08,-2.641452019898194e-07,9.302225637104645e-07,-3.741687070954758e-07
5.783255323621603e-07,-3.7302462111041913e-07,1.0303713803517159e-06,5.108992413957431e-07,2.3195002490089904e-07,5.639274235332562e-07,1.1919594993126662e-06,7.836514571327105e-07,-8.564297544871383e-07,1.255870033924706e-06,-7.261932069747146e-07,-1.5229572461097265e-07,4.6058714854330816e-07,1.9758916805458768e-07,-6.429646275480303e-08,-3.400084242512971e-07,8.609584137406403e-07,-4.185976024632808e-07
5.640635686462942e-07,-4.104987908278801e-07,1.0062957608433298e-06,4.548866426348398e-07,2.2015760930644584e-07,5.723972912948099e-07,9.502927868854564e-07,7.123152790994316e-07,-9.116358635150183e-07,1.2041480214867605e-06,-7.41957435527753e-07,-1.8913729157644322e-07,4.206163144824934e-07,1.8318353775128206e-07,-9.426930662396266e-08,-4.2496638460691974e-07,8.027932314746389e-07,-4.685686575102556e-07
5.508694563301686e-07,-4.478363249730745e-07,9.761409589405742e-07,4.0232920582395046e-07,2.4616430501032033e-07,6.384928024455512e-07,7.743846852643407e-07,6.489987979810846e-07,-9.578704171549733e-07,1.164306523113908e-06,-7.405980746480182e-07,-2.047107679838308e-07,4.1154070667520105e-07,1.780280028121533e-07,-1.1093188863938418e-07,-4.358214199719886e-07,7.591470028627874e-07,-5.161027686501953e-07
5.280096260159793e-07,-4.856252869292251e-07,9.352648898241095e-07,3.4688903525378065e-07,2.513567890096428e-07,6.802064766336078e-07,6.617675695413487e-07,5.964418789999864e-07,-9.928409426231561e-07,1.1267934586108462e-06,-7.244062485731047e-07,-2.0257088742779577e-07,4.1320086624384494e-07,1.8286362971222143e-07,-1.1801886732713508e-07,-4.428525096709218e-07,7.228643465657226e-07,-5.440369546620818e-07
5.005487769738866e-07,-5.24083014941841e-07,8.819307964131253e-07,2.842067635847764e-07,2.2183243643938338e-07,6.591466929047167e-07,6.052714173852553e-07,5.526399531683099e-07,-1.0149607161110916e-06,1.0914636771899364e-06,-6.89227859273757e-07,-1.9001638734490554e-07,4.210670899048067e-07,1.9164382903416508e-07,-1.200772255570167e-07,-4.668149866874465e-07,7.082254293436727e-07,-5.547506462894589e-07
4.7574567743867333e-07,-5.627739351587809e-07,8.131886344608521e-07,2.212823286275917e-07,2.370697952685372e-07,6.184752581681283e-07,5.954469753595761e-07,5.35581076445084e-07,-1.0244467660459891e-06,1.0567399409434279e-06,-6.566625309148182e-07,-1.7580175688867265e-07,4.308544421148101e-07,2.019253371556516e-07,-1.2067891093600127e-07,-5.069080935869911e-07,7.097622787645242e-07,-5.502883990267046e-07
4.4867756028220126e-07,-6.00144619067351e-07,7.489181380803109e-07,1.680490786051968e-07,2.7017501315494887e-07,6.041260049392026e-07,6.22544894345389e-07,5.343149679030898e-07,-1.0238430690505781e-06,1.0317594493510759e-06,-6.303227577374652e-07,-1.6634511905194181e-07,4.387128679146247e-07,2.1193256876905744e-07,-1.2093915898157877e-07,-5.778635849467973e-07,7.14438710145459e-07,-5.358924903303856e-07
4.296837024573016e-07,-6.332607467895942e-07,6.956200947578288e-07,1.4503666183286187e-07,3.299395638393132e-07,6.239924772154987e-07,6.778334155728988e-07,5.390669111539643e-07,-1.0176130705610081e-06,1.013757209719392e-06,-6.100806758770195e-07,-1.6303582013296235e-07,4.5480194635323644e-07,1.9898667857179417e-07,-1.1971083678974506e-07,-6.728082806474975e-07,7.240804975698556e-07,-5.22325888323136e-07
4.311213872312952e-07,-6.584025245599685e-07,6.567887094737001e-07,1.6559512297636224e-07,3.9961471138791526e-07,6.551068352933898e-07,7.535735764134353e-07,5.49003006138555e-07,-1.0113179777211292e-06,1.0319205097400578e-06,-5.765881675192835e-07,-1.6293443754774012e-07,4.790646896732843e-07,1.5647202571233868e-07,-1.154446220921435e-07,-7.597790808027708e-07,7.28180233081148e-07,-5.154446796968847e-07
4.485500976736332e-07,-6.72567650440184e-07,6.44736481038139e-07,1.9191759372043389e-07,4.777719250170976e-07,7.012472982750401e-07,8.427852041826003e-07,5.625115960168775e-07,-1.010148375534397e-06,1.0343127322017686e-06,-5.300708573322348e-07,-1.6095359062802805e-07,5.106354503140408e-07,1.083340155962762e-07,-1.0764630555410846e-07,-8.293355484171611e-07,7.221666292568091e-07,-5.166602810329774e-07
4.80715288651119e-07,-6.747731595995695e-07,6.536996483285275e-07,1.8640758087830545e-07,5.421713935901763e-07,7.530273277854858e-07,9.402530208681381e-07,5.796348921809111e-07,-1.0167766145804986e-06,1.03650621434333e-06,-4.839357826384868e-07,-1.515349606644394e-07,5.407555109115728e-07,6.003362297642281e-08,-9.672914034957035e-08,-8.821784917172523e-07,7.077322735380202e-07,-5.290709728723511e-07
5.010107350147028e-07,-6.662695429777307e-07,6.802545131071678e-07,1.560222401203069e-07,5.850603565664458e-07,7.752415867519769e-07,1.0437986252008832e-06,6.007076088768385e-07,-1.0299928101913702e-06,1.0531371633879559e-06,-4.3817943316774395e-07,-1.3068927880828938e-07,5.742902434445321e-07,1.1848552571895925e-08,-8.321258361004946e-08,-9.15472979934752e-07,6.915297671304613e-07,-5.550524435863765e-07
5.318502834700823e-07,-6.499362372030785e-07,7.206242751114335e-07,1.2589251996144034e-07,6.090420000424682e-07,7.982634645707044e-07,1.1544897655538149e-06,6.250250947317261e-07,-1.0450665947455456e-06,1.0329762518760913e-06,-4.007221101391824e-07,-9.818726581584403e-08,6.078059082888202e-07,-3.2345036206992155e-08,-6.708914469853006e-08,-9.232243814950182e-07,6.758432975084692e-07,-5.889442180891796e-07
5.630411194338697e-07,-6.289667147784691e-07,7.692804516294483e-07,8.946648718608391e-08,6.365910885157689e-07,8.213293682301756e-07,1.2763744891724138e-06,6.449609111461259e-07,-1.0548950598840464e-06,1.0351471794939697e-06,-3.587141294850092e-07,-5.784535680942391e-08,6.448784387630129e-07,-6.790322116272477e-08,-4.7417236923586186e-08,-9.082052261135826e-07,6.74800509119764e-07,-6.241547558535846e-07
6.214363281655261e-07,-6.052553852641808e-07,8.286670512886087e-07,7.788831862887602e-08,6.773499043392455e-07,8.417994866005622e-07,1.4156158897355407e-06,6.6006725636517e-07,-1.0515790551784346e-06,1.065530874591572e-06,-3.146025567371535e-07,-1.618314899741715e-08,6.86740199429301e-07,-9.301823071002913e-08,-2.2870579504408022e-08,-8.760710123156756e-07,6.933176178561627e-07,-6.536554903253067e-07
7.105262560451189e-07,-5.787618413357812e-07,8.929811645449912e-07,8.293694335464616e-08,7.040592761915294e-07,8.66921435136243e-07,1.577244297697493e-06,6.698433600643535e-07,-1.029376474779142e-06,1.1217356048914242e-06,-2.7141931198147425e-07,1.8882942458109748e-08,7.278477640074307e-07,-1.0710126814064317e-07,6.502976638070046e-09,-8.34231113717451e-07,7.273459814306989e-07,-6.714763653991632e-07
8.101162558709723e-07,-5.48842507238976e-07,9.556529859348966e-07,1.0248335332219324e-07,7.198676077270255e-07,8.882741989500521e-07,1.7602634954445211e-06,6.714684204767133e-07,-9.880933864572236e-07,1.2223765022451917e-06,-2.466124855885583e-07,4.0024613159078414e-08,7.656427650712242e-07,-1.1048989950755983e-07,3.811317678979563e-08,-7.912897582841817e-07,7.698745685670044e-07,-6.772180412283555e-07
8.962162418437652e-07,-5.160460975692825e-07,1.009861370137934e-06,1.2739189401062967e-07,7.222992495205236e-07,8.867132246675291e-07,1.9550202252104508e-06,6.646250679530556e-07,-9.340266398201098e-07,1.3318990452508786e-06,-2.4175481572213963e-07,4.3584698360517094e-08,7.947436816058002e-07,-1.0363194611629019e-07,6.775003895029586e-08,-7.54530855572656e-07,8.063128385685092e-07,-6.743172093800401e-07
9.590007880167555e-07,-4.825707297396107e-07,1.0491017144724162e-06,1.7447626193075675e-07,7.064962045023885e-07,8.699671211702036e-07,2.144667601430735e-06,6.497749594464809e-07,-8.776718744590261e-07,1.4348759421637503e-06,-2.4865196531316616e-07,3.090499699440753e-08,8.130627221501704e-07,-8.856427215264445e-08,9.154424436037504e-08,-7.274780429582323e-07,8.245068574676784e-07,-6.679093812738492e-07
9.902428864370129e-07,-4.513606299905087e-07,1.0702691317317845e-06,2.2235996122454839e-07,6.790110291786476e-07,8.440212852607499e-07,2.3087963578169206e-06,6.294268579467887e-07,-8.301044229004816e-07,1.5301934754381277e-06,-2.653502481723648e-07,6.418075831653032e-09,8.181710264158176e-07,-6.869672905622141e-08,1.0730183627355035e-07,-7.097014012171783e-07,8.206589390814737e-07,-6.631910818325159e-07
1.003621629113788e-06,-4.250061871318661e-07,1.0729639988168777e-06,2.583872845560633e-07,6.426255048828194e-07,8.016795800591078e-07,2.4274365617037283e-06,6.073856111671926e-07,-7.996409265408476e-07,1.5700694750935742e-06,-2.867710276086968e-07,-2.463157549592834e-08,8.118992424794734e-07,-4.720346593274614e-08,1.149232838324884e-07,-6.980653975883498e-07,7.942523611009982e-07,-6.635720031639156e-07
1.0511630535354018e-06,-4.0502710276390624e-07,1.0623189002704156e-06,2.891733063311534e-07,5.955288586520415e-07,7.4892168138318e-07,2.4849673208695792e-06,5.879925372991561e-07,-7.890579027720326e-07,1.589586753406729e-06,-3.121263965697712e-07,-5.697258736180139e-08,7.95995372536552e-07,-2.7336833365558673e-08,1.1597622294735937e-07,-6.881739647597824e-07,7.496568467354196e-07,-6.696203581856972e-07
1.1165992025098896e-06,-3.917469431300568e-07,1.0401872914407097e-06,3.092402098191573e-07,5.439118114778749e-07,6.872022500910773e-07,2.4728566798221943e-06,5.764285778139586e-07,-7.966786813107828e-07,1.6067467701285638e-06,-3.3436775819045813e-07,-8.634270936081471e-08,7.740735976078746e-07,-1.1126666980932548e-08,1.1237145403422983e-07,-6.762402856690407e-07,6.990273297950586e-07,-6.797440639526767e-07
1.1536654957525894e-06,-3.8482085741363405e-07,1.0127784736962924e-06,3.2323870551376803e-07,5.006379365831495e-07,6.180763494194309e-07,2.390662058948689e-06,5.724322055094666e-07,-8.180615171659541e-07,1.6066052527405071e-06,-3.5241732493113216e-07,-1.1104723192415418e-07,7.502178659322029e-07,5.922018922493634e-10,1.0512753362568329e-07,-6.609239595820838e-07,6.496301590608087e-07,-6.915883568224639e-07
1.1351182563485431e-06,-3.8367732259077677e-07,9.866078719170507e-07,3.3193493044396345e-07,4.673590729454983e-07,5.426671368808559e-07,2.2466212093152606e-06,5.738484405491542e-07,-8.46480356468489e-07,1.5867098783984621e-06,-3.6238769910048126e-07,-1.31695883697406e-07,7.256241032505851e-07,7.852767259454013e-09,9.4453555744409e-08,-6.436446372580682e-07,6.107737690023604e-07,-7.026421472526887e-07
1.0503132700305794e-06,-3.8723740626849195e-07,9.631066493909311e-07,3.3960523938061245e-07,4.4554496877341935e-07,4.6991010874394133e-07,2.0579650232449284e-06,5.778482259837502e-07,-8.751491186404958e-07,1.5532352086146525e-06,-3.651491342636189e-07,-1.4927557449868753e-07,7.010608979593794e-07,1.2209200283988188e-08,8.061846456518512e-08,-6.27441943566081e-07,5.882875460474564e-07,-7.104805523019202e-07
9.774299198375292e-07,-3.9355256426637017e-07,9.455634487414247e-07,3.308017682303795e-07,4.364672935607121e-07,4.0326421407070614e-07,1.8486459031919774e-06,5.813180909569524e-07,-8.982326251602995e-07,1.5145169664918538e-06,-3.642293622755893e-07,-1.6406499798157412e-07,6.765543775420883e-07,1.639706316558888e-08,6.429158926055879e-08,-6.158499707583745e-07,5.829489358770062e-07,-7.135790840970612e-07
9.123189893238167e-07,-4.002651800046129e-07,9.335476857624757e-07,3.110949222772191e-07,4.3733670650151046e-07,3.4429835020315813e-07,1.644181789564712e-06,5.831912210126671e-07,-9.119011178156021e-07,1.4766639395657093e-06,-3.600120161520268e-07,-1.7548661050605843e-07,6.519165728256992e-07,2.1795584612933785e-08,4.644578103148073e-08,-6.120732356988166e-07,5.923113475121934e-07,-7.119103290718898e-07
8.672036419113523e-07,-4.0536949941695845e-07,9.2389670957463e-07,2.900171679615774e-07,4.454410860492032e-07,2.9554115905526713e-07,1.4667838990748343e-06,5.826911045751872e-07,-9.149764760167415e-07,1.4386057340094435e-06,-3.534517009083134e-07,-1.8179619838545576e-07,6.276184148883178e-07,2.962107762717648e-08,2.842033526542057e-08,-6.180178773771605e-07,6.116849702038164e-07,-7.064996088864843e-07
8.472634282103668e-07,-4.075331800022994e-07,9.131137043301578e-07,2.666694539716123e-07,4.5703958719517815e-07,2.5653689349389967e-07,1.3327905018031832e-06,5.78680261873044e-07,-9.081295812607302e-07,1.403698048583208e-06,-3.453407746829079e-07,-1.8086095603755762e-07,6.048062499275725e-07,3.996456988465603e-08,1.0443154894047523e-08,-6.339129888172515e-07,6.340291512053635e-07,-6.989479676423326e-07
8.433761024877399e-07,-4.062779363635553e-07,8.96500673282083e-07,2.46481413686044e-07,4.6776813697218463e-07,2.2768799384975438e-07,1.2516728241041674e-06,5.717371449032365e-07,-8.929460187565726e-07,1.3687778369975685e-06,-3.372625308085599e-07,-1.7463131468651724e-07,5.844156780136218e-07,5.037801820430162e-08,-6.6415694741754354e-09,-6.590721632727565e-07,6.509306972719611e-07,-6.915589285758473e-07
8.509021218970474e-07,-4.022174189650501e-07,8.73160683656255e-07,2.3048541725097196e-07,4.7267559762760126e-07,2.0846122989969194e-07,1.2262323789345399e-06,5.619380630708716e-07,-8.715058960807589e-07,1.3416229124130146e-06,-3.3030243441338773e-07,-1.6377075792397264e-07,5.663764479419428e-07,5.6428055330555715e-08,-2.3271632842864996e-08,-6.925806882254901e-07,6.613165547784525e-07,-6.871007476127187e-07
8.572375653242597e-07,-3.968125883195969e-07,8.434604684508365e-07,2.1563806619315114e-07,4.6934640815631003e-07,1.9821164003053013e-07,1.2537993789801688e-06,5.487094593213505e-07,-8.459681017043469e-07,1.3221213250555874e-06,-3.256434854182426e-07,-1.5336682758377085e-07,5.498193548574639e-07,5.3340673112846116e-08,-4.015242285800995e-08,-7.330511256540322e-07,6.613515087789588e-07,-6.878905583316353e-07
8.606633337522104e-07,-3.9177602454405684e-07,8.087102568632213e-07,2.0196166730674915e-07,4.577013552960581e-07,1.9246353144901657e-07,1.3262801109228883e-06,5.325371771569948e-07,-8.197073938881175e-07,1.3071245754512943e-06,-3.2411443291616544e-07,-1.49208342895197e-07,5.332820677663429e-07,3.811008336462391e-08,-5.973672864814239e-08,-7.783681305417806e-07,6.500636323734527e-07,-6.952420274902194e-07
8.590035297218553e-07,-3.887590135072315e-07,7.717905335070713e-07,1.931536322201999e-07,4.385546718105189e-07,1.8588741082575644e-07,1.4279256093105508e-06,5.132567512148735e-07,-7.949772941798971e-07,1.2958495337761597e-06,-3.2625865395415074e-07,-1.5481090153654241e-07,5.14545642736913e-07,9.87970806523802e-09,-8.477834210247985e-08,-8.259624774576567e-07,6.287588264102037e-07,-7.093703546975859e-07
8.515843765585626e-07,-3.8919917615702465e-07,7.342047713001131e-07,1.8650215188103997e-07,4.157454743238284e-07,1.757919800438905e-07,1.5339669109935693e-06,4.908671020920801e-07,-7.747317770783357e-07,1.2829973092920992e-06,-3.328420101680951e-07,-1.7289432517416932e-07,4.912298875208278e-07,-2.967702045522759e-08,-1.1659191747416631e-07,-8.7302005355058e-07,5.986774965367257e-07,-7.29071494279392e-07
8.402927582667451e-07,-3.939055403333946e-07,6.973499788592896e-07,1.7968765137183044e-07,3.9155855437542537e-07,1.609514736142988e-07,1.6136457048987713e-06,4.6599832162668443e-07,-7.624939328898922e-07,1.2662329178882715e-06,-3.4303150168758785e-07,-2.020353028036002e-07,4.620413445910277e-07,-7.670914021304031e-08,-1.5507275163873124e-07,-9.167716968887925e-07,5.638415524920066e-07,-7.518938047892633e-07
8.263339367223627e-07,-4.028442876589631e-07,6.627431905602599e-07,1.7234351887788816e-07,3.6852659620350323e-07,1.3296743515379685e-07,1.6370306657713683e-06,4.3807648774865645e-07,-7.647306702260728e-07,1.2457302245520458e-06,-3.5592091445122494e-07,-2.3827090987616346e-07,4.272903762758741e-07,-1.26588288347184e-07,-1.9793647297653322e-07,-9.55946329510708e-07,5.2830823907256e-07,-7.754938988165567e-07
8.112611765304537e-07,-4.1560023840898944e-07,6.322877651660171e-07,1.6327789973775367e-07,3.4875508453219505e-07,9.010784632921966e-08,1.5827514908838053e-06,3.9843954104002023e-07,-7.826024452383485e-07,1.2243488157887762e-06,-3.7075264385856494e-07,-2.730350036053824e-07,3.88703227567025e-07,-1.7460689897762997e-07,-2.423699741246928e-07,-9.901761200645575e-07,4.940810750912271e-07,-7.987148944164688e-07
7.961880277034141e-07,-4.317049327706291e-07,6.059538957625646e-07,1.5324806363397212e-07,3.322484275315307e-07,3.600463295827307e-08,1.4442357023053327e-06,3.6293441513045944e-07,-8.134249657160588e-07,1.2041609785744376e-06,-3.8506021701837175e-07,-3.000769672747525e-07,3.493257150081157e-07,-2.167368620918363e-07,-2.8497230913766324e-07,-1.0199994721586016e-06,4.617661223620341e-07,-8.211804004269261e-07
7.817278312803668e-07,-4.5041653238862184e-07,5.8381769523465e-07,1.442946980901446e-07,3.186901465304321e-07,-2.4730508394817012e-08,1.2321313108893157e-06,3.332455577482818e-07,-8.541471221189175e-07,1.187752122447809e-06,-3.9637231515165085e-07,-3.1566440595744867e-07,3.129396283168312e-07,-2.4833714242482024e-07,-3.2243230116329667e-07,-1.0431990539453022e-06,4.3232647380398745e-07,-8.424164388463738e-07
7.690148628349554e-07,-4.7050477888246953e-07,5.668889305320137e-07,1.3787873379913045e-07,3.078835510150867e-07,-8.900311538331906e-08,9.718141011585806e-07,3.0794248798238226e-07,-8.847253337639569e-07,1.1784095782171045e-06,-4.027323155364086e-07,-3.176339046100473e-07,2.825634466438807e-07,-2.6822541737544313e-07,-3.5425030682217553e-07,-1.0602893464898827e-06,4.0737215250161545e-07,-8.615381243367607e-07
7.592974337282966e-07,-4.903306505801448e-07,5.555660473079822e-07,1.318591302729889e-07,2.993698108399871e-07,-1.5378393722805397e-07,6.978932365233964e-07,2.8601421588926436e-07,-9.019975003433213e-07,1.1744210844611046e-06,-4.0321985692481634e-07,-3.11956590479557e-07,2.5934866163534837e-07,-2.7855708662233463e-07,-3.8037761375039103e-07,-1.071713149162934e-06,3.8666094595841993e-07,-8.770835365319522e-07
7.536152927838526e-07,-5.07902467751971e-07,5.504762245008366e-07,1.2450100676403243e-07,2.91438630277708e-07,-2.226958541137417e-07,4.481146235854048e-07,2.4629661382088914e-07,-8.642379683382073e-07,1.1713279431356542e-06,-3.987449770424297e-07,-3.072475000683908e-07,2.410886341056993e-07,-2.8110233997235746e-07,-4.032104030013965e-07,-1.0720118332523067e-06,3.70153659917688e-07,-8.870115775347185e-07
7.522899068168357e-07,-5.210149993979863e-07,5.524210721664015e-07,1.1313745906195108e-07,2.800257671013861e-07,-2.923109300291434e-07,2.567177675429771e-07,1.8895338526945244e-07,-7.712444340646166e-07,1.161843393116443e-06,-3.92070915145698e-07,-3.148959893402039e-07,2.2597665794369639e-07,-2.782262535300998e-07,-4.277284915828679e-07,-1.0590030302633916e-06,3.552999416352108e-07,-8.894338447726023e-07
7.554921676287559e-07,-5.278364526883332e-07,5.591154878578348e-07,9.234684743356652e-08,2.6122634934774944e-07,-3.628771516228429e-07,1.471838732246036e-07,1.0027853250770083e-07,-6.815281589979683e-07,1.138454591662034e-06,-3.873698481789559e-07,-3.430069069262218e-07,2.1131461885939584e-07,-2.7175860200420653e-07,-4.4726471948225595e-07,-1.0145614298480802e-06,3.359273016957451e-07,-8.834212764689525e-07
7.588611868238457e-07,-5.275049897962407e-07,5.660186369230386e-07,5.6929415917534216e-08,2.3008213380266252e-07,-4.400109759710803e-07,1.2628838395044896e-07,1.2714021515001406e-08,-6.005532347703144e-07,1.1016710956873993e-06,-3.894835225784747e-07,-3.8499967616602085e-07,1.9457300379354622e-07,-2.624205013861029e-07,-4.7002645603502184e-07,-9.507005310395363e-07,3.178401136569142e-07,-8.691583264705345e-07
7.572444673562032e-07,-5.203562664814275e-07,5.6826553662019e-07,1.4743859671819213e-09,1.9154310599451874e-07,-5.206340441652412e-07,1.8130129614540708e-07,-4.3691893666297e-08,-5.166152452295828e-07,1.0265494355512267e-06,-4.027110708116051e-07,-4.6434487145500797e-07,1.722938093804255e-07,-2.502196711589372e-07,-5.038920966560896e-07,-8.289239238128932e-07,2.8857917375613506e-07,-8.486101455119038e-07
7.466873091467339e-07,-5.081096788811258e-07,5.616140060473061e-07,-7.218334095977123e-08,1.4710756650537756e-07,-6.0823586024389e-07,2.81173116059376e-07,-1.1467074835130659e-07,-4.1713750054827995e-07,9.354124227120616e-07,-4.288878694813948e-07,-5.50641984050463e-07,1.3969188050879895e-07,-2.3870102595046313e-07,-5.567025317473852e-07,-7.384395359471489e-07,2.4246436040483575e-07,-8.251029230817809e-07
7.251498665848896e-07,-4.939857382384947e-07,5.443486818636976e-07,-1.633629794200574e-07,9.712445355759154e-08,-6.750875643067103e-07,3.8273561886916527e-07,-2.1073251075389528e-07,-3.111934228594095e-07,8.457447034991968e-07,-4.666271416840477e-07,-6.271631010237851e-07,9.571404782302953e-08,-2.3138175369077382e-07,-6.041042106692734e-07,-6.88822018883655e-07,1.7976235412860504e-07,-8.026441045991627e-07
6.952608900137685e-07,-4.819017141845811e-07,5.166305803338801e-07,-2.4630051134598657e-07,4.77224335917902e-08,-7.039508717889688e-07,4.4151940145859306e-07,-2.824898649557307e-07,-2.2761544059850665e-07,7.898823851202862e-07,-5.114329313630644e-07,-6.339712236941652e-07,4.2029245090015595e-08,-2.312685791702715e-07,-6.309268187876038e-07,-6.767726448254551e-07,1.0499588965655061e-07,-7.849934496441416e-07
6.636268507296035e-07,-4.749281266246848e-07,4.830762053458544e-07,-2.831916604709688e-07,-1.0121774375562144e-08,-6.606128879014422e-07,4.23685646102715e-07,-2.898701234782523e-07,-1.8006264879757253e-07,8.365229261881846e-07,-5.56862140236622e-07,-5.532564164380796e-07,-1.858340620345548e-11,-2.392482472519945e-07,-5.955859891392045e-07,-6.649435686303846e-07,3.995143928446931e-08,-7.728772652578602e-07
6.38938619598223e-07,-4.7429097559727595e-07,4.4935314549201043e-07,-2.863430737885141e-07,-4.858964422894154e-08,-6.195825823044869e-07,3.084602825256445e-07,-2.93921685764968e-07,-1.1247299552759357e-07,8.787372528158438e-07,-5.964622490520681e-07,-4.599362365967846e-07,-1.0597829556581447e-08,-2.508067873929144e-07,-5.077554547984766e-07,-6.45518312266108e-07,3.207965445592922e-08,-7.634873116411793e-07
6.247981960032061e-07,-4.79315045554333e-07,4.198504042842274e-07,-2.637102364341148e-07,-5.4708058238332084e-08,-6.033964415150639e-07,1.1730907898077355e-07,-2.9687475953566585e-07,-8.068465024562294e-08,9.250719019800385e-07,-6.245421970582237e-07,-3.849692974016919e-07,1.98856198658385e-08,-2.566789156895012e-07,-4.5632667292879784e-07,-6.224390413293426e-07,7.752876271087369e-08,-7.516910826542801e-07
6.260593161384576e-07,-4.877817402952839e-07,3.9882276825226383e-07,-2.7687654587783375e-07,1.0629783686472125e-08,-5.845460798050369e-07,-1.1499480561834513e-07,-3.0021816364180865e-07,-7.038895048167192e-08,9.49552603709627e-07,-6.360635278095276e-07,-3.435110277436423e-07,4.9753364934330074e-08,-2.4877267691984617e-07,-4.2937516741603367e-07,-6.587073461036373e-07,9.442008613374996e-08,-7.307766569996873e-07
6.429358982128756e-07,-4.963242018853688e-07,3.8900550120802457e-07,-2.8410562899490954e-07,1.0833866772809857e-07,-5.77583338206973e-07,-3.3402913498049137e-07,-2.9648318967818396e-07,-7.272478604748533e-08,1.0046855785788012e-06,-6.277188635984515e-07,-2.9090044408310946e-07,6.093666589779625e-08,-2.1899721599336172e-07,-4.10337699758068e-07,-6.787964230124017e-07,9.855442463157122e-08,-6.923784403058188e-07
6.698443244286821e-07,-5.034116442083291e-07,3.909016599912841e-07,-2.516074989127771e-07,1.5895767236973037e-07,-6.143519954742756e-07,-3.7993172339019096e-07,-3.234738742997955e-07,-1.312738995314473e-07,1.120157796021705e-06,-6.003545253179915e-07,-1.6522242569839918e-07,5.94874392277357e-08,-1.7707181915586496e-07,-3.4737137499289464e-07,-6.772172417044192e-07,8.747705496140648e-08,-6.3957611382675e-07
7.037187128266803e-07,-5.089367962814395e-07,4.0250594738679334e-07,-2.1260884255274176e-07,1.4636018269827635e-07,-6.251011271444766e-07,-3.6905912058150266e-07,-3.262661278116581e-07,-1.8788908705208918e-07,1.2011825384249763e-06,-5.60666406180139e-07,-5.826780680222473e-08,1.0358669920052804e-07,-1.1958833562134128e-07,-2.1333430899697888e-07,-6.704428727198909e-07,8.374655070339657e-08,-5.809152219004502e-07
7.396814253670171e-07,-5.145861964651177e-07,4.223629933041211e-07,-1.7410655129741238e-07,1.5439041942995682e-07,-6.046879088215184e-07,-4.0305842872182853e-07,-3.0122538900094747e-07,-2.1166400974284929e-07,1.277090129834932e-06,-5.178572357769198e-07,-9.967554604706188e-10,1.8094736219285633e-07,-3.9483539132535067e-08,-1.0173845835217064e-07,-6.407665054397912e-07,1.713534237718027e-07,-5.217616847992907e-07
7.26707412620203e-07,-5.238461428433173e-07,4.4674124954736923e-07,-1.3399716330628673e-07,2.050930234024819e-07,-5.601235029553118e-07,-2.7306413226512353e-07,-2.2724527073501792e-07,-2.1959480050834372e-07,1.307250499191974e-06,-4.7663296346283045e-07,8.786769393248804e-09,2.527326368357497e-07,5.315455075434401e-08,-5.461947170235822e-08,-5.819484175067212e-07,2.599684263920774e-07,-4.985349376713108e-07
6.686798956019638e-07,-5.376419401462037e-07,4.6508140218765944e-07,-1.0400383906012683e-07,3.1640529188248856e-07,-5.048462572058536e-07,-2.1712113576777916e-08,-1.5357390374248766e-07,-1.8429079819073774e-07,1.3541864032806555e-06,-4.547711694262379e-07,4.022662983270219e-08,3.16221132811314e-07,1.275477743660209e-07,-5.66733540899071e-09,-4.900373884651554e-07,3.019446354688491e-07,-5.091117533469846e-07
6.29935370843175e-07,-5.526069875773317e-07,4.81230370046509e-07,-8.014016791401181e-08,4.056474417449784e-07,-4.89666031388259e-07,1.9919993551570395e-07,-8.034523251443095e-08,-1.3285386621862685e-07,1.3685609996657349e-06,-4.365435208582877e-07,5.440630141625253e-08,3.661357176467887e-07,1.561502562653876e-07,8.485938908378739e-08,-4.57045117424839e-07,3.225880940022163e-07,-5.180237617287898e-07
6.200478325316489e-07,-5.651164965933514e-07,4.997360698208905e-07,-6.042778086979295e-08,4.442714656565337e-07,-4.5912493924616055e-07,3.619109956210749e-07,-3.815655903186099e-08,-8.165726501128013e-08,1.3342483894570829e-06,-4.237055812754942e-07,7.669075271027753e-08,3.932671755348282e-07,1.196082830099914e-07,1.6590466875406718e-07,-5.102945974219069e-07,3.4067484535947103e-07,-5.302283842136624e-07
6.683436838856464e-07,-5.641843808886414e-07,5.22909664534774e-07,-4.0273974823304476e-08,4.952205907611311e-07,-4.288065133276819e-07,4.90441329488513e-07,-7.629468050518608e-08,-3.45802999394965e-08,1.3086776840027215e-06,-4.1260817684226933e-07,1.0637836555906533e-07,4.076237975123152e-07,3.572806319972598e-08,1.8747872746389196e-07,-5.898367243359493e-07,3.4922059460170964e-07,-5.420885811961349e-07
7.101927356361314e-07,-5.34485830223419e-07,5.530834580876988e-07,-1.3074580139671645e-08,5.416646910625006e-07,-3.833266199823314e-07,5.834055594654462e-07,-3.278156533741387e-08,-2.818633507986979e-09,1.2879828336016084e-06,-4.026912036476847e-07,1.1782596270300077e-07,4.0573618740523037e-07,-5.975914279714531e-09,1.60937025655542e-07,-6.52965955334261e-07,3.457365680094534e-07,-5.489043896514573e-07
7.443661572912501e-07,-5.150080754473825e-07,5.901727762955647e-07,2.3150468278056296e-08,5.846518509040081e-07,-3.573505876712053e-07,6.563102980213272e-07,2.3339499308257026e-08,1.8907758326928177e-08,1.2551292140714527e-06,-3.6611764039400385e-07,1.0826076110196313e-07,3.9240803385890604e-07,-3.3185669143497765e-08,1.37873136367406e-07,-7.186864951258511e-07,3.418692278716127e-07,-5.44405487919057e-07
7.566001085264967e-07,-4.953899296553169e-07,6.139921480980001e-07,4.0514256459955054e-08,6.487720300187982e-07,-3.4490113143493765e-07,7.270782240610912e-07,4.417977749899452e-08,3.2920462679828036e-08,1.2192513122241104e-06,-3.1153250851731884e-07,4.200289149324511e-08,3.749392876591069e-07,-7.243143199444693e-08,1.1047956837165876e-07,-8.276572658045912e-07,3.2205256919171003e-07,-5.418357772675629e-07
7.583081475485544e-07,-4.2577746622276433e-07,5.924321825140377e-07,3.7113531991287995e-08,6.429935851613685e-07,-3.1853832626097393e-07,8.087163436816439e-07,2.67321842751042e-08,3.960930815237302e-08,1.2688696370875005e-06,-2.7166147442323016e-07,-6.08742883135261e-08,3.5202215699883923e-07,-9.881661378174542e-08,6.976216208413078e-08,-9.490045755129076e-07,2.6635365205282295e-07,-5.3997138427275e-07
7.375679430303827e-07,-3.626032809437441e-07,5.224073829370276e-07,-7.001422359654762e-09,5.821980322618617e-07,-3.380666571649164e-07,9.045820898649484e-07,-2.5039095798551022e-08,4.0238988326486074e-08,1.2756661558721664e-06,-2.416958747190981e-07,-1.8415150471867823e-07,3.238118186864487e-07,-1.5204242820109353e-07,6.112919912073948e-08,-1.0483226546107103e-06,1.917742954983137e-07,-5.462813434878271e-07
6.834016711589292e-07,-3.221689251238746e-07,4.708037431489983e-07,-8.382903743307104e-08,4.980967517176325e-07,-3.920092521320787e-07,1.0080198468373506e-06,-9.840031134199548e-08,3.6015829740922256e-08,1.2038298299563632e-06,-2.1709881060417397e-07,-2.7376607727327263e-07,2.924381142828935e-07,-1.9110997842768644e-07,5.536592075903645e-08,-1.1026629328409572e-06,1.050954685301358e-07,-5.628357169652966e-07
6.174077167447291e-07,-2.9492625190438313e-07,4.26118366909475e-07,-8.942374740392164e-08,4.217735571369531e-07,-4.59425282293474e-07,1.1066203700000598e-06,-1.864457245603998e-07,2.8511440625184448e-08,1.1006710024000149e-06,-2.0170800658778437e-07,-3.5991308736472167e-07,2.597382716827635e-07,-1.5992613056129236e-07,3.953250891902825e-08,-1.133034723058316e-06,3.692809801188507e-08,-5.919001401636886e-07
5.686014818837025e-07,-2.86462150671557e-07,3.9201084408808065e-07,-9.357210458806704e-08,4.046400281043682e-07,-5.404065841739913e-07,1.1887762233814136e-06,-2.523727248803157e-07,1.9717532469915405e-08,1.0395065786362137e-06,-1.9500276129806425e-07,-4.3972364469054727e-07,2.2797499771065497e-07,-1.2324801243434538e-07,1.4100759007307076e-08,-1.2137436715849085e-06,-8.067226733049723e-09,-6.327324807693281e-07
5.071279206716099e-07,-2.8712421387443005e-07,3.6118757400816604e-07,-9.27272070649103e-08,3.7275715945223595e-07,-5.85617885305227e-07,1.2484984996071824e-06,-2.8737090523494006e-07,1.2047461509540802e-08,9.915050810543883e-07,-1.9060522643748985e-07,-5.004941246814955e-07,1.9962142403646767e-07,-9.33121584970599e-08,-3.076169047265808e-08,-1.2676389590868824e-06,-4.069945918516705e-08,-6.814422388186088e-07
4.3203368543073776e-07,-2.8889284654144044e-07,3.571957828091341e-07,-1.046225329540424e-07,3.770717918030765e-07,-5.93791539243316e-07,1.2865635823434303e-06,-3.001740210185622e-07,7.844116537516505e-09,9.334227234384926e-07,-1.8241025053810564e-07,-5.583075409143749e-07,1.765104823308563e-07,-7.280805183369602e-08,-8.982941450694409e-08,-1.250166177772087e-06,-6.09309614705889e-08,-7.325612787988225e-07
3.6550385368210164e-07,-2.8806948219667595e-07,3.278748589167046e-07,-1.6373058824464743e-07,4.314304491019675e-07,-5.769331201069898e-07,1.3087566579027921e-06,-2.910322207456385e-07,8.908975658870566e-09,9.005063230730857e-07,-1.6667450877366887e-07,-5.833780423966356e-07,1.5940759665637828e-07,-5.159736938136237e-08,-1.5969948731874355e-07,-1.2148192552249847e-06,-7.255118259249446e-08,-7.798310939090556e-07
2.982204656228957e-07,-2.677768920548693e-07,2.7771131831712933e-07,-2.0433038617218015e-07,5.106723829501186e-07,-5.563427657120446e-07,1.3218827678095662e-06,-2.7132924996880427e-07,1.5925127642464316e-08,8.136202488966436e-07,-1.4368878344183218e-07,-5.851665332563075e-07,1.480874628726043e-07,4.992098602843584e-08,-2.3416005413410677e-07,-1.192358382739374e-06,-7.771407420015127e-08,-8.175002453952486e-07
2.467129854194723e-07,-2.1953200184010754e-07,2.820635340928535e-07,-2.0427636917262678e-07,5.721456508684817e-07,-5.241900790653637e-07,1.3286350648567169e-06,-2.3702834638767354e-07,2.775014872479695e-08,7.696800708003985e-07,-1.1718840586133171e-07,-5.784314497587967e-07,1.415034862579935e-07,1.480380262398435e-07,-3.036099608858983e-07,-1.1803477097309576e-06,-7.705183401944211e-08,-8.417999038345442e-07
2.1872482957170477e-07,-1.7696517479864039e-07,2.834006502947726e-07,-2.1499277649632463e-07,6.054822807227608e-07,-4.98920805739105e-07,1.324476214966897e-06,-1.93917735771582e-07,4.1500231188564845e-08,7.590114276500428e-07,-9.157075838966183e-08,-5.712378088092253e-07,1.382023570994664e-07,1.9346742545999747e-07,-3.582411255521547e-07,-1.1920226064014718e-06,-7.237363679347253e-08,-8.517857152025727e-07
1.9425059165319264e-07,-1.2822362539887468e-07,2.706622142755749e-07,-2.2867759489176604e-07,6.163865927206544e-07,-4.821017152210167e-07,1.2988766584593896e-06,-1.5172565032715686e-07,5.358732454534255e-08,7.232594931888296e-07,-6.905536944455256e-08,-5.67941957189509e-07,1.3663518699079177e-07,2.1049256931215322e-07,-3.928108967184456e-07,-1.2291148472778848e-06,-6.703607045881618e-08,-8.496305970594881e-07
1.6741199227698757e-07,-5.119536708365085e-08,2.9159063187101276e-07,-2.308929830848818e-07,6.134328009183822e-07,-4.862863603716881e-07,1.2399983133491695e-06,-1.1622563011368101e-07,6.065710706454611e-08,6.994670113461658e-07,-4.907067751790245e-08,-5.70332508989949e-07,1.3580755228037922e-07,2.4390264590252347e-07,-4.0842839787473904e-07,-1.2779313344673242e-06,-6.353008315032984e-08,-8.40418591405578e-07
1.5489328539566961e-07,2.1288627918331022e-08,3.011628050785164e-07,-2.4597873511691665e-07,5.957033753704126e-07,-5.26177785674871e-07,1.1408938055903195e-06,-9.60746325919845e-08,6.020588670574518e-08,6.650094628192855e-07,-2.9404712803688437e-08,-5.78435357694303e-07,1.3248999974170836e-07,2.793797921883945e-07,-4.104260144195145e-07,-1.3213403456311586e-06,-6.51760356660873e-08,-8.307813414088202e-07
1.3335114487681736e-07,6.160784136221412e-08,3.214868655497872e-07,-2.2323899352794196e-07,5.684709801973838e-07,-5.7895338815883e-07,1.0053167965612301e-06,-9.260688082704299e-08,5.133902981231543e-08,6.379140655239476e-07,-7.736605582107162e-09,-5.885716137261346e-07,1.254803817161321e-07,2.9537713632955154e-07,-4.05243553122896e-07,-1.3544656236723799e-06,-7.408837690127856e-08,-8.266775946008278e-07
1.6504626371806827e-07,7.405758217075449e-08,3.7596558685197525e-07,-1.6998534629426e-07,5.363322407613401e-07,-6.380946429610164e-07,8.501051910520925e-07,-1.0436076416740786e-07,3.513628064601672e-08,6.329376702299022e-07,1.6736754604264047e-08,-6.030491109143355e-07,1.1559249992695046e-07,3.1303451996897734e-07,-3.981565650083734e-07,-1.3672984044775825e-06,-8.979632770577971e-08,-8.318275570564971e-07
1.6745749127170704e-07,7.167059343987063e-08,3.967041007200575e-07,-1.2761763238982697e-07,4.997102340895587e-07,-7.003418251501305e-07,7.022845893469764e-07,-1.296894031733491e-07,1.4110491402457229e-08,6.5550219426431e-07,4.215190158841505e-08,-6.156501747998773e-07,1.0443930604344805e-07,2.7766883035516855e-07,-3.927239785562977e-07,-1.3644696673198648e-06,-1.0999229376809615e-07,-8.472422371163923e-07
1.7880207522250952e-07,7.900010505795843e-08,4.0563332317771826e-07,-9.213107060555342e-08,4.611690058702256e-07,-7.708892543286872e-07,5.927872313168578e-07,-1.6617380109263026e-07,-8.499052480105983e-09,6.661116179810591e-07,6.415812913319e-08,-6.209554265904666e-07,9.496409000783094e-08,2.3472771233510566e-07,-3.9102565973016046e-07,-1.3510173105612002e-06,-1.311970979324313e-07,-8.713943129730821e-07
2.114485475087189e-07,8.929402369922314e-08,4.309767702272656e-07,-6.136609521526955e-08,4.214381623126268e-07,-8.412193127775331e-07,5.495357266493952e-07,-2.1076568954651358e-07,-2.9134922788937245e-08,7.042517096663272e-07,7.738239800397448e-08,-6.174477940343598e-07,8.980762339658473e-08,1.966803713653304e-07,-3.941412587541808e-07,-1.3298423449859146e-06,-1.4981263934058012e-07,-9.010528914182158e-07
2.8163914923320364e-07,8.195423397245967e-08,4.827649088146486e-07,-4.890200601455202e-08,3.800412055402928e-07,-9.075678872333022e-07,5.908062922763241e-07,-2.5909549334118005e-07,-4.4504445567747774e-08,7.447380956005083e-07,7.7096240166897e-08,-6.041508266117396e-07,9.060645130058074e-08,1.5823676126638537e-07,-4.025520707503181e-07,-1.3049639843000608e-06,-1.644563862044756e-07,-9.32775706900385e-07
3.703324181250832e-07,8.063108865382407e-08,5.664807069750774e-07,-4.594769092673832e-08,3.3719080254626903e-07,-9.702799133267668e-07,7.198965505618151e-07,-3.0593177461909486e-07,-5.222328076883419e-08,7.734467487072562e-07,6.06904553512201e-08,-5.840725196270375e-07,9.758912592246072e-08,1.5318606554013515e-07,-4.1569759313971983e-07,-1.280881949723237e-06,-1.7273795226584053e-07,-9.638084376449207e-07
4.0327707887857024e-07,6.263004257397511e-08,6.35503590479319e-07,-2.877235635072398e-08,2.9474273460730316e-07,-1.0227987743290316e-06,9.273739788957849e-07,-3.4449400802185696e-07,-5.1029593976525234e-08,8.101748293431665e-07,2.910520919768612e-08,-5.602991245869722e-07,1.1088981485182781e-07,1.6288115860410226e-07,-4.3092295223742515e-07,-1.2606522071696857e-06,-1.75230863285294e-07,-9.918511206264439e-07
4.196833995853293e-07,2.6234561089794742e-08,6.97897310872567e-07,-5.017355932691869e-09,2.5690527476902735e-07,-1.0612267194865892e-06,1.177227686174377e-06,-3.6838750320843927e-07,-4.100619439967549e-08,8.661287420069798e-07,-1.2210971352441823e-08,-5.336935409089967e-07,1.302431550774805e-07,1.8339167109402238e-07,-4.4330668872163244e-07,-1.2457312044973823e-06,-1.7057964923354899e-07,-1.0148709808424297e-06
4.629429466912598e-07,-1.020072375084981e-08,7.20422572262489e-07,1.4584316372293481e-08,2.2898672535151589e-07,-1.0828334048511591e-06,1.4309528128436044e-06,-3.714528278393579e-07,-2.406679705992102e-08,9.359960840892616e-07,-5.638366138798095e-08,-5.035513536164874e-07,1.5508339930161007e-07,2.0577973122625945e-07,-4.4692814613098617e-07,-1.235758268690956e-06,-1.56921756290131e-07,-1.0314242907962938e-06
4.798078023496351e-07,-5.1669503719593455e-08,7.33426007557222e-07,3.0635865334229246e-08,2.1516828598242744e-07,-1.0884192417020235e-06,1.643000822006969e-06,-3.5250352606366955e-07,-3.740964080956056e-09,1.0103298913076318e-06,-9.522125906762089e-08,-4.6867792388085457e-07,1.862297982887338e-07,2.2937953620739638e-07,-4.3682377770917845e-07,-1.2283008058337447e-06,-1.3431618194612073e-07,-1.0408991710304175e-06
5.011902750056719e-07,-8.501889868217837e-08,7.509946825475685e-07,3.7417872840226015e-08,2.1706865833082171e-07,-1.081319686190902e-06,1.6976634314790328e-06,-3.298950348575265e-07,1.620444880177594e-08,1.082321932686906e-06,-1.221068375192296e-07,-4.292401171118376e-07,2.214372193692386e-07,2.624953777695785e-07,-4.109892145920918e-07,-1.219589903611715e-06,-1.0322617261079862e-07,-1.0435943300387804e-06
5.225623010879486e-07,-1.0773213628610985e-07,7.492823035097763e-07,3.695279187970569e-08,2.3313435764267773e-07,-1.0666192734007707e-06,1.701240525975542e-06,-3.0823797669093936e-07,3.338670620564745e-08,1.1220187443382838e-06,-1.3470566728177697e-07,-3.8893038706885865e-07,2.60210825837957e-07,3.098197746898139e-07,-3.71608694520703e-07,-1.2061706091243211e-06,-6.674254789525655e-08,-1.0396436041100378e-06
5.240215021853836e-07,-1.2115564367169554e-07,7.5735265655795e-07,3.6176371925048455e-08,2.589315615066304e-07,-1.0515025205886964e-06,1.7129269416276475e-06,-2.911582822854454e-07,4.789068863697833e-08,1.1488365713571297e-06,-1.33328069515199e-07,-3.5499699072822776e-07,3.019968410405027e-07,3.5524934827128154e-07,-3.2429271808644936e-07,-1.186518918505487e-06,-2.6821948568777433e-08,-1.0307207645880214e-06
5.17124642673451e-07,-1.3779623043797997e-07,7.736835461556959e-07,3.983801933144037e-08,2.887990489786121e-07,-1.0427383304432315e-06,1.6059104723730316e-06,-2.895469662392119e-07,6.255755909007395e-08,1.1714957096512897e-06,-1.230193608113662e-07,-3.3509549365481273e-07,3.366637898933754e-07,3.916444270210384e-07,-2.755391594496094e-07,-1.1618623203230969e-06,1.0038119332781677e-08,-1.0185301492435356e-06
5.308366911635263e-07,-1.5640204584814114e-07,7.905054824793346e-07,4.5915053549889215e-08,3.174520574091389e-07,-1.0420640997004643e-06,1.4292143703022091e-06,-2.9238196678772186e-07,8.213612781308275e-08,1.192608248970973e-06,-1.0923600403106795e-07,-3.334866549681418e-07,3.724024171862498e-07,3.896922930248086e-07,-2.3024017365887032e-07,-1.1363087561321024e-06,3.997722982180071e-08,-1.001880443720998e-06
5.810474810953575e-07,-1.605645637525962e-07,8.211529380040689e-07,5.417753458135744e-08,3.4018520417657884e-07,-1.0440565093284997e-06,1.2842929730660723e-06,-3.053999383409288e-07,1.1160824049623089e-07,1.2192298494249186e-06,-9.934775046941662e-08,-3.4863730629166833e-07,4.062131606250143e-07,2.7852758530659307e-07,-1.903641162484286e-07,-1.1159634202873731e-06,5.7857093724587777e-08,-9.792479955455132e-07
6.629456293262275e-07,-1.6162336512049694e-07,8.529082825632745e-07,6.387515228307402e-08,3.5247291602830463e-07,-1.0426601198590662e-06,1.1906957473920848e-06,-3.3605495276467404e-07,1.5459130081641066e-07,1.251379204322617e-06,-9.073380855441697e-08,-3.728449106951253e-07,4.321921976229714e-07,2.0464211794116458e-07,-1.5491845874658133e-07,-1.1067596572968946e-06,5.993065689216147e-08,-9.48101943328248e-07
7.63341335930488e-07,-1.6204176812902064e-07,8.858704726353209e-07,6.854863318721173e-08,3.506290033326723e-07,-1.0288544819919882e-06,1.1283503843231468e-06,-3.894895225395124e-07,2.1309754806458417e-07,1.2901343195456504e-06,-8.141619761395654e-08,-3.950246709765019e-07,4.38132236994323e-07,1.56232083917032e-07,-1.2142129053279453e-07,-1.1120153117663228e-06,4.527668715057926e-08,-9.085682058724533e-07
8.031416998450374e-07,-1.649833668333704e-07,9.205834848272337e-07,6.464517762312795e-08,3.3260974413654964e-07,-9.981394995584588e-07,1.0873991792126074e-06,-4.453728207181211e-07,2.81029711195905e-07,1.3338019750569578e-06,-4.849913032483842e-08,-4.0652363539337694e-07,4.3377617438051584e-07,9.304008890609373e-08,-8.845381654388691e-08,-1.1307792489991314e-06,1.451414606883582e-08,-8.640667015807531e-07
8.697570237429021e-07,-1.7883304839821225e-07,9.538479899584737e-07,5.018475522846711e-08,2.983410461259521e-07,-9.524441282136475e-07,1.0439563513840365e-06,-5.06386735258563e-07,3.51480322037155e-07,1.379741416220326e-06,2.2123850811850274e-08,-4.063390140599068e-07,4.159755595713043e-07,5.326460963440729e-08,-5.768164184216535e-08,-1.1572566045298179e-06,-2.930210482755361e-08,-8.32476992833446e-07
9.871267961461535e-07,-2.0403276711569463e-07,9.74204708410894e-07,2.4519758808767208e-08,2.4987569178415213e-07,-9.127481573999432e-07,9.74390581304035e-07,-5.768545222792658e-07,4.128292060927058e-07,1.4142446997849221e-06,8.160135429007872e-08,-4.0253505560807136e-07,3.789713117398254e-07,-2.098599074820762e-08,-3.407311188898184e-08,-1.1821404221697416e-06,-8.354372325447138e-08,-8.378897997250174e-07
1.053274244215015e-06,-2.3497446426477314e-07,9.793670572010366e-07,-9.854953012930295e-09,1.9043988487623118e-07,-9.108837787844184e-07,8.644706920638766e-07,-6.450806080568338e-07,4.3212364348020983e-07,1.4368583614290205e-06,1.059654100901257e-07,-4.0925540785893743e-07,3.646477699967751e-07,-1.3838771834288435e-07,-2.4140947263343977e-08,-1.1964133010764235e-06,-1.4639378425452725e-07,-8.628679816308867e-07
1.0482538085098858e-06,-2.6940165797925124e-07,9.69463636847138e-07,-4.955512040829223e-08,1.22577811380411e-07,-9.647813322399463e-07,7.140086507761468e-07,-7.383377623564908e-07,4.42822913522725e-07,1.4424910359964664e-06,8.220331357716479e-08,-4.398947884439401e-07,3.234164477615648e-07,-2.065261157207001e-07,-3.28108824569306e-08,-1.1954714077682614e-06,-2.1696523612541931e-07,-8.984980578207709e-07
1.0429799936432552e-06,-3.0732558970447166e-07,9.410562507619339e-07,-9.129895598834594e-08,4.770756701546747e-08,-1.0128258581107517e-06,5.36608469189385e-07,-8.48202331538042e-07,4.540514382276661e-07,1.3984417312473164e-06,4.065619730656591e-08,-4.99739303641233e-07,2.619617129065499e-07,-2.4441668544526183e-07,-6.064429823490715e-08,-1.180511978994088e-06,-2.9355606471116813e-07,-9.133901143244683e-07
1.0121466001803465e-06,-3.424705173790741e-07,9.016201680882092e-07,-1.3208025322827228e-07,-3.234985709246032e-08,-1.0569581576412399e-06,3.556456883593937e-07,-9.5849312644973e-07,4.16961215536361e-07,1.3369660247302877e-06,8.423457830296276e-09,-5.837367941776883e-07,2.034949837093424e-07,-2.9339547813874614e-07,-1.0351938693598337e-07,-1.1570940461423275e-06,-3.726707538113923e-07,-9.420511281383801e-07
9.896087433043282e-07,-3.7261869050580945e-07,8.561453628796534e-07,-1.7005827520785306e-07,-1.1449773620858575e-07,-1.1020162584440938e-06,1.9713259195705845e-07,-1.0644900442131476e-06,3.614628446221776e-07,1.2553869963578368e-06,-2.1154085946836665e-08,-6.807198683650854e-07,1.301665721573316e-07,-3.246875294180775e-07,-1.5478985831246393e-07,-1.1327799468973802e-06,-4.502603949914914e-07,-9.985445089786205e-07
9.928753694280015e-07,-3.970718217271709e-07,8.09270102545457e-07,-2.0542225510380873e-07,-1.9493202401605736e-07,-1.1669163516745945e-06,8.158127290695378e-08,-1.1512028418816763e-06,3.220549453949277e-07,1.1648691025417197e-06,-5.5716896533658115e-08,-7.788584788707833e-07,7.685427361392852e-08,-3.475149698674628e-07,-2.0773683235789517e-07,-1.114683705557888e-06,-5.235528219882349e-07,-1.0590324844144113e-06
9.65986799844846e-07,-4.1514677554580565e-07,7.658775225457765e-07,-2.40131689963489e-07,-2.694691777377747e-07,-1.2641051990736796e-06,1.8243484883173377e-08,-1.21718515193523e-06,2.9294574058796717e-07,1.078745306989343e-06,-1.09907744395293e-07,-8.684443780243086e-07,4.5358512710217465e-08,-3.9207210341133047e-07,-2.569572837565799e-07,-1.107306945222672e-06,-5.808751156956082e-07,-1.1161057280852384e-06
9.294537784808295e-07,-4.290647057992533e-07,7.296271445347547e-07,-2.765974905132454e-07,-3.3370880229237315e-07,-1.388000773668611e-06,3.3243491074511645e-09,-1.2732418077938802e-06,2.702775572070808e-07,1.00100710214061e-06,-1.9175467582681392e-07,-9.431289739200968e-07,2.6739002418829807e-08,-4.0803297824058005e-07,-2.9912874852014993e-07,-1.1117062301779534e-06,-6.237663048062476e-07,-1.1693658566486688e-06
8.880885216364747e-07,-4.4112417858416706e-07,7.001394247058771e-07,-3.1652748839116827e-07,-3.841748988131467e-07,-1.497924349693882e-06,2.1975381445641096e-08,-1.3106397909718417e-06,2.569879807558327e-07,9.306601156532365e-07,-2.7300827087940687e-07,-1.0007925784096687e-06,1.2133407431517932e-08,-3.9411677315229973e-07,-3.3323341082444195e-07,-1.126085033424019e-06,-6.538621210804739e-07,-1.2050298787385378e-06
8.241373329683359e-07,-4.5332329338895416e-07,6.759394781513511e-07,-3.6031754830738353e-07,-4.192995932361985e-07,-1.5901622472007474e-06,5.361970020328102e-08,-1.3228370100703603e-06,2.485599015370609e-07,8.679775771233343e-07,-3.447496651617929e-07,-1.0425723675680142e-06,6.795250226471102e-09,-3.8600988421694044e-07,-3.5974615323695095e-07,-1.1467161891922989e-06,-6.795641329726084e-07,-1.2288871512088968e-06
7.522821850827864e-07,-4.670561452745232e-07,6.539618724833665e-07,-4.0676633301604447e-07,-4.3896796335035145e-07,-1.649268960305236e-06,7.872132358346206e-08,-1.314253168800156e-06,2.411879698083074e-07,8.136952138851119e-07,-4.102254460905389e-07,-1.070419765780576e-06,7.379402439019882e-09,-3.7420098844111987e-07,-3.794807046831357e-07,-1.1688807551035338e-06,-6.987038269768229e-07,-1.2421948392603667e-06
6.897421765937943e-07,-4.822805262915664e-07,6.351211169004642e-07,-4.5357979473876245e-07,-4.43958631766244e-07,-1.676772581700326e-06,8.3540032953331e-08,-1.2898413917107594e-06,2.3255607299125757e-07,7.638195226055607e-07,-4.511646839398209e-07,-1.0856612310296435e-06,9.426889282147724e-09,-3.391064421450051e-07,-3.931486687778164e-07,-1.1880796150119681e-06,-7.063072307197995e-07,-1.2459621651238704e-06
6.497741769756261e-07,-4.979072708586758e-07,6.194413965649263e-07,-4.98625528251799e-07,-4.363450378700292e-07,-1.683839817949237e-06,6.144697649535344e-08,-1.2642890836450772e-06,2.2199476327179298e-07,7.169206676348466e-07,-4.749911075305421e-07,-1.0885078877680155e-06,1.6033244937362427e-08,-3.1665493178286455e-07,-4.0118021221597236e-07,-1.2008189415977609e-06,-7.020600806428861e-07,-1.2453663286977716e-06
6.034082104339356e-07,-5.123490709551597e-07,6.068173007085855e-07,-5.405651773391949e-07,-4.1908197390883096e-07,-1.678546642362486e-06,1.2511185284128634e-08,-1.2606674662698429e-06,2.1041181408544093e-07,6.72383926467823e-07,-4.886752528438408e-07,-1.0771853424748916e-06,2.3537173169030427e-08,-2.979369968357462e-07,-4.0316214867532304e-07,-1.2026817040926873e-06,-6.833704052818215e-07,-1.2385486008931386e-06
5.562084711999074e-07,-5.237450373873707e-07,5.983102978141826e-07,-5.782152827229801e-07,-3.9434761694347995e-07,-1.6683717496192329e-06,-5.74217868532289e-08,-1.2705114271605066e-06,2.001979339186047e-07,6.310126911559621e-07,-4.922159736726686e-07,-1.0480136434524056e-06,3.3855198592177315e-08,-2.4870048218811257e-07,-3.97714910121682e-07,-1.1923588620278266e-06,-6.710723228249553e-07,-1.2231985043539834e-06
5.133363400987184e-07,-5.301606451231123e-07,5.966335435638706e-07,-6.098817384392515e-07,-3.6303137060738904e-07,-1.652416547438673e-06,-1.3862185079303448e-07,-1.2631375845301723e-06,1.9440517996250094e-07,5.954826312607948e-07,-4.888907937114889e-07,-9.96552607021797e-07,5.036882577009252e-08,-1.9553818247382468e-07,-3.8338271612927696e-07,-1.1689663859252286e-06,-6.605711837310768e-07,-1.1986729108944266e-06
4.7100255225641293e-07,-5.300420769898179e-07,6.025225692016927e-07,-6.335165682428686e-07,-3.258794121179308e-07,-1.6292189362588104e-06,-2.1990246947700826e-07,-1.239149782393791e-06,1.956106852440987e-07,5.662281990718451e-07,-4.7618642478556713e-07,-9.222549915207696e-07,7.758363676103337e-08,-1.1467886299008095e-07,-3.5950213067779466e-07,-1.132451932036592e-06,-6.478452850540836e-07,-1.1653409362173081e-06
4.556547761071634e-07,-5.224965287864489e-07,6.166253277097505e-07,-6.471674221474673e-07,-2.8427492550176333e-07,-1.597104038076932e-06,-2.904767606582189e-07,-1.2035696454366496e-06,2.053225163419176e-07,5.474100480461652e-07,-4.5299284881015175e-07,-8.276322323062409e-07,1.1150199236747147e-07,-1.2401398472748921e-08,-3.263335983496375e-07,-1.0856200868377787e-06,-6.158566257234897e-07,-1.1247225717820128e-06
4.631596692545e-07,-5.073828735909832e-07,6.403233803742287e-07,-6.494952985794592e-07,-2.4023889081351774e-07,-1.555167758393951e-06,-3.416818077557139e-07,-1.1601204329378716e-06,2.23584723683059e-07,5.448570267901297e-07,-4.207319699778205e-07,-7.174987515939174e-07,1.5097341545901936e-07,9.458602318202398e-08,-2.850026557009593e-07,-1.0297732248801868e-06,-5.683959724859094e-07,-1.079125317965242e-06
4.878669212928307e-07,-4.852980084795983e-07,6.71905129944329e-07,-6.405682697095629e-07,-1.9665623191315213e-07,-1.5045233411246744e-06,-3.690333310850066e-07,-1.1217334030367635e-06,2.4851071481821386e-07,5.570966397850019e-07,-3.827794084345626e-07,-5.993216900181253e-07,1.9432089679012073e-07,1.9078557243263474e-07,-2.3734730578531035e-07,-9.671619325516397e-07,-5.167643524472554e-07,-1.0312974943158514e-06
5.288551730701108e-07,-4.576877331814078e-07,7.091907722054723e-07,-6.222731596986443e-07,-1.5696524134294263e-07,-1.4486158274329898e-06,-3.731040412695062e-07,-1.0887747995089345e-06,2.766407747502024e-07,5.820051462216317e-07,-3.4197562367298335e-07,-4.810039511405441e-07,2.3655234306619635e-07,2.7820264575905026e-07,-1.853201572914731e-07,-9.009485078532178e-07,-4.645076407898014e-07,-9.836670460491263e-07
5.835121801321728e-07,-4.2643720360489187e-07,7.488678067187626e-07,-5.97797561017192e-07,-1.2377148643265765e-07,-1.390875696652463e-06,-3.5830001422320554e-07,-1.0418698494633727e-06,3.042908146422226e-07,6.156636258496104e-07,-3.0144261535312347e-07,-3.7103588465810735e-07,2.752204960344897e-07,3.5635170393366517e-07,-1.3064665880435696e-07,-8.341658678924939e-07,-4.189516471611157e-07,-9.378656707532797e-07
6.435436382406325e-07,-3.9331676631942025e-07,7.87390991931482e-07,-5.709192246681078e-07,-9.815146720654749e-08,-1.3364584989399218e-06,-3.3103883083662685e-07,-9.93163372885105e-07,3.286840723658733e-07,6.522705141268668e-07,-2.63872129688247e-07,-2.7256885346483287e-07,3.078315158162537e-07,4.160450301804628e-07,-7.534119896298272e-08,-7.69444596396644e-07,-3.646939972381919e-07,-8.951791901201971e-07
7.030254747382937e-07,-3.5989304812175444e-07,8.219091248239144e-07,-5.456104679362112e-07,-8.028667392874964e-08,-1.288987934705703e-06,-2.9843391453246647e-07,-9.67055593905591e-07,3.484247769474561e-07,6.88306063877247e-07,-2.2853708546231404e-07,-1.8767337083300334e-07,3.329690537846585e-07,4.661127240624747e-07,-2.203518004061596e-08,-7.092439387920677e-07,-3.0643203913137006e-07,-8.568766910691869e-07
7.576587661422711e-07,-3.2740863738973005e-07,8.500613589413403e-07,-5.253625059227947e-07,-6.961127244933495e-08,-1.2479121510377674e-06,-2.669348910347891e-07,-9.567170043739408e-07,3.637969415119929e-07,7.219852417119161e-07,-1.9669910327586546e-07,-1.1583338932894785e-07,3.512946397347821e-07,5.017395741795719e-07,2.672490426339406e-08,-6.549375749179209e-07,-2.496272741465558e-07,-8.236870641023757e-07
7.993991556692169e-07,-2.9643582468511065e-07,8.710990061839661e-07,-5.122075979597848e-07,-6.418751027739531e-08,-1.212936440631652e-06,-2.411400530295615e-07,-9.615621025997156e-07,3.765196133708513e-07,7.518371445505693e-07,-1.6812861737086413e-07,-5.312072371476898e-08,3.647849072194662e-07,5.246777923286009e-07,6.93373492497292e-08,-6.042037091300279e-07,-2.0838719219111669e-07,-7.954569020668843e-07
8.306042539654774e-07,-2.668395680387826e-07,8.860741449331168e-07,-5.063574968973862e-07,-6.104631822376897e-08,-1.1884476312952524e-06,-2.2351915090816275e-07,-9.697546225922983e-07,3.8859152641375563e-07,7.764649053069664e-07,-1.412276123602731e-07,3.627600786800503e-09,3.755598901286801e-07,5.424403349289493e-07,1.054559448085634e-07,-5.560495322674386e-07,-1.8056138327145237e-07,-7.714735763297635e-07
8.547842122055214e-07,-2.382561600473035e-07,8.96708702635668e-07,-5.065182730784603e-07,-5.714913858730946e-08,-1.1706035502080284e-06,-2.1398789311501882e-07,-9.706696064319006e-07,4.013904985263333e-07,7.957677196058574e-07,-1.1659588820605563e-07,5.676112068260503e-08,3.8519326899697527e-07,5.606334031266308e-07,1.3614888540195704e-07,-5.091262638751729e-07,-1.5773556991121152e-07,-7.50552527294165e-07
8.746611424246804e-07,-2.102880154245115e-07,9.06968146798843e-07,-5.102160784285822e-07,-4.963155812485635e-08,-1.155168655776771e-06,-2.082764513706809e-07,-9.669407810278528e-07,4.1591861198989826e-07,8.096767644380088e-07,-9.246160874713217e-08,1.0730536398755792e-07,3.9518907380462837e-07,5.791028518825426e-07,1.6379680785483474e-07,-4.6091851072982627e-07,-1.353940315699552e-07,-7.308782457503792e-07
8.950339106954607e-07,-1.8239417744904167e-07,9.207423343023383e-07,-5.143423458937463e-07,-3.603446686053665e-08,-1.1422343802372898e-06,-1.9675880012107003e-07,-9.650927646364535e-07,4.3325106789546894e-07,8.191056544416263e-07,-6.698971162969451e-08,1.6091069958250516e-07,4.073545600199646e-07,5.996045414328842e-07,1.9117609789461007e-07,-4.2439913011603487e-07,-1.0537543045834266e-07,-7.104443786988319e-07
9.185725951206864e-07,-1.5407609484287587e-07,9.386951856255112e-07,-5.162357669489901e-07,-1.538326829721144e-08,-1.1245465727040882e-06,-1.6573571789319373e-07,-9.656610354947777e-07,4.5438466515437816e-07,8.256619697115063e-07,-3.950502878547745e-08,2.1911518680335408e-07,4.2345382833290053e-07,6.214899965045452e-07,2.2025522279725565e-07,-3.8955563611940856e-07,-7.085648559472814e-08,-6.877024667021624e-07
9.433619469825004e-07,-1.2509556314117562e-07,9.616145110895249e-07,-5.145078056890858e-07,1.1376659610386067e-08,-1.1021660427371902e-06,-1.0070865478126464e-07,-9.647591366997285e-07,4.799650711298484e-07,8.304308590722442e-07,-1.0509967550405442e-08,2.7302933624394504e-07,4.447760714205793e-07,6.569119535603551e-07,2.5148480181352096e-07,-3.4815506094546473e-07,-3.172217518128964e-08,-6.616640198459079e-07
9.702656971380793e-07,-9.531201141841425e-08,9.873019869202427e-07,-5.090639238039122e-07,4.241267810575825e-08,-1.0780278313290617e-06,9.350351419457138e-09,-9.647725004231311e-07,5.09981632358841e-07,8.343505906831475e-07,1.3536310136841252e-08,3.2597813995145145e-07,4.715427403159252e-07,6.956288387089439e-07,2.832691793866136e-07,-3.00790207853017e-07,1.1746952790977462e-08,-6.319984975628731e-07
9.943790812728814e-07,-6.470791120829199e-08,1.0096026436261215e-06,-5.009361007709982e-07,7.586514343839489e-08,-1.0531416067451023e-06,1.6699544456917442e-07,-9.648753383097114e-07,5.430212310619138e-07,8.379317803871002e-07,3.2585622779012234e-08,3.763866231530679e-07,5.019097481961014e-07,7.387392723516204e-07,3.1157276846275253e-07,-2.50784999862722e-07,5.917049220160838e-08,-5.994741906805589e-07
1.0078816020829833e-06,-3.37866672533396e-08,1.0213791039146874e-06,-4.921115352226521e-07,1.1009996923239091e-07,-1.029557480515716e-06,3.622623166911306e-07,-9.655234499184022e-07,5.757448899863211e-07,8.414294792578874e-07,4.60585556256832e-08,4.227483997075627e-07,5.316912512574324e-07,7.828606309545148e-07,3.3077835516020804e-07,-2.1324608487382917e-07,1.0468605181894379e-07,-5.658216450309095e-07
9.999542251565163e-07,-3.5471440870243485e-09,1.0148716616653916e-06,-4.847315761791654e-07,1.4451022107773944e-07,-1.0100786115637283e-06,5.722386522331103e-07,-9.63811857673739e-07,6.033921921113555e-07,8.460289205040089e-07,6.141853920771262e-08,4.686126764823258e-07,5.551847251470348e-07,8.141741388849589e-07,3.360682650469502e-07,-2.3523125087886238e-07,1.41786447773337e-07,-5.328869013671437e-07
9.273579144091062e-07,2.4871339109083752e-08,9.869149369197482e-07,-4.798804817201073e-07,1.8016343645849784e-07,-9.965272441872003e-07,7.683242586306355e-07,-9.545894095528588e-07,6.206695521504491e-07,8.543720391839255e-07,7.208173306865497e-08,5.176815909329169e-07,5.676921937052061e-07,8.267482865745263e-07,3.2597570869578823e-07,-2.9787880509841016e-07,1.6723470981678e-07,-5.022504772832083e-07
8.48486743542097e-07,5.036771126967517e-08,9.405517487258792e-07,-4.7581018958516034e-07,2.1878121099492924e-07,-9.88509334328961e-07,9.104188023933439e-07,-9.327401717054262e-07,6.225013110017559e-07,8.697407554997485e-07,7.41782541368844e-08,5.547272731263289e-07,5.682539968095235e-07,8.133087788051024e-07,3.040530282214152e-07,-3.3797119621143345e-07,1.791372963738078e-07,-4.754263820898872e-07
7.662265435253933e-07,7.176139025078267e-08,9.016437383264933e-07,-4.696995297831353e-07,2.603453116331806e-07,-9.853947735206785e-07,9.367770222026721e-07,-8.944542479995574e-07,6.055087532788141e-07,8.952636306616676e-07,6.753907337280875e-08,5.678542496907012e-07,5.46623662817832e-07,7.717550967248688e-07,2.791328561100752e-07,-3.5274509880192843e-07,1.801664157223357e-07,-4.537022654005255e-07
6.847970610754486e-07,8.791593267141781e-08,8.914418806424954e-07,-4.5634496555180563e-07,3.048777163000195e-07,-9.823909589863626e-07,9.348870516108834e-07,-8.392373071420216e-07,5.702081429874485e-07,9.335436663502179e-07,4.4925297690466165e-08,5.333412211279487e-07,5.164920594289679e-07,7.03388550488864e-07,2.6296837631451336e-07,-3.6751369424671973e-07,1.761954535617383e-07,-4.3772597910474776e-07
6.116067131806066e-07,9.789505942101952e-08,9.12479849503991e-07,-4.296318884065649e-07,3.482356001249679e-07,-9.729398113322234e-07,7.942017749580254e-07,-7.691794634749677e-07,5.219884847471449e-07,9.853075572455425e-07,2.0080189537085277e-08,4.3831104832864084e-07,4.785349781323241e-07,6.245229539885306e-07,2.651150874731001e-07,-3.808198674980041e-07,1.7308584666078858e-07,-4.27436012178952e-07
6.003173652001022e-07,1.0079756058422734e-07,9.299558932450337e-07,-3.83875924109839e-07,3.8376811157361985e-07,-9.508297134449214e-07,6.110638429393234e-07,-6.898707758522333e-07,4.6974037317959015e-07,1.0475812642100628e-06,-9.946650533164601e-09,3.93118160531669e-07,4.4167723899185706e-07,5.464572215502424e-07,2.8813434484860166e-07,-4.666831857409273e-07,1.7486965574399334e-07,-4.218826212606672e-07
6.097791280393598e-07,9.584400366956904e-08,9.289489633422962e-07,-3.179431054985442e-07,4.174382953214922e-07,-9.09888678070486e-07,4.1559333748162194e-07,-6.065514927957345e-07,4.231481978143863e-07,1.1139622501148934e-06,-5.021541860130886e-08,3.938637695656639e-07,4.121073003630532e-07,4.785905756809248e-07,3.265427514709101e-07,-5.599496704340103e-07,1.8307103289194176e-07,-4.188562744120985e-07
5.897402415223065e-07,8.310054917143087e-08,9.150253287895017e-07,-2.355353846370342e-07,4.2401484806971913e-07,-8.510970332533363e-07,2.521588819639378e-07,-5.295176415405875e-07,3.898502062655816e-07,1.1772225547596494e-06,-1.134376300378666e-07,4.006447158468215e-07,3.928935187992956e-07,4.294153291544717e-07,3.693937248999449e-07,-6.278934476473573e-07,1.9712730248082998e-07,-4.1552403267021193e-07
5.57058614553424e-07,6.401480628939645e-08,9.68830147936229e-07,-1.4549952041893819e-07,3.963603741248274e-07,-7.817031966555878e-07,1.5364143174126134e-07,-4.6498858799311065e-07,3.7320420884112754e-07,1.2319682118082964e-06,-1.868498375462206e-07,3.8765317158151705e-07,3.8340989808081e-07,3.9907695800488725e-07,4.042519524855289e-07,-6.881435528129032e-07,2.141272305060403e-07,-4.101156283860222e-07
6.17758628390932e-07,4.099044839663104e-08,9.783045775909635e-07,-6.63110701866998e-08,3.6791977239428404e-07,-6.996475336164521e-07,1.3476798699236885e-07,-4.144602095888867e-07,3.718487620515258e-07,1.2762590694408377e-06,-2.608314214937684e-07,2.6103883609573137e-07,3.8023048652645017e-07,3.8166361821866085e-07,4.2119732231688393e-07,-7.74716434951502e-07,2.2968446087735266e-07,-4.027671659593016e-07
6.514605991039792e-07,1.6555866001195233e-08,9.366817711984202e-07,-7.062757438193497e-09,3.4495450544889375e-07,-6.125445781894139e-07,1.9303511623060134e-07,-3.7717893682530507e-07,3.8153988274863864e-07,1.3120706673994418e-06,-3.306195514364059e-07,1.01600703686329e-07,3.7929186881882485e-07,3.7036789925867677e-07,4.158548613288282e-07,-8.185137925395849e-07,2.404677166688083e-07,-3.9466558274137934e-07
6.321362791868791e-07,-7.236677609553549e-09,8.997877864846388e-07,7.505058236469588e-09,3.2355208991227806e-07,-5.251809619566226e-07,3.1468514552905396e-07,-3.4823755096765473e-07,3.9770979938320103e-07,1.3437674177538674e-06,-3.846088621341034e-07,-4.793115360756946e-10,3.7773662209689387e-07,3.5699108875630873e-07,3.9016332511195095e-07,-8.30038453735708e-07,2.4608959974768665e-07,-3.8659795367132297e-07
6.429963674810083e-07,-2.9408618110317524e-08,8.776814966899584e-07,1.2335598711551705e-08,3.089287490442267e-07,-4.3836570633731305e-07,4.814122166403203e-07,-3.2273659601158686e-07,4.170147590142414e-07,1.3751293889097295e-06,-4.315301911393434e-07,-7.041324886082718e-08,3.7456256935319097e-07,3.418434433094005e-07,3.5092310775926606e-07,-8.321489533317108e-07,2.484389581102007e-07,-3.7807089485577444e-07
6.015954413754382e-07,-4.970800347119772e-08,8.476524808360744e-07,2.011276932097845e-08,3.0688003959703534e-07,-3.5604461477295543e-07,6.757485370834402e-07,-2.9741602244684556e-07,4.3774308555605153e-07,1.4073504664752316e-06,-4.6818600520493594e-07,-8.128932081286542e-08,3.705408847480902e-07,3.290490810258425e-07,3.0738045619241534e-07,-8.185879740532399e-07,2.524804833427282e-07,-3.671606588715392e-07
5.522126375034284e-07,-6.782952111480965e-08,8.35445481842554e-07,4.6452748466034416e-08,3.1622713410611676e-07,-2.80758787991963e-07,8.841409449492403e-07,-2.707271641891871e-07,4.594681747657205e-07,1.4388007407926287e-06,-4.906127623283832e-07,-1.257228170648066e-07,3.673961858674298e-07,3.248225624554727e-07,2.684834552156456e-07,-7.93883291820706e-07,2.633401257906403e-07,-3.5121274698554956e-07
4.761301827874197e-07,-8.230888241945825e-08,7.893720629722679e-07,5.3060574835979105e-08,3.347480437113232e-07,-2.1515503967386308e-07,1.0969113823884917e-06,-2.3643470821526163e-07,4.821564365523084e-07,1.4656087704804623e-06,-4.875958561900913e-07,-1.905953281887538e-07,3.662794900692041e-07,3.34761115279841e-07,2.4037400875132326e-07,-7.55237604832687e-07,2.8383553043124635e-07,-3.281685385793667e-07
3.7483297862732867e-07,-9.06070388386521e-08,7.418029971561478e-07,3.0880545040538455e-08,3.587900178131513e-07,-1.5921688002556936e-07,1.3067205249478077e-06,-1.9640035549240537e-07,5.055346539754541e-07,1.4831914419953393e-06,-4.694932031882379e-07,-2.2566514648478684e-07,3.6699831011170035e-07,3.5817824641314973e-07,2.255332448006402e-07,-7.017516767591667e-07,3.140269446357728e-07,-2.973786016964286e-07
3.2131541933781053e-07,-9.013229085937194e-08,7.076086612128968e-07,-9.79432413712484e-09,3.845493347502913e-07,-1.1992955918954523e-07,1.5082400710183408e-06,-1.5208102970358852e-07,5.293159798338829e-07,1.4887977483009639e-06,-4.439570373507623e-07,-2.273863452770602e-07,3.6886896893825216e-07,3.9102350120815343e-07,2.2394132614918847e-07,-6.35693448801778e-07,3.519577909984966e-07,-2.595362149691387e-07
3.102319852039614e-07,-7.912171773567442e-08,7.004121356068653e-07,-2.4181518817795113e-08,4.0949089448298873e-07,-9.147324820767598e-08,1.6989547219809301e-06,-1.034376304073682e-07,5.535533225557971e-07,1.4832877920587117e-06,-4.138528780705866e-07,-1.6520311783384036e-07,3.718725180595388e-07,4.2729659719370316e-07,2.3468984892956866e-07,-5.647475655199011e-07,3.9493988754953653e-07,-2.1651778600618794e-07
3.192815062090685e-07,-5.74614520630869e-08,7.152946095230704e-07,-8.081670980073739e-09,4.3240350119755596e-07,-6.667720214820235e-08,1.8793947715882317e-06,-5.323418136916878e-08,5.784774501200088e-07,1.4709689380401601e-06,-3.8423042446590465e-07,-8.852001224344373e-08,3.769973314767387e-07,4.6216391476269596e-07,2.5680621413764827e-07,-4.954944170386619e-07,4.3979571376919445e-07,-1.7119502044761801e-07
3.0929864506832e-07,-2.6749640147855546e-08,7.325978399047631e-07,-1.127329093187737e-08,4.528831526187221e-07,-4.4072586572530435e-08,2.0526880628999526e-06,-2.7685576375145543e-09,6.043595994035862e-07,1.458306347934652e-06,-3.529410205611643e-07,-1.1435020413903724e-08,3.860976671714697e-07,4.90776502325185e-07,2.8929053328352204e-07,-4.3335648287796956e-07,4.850641135030987e-07,-1.2666510733251064e-07
3.006398704187997e-07,1.0338380786261617e-08,7.312458855545974e-07,1.2529337298969117e-08,4.7119257847826207e-07,-2.0088948981595525e-08,2.223796240274671e-06,4.734908810469318e-08,6.316672504128839e-07,1.4521518586911978e-06,-3.2121644479027563e-07,6.13294179415202e-08,4.012421941364795e-07,5.104026414446295e-07,3.30486588328795e-07,-3.880644844273833e-07,5.296000959832433e-07,-8.548109465187808e-08
3.2448325941541796e-07,5.082390354613225e-08,7.595128259386595e-07,7.795444468414513e-08,4.877098310726798e-07,9.100300644714759e-09,2.398004399605938e-06,9.339719479556457e-08,6.61058737712613e-07,1.4576745061130642e-06,-2.8991733684559417e-07,1.0049865043467296e-07,4.2334215841023274e-07,5.24215501660198e-07,3.772401164712748e-07,-3.583504500719967e-07,5.724427391185761e-07,-4.953249911180121e-08
3.638470015213559e-07,9.17211141378783e-08,8.212638198303583e-07,1.6300155764462577e-07,5.023503412312563e-07,4.5091981580053484e-08,2.5792308199033004e-06,1.33499069907139e-07,6.933460885459487e-07,1.4771311103632516e-06,-2.65175344567177e-07,1.1646575594654046e-07,4.511979067250289e-07,5.322298966520881e-07,4.2495412591267396e-07,-3.415127858517687e-07,6.1247718015118e-07,-1.9963430136351052e-08
4.6041347267869656e-07,1.3039775469029763e-07,8.735717334222864e-07,2.3707774001051047e-07,5.151321784444403e-07,8.34693412334473e-08,2.7692397463425474e-06,1.689248576342362e-07,7.296382679027523e-07,1.5101052909504244e-06,-2.4320792021990356e-07,1.1898661058824937e-07,4.818927642620604e-07,5.215972470818079e-07,4.6871177118561106e-07,-3.3536842559738324e-07,6.49107031352572e-07,3.0580618388783853e-09
5.650335961989093e-07,1.6508598525471546e-07,9.276503193026209e-07,3.015605789682002e-07,5.269172003071474e-07,1.2279126728067744e-07,2.9671179288122307e-06,2.0104533006712145e-07,7.708914888141518e-07,1.5539342133834859e-06,-2.2109077619417467e-07,1.0253472438595521e-07,5.116348184638766e-07,4.967068684656761e-07,5.043114064744281e-07,-3.3555468305078064e-07,6.818715300808057e-07,1.9922719125444625e-08
6.688054954514611e-07,1.948553244181845e-07,9.812550704853627e-07,3.549116283583986e-07,5.38736257508317e-07,1.6138871511863024e-07,3.168489895945035e-06,2.3166778305010228e-07,8.166543276838416e-07,1.6037033658579862e-06,-1.9859163938390455e-07,8.110812289630303e-08,5.36298354125267e-07,4.6812176843610687e-07,5.287539726595582e-07,-3.4001339066780914e-07,7.092919292604673e-07,3.0752736005203594e-08
7.784960599723339e-07,2.1942047689815898e-07,1.0366260929480617e-06,3.920526949349399e-07,5.508520193563038e-07,1.9868351269225606e-07,3.3660685917376716e-06,2.61077940821861e-07,8.643864724420086e-07,1.6530286419934916e-06,-1.7398109906574515e-07,5.5187752127278934e-08,5.522101774086103e-07,4.343558538390167e-07,5.407390494703979e-07,-3.4788745517778306e-07,7.295728716837511e-07,3.523172617755975e-08
8.583400850931695e-07,2.392444896226688e-07,1.0894924351597632e-06,4.129612644059486e-07,5.630418738888007e-07,2.3558976480345548e-07,3.5520697296399216e-06,2.881453166226484e-07,9.10151383580515e-07,1.6958796891584964e-06,-1.4749741359342552e-07,2.231213131975149e-08,5.57090463324184e-07,4.0872157143631917e-07,5.410317148831307e-07,-3.5907870445674316e-07,7.414270249574141e-07,3.300296775605526e-08
9.2517564941458e-07,2.5542187112294154e-07,1.1025942680374306e-06,4.2114711674142245e-07,5.749296529863131e-07,2.711585286224551e-07,3.7201310470804375e-06,3.1136828644266984e-07,9.497714195846322e-07,1.7280583356700625e-06,-1.1918353038042552e-07,-1.4458821369296991e-08,5.503257853705388e-07,3.867726833640685e-07,5.32182954512016e-07,-3.7472772835993123e-07,7.441315360191705e-07,2.396439369221164e-08
9.860014299719393e-07,2.6925930025854624e-07,1.0995030338290294e-06,4.221029306308106e-07,5.857143991406356e-07,3.009033481487915e-07,3.865499266744603e-06,3.296489065497206e-07,9.797760168805726e-07,1.7479958281550015e-06,-8.956196061056019e-08,-5.560955258837584e-08,5.32985043263841e-07,3.5645281172524393e-07,5.180645033520384e-07,-3.9694026289884866e-07,7.381078462271921e-07,8.848045453098284e-09
1.0333787443336578e-06,2.820802323492946e-07,1.1178066731251068e-06,4.213540766935751e-07,5.948636666285032e-07,3.2164247125079754e-07,3.985084310410765e-06,3.4085456149339903e-07,9.983665692944742e-07,1.7573447453746004e-06,-5.912429653168227e-08,-9.891778177061682e-08,5.082557592118175e-07,3.1187859653592844e-07,5.035731962119661e-07,-4.282135479855209e-07,7.26257494459528e-07,-9.815773192719938e-09
1.078772631037567e-06,2.9542053091873047e-07,1.1243687661751293e-06,4.235132320021266e-07,6.03713037040146e-07,3.284932013078218e-07,4.078018828492073e-06,3.4690346102602495e-07,1.0059097317667148e-06,1.7605675530335794e-06,-2.9148526876596534e-08,-1.3987205172489966e-07,4.812211599913058e-07,2.7426314115239836e-07,4.937135686873621e-07,-4.712122055815652e-07,7.135640961393855e-07,-2.7849785445998305e-08
1.1248602598237878e-06,3.109903755695536e-07,1.138041182612016e-06,4.314518179556294e-07,6.154225457723067e-07,3.319396510096647e-07,4.1454645116248715e-06,3.5112724230208207e-07,1.0041527309779301e-06,1.7630263354716157e-06,-4.83955580050189e-10,-1.7541776051838193e-07,4.570872743557099e-07,2.3614847690189412e-07,4.919249877592034e-07,-5.289535374139921e-07,7.046157332564068e-07,-4.1284684614543216e-08
1.1745203352931269e-06,3.299853704307286e-07,1.1635931953167996e-06,4.458091035516635e-07,6.330424166205207e-07,3.2964233916495754e-07,4.189897503597119e-06,3.560822546399611e-07,9.949716995464507e-07,1.7691587203492392e-06,2.6295001413918388e-08,-2.0560501541101103e-07,4.40435313647409e-07,1.847705262895366e-07,4.99040668389178e-07,-6.03858030533773e-07,7.020042388438144e-07,-4.8041065661772016e-08
1.2332252691694676e-06,3.5257618380617094e-07,1.1962235293524275e-06,4.6570814226299017e-07,6.581235426614464e-07,3.200547038612278e-07,4.215311161437303e-06,3.645295025045476e-07,9.8006095757998e-07,1.781877607751023e-06,4.9459851684566955e-08,-2.329489491445636e-07,4.3255846464922094e-07,1.2060281554909544e-07,5.134979439713584e-07,-6.95306162775683e-07,7.070212968252451e-07,-4.819041497502786e-08
1.3016451050621781e-06,3.778159879856043e-07,1.2369816491975925e-06,4.897097811095825e-07,6.902353921142657e-07,3.092087488301434e-07,4.227520806261707e-06,3.779364731329079e-07,9.611565155880858e-07,1.8019764654448925e-06,6.807174812368025e-08,-2.610746813091311e-07,4.3269386143205766e-07,1.5747156858905436e-08,5.317881985301019e-07,-7.981509542521221e-07,7.191214665481436e-07,-4.388905708440294e-08
1.376224995850365e-06,4.034923814271769e-07,1.2779626391528702e-06,5.159397205612958e-07,7.25974799556326e-07,2.98621760301848e-07,4.232721402806564e-06,3.9489638800692645e-07,9.396569106262846e-07,1.8269803071842592e-06,8.068165100875198e-08,-2.9445112788106435e-07,4.3800248497684825e-07,-1.0553149281791238e-07,5.488215775102863e-07,-9.040565189226975e-07,7.345842462318999e-07,-3.9409773400364447e-08
1.452358583661634e-06,4.261345107906371e-07,1.3162286842416075e-06,5.417386506959e-07,7.585354351186053e-07,2.8940985895096363e-07,4.23531605997682e-06,4.0721276879343687e-07,9.161517337006614e-07,1.8514078820378011e-06,8.546569021174073e-08,-3.3731323356441397e-07,4.4261490138118506e-07,-2.0834395059725138e-07,5.591825921216367e-07,-1.004281038803788e-06,7.466357277557073e-07,-3.99900716858642e-08
1.5243322788882633e-06,4.419522012492249e-07,1.3482149210734247e-06,5.641501107077144e-07,7.799114724026355e-07,2.711016247439642e-07,4.237390854760554e-06,4.103913326996431e-07,8.908085365086847e-07,1.8692104361224526e-06,8.267704483177481e-08,-3.9107328568359235e-07,4.422891690487878e-07,-2.7543828290151887e-07,5.591658766513071e-07,-1.0925216498314588e-06,7.486485275797128e-07,-4.9619017702069794e-08
1.5839831173449553e-06,4.483588060878119e-07,1.3714557623082003e-06,5.807768714692457e-07,7.842981222683658e-07,2.550320553885207e-07,4.23948267887249e-06,4.0123430298959525e-07,8.639278062713249e-07,1.8760705089155658e-06,7.340799727565762e-08,-4.5322358863464354e-07,4.344153442906045e-07,-2.935102419407469e-07,5.479905718526993e-07,-1.1642839115722258e-06,7.365698167336515e-07,-6.97274299957638e-08
1.625486622187178e-06,4.446528388052134e-07,1.385125704555239e-06,5.900861157589371e-07,7.695780905327579e-07,2.345194314040629e-07,4.240947277176479e-06,3.779864242714763e-07,8.358245496987017e-07,1.869540579745524e-06,6.018652681496964e-08,-5.189457862239179e-07,4.1774384455576447e-07,-3.429798260105133e-07,5.275273498307024e-07,-1.2172834607781996e-06,7.093525677105779e-07,-9.935745207443236e-08
1.6456537622578796e-06,4.3172922959939013e-07,1.3855883064070644e-06,5.911626552398345e-07,7.370631123694349e-07,2.0779723746707004e-07,4.240311049761517e-06,3.425937224650484e-07,8.06787540540108e-07,1.848870351916317e-06,4.6372115544187865e-08,-5.827467513002289e-07,3.928464611262335e-07,-4.306328940064554e-07,5.01298907749162e-07,-1.2528651368848054e-06,6.692548148840706e-07,-1.3563429100997038e-07
1.6441541132940781e-06,4.116446320143212e-07,1.372701674931731e-06,5.841126083387679e-07,6.912336146138696e-07,1.8026599514231148e-07,4.2363302623868385e-06,2.989920681954479e-07,7.776245341706289e-07,1.8156757652792777e-06,3.5103165043813186e-08,-6.389735908934786e-07,3.625361032140666e-07,-5.104935463237131e-07,4.731704075877133e-07,-1.2737772458536224e-06,6.214272468406351e-07,-1.7436746776521662e-07
1.6248582137092188e-06,3.8722222566544086e-07,1.3503498745855673e-06,5.704827701861039e-07,6.38774556334587e-07,1.496768383043198e-07,4.228367077868514e-06,2.540761564757383e-07,7.496790782086449e-07,1.7737826932907124e-06,2.846259083717939e-08,-6.829906241724522e-07,3.324450141853683e-07,-5.529797060550555e-07,4.458296282739883e-07,-1.2850147786598385e-06,5.720093284811589e-07,-2.113268671186615e-07
1.589672688550444e-06,3.611218027268026e-07,1.3237298927010135e-06,5.52999716229038e-07,5.861738538819944e-07,1.195713383592732e-07,4.2153270411713525e-06,2.1491856728426583e-07,7.238570241270119e-07,1.725426138669525e-06,2.6014330087525175e-08,-7.126714540507542e-07,3.0744908650243716e-07,-5.429344242041726e-07,4.200707066750065e-07,-1.2925078654759766e-06,5.253651295566833e-07,-2.432905118787027e-07
1.5466075622159284e-06,3.3504948515717386e-07,1.2998293763125821e-06,5.348405712570395e-07,5.381069534429922e-07,9.352808835743929e-08,4.195195549894745e-06,1.893755854562452e-07,7.000580116477561e-07,1.6814722587162204e-06,2.4832120805392257e-08,-7.277474364452166e-07,2.922416066730882e-07,-5.060976000024413e-07,3.9568840538405337e-07,-1.3018616841409362e-06,4.868855816916148e-07,-2.6770382785077303e-07
1.5077632319568824e-06,3.0963845738917434e-07,1.2854746718899554e-06,5.197225477174397e-07,4.98142427391862e-07,7.853026765421142e-08,4.166448867852031e-06,1.791257007650907e-07,6.777273009669064e-07,1.6477983480741362e-06,2.061678087853376e-08,-7.276372139388388e-07,2.9167898361202873e-07,-4.718541356604904e-07,3.728995972171194e-07,-1.31080491349045e-06,4.6030448659520416e-07,-2.819187794662244e-07
1.4779413465035447e-06,2.849154193357158e-07,1.2861539450551475e-06,5.121387535940035e-07,4.696929553144797e-07,7.595074886164443e-08,4.129472692166182e-06,1.8527676062913e-07,6.563760449931625e-07,1.6291081735310284e-06,9.373859253853028e-09,-7.106956237610116e-07,3.0901338291598484e-07,-4.3528405965147387e-07,3.528087575331693e-07,-1.3184445803213638e-06,4.4759413079382763e-07,-2.835468915483372e-07
1.4620103912047383e-06,2.6063199527787663e-07,1.3051874413520734e-06,5.167950760234681e-07,4.556098425083889e-07,8.098308101868855e-08,4.086415895713491e-06,2.1119700084557775e-07,6.353642090819046e-07,1.6580415145089818e-06,-1.220649127088535e-08,-6.751823706398016e-07,3.4602053819334296e-07,-4.674538983666588e-07,3.3711138802941665e-07,-1.332281772340375e-06,4.5317862196185415e-07,-2.714495978794439e-07
1.4625205663663378e-06,2.364982146637247e-07,1.3425026980064744e-06,5.37695993208289e-07,4.577608791683501e-07,9.972078178415004e-08,4.040337081546006e-06,2.571213859379444e-07,6.135860235158473e-07,1.7355188430508203e-06,-4.6069810939146934e-08,-6.206826610748211e-07,3.931286459025795e-07,-5.39230533132919e-07,3.277263961364872e-07,-1.375097704133288e-06,4.795004193555253e-07,-2.463543108923687e-07
1.477996959520864e-06,2.1254883303502384e-07,1.3948563359464048e-06,5.768034112219558e-07,4.769836422026896e-07,1.3375625707540041e-07,3.994235035928407e-06,3.236016361444485e-07,5.893019526738057e-07,1.7691338263642195e-06,-9.193209713610786e-08,-5.502985592546372e-07,4.4748739162610527e-07,-5.949139830162867e-07,3.260289134308723e-07,-1.4584896274010164e-06,5.254450519200113e-07,-2.1145061731106244e-07
1.505422172442485e-06,1.8902470358719386e-07,1.4557805958376518e-06,6.337102946546402e-07,5.11800109588217e-07,1.8009547763621633e-07,3.94954748070215e-06,4.0424419739409405e-07,5.599461741298422e-07,1.8750131579758548e-06,-1.4721123650378853e-07,-4.730280161936761e-07,4.946379530433853e-07,-6.219525921386163e-07,3.3170409172662415e-07,-1.5689216689894856e-06,5.875521254816597e-07,-1.7290781515774114e-07
1.538712537199083e-06,1.6585632088704207e-07,1.516147925297868e-06,6.988805500979881e-07,5.566085629399572e-07,2.3316455495115549e-07,3.9052273190982465e-06,4.866285927586508e-07,5.226643850805932e-07,2.0232530248881395e-06,-2.0760539794790197e-07,-4.0299143865545227e-07,5.169727268163348e-07,-6.867820419742887e-07,3.4242572235094446e-07,-1.658079088696786e-06,6.522837398091335e-07,-1.3882050186615288e-07
1.5671736485807704e-06,1.4255138586185532e-07,1.5656998851053466e-06,7.623581111658076e-07,6.022307188627916e-07,2.789925527857907e-07,3.858938245863359e-06,5.39590186439421e-07,4.759790066161817e-07,2.1057359310803614e-06,-2.669375132205144e-07,-3.546611996777647e-07,4.95856583032551e-07,-7.920712397418538e-07,3.5465948911477474e-07,-1.7350744880966635e-06,6.90667846166838e-07,-1.1654278448877276e-07
1.5798698421939595e-06,1.1857498044135956e-07,1.596460706306539e-06,8.119102190671686e-07,6.385939354318614e-07,3.1772936341315154e-07,3.808914522124357e-06,5.362636087968133e-07,4.209679654353188e-07,2.101929185328479e-06,-3.209100154673648e-07,-3.3830537601520697e-07,4.639086137090461e-07,-9.368173694376738e-07,3.642680566745832e-07,-1.7929094170424332e-06,7.004673588764564e-07,-1.107485398922194e-07
1.5712259243423317e-06,9.326499358231949e-08,1.604277699335551e-06,8.137836511480368e-07,6.56752996890416e-07,3.3877558881947193e-07,3.7540265976452636e-06,4.825359192675252e-07,3.6053616148060053e-07,2.0923732396746593e-06,-3.681551592541481e-07,-3.584677552067139e-07,4.237312796800653e-07,-1.0171986819523077e-06,3.665441920214429e-07,-1.8274533137469357e-06,6.664165497888059e-07,-1.2330794059895304e-07
1.5392514995029658e-06,6.552962998163787e-08,1.5887567636508806e-06,8.214366687373408e-07,6.500052533816144e-07,3.4225242537411237e-07,3.692866206808124e-06,4.741906038140888e-07,2.9795686370295037e-07,2.049004060431138e-06,-4.1003740042721634e-07,-4.136337716790661e-07,3.7722135413432304e-07,-1.0797344788279446e-06,3.569792705743492e-07,-1.8530826161529089e-06,6.196678251052632e-07,-1.5354836530836583e-07
1.4854687403865716e-06,3.370253880875612e-08,1.552698737458927e-06,8.19302668123384e-07,6.156965819902891e-07,3.262224606427494e-07,3.623983895226269e-06,4.758967196338964e-07,2.362833041635535e-07,2.040687968979894e-06,-4.497521288083728e-07,-4.958870463802455e-07,3.58821299456409e-07,-1.146185742227872e-06,3.3294822926580964e-07,-1.874165424214005e-06,5.922929550695901e-07,-1.9830995811725105e-07
1.4146342703612625e-06,-2.7387899149860806e-09,1.5015979066150069e-06,7.98185557347374e-07,5.565183364561693e-07,2.904334075425645e-07,3.5465658471022754e-06,4.482320395835703e-07,1.7806835340648575e-07,2.0294682614358164e-06,-4.896996750166028e-07,-5.9308070072401e-07,3.5248794268321005e-07,-1.1794582926761337e-06,2.946245797988682e-07,-1.8982159868425503e-06,5.765927775977997e-07,-2.529856688245683e-07
1.3323198092806715e-06,-4.320361178028232e-08,1.4415704903009527e-06,7.439200116505024e-07,4.790422294913983e-07,2.438923281009155e-07,3.459977847427112e-06,3.6433077630883265e-07,1.2456008944322863e-07,2.0054264960648453e-06,-5.315823191825251e-07,-6.936147391731088e-07,3.3497702556198726e-07,-1.1824412282521881e-06,2.4441442983360263e-07,-1.9318180677345337e-06,5.058937572622773e-07,-3.133643433032789e-07
1.2446594320577369e-06,-8.66041748434753e-08,1.3774710411675586e-06,6.899123462566309e-07,3.910663157462674e-07,1.9039844370595006e-07,3.363321303917272e-06,2.8322571563071873e-07,7.54088675635341e-08,1.936478309538124e-06,-5.754386178106735e-07,-7.893246114424015e-07,2.886657414779794e-07,-1.1503554778127275e-06,1.8604134583651709e-07,-1.975668083497482e-06,4.250021236036552e-07,-3.763512158323477e-07
1.1552251553672284e-06,-1.3133785789739445e-07,1.3128955248461698e-06,6.391952351511928e-07,3.001977174928374e-07,1.3558214605656264e-07,3.2564463391185367e-06,1.8435058577572758e-07,2.9721711657903186e-08,1.8400013927977006e-06,-6.196850971415335e-07,-8.746942006242722e-07,2.2621235542895938e-07,-1.1336262122757582e-06,1.2389721223120896e-07,-2.031664844633711e-06,3.263381666733692e-07,-4.3926906337814164e-07
1.0659515454776719e-06,-1.754340602287715e-07,1.2505982237984376e-06,5.863864724998543e-07,2.137566561572413e-07,7.445501055595902e-08,3.1409556516694265e-06,7.217744689395456e-08,-1.2812705209145046e-08,1.732018382606238e-06,-6.61358642982677e-07,-9.457264886696685e-07,1.5373672992371777e-07,-1.1343996717510682e-06,6.216326713179584e-08,-2.097988983020225e-06,2.11586773581849e-07,-4.993577445155911e-07
9.804584731992827e-07,-2.1692217773555314e-07,1.1928724633998993e-06,5.351245352942949e-07,1.377344850460604e-07,1.2698205226737222e-08,3.0195410195949596e-06,-9.535529695693847e-09,-5.191705220536198e-08,1.615400539798632e-06,-6.975572925923015e-07,-1.0003618790716072e-06,8.220895479092682e-08,-1.1147264656193144e-06,3.875174545464901e-09,-2.169508699288494e-06,1.2149747390184245e-07,-5.539556577297166e-07
9.01670462085703e-07,-2.544158892826426e-07,1.1414166233274878e-06,4.872480974759648e-07,7.569009470011046e-08,-4.321737415437111e-08,2.894738660850031e-06,-6.777062083322338e-08,-8.712094938541095e-08,1.5213340120153964e-06,-7.269345067471753e-07,-1.0386358465765771e-06,3.162007192038998e-08,-1.1087463977377267e-06,-4.935110625219034e-08,-2.2405610987814805e-06,4.974839784444959e-08,-6.006573906978269e-07
8.321788177408828e-07,-2.8680129720224833e-07,1.0978486303159644e-06,4.450773113629904e-07,2.8974663494909706e-08,-9.277440065050092e-08,2.768311609439152e-06,-1.0200617137950928e-07,-1.1791387681597098e-07,1.4496204193762555e-06,-7.495597654359426e-07,-1.0623599965487803e-06,-1.5902996628527874e-08,-1.1146980748897786e-06,-9.724208403926444e-08,-2.3063236507351664e-06,-3.0064519643365967e-09,-6.377546114397965e-07
7.74173812378422e-07,-3.1374951393002184e-07,1.0635141541186744e-06,4.1085479370175586e-07,-3.305303839589754e-09,-1.337845068154991e-07,2.640512193914218e-06,-1.1414145020214789e-07,-1.4426973496987183e-07,1.3896401068965643e-06,-7.670051886914706e-07,-1.0756767631137479e-06,-6.304424983283527e-08,-1.1129163049823035e-06,-1.4098311826020833e-07,-2.3643576168797015e-06,-3.845400424874001e-08,-6.653001085280666e-07
7.275247557616382e-07,-3.359636106272532e-07,1.0384491859689901e-06,3.8583730021043736e-07,-2.4985755458336007e-08,-1.6928942493524699e-07,2.509412799611939e-06,-1.1927419952176824e-07,-1.67383202777339e-07,1.3396002344681187e-06,-7.821748641131832e-07,-1.0852868994789573e-06,-1.0906368459306353e-07,-1.1175249241147629e-06,-1.828225326141898e-07,-2.415055537729751e-06,-7.095596094549762e-08,-6.854177384525946e-07
6.898301234972631e-07,-3.555989804678435e-07,1.0208947404088198e-06,3.692053055415668e-07,-4.201324794087209e-08,-2.0369965326520926e-07,2.372309925195709e-06,-1.2324396411107243e-07,-1.8930485844078586e-07,1.290466239801772e-06,-7.98347747714912e-07,-1.0982067569497686e-06,-1.6132714468043172e-07,-1.1261955255088767e-06,-2.2462192562851513e-07,-2.460185688373198e-06,-1.0312172612919714e-07,-7.008867573556614e-07
6.587339466834327e-07,-3.744993806512522e-07,1.0085840979424023e-06,3.5955743465662617e-07,-5.953664844001046e-08,-2.3796152105413753e-07,2.228869839362769e-06,-1.2939762858015606e-07,-2.1157887919181633e-07,1.2437627546511047e-06,-8.177200747581304e-07,-1.1187869577112593e-06,-2.0324416446079966e-07,-1.13900010774009e-06,-2.665719937030764e-07,-2.5009831879124023e-06,-1.3521414089855334e-07,-7.136265267590806e-07
6.331418095686713e-07,-3.9358016820162183e-07,9.996687909336385e-07,3.5499901833014276e-07,-8.02197579507249e-08,-2.748277397949576e-07,2.082642921709942e-06,-1.4292551344635108e-07,-2.3452228989110762e-07,1.200942300705685e-06,-8.40145173903242e-07,-1.1478990750953132e-06,-2.386276703016261e-07,-1.1603140411988788e-06,-3.072401005821547e-07,-2.5376377554048554e-06,-1.6778535692424824e-07,-7.246361179408255e-07
6.123749941829226e-07,-4.126525035651262e-07,9.923624574178347e-07,3.530220795655259e-07,-1.0460496899080424e-07,-3.194054537257488e-07,1.939646470760103e-06,-1.6577324322084607e-07,-2.5750646673182326e-07,1.1606022979672474e-06,-8.640564007967671e-07,-1.1833348991791672e-06,-2.7186013054659814e-07,-1.1854866626349986e-06,-3.4425378917915023e-07,-2.569734645466468e-06,-1.9992281235587776e-07,-7.343309786590936e-07
5.962435850616095e-07,-4.3065146697399316e-07,9.856242136684343e-07,3.5128486473882075e-07,-1.3184066042221242e-07,-3.690628571712451e-07,1.8062868630611647e-06,-1.9625076560693365e-07,-2.791765414128377e-07,1.1227831778066379e-06,-8.872015309156031e-07,-1.2196888059545497e-06,-3.003184042459947e-07,-1.2087707074293675e-06,-3.74762227856057e-07,-2.5963954739763345e-06,-2.2942571052371175e-07,-7.421385412506455e-07
5.849838074421497e-07,-4.461035765630305e-07,9.790179308462743e-07,3.483255641681652e-07,-1.5934316484408335e-07,-4.1953774495701094e-07,1.6881545401007165e-06,-2.3012391520944233e-07,-2.97524443703084e-07,1.089059682388744e-06,-9.069077926487802e-07,-1.2493229861900884e-06,-3.208280709452682e-07,-1.2185512074808996e-06,-3.961670918791035e-07,-2.6164268216160088e-06,-2.528241125010461e-07,-7.464757472155114e-07
5.789883997109949e-07,-4.574663552599117e-07,9.73361144406274e-07,3.441192468186216e-07,-1.830977188847836e-07,-4.672915350245322e-07,1.5890683865500937e-06,-2.6076528779879863e-07,-3.1049723951674756e-07,1.061730410598475e-06,-9.210541021807878e-07,-1.2654742444901822e-06,-3.3090532824538903e-07,-1.218850986638245e-06,-4.0730270703624155e-07,-2.6290089138608754e-06,-2.6711087654820016e-07,-7.458271047882834e-07
5.783212396186346e-07,-4.640652865422734e-07,9.694072176400298e-07,3.393885827755124e-07,-1.9917263961578056e-07,-5.074574078847599e-07,1.5102897112695447e-06,-2.8192006034665197e-07,-3.167164453387064e-07,1.0425777713384442e-06,-9.282333589290669e-07,-1.2647506878258534e-06,-3.299779688350936e-07,-1.208475167089092e-06,-4.0898752629587754e-07,-2.634135967849556e-06,-2.71025563117343e-07,-7.396335766192238e-07
5.823221791846144e-07,-4.6470417811339954e-07,9.691199451685807e-07,3.3500545004815265e-07,-2.0460518849364857e-07,-5.376374524366318e-07,1.4503315833646128e-06,-2.887795768782202e-07,-3.1563568296860964e-07,1.0324712121650205e-06,-9.27817041001825e-07,-1.2472503669783055e-06,-3.1900883918283256e-07,-1.186410716262441e-06,-4.03505082485534e-07,-2.632316714635659e-06,-2.648262599929068e-07,-7.282701360781907e-07
5.899025408308166e-07,-4.6022308000948283e-07,9.740842304721193e-07,3.315728477242335e-07,-1.9770967355336024e-07,-5.577120385561928e-07,1.4045674946076493e-06,-2.7953526707891357e-07,-3.076929021294888e-07,1.030925498705371e-06,-9.199280709205424e-07,-1.2160761107084082e-06,-3.0432216895997695e-07,-1.1575452528342745e-06,-3.938284928164175e-07,-2.6242628537413574e-06,-2.503454202028088e-07,-7.12904401776569e-07
