0,1,2,3,4,5,6,7,8,9,10,11,12,13,14,15,16,17
2.699079691019776e-07,1.7627988509330703e-07,2.980665337213863e-07,1.1115279690120915e-07,1.4940793526913856e-07,-3.5405227307177366e-08,2.6273167162942494e-07,1.1709166598975715e-07,2.427144288640227e-07,2.530942151016544e-07,1.0965495690265528e-07,1.3845748843201537e-07,1.1738040847023117e-07,6.864725977750799e-08,2.0722446734135124e-07,-2.7889300865643067e-07,2.8690638115716317e-07,2.616843948892579e-07
2.5394973748246374e-07,1.4775558583303726e-07,3.1499799043072003e-07,1.5190070247081303e-07,1.1122141722005542e-07,1.8862156122018256e-08,3.2212920364252474e-07,1.0304454667556381e-07,2.615747698154906e-07,3.014966114546795e-07,1.2604511952146087e-07,1.6898083086967987e-07,1.6840881032471197e-07,9.821144196224342e-08,2.1776977569233138e-07,-2.2710879683023623e-07,2.3105610711984438e-07,2.3564410086087162e-07
2.2892371122081734e-07,1.2628972221532284e-07,2.927678059418962e-07,1.7736790888159495e-07,7.571198824815878e-08,6.8090111018292e-08,3.802888003438161e-07,9.286953836945944e-08,2.6608724201640816e-07,2.9425648576693153e-07,1.593268126733398e-07,1.9273881131820412e-07,1.945777704424503e-07,1.298596385718944e-07,2.1400082334416791e-07,-1.1251079010841635e-07,2.080710903285316e-07,2.137491752030988e-07
2.0270810183997138e-07,1.0721273792921658e-07,2.6350051499932874e-07,1.860059036492503e-07,4.629326017309753e-08,1.0743473738025594e-07,4.308406765009234e-07,8.656318992426925e-08,2.5713075870850624e-07,2.1435772096006008e-07,1.7775816945629072e-07,2.0347174371709564e-07,1.6448812591818285e-07,1.5428356124588652e-07,1.9775220855782921e-07,2.932076244074524e-08,2.0057665562216481e-07,1.8964956661245175e-07
2.0998971467186543e-07,8.731541397403381e-08,2.2081354131719056e-07,1.7910640203663814e-07,2.5494590345280566e-08,1.3309767705487507e-07,4.6468989619834537e-07,8.274936904248321e-08,2.3565015751251283e-07,1.7356138218486363e-07,1.9472300962772833e-07,1.977837555667401e-07,1.3706092443527292e-07,1.649318293762036e-07,1.7157434915507193e-07,1.408812322727896e-07,1.898569578670078e-07,1.6343960174444193e-07
2.2791634783515593e-07,7.021789744394976e-08,1.6081754319852635e-07,1.5792013760266764e-07,1.3592561910386542e-08,1.4300079103129809e-07,4.7003872973352713e-07,7.941178198722145e-08,2.0134698831314363e-07,1.9775110485769356e-07,1.8070969826271473e-07,1.748630880578749e-07,1.418627175234718e-07,1.584397855329938e-07,1.3743103575248425e-07,2.1112502648822166e-07,1.6745439497579163e-07,1.367333393536338e-07
2.3378769957588933e-07,5.64904858593178e-08,9.159237278910544e-08,1.2257142451903045e-07,7.165179326276892e-09,1.3717453015501192e-07,4.3442314181953186e-07,7.302760003345557e-08,1.5318494584609202e-07,1.9127650368176075e-07,1.3213865667707135e-07,1.3663444007697776e-07,1.3470373724557959e-07,1.3506031175256808e-07,9.684110629978709e-08,2.0964725607799434e-07,1.504303401647332e-07,1.0180871737600188e-07
1.7646660715773216e-07,4.270663866073843e-08,1.992842937629373e-08,7.37374520043302e-08,5.148254745015858e-09,1.1824003115650065e-07,3.4970250512491263e-07,6.133470482971843e-08,9.128817276888601e-08,1.5534010056271803e-07,7.693552248909827e-08,8.734491792036708e-08,1.1381005339380326e-07,9.852922370072805e-08,5.14855555899843e-08,1.8190764400553123e-07,9.937215792695322e-08,5.921522319442075e-08
8.21783811401143e-08,2.551892195244084e-08,-5.076529696412706e-08,1.4710556723775647e-08,5.460766674363028e-09,8.970610389457852e-08,2.1578483436617473e-07,4.335561472029989e-08,1.812076861925193e-08,7.48090009934104e-08,2.078226880159974e-08,3.138241985275036e-08,6.03018486338521e-08,5.212686362270984e-08,2.9745929004278536e-09,1.371223538933843e-07,1.4008619905731825e-08,8.816679464157663e-09
-2.747346457233038e-08,2.2161739191547293e-09,-1.1675421911617135e-07,-4.85284702589168e-08,4.480327929087907e-09,5.353629019296192e-08,4.15859052183627e-08,1.7111866312886048e-08,-6.165642180622361e-08,-3.6762613446006756e-08,-4.14991672074877e-08,-2.845035638302106e-08,-7.092379741837934e-09,-1.3413393376365086e-09,-4.75095787178215e-08,1.0787719111715811e-07,-8.197155688034577e-08,-4.858237596868055e-08
-1.4818136639327152e-07,-2.906782219552537e-08,-1.7492397038197388e-07,-1.0872538499479069e-07,-2.7235449107339065e-09,9.673265188207536e-09,-1.566160359739163e-07,-1.809146965567847e-08,-1.4168696163658563e-07,-1.549460294890426e-07,-8.998155171707507e-08,-8.998245445202782e-08,-7.698427394742135e-08,-5.8688986767275715e-08,-9.864582262892094e-08,9.620532973003259e-08,-1.6108051981714178e-07,-1.0781454302791087e-07
-2.3874867952519533e-07,-6.840026923590111e-08,-2.2227540040595837e-07,-1.589989026555735e-07,-2.0312625946320344e-08,-4.229857516218179e-08,-3.572569359260462e-07,-6.11050809279736e-08,-2.1483088469142254e-07,-2.663818934916356e-07,-1.3052427965305085e-07,-1.5013242426434052e-07,-1.5335553092045734e-07,-1.1639373027309033e-07,-1.484789086576909e-07,5.3615723817812186e-08,-2.087255297440857e-07,-1.6460064753185982e-07
-3.0785437373121175e-07,-1.1383497040354366e-07,-2.5628040701337953e-07,-1.9470303483985245e-07,-4.824361837593647e-08,-1.0170225232048289e-07,-5.381523112864849e-07,-1.0780069959014542e-07,-2.751132921138364e-07,-3.206497785665147e-07,-1.6948679838735613e-07,-2.053783544021166e-07,-2.1002259378746446e-07,-1.6873416516943147e-07,-1.949112632522185e-07,-3.0571730755705766e-09,-2.443678448308241e-07,-2.1452946906519862e-07
-3.5943458736214205e-07,-1.6247197587365333e-07,-2.7622620975426764e-07,-2.1507373274689917e-07,-8.486797011383137e-08,-1.6667991520301566e-07,-6.837253115601428e-07,-1.536694373931599e-07,-3.1961868943728956e-07,-3.5000815264385776e-07,-2.0728692738136642e-07,-2.528305366560358e-07,-2.457417907669707e-07,-2.1155129051461106e-07,-2.363595147070983e-07,-8.708133340656303e-08,-2.6878183889403655e-07,-2.542237892557143e-07
-3.9075768016967466e-07,-2.1128749388583083e-07,-2.836910197205277e-07,-2.2331753055981768e-07,-1.2506918402719547e-07,-2.3399792397644903e-07,-7.871067857651026e-07,-1.933189693902534e-07,-3.4875984425949667e-07,-3.6462996653002095e-07,-2.4858080399100236e-07,-2.9002237023335357e-07,-2.668448792067148e-07,-2.424967469368425e-07,-2.7157251401382003e-07,-1.8868130771995773e-07,-2.9001245442609357e-07,-2.822423987807922e-07
-4.1337811827216176e-07,-2.569409312860647e-07,-2.8156820841804195e-07,-2.2512622873345957e-07,-1.6275933846684416e-07,-2.9873179922469374e-07,-8.493579840658508e-07,-2.2257422092790302e-07,-3.6543213851945877e-07,-3.6256469139669386e-07,-2.907146860746206e-07,-3.148609994208092e-07,-2.725529480166894e-07,-2.608836565438484e-07,-2.9957631265586603e-07,-2.703701100464931e-07,-2.92792960475393e-07,-2.987475750681797e-07
-4.1221137117460775e-07,-2.9590921206870534e-07,-2.73137796410095e-07,-2.2692228060592675e-07,-1.9166053764866312e-07,-3.5497272581086294e-07,-8.784873028469633e-07,-2.4024639310018975e-07,-3.742888968028166e-07,-3.474707825353109e-07,-3.29603702219267e-07,-3.2690570837993165e-07,-2.7048836117955946e-07,-2.665170554696564e-07,-3.203707712391083e-07,-3.434474169485074e-07,-2.788752367130401e-07,-3.057285301715926e-07
-3.993109440945415e-07,-3.255419987860061e-07,-2.615836014712129e-07,-2.340487396179427e-07,-2.0730313513756445e-07,-3.976223605706959e-07,-8.851289259103429e-07,-2.4718360594800845e-07,-3.806938997722136e-07,-3.2496240559967324e-07,-3.6203011570431474e-07,-3.2791558753581967e-07,-2.6217778333761027e-07,-2.6277594129418007e-07,-3.352959421463376e-07,-4.1095323201719205e-07,-2.6081640285345213e-07,-3.066168253805524e-07
-3.8773930850458047e-07,-3.44572780141679e-07,-2.491738830124499e-07,-2.4862048261698167e-07,-2.08226289715399e-07,-4.2379924191180066e-07,-8.794306326039306e-07,-2.458261307595992e-07,-3.888977892348576e-07,-3.049144406212627e-07,-3.845908654980776e-07,-3.204629764823555e-07,-2.484105170885564e-07,-2.5379615389916727e-07,-3.4661687041194737e-07,-4.764447482879655e-07,-2.431458858116714e-07,-3.050610834458718e-07
-3.7935072059339315e-07,-3.5311628333897384e-07,-2.3682696496767393e-07,-2.685147862680044e-07,-1.9625007502720054e-07,-4.33676073044774e-07,-8.697517900082661e-07,-2.391272156314474e-07,-4.009713347394527e-07,-2.9061251360666775e-07,-3.948761261432979e-07,-3.0705240166453394e-07,-2.3096820358058007e-07,-2.4293341069484204e-07,-3.572469041411786e-07,-5.508452364907896e-07,-2.3627080880990162e-07,-3.0435080107287203e-07
-3.739186728415001e-07,-3.5318872580239503e-07,-2.2518683719268192e-07,-2.8909159504835697e-07,-1.7627016561795606e-07,-4.3127027406968515e-07,-8.635966405928553e-07,-2.327746561329164e-07,-4.175783347036826e-07,-2.8718049430106743e-07,-3.925049284252281e-07,-2.9095950061286687e-07,-2.1174145413695096e-07,-2.3420215287638885e-07,-3.709350590534694e-07,-6.314311432029965e-07,-2.3958991762169736e-07,-3.077957925489271e-07
-3.685122221049956e-07,-3.4845681998813475e-07,-2.1604805436238395e-07,-3.062170541953799e-07,-1.5603882881931548e-07,-4.2405935272650114e-07,-8.69655037663628e-07,-2.320295224155561e-07,-4.390874875890086e-07,-2.8581105526889596e-07,-3.792533120597092e-07,-2.763803393644985e-07,-1.9354153754509637e-07,-2.3129568733403246e-07,-3.917458461765335e-07,-7.153590556681705e-07,-2.562384849012427e-07,-3.1861719925388164e-07
-3.6130582702991805e-07,-3.433699350494053e-07,-2.1197418028921049e-07,-3.1794452871601803e-07,-1.4248256700703205e-07,-4.2090958820897236e-07,-8.985832907907418e-07,-2.422933823981626e-07,-4.6573633374871807e-07,-2.8539945519070765e-07,-3.582075605145581e-07,-2.669167462862923e-07,-1.7900329224994063e-07,-2.3630526637176507e-07,-4.2268855373665807e-07,-8.010697914937555e-07,-2.884326937164631e-07,-3.391069392408549e-07
-3.5232527655372687e-07,-3.419581686562837e-07,-2.1547733636998197e-07,-3.2456258978208724e-07,-1.4006915556560124e-07,-4.2933865840263013e-07,-9.607206429970258e-07,-2.664051942251588e-07,-4.973633618342421e-07,-2.8797421515681014e-07,-3.329103130145706e-07,-2.6476398638092777e-07,-1.7015637490692076e-07,-2.490965905724425e-07,-4.649568167455078e-07,-8.850605362776609e-07,-3.398898924431361e-07,-3.702945061635471e-07
-3.4835275594801696e-07,-3.4684115294926855e-07,-2.2853431731922283e-07,-3.281737895528306e-07,-1.500442157267524e-07,-4.545920637677607e-07,-1.0658495312209433e-06,-3.043420710684813e-07,-5.340083859415694e-07,-2.979236630966992e-07,-3.073234105368395e-07,-2.7131312496501094e-07,-1.6840632646917893e-07,-2.688215537841983e-07,-5.179582907973703e-07,-9.64224068022249e-07,-4.089144495049327e-07,-4.121297749197584e-07
-3.504001525633018e-07,-3.592214031745325e-07,-2.517643531863022e-07,-3.318453454790488e-07,-1.7078891964837127e-07,-4.990144548760937e-07,-1.220122154226269e-06,-3.553653819830335e-07,-5.758076938954621e-07,-3.1751334018297096e-07,-2.853635565822335e-07,-2.8697167413724006e-07,-1.745143677035248e-07,-2.93468507818477e-07,-5.793650857203321e-07,-1.036692789328916e-06,-4.923094977761769e-07,-4.631433618119267e-07
-3.590913397792691e-07,-3.785466980526677e-07,-2.8318377188381953e-07,-3.3814372891518226e-07,-1.957829435049686e-07,-5.608098587539578e-07,-1.4219981378988502e-06,-4.1560797136027413e-07,-6.218574611118296e-07,-3.460347977865535e-07,-2.6969173487126393e-07,-3.1006366705609574e-07,-1.8797372288930726e-07,-3.2015964727035827e-07,-6.451721801149512e-07,-1.101475121236764e-06,-5.830564660856091e-07,-5.19984241768529e-07
-3.749652961804063e-07,-4.0242731435123035e-07,-3.180906545009543e-07,-3.481248830293337e-07,-2.1812781239663563e-07,-6.341667956582879e-07,-1.6613192773930593e-06,-4.785735803287121e-07,-6.697649380063926e-07,-3.819236813297049e-07,-2.6115185254098303e-07,-3.3708022617726284e-07,-2.0613535733590318e-07,-3.4568418461036987e-07,-7.104465465043557e-07,-1.1587488928580782e-06,-6.715855425354749e-07,-5.780016028554898e-07
-3.951149726323743e-07,-4.2787864864963156e-07,-3.5057647702916603e-07,-3.614499052402239e-07,-2.314911384219814e-07,-7.113198392757406e-07,-1.92160205738505e-06,-5.383183507720634e-07,-7.168956082325608e-07,-4.213211219070294e-07,-2.5918719060984647e-07,-3.6407285580485694e-07,-2.2537971839736828e-07,-3.7039321154864423e-07,-7.704683730677189e-07,-1.210252904245044e-06,-7.5181817620822e-07,-6.324253601357496e-07
-4.168194117065822e-07,-4.5149722409126433e-07,-3.7532283581452823e-07,-3.766741545771091e-07,-2.367202899799933e-07,-7.852218291489912e-07,-2.183632339617435e-06,-5.91466739676545e-07,-7.610130656686874e-07,-4.6055217886163065e-07,-2.6232257308448735e-07,-3.8707676502302443e-07,-2.4237417700904645e-07,-3.9398415708481503e-07,-8.212426823542389e-07,-1.258476114503518e-06,-8.186595951007746e-07,-6.790314162239517e-07
-4.3600591072067245e-07,-4.7062212711163566e-07,-3.881083754705203e-07,-3.911390906921922e-07,-2.306695721204409e-07,-8.503780438978559e-07,-2.4283125510906994e-06,-6.366462640633408e-07,-8.001975269357278e-07,-4.946322505681815e-07,-2.6823800862123953e-07,-4.01916441557642e-07,-2.5393660265560627e-07,-4.1648662570349594e-07,-8.596927612266759e-07,-1.3050381165326094e-06,-8.688052935037543e-07,-7.146331089030118e-07
-4.4737315588540664e-07,-4.837105285561706e-07,-3.8569086207866327e-07,-4.013112666314187e-07,-2.1124429944897527e-07,-9.027322473770775e-07,-2.6390374469914594e-06,-6.730926373818622e-07,-8.329813862800743e-07,-5.176293445790918e-07,-2.742329822428421e-07,-4.050044421230042e-07,-2.5759180725874094e-07,-4.3846694239090206e-07,-8.841231489847914e-07,-1.3500288299283937e-06,-9.015835197991159e-07,-7.379758804176862e-07
-4.4633382141659276e-07,-4.902944008539325e-07,-3.6652860008338424e-07,-4.038026206346917e-07,-1.8050718378452987e-07,-9.400310529965388e-07,-2.802410948560441e-06,-7.007618839482702e-07,-8.584032300714364e-07,-5.245878677522881e-07,-2.778547348887421e-07,-3.944736023193855e-07,-2.5197599121332035e-07,-4.6020689968963526e-07,-8.945542987535503e-07,-1.3920906025837694e-06,-9.191973045007499e-07,-7.501781417328765e-07
-4.3031454452684725e-07,-4.911692714431275e-07,-3.313707133648088e-07,-3.961502387575763e-07,-1.414904834164747e-07,-9.618028507014608e-07,-2.9089086601997506e-06,-7.202943748915378e-07,-8.75854111126753e-07,-5.1287691744531e-07,-2.7705775435179404e-07,-3.7047343815874444e-07,-2.3652044726287113e-07,-4.815789210981125e-07,-8.925492239736103e-07,-1.4287791270342e-06,-9.253460387303715e-07,-7.541359362322873e-07
-3.9937450498660935e-07,-4.878524901542978e-07,-2.8338951465100976e-07,-3.7733813712020296e-07,-1.0001624969513259e-07,-9.693128197664486e-07,-2.9523672800889865e-06,-7.331476822645683e-07,-8.849291630952156e-07,-4.836701966650238e-07,-2.7053086345776576e-07,-3.35720218098103e-07,-2.1179265147558346e-07,-5.01774995621448e-07,-8.812081887950481e-07,-1.457718803048234e-06,-9.258899201815839e-07,-7.53827981984883e-07
-3.566769496505046e-07,-4.824432084251819e-07,-2.2839454492003211e-07,-3.4858018675805314e-07,-6.192195131222185e-08,-9.65996241250151e-07,-2.930405207800761e-06,-7.423274029810479e-07,-8.857913883243598e-07,-4.4313720627000246e-07,-2.586436449524644e-07,-2.9654208689917887e-07,-1.8050610069217982e-07,-5.208248811903746e-07,-8.653972385482797e-07,-1.4784407021124575e-06,-9.281853551610576e-07,-7.538726380242649e-07
-3.085238332849227e-07,-4.774567929674728e-07,-1.742433354993267e-07,-3.1369223205008204e-07,-3.226271117331113e-08,-9.573139469844083e-07,-2.8459335377904733e-06,-7.518264030918352e-07,-8.791774763110237e-07,-4.0110279620724857e-07,-2.4391985968774787e-07,-2.6206192599999254e-07,-1.477473559651784e-07,-5.399459189178206e-07,-8.509660239600297e-07,-1.4930961454876759e-06,-9.395046621612515e-07,-7.584236474364866e-07
-2.6266761008936713e-07,-4.755165413740636e-07,-1.286643634826532e-07,-2.7801047881156045e-07,-1.1865635029897942e-08,-9.491015192573884e-07,-2.7070457620192987e-06,-7.653593511042139e-07,-8.657709650319414e-07,-3.6752183709688097e-07,-2.30129979607426e-07,-2.4086705407921713e-07,-1.1907649332568691e-07,-5.616802021564574e-07,-8.428319627613361e-07,-1.505186751460002e-06,-9.64710138101113e-07,-7.696234612023117e-07
-2.2568854678594347e-07,-4.781043819267348e-07,-9.656369911809271e-08,-2.4670750631945516e-07,3.985642466650771e-09,-9.45758731350422e-07,-2.5251135985619464e-06,-7.838542412983652e-07,-8.458614123178284e-07,-3.495064010054205e-07,-2.2072362320877953e-07,-2.3811954871978644e-07,-9.886012799934661e-08,-5.879603012025781e-07,-8.43349801249071e-07,-1.5179389780593493e-06,-1.0045232262668535e-06,-7.870403352849384e-07
-2.0149230894939349e-07,-4.85051190154911e-07,-7.999911616094994e-08,-2.2390125049324155e-07,1.5330893033196415e-08,-9.501144382788781e-07,-2.3124869663766957e-06,-8.06932321519583e-07,-8.198206049116034e-07,-3.5075759001875997e-07,-2.1786895936334147e-07,-2.547076088350156e-07,-8.950749572887223e-08,-6.174750880846775e-07,-8.517087316288828e-07,-1.5333292449653497e-06,-1.0558898273370132e-06,-8.081788480507238e-07
-1.9105625612909514e-07,-4.947130080501353e-07,-7.768156880678484e-08,-2.1207957432787753e-07,2.3355379345605097e-08,-9.630916276068355e-07,-2.078829496735929e-06,-8.332793654936063e-07,-7.880345865798108e-07,-3.718220519474716e-07,-2.2186339462849578e-07,-2.871294997593032e-07,-9.093185878151442e-08,-6.497469194603386e-07,-8.6417604556725e-07,-1.550973509478494e-06,-1.1122555725019974e-06,-8.29120913315283e-07
-1.9230627666236692e-07,-5.04277793283958e-07,-8.578361807463817e-08,-2.1120709072350773e-07,3.031349964800858e-08,-9.83112793552274e-07,-1.828298425677639e-06,-8.597981922419143e-07,-7.49971455633243e-07,-4.098871675898442e-07,-2.3092952459261399e-07,-3.2803914227742195e-07,-1.0029050766793346e-07,-6.820797044856503e-07,-8.753524555741767e-07,-1.5676796226281772e-06,-1.1648991509850317e-06,-8.454475832701984e-07
-2.0058881896732293e-07,-5.105478507103845e-07,-9.915293389408993e-08,-2.1852712331659442e-07,3.9640683710620825e-08,-1.0063893885244814e-06,-1.5597426497298312e-06,-8.816689969257153e-07,-7.037870622492155e-07,-4.5920621204660785e-07,-2.419830568894584e-07,-3.684698119288049e-07,-1.1296774954519974e-07,-7.099923783472702e-07,-8.803571964510828e-07,-1.578667714588365e-06,-1.2060487031739659e-06,-8.537632273347259e-07
-2.1033672812835353e-07,-5.111492342964256e-07,-1.1226213187580234e-07,-2.2973656568187446e-07,5.667813275856311e-08,-1.0281080023823803e-06,-1.2702463019716585e-06,-8.948525123932651e-07,-6.469296522482991e-07,-5.123466378421367e-07,-2.517964567962107e-07,-4.0050380834339596e-07,-1.238399749688465e-07,-7.300326308985253e-07,-8.764496249737624e-07,-1.5794759876756143e-06,-1.2315320182043495e-06,-8.527398115836748e-07
-2.1677277069939695e-07,-5.05182389234935e-07,-1.206193788272467e-07,-2.4049693725781006e-07,8.462927399727149e-08,-1.0438761051271647e-06,-9.591300418721012e-07,-8.935023832426983e-07,-5.769569235029665e-07,-5.615835889360883e-07,-2.576453643584616e-07,-4.1868370787253164e-07,-1.281812801418491e-07,-7.391027232915469e-07,-8.631419832892367e-07,-1.5672293449201206e-06,-1.2407990504304158e-06,-8.428950106265787e-07
-2.1662390957739042e-07,-4.930410723968632e-07,-1.2100165995565735e-07,-2.474428355745212e-07,1.2679778711607953e-07,-1.0510148960845718e-06,-6.306099728039911e-07,-8.729011524561426e-07,-4.925802382959854e-07,-6.007076181289213e-07,-2.5770609953984055e-07,-4.2090407657277234e-07,-1.2303335152501399e-07,-7.363829993458068e-07,-8.416330975280973e-07,-1.5414245546098577e-06,-1.2360408735655305e-06,-8.259610894925907e-07
-2.0842469680134798e-07,-4.7516595523364735e-07,-1.1182897451292464e-07,-2.4883893014764666e-07,1.8194627270729743e-07,-1.0487797306396297e-06,-2.9350262080196365e-07,-8.308945724980712e-07,-3.951717849982089e-07,-6.271357941343965e-07,-2.5176842580797916e-07,-4.092828152774342e-07,-1.0796680163914025e-07,-7.237208592359278e-07,-8.143612887551093e-07,-1.5043916841715183e-06,-1.2215485666324675e-06,-8.044695227069278e-07
-1.9249656768503996e-07,-4.5293816254031155e-07,-9.308419258232178e-08,-2.4461887528235803e-07,2.4872168125737533e-07,-1.039159820889334e-06,3.824485195065279e-08,-7.71145047517874e-07,-2.8927658074857976e-07,-6.425471661187794e-07,-2.414228082740064e-07,-3.895203072486371e-07,-8.52112283136673e-08,-7.075036388651718e-07,-7.843872767353231e-07,-1.4604822583082707e-06,-1.2021875438612808e-06,-7.811138563048117e-07
-1.7018422862446285e-07,-4.2762518204881776e-07,-6.627317280062276e-08,-2.355792794435122e-07,3.2553498812195577e-07,-1.0260897664665643e-06,3.47815983524022e-07,-7.02385735728542e-07,-1.8160982458028395e-07,-6.515188681008986e-07,-2.292911780373589e-07,-3.685327129793428e-07,-5.8699716705549095e-08,-6.901734815438822e-07,-7.547606947249506e-07,-1.4142412526066442e-06,-1.1818406385409098e-06,-7.580581614595476e-07
-1.4310705450564635e-07,-4.001082295446534e-07,-3.379653139866841e-08,-2.227804811937432e-07,4.0965027197080224e-07,-1.0140914589290296e-06,6.189486343971216e-07,-6.318365707515261e-07,-7.970159908491845e-08,-6.598370511443839e-07,-2.1814769348719143e-07,-3.524096941809437e-07,-3.293218783162495e-08,-6.753038994930926e-07,-7.284754642814392e-07,-1.3691222216534075e-06,-1.1633037435686836e-06,-7.36857494877764e-07
-1.133759725880838e-07,-3.7179388971514277e-07,8.017716744178294e-10,-2.0785635420783835e-07,4.968527542879971e-07,-1.0080185402178656e-06,8.353863896863643e-07,-5.673521598996921e-07,9.144998324619977e-09,-6.73264354053837e-07,-2.1046189447527874e-07,-3.4522791969573666e-07,-1.2321122693625368e-08,-6.661315034683291e-07,-7.085376915203034e-07,-1.327060014469916e-06,-1.1485231286775297e-06,-7.18584096860252e-07
-8.396665045292689e-08,-3.445485024798115e-07,3.2494957114343886e-08,-1.9325837232867096e-07,5.808338143088772e-07,-1.0124412434717932e-06,9.839540012358787e-07,-5.147028644245473e-07,7.911296893974858e-08,-6.961842845802912e-07,-2.078808527547071e-07,-3.4792366585616763e-07,-4.161782074460242e-10,-6.626255777607562e-07,-6.9749339003471e-07,-1.2882440387031615e-06,-1.1377602819573462e-06,-7.035827643790993e-07
-5.829194959723261e-08,-3.204070954581242e-07,5.58582375492397e-08,-1.8172125921292558e-07,6.55520354917636e-07,-1.0305498909936747e-06,1.0577899910482856e-06,-4.780485238817917e-07,1.271849000684167e-07,-7.306504643005539e-07,-2.1091056116578187e-07,-3.5816066411447407e-07,7.657259116262273e-10,-6.642536533789848e-07,-6.969963834356546e-07,-1.2516773137604926e-06,-1.1295402306567874e-06,-6.915121931532038e-07
-3.968568223978522e-08,-3.0120060587002973e-07,6.599897106171623e-08,-1.7573816611367084e-07,7.162430343696362e-07,-1.063501167748558e-06,1.0574701842505042e-06,-4.5738180394751473e-07,1.5346296174806776e-07,-7.765642560735094e-07,-2.193697157658836e-07,-3.721136240693465e-07,-9.251592999209707e-09,-6.691976316548495e-07,-7.079467634879259e-07,-1.2165798933757291e-06,-1.1222231070651e-06,-6.820920852793235e-07
-3.130776811152389e-08,-2.88614816791964e-07,5.939389236229285e-08,-1.774214166194413e-07,7.600036398047322e-07,-1.1108039976992884e-06,9.926395317429948e-07,-4.525366955953603e-07,1.6062252286105842e-07,-8.322987899817491e-07,-2.3298017360771107e-07,-3.86458229749831e-07,-2.9936218492550606e-08,-6.762172027048267e-07,-7.304410645532057e-07,-1.1841244638301363e-06,-1.1150383003267528e-06,-6.75625702679601e-07
-3.569079215722709e-08,-2.836418381854059e-07,3.4662093789373035e-08,-1.8814650276449146e-07,7.8785256588183e-07,-1.1699035613074693e-06,8.786386273053689e-07,-4.611515295337356e-07,1.5307795038763949e-07,-8.94921304661528e-07,-2.5144155294053585e-07,-3.991967026658967e-07,-5.966345651628848e-08,-6.852633706318054e-07,-7.631643298096189e-07,-1.1570079012788639e-06,-1.1079892697415443e-06,-6.728417494271315e-07
-5.390039064420737e-08,-2.8648218196379107e-07,-7.169637459627213e-09,-2.0818995655413325e-07,8.025700928523509e-07,-1.2367739232860667e-06,7.33838379258674e-07,-4.786241017289256e-07,1.3580811486214143e-07,-9.609187894614107e-07,-2.745508024097506e-07,-4.105131458083914e-07,-9.637295110022212e-08,-6.978697385134998e-07,-8.033251578462499e-07,-1.1388540423917574e-06,-1.1022055244077142e-06,-6.748379458943908e-07
-8.5386772981418e-08,-2.9665706966329453e-07,-6.304795681805126e-08,-2.3701988864652474e-07,8.066082995474899e-07,-1.3070995308127537e-06,5.751606252342705e-07,-5.029894716550361e-07,1.1269006528543762e-07,-1.0276417502721453e-06,-3.027450891852512e-07,-4.2381485133986985e-07,-1.3815428656290918e-07,-7.160126552524326e-07,-8.474736120890305e-07,-1.134208212465518e-06,-1.0999675206633271e-06,-6.832382176098549e-07
-1.2846117615493183e-07,-3.1342547177916465e-07,-1.2886101910604836e-07,-2.736579954290628e-07,7.998483604144384e-07,-1.3775599362791705e-06,4.159318481169732e-07,-5.334108280362214e-07,8.572679822551428e-08,-1.0937741540708158e-06,-3.3701527670944616e-07,-4.448387056352029e-07,-1.8438268481521292e-07,-7.429611211483732e-07,-8.922975158215491e-07,-1.1472840572910294e-06,-1.105031051696057e-06,-6.997503307625714e-07
-1.8046434268950916e-07,-3.360785957814883e-07,-2.0003132171634476e-07,-3.164063770745241e-07,7.826212044595249e-07,-1.4456701300623205e-06,2.655475111984986e-07,-5.701574544731673e-07,5.587300099861218e-08,-1.1584261445007525e-06,-3.7798922494699046e-07,-4.787678545278788e-07,-2.3483799650171e-07,-7.816523850972333e-07,-9.35099123592895e-07,-1.1802195816250715e-06,-1.1200070582073607e-06,-7.253274884542822e-07
-2.3793402391716028e-07,-3.6368034789399534e-07,-2.7200917944136076e-07,-3.627649618858788e-07,7.556104167263756e-07,-1.5092892364271712e-06,1.3127786958180384e-07,-6.139878604743149e-07,2.4083570143307805e-08,-1.220695101533743e-06,-4.253423098009647e-07,-5.282409941877368e-07,-2.8917248801331765e-07,-8.322198484014146e-07,-9.74366021555825e-07,-1.2325591155014531e-06,-1.145855721101196e-06,-7.599090142602301e-07
-2.974877253397283e-07,-3.9557743887845503e-07,-3.410760008783485e-07,-4.102409358674393e-07,7.230981905421006e-07,-1.5667858939102487e-06,2.0039110759392593e-08,-6.649830709170859e-07,-8.676841015405304e-09,-1.2802958204864251e-06,-4.780908347366773e-07,-5.931343189492383e-07,-3.4719210716952183e-07,-8.939839024953777e-07,-1.010013918749799e-06,-1.3019755087674913e-06,-1.182600409165351e-06,-8.025390610600952e-07
-3.5658778165597994e-07,-4.315636391209899e-07,-4.0459234925489916e-07,-4.569766191994571e-07,6.84872229265787e-07,-1.6169799619414377e-06,-6.29394803141623e-08,-7.225977890538754e-07,-4.118907393959779e-08,-1.3374077959180991e-06,-5.347520414534413e-07,-6.703983608134902e-07,-4.081392867241455e-07,-9.641797318435195e-07,-1.0425576645736513e-06,-1.3843231513179925e-06,-1.2279518927594882e-06,-8.51117803270687e-07
-4.1321859232391765e-07,-4.7103887529127585e-07,-4.603755503853847e-07,-5.014141614059861e-07,6.411776082106979e-07,-1.6584526084171306e-06,-1.133973011988958e-07,-7.83622016902421e-07,-7.126272819520417e-08,-1.3916274526549909e-06,-5.93078721199889e-07,-7.539496767292929e-07,-4.700313693673474e-07,-1.0365029974700498e-06,-1.0720517707528158e-06,-1.4736613875821018e-06,-1.2770042471081768e-06,-9.02356075331706e-07
-4.655497108425492e-07,-5.12889989344138e-07,-5.063651871021898e-07,-5.421534268134856e-07,5.954501859887257e-07,-1.689212024079464e-06,-1.2902230239068168e-07,-8.423420984384052e-07,-9.604458724158846e-08,-1.4419926131670918e-06,-6.505601857105082e-07,-8.36487478247282e-07,-5.301743663312399e-07,-1.1049502788419728e-06,-1.0981200237941781e-06,-1.5636719262671213e-06,-1.3244928150809836e-06,-9.527761314313021e-07
-5.126184248311231e-07,-5.558892996690329e-07,-5.417832406271375e-07,-5.7876700599576e-07,5.502104053283589e-07,-1.7079784431181332e-06,-1.1182975988542163e-07,-8.948221760968714e-07,-1.1412058848480866e-07,-1.4881228232651275e-06,-7.056586986321556e-07,-9.124121516243699e-07,-5.869294979491133e-07,-1.164835239138113e-06,-1.120656899393402e-06,-1.649660120152637e-06,-1.3674412979109454e-06,-9.9992271167041e-07
-5.549601276630591e-07,-5.992608408536385e-07,-5.677636217094308e-07,-6.122139985526067e-07,5.0818726953328e-07,-1.7151555003382004e-06,-6.910592543575499e-08,-9.400310690926273e-07,-1.26208306264891e-07,-1.5303980032832917e-06,-7.581792415120312e-07,-9.788530953127555e-07,-6.400883697388993e-07,-1.214097541610606e-06,-1.1399100629492077e-06,-1.7290848763628144e-06,-1.404724101867273e-06,-1.04253140711735e-06
-5.939290401189435e-07,-6.426542983277632e-07,-5.865595059060156e-07,-6.438925390779947e-07,4.7073292169362664e-07,-1.7124858584697512e-06,-1.2012963107407895e-08,-9.78667152967546e-07,-1.342836650993612e-07,-1.5688947973398434e-06,-8.084675242671487e-07,-1.0347501217589413e-06,-6.899353871002244e-07,-1.2528654996789863e-06,-1.1561010351230966e-06,-1.8007191665813514e-06,-1.4360681082743993e-06,-1.0801274231435019e-06
-6.306411951513098e-07,-6.857580872635798e-07,-6.005728731642411e-07,-6.745934974651666e-07,4.3857202782734937e-07,-1.7024042712981208e-06,4.7887347447248086e-08,-1.0116592208456706e-06,-1.4080114391932642e-07,-1.6031187529957059e-06,-8.569208764983339e-07,-1.0804354786687025e-06,-7.370972414954069e-07,-1.2822327038979927e-06,-1.1695528493309508e-06,-1.8644453605796133e-06,-1.4623465829840883e-06,-1.1130805388434831e-06
-6.659243327175136e-07,-7.283923575975489e-07,-6.120972172395564e-07,-7.045339983158469e-07,4.098905986273913e-07,-1.6881225648140178e-06,1.0106175974987902e-07,-1.0418808049554904e-06,-1.4842975087929723e-07,-1.6327174815117168e-06,-9.042220770038925e-07,-1.1178907496792625e-06,-7.82455181615893e-07,-1.3044745415174662e-06,-1.1810233369027177e-06,-1.92163592256955e-06,-1.4858660727509633e-06,-1.1426433785889944e-06
-7.0061042898374e-07,-7.708214418297133e-07,-6.233191771176817e-07,-7.336153666451941e-07,3.7871310938527567e-07,-1.673360897704765e-06,1.401805020475026e-07,-1.0726683372185404e-06,-1.5967071023192197e-07,-1.657614745110452e-06,-9.512664066444783e-07,-1.1498295090243393e-06,-8.267119310245043e-07,-1.322198315909568e-06,-1.1914092575555894e-06,-1.9742497736767964e-06,-1.5090283638458352e-06,-1.1702172584356515e-06
-7.351969373282231e-07,-8.134139196828513e-07,-6.352631838764572e-07,-7.611588864878252e-07,3.440890318537904e-07,-1.6612222084314222e-06,1.607053595563347e-07,-1.1062692641039112e-06,-1.7603355781506696e-07,-1.677406850288172e-06,-9.985619734037985e-07,-1.1781513949648492e-06,-8.69742422768599e-07,-1.338246547695604e-06,-1.2013010454462988e-06,-2.023610934133438e-06,-1.5328599596200242e-06,-1.1966332477041276e-06
-7.69682603342521e-07,-8.566340705211272e-07,-6.478190208673531e-07,-7.861465366768648e-07,3.057613858012861e-07,-1.6535475938081153e-06,1.6000194845930015e-07,-1.1434593744597142e-06,-1.9759882144295716e-07,-1.6915205029025541e-06,-1.0460853731294095e-06,-1.203783409849883e-06,-9.10568036874785e-07,-1.35206049696957e-06,-1.211115406168726e-06,-2.0702908739649888e-06,-1.5576107542029173e-06,-1.2222753108131658e-06
-8.043232608143559e-07,-9.001237073800637e-07,-6.604554948363767e-07,-8.083951645796724e-07,2.6437203035077216e-07,-1.6514416107195987e-06,1.3485866176845232e-07,-1.1834680686077635e-06,-2.2410851034820178e-07,-1.6999655758680766e-06,-1.0935231253403494e-06,-1.2271969173049914e-06,-9.482768504471711e-07,-1.3628826655742354e-06,-1.2211194537335604e-06,-2.1142718919656654e-06,-1.5847684435467895e-06,-1.2471593929365522e-06
-8.400296692795625e-07,-9.434797928715196e-07,-6.72499364858979e-07,-8.291033280394231e-07,2.2109604198653284e-07,-1.6552843878757229e-06,7.910656641994597e-08,-1.22453752590167e-06,-2.554100749883329e-07,-1.7030053250500073e-06,-1.1398920812172316e-06,-1.2476718843620202e-06,-9.817692129804537e-07,-1.3692052335704796e-06,-1.2306613055248257e-06,-2.1541237319357936e-06,-1.6120610859813918e-06,-1.2701912757076384e-06
-8.774931953528483e-07,-9.85905312534265e-07,-6.828735594585492e-07,-8.499795617160976e-07,1.7805160697630387e-07,-1.6638960034123431e-06,-1.4056750449025372e-08,-1.261793942825024e-06,-2.907486525471854e-07,-1.7002987722476928e-06,-1.1829043354011551e-06,-1.262476924549652e-06,-1.0089236268653642e-06,-1.366673274195843e-06,-1.23767395208717e-06,-2.1863651048160247e-06,-1.6347662712087963e-06,-1.2888104022901641e-06
-9.163717603985763e-07,-1.0255550302365372e-06,-6.897197935226823e-07,-8.724871962711155e-07,1.4057836938983756e-07,-1.674642416913073e-06,-1.4785144968510572e-07,-1.2894271083502316e-06,-3.2893795912164345e-07,-1.6915039531178986e-06,-1.2195006911660443e-06,-1.2683575926694657e-06,-1.0273812082841587e-06,-1.3516514868799566e-06,-1.2396807267270324e-06,-2.2069921445146806e-06,-1.6488369040340141e-06,-1.300173184251783e-06
-9.56088939043797e-07,-1.060545313154772e-06,-6.918457316612647e-07,-8.981894312980739e-07,1.1274637322032108e-07,-1.6842845703490416e-06,-3.224727871361496e-07,-1.3045640872577763e-06,-3.693531331402633e-07,-1.6779130470199127e-06,-1.2472174403444115e-06,-1.2641182906798479e-06,-1.0365610197277172e-06,-1.322662268691438e-06,-1.2353299072656897e-06,-2.213865626076203e-06,-1.6527120187662553e-06,-1.3027448431355513e-06
-9.967437297613764e-07,-1.089831735989399e-06,-6.897819314376018e-07,-9.288200615652934e-07,9.873353797677616e-08,-1.6913152910512483e-06,-5.329740400103e-07,-1.307957460097993e-06,-4.120802080711251e-07,-1.6626986364941585e-06,-1.2648119584723713e-06,-1.2511719522887225e-06,-1.0378708264228502e-06,-1.2810615375502091e-06,-1.224945849304788e-06,-2.2074052151960633e-06,-1.6481872055585882e-06,-1.2967388383177859e-06
-1.0386006791201232e-06,-1.1128479394403008e-06,-6.850255030264917e-07,-9.651091835427428e-07,9.921918899176926e-08,-1.6950340892918784e-06,-7.699798645248583e-07,-1.302424203936949e-06,-4.5692803919669183e-07,-1.6494120852239487e-06,-1.2720016146074958e-06,-1.2322329941336197e-06,-1.033771967470726e-06,-1.229415854913414e-06,-1.2102300536671235e-06,-2.189788144395483e-06,-1.6384684116578108e-06,-1.28379217290486e-06
-1.0811988437489127e-06,-1.1292924308672093e-06,-6.789874377079719e-07,-1.005815488841106e-06,1.123736034036969e-07,-1.6952835021422882e-06,-1.0217086074662873e-06,-1.2915762667059854e-06,-5.030723046756893e-07,-1.6405911699482803e-06,-1.269511967411012e-06,-1.2105508876171594e-06,-1.0271604507195966e-06,-1.1731827016515543e-06,-1.1939769912072097e-06,-2.164347340286841e-06,-1.6278056253418992e-06,-1.266760341816587e-06
-1.1234269358075319e-06,-1.139583211172408e-06,-6.731227029598473e-07,-1.048289432466e-06,1.3392580896197238e-07,-1.6932969194022552e-06,-1.2744533404719138e-06,-1.280689452563874e-06,-5.49331777060691e-07,-1.6371312836351951e-06,-1.2594004776966432e-06,-1.1896236516283646e-06,-1.020869363235181e-06,-1.1180820227268853e-06,-1.1795017150156903e-06,-2.135880705204528e-06,-1.6207732474456281e-06,-1.249077512711119e-06
-1.1639737532922202e-06,-1.1446858800819221e-06,-6.686801137645822e-07,-1.0895992726289732e-06,1.5675403400055125e-07,-1.691304896754184e-06,-1.5165281529879585e-06,-1.2752172207187556e-06,-5.94433376043204e-07,-1.6378345719200842e-06,-1.2445723948395193e-06,-1.1719875369116042e-06,-1.0169565768945142e-06,-1.0689926801780446e-06,-1.1693664862351164e-06,-2.108235713614636e-06,-1.6210662224758395e-06,-1.2332913558374306e-06
-1.20125864929351e-06,-1.1451701665352203e-06,-6.671445842450939e-07,-1.1270615293456272e-06,1.744157624625065e-07,-1.6915823850600235e-06,-1.7407185927515107e-06,-1.2787051569459922e-06,-6.36924509282169e-07,-1.6395272862351675e-06,-1.2277232118890912e-06,-1.1580943257338147e-06,-1.0161751549762101e-06,-1.0289361890888841e-06,-1.164491686512052e-06,-2.0836311676849116e-06,-1.6296762729793888e-06,-1.2201110235773976e-06
-1.2336293717435154e-06,-1.1419166196840673e-06,-6.694683398151969e-07,-1.1586220221606134e-06,1.825218740372913e-07,-1.6955510220653618e-06,-1.944390624826558e-06,-1.2914144348793412e-06,-6.755482602484312e-07,-1.638518549380569e-06,-1.2108703656240334e-06,-1.146874741203127e-06,-1.0182132464720432e-06,-9.98385795180203e-07,-1.1644629381225073e-06,-2.062923879188272e-06,-1.6459079562842154e-06,-1.2089380052630072e-06
-1.260110579026233e-06,-1.1356463638832562e-06,-6.758296211191698e-07,-1.1832829434260038e-06,1.7947583990586877e-07,-1.7038248857635598e-06,-2.127979417254424e-06,-1.3123445799332992e-06,-7.09840851662687e-07,-1.6321785171547323e-06,-1.1953616975729059e-06,-1.1368094677166966e-06,-1.0224145573880026e-06,-9.768975929247883e-07,-1.1680483975942165e-06,-2.046045155842585e-06,-1.6686272369898665e-06,-1.1988155617197166e-06
-1.2804358541368277e-06,-1.1269269624427654e-06,-6.852214583692631e-07,-1.2006883873050878e-06,1.6631228628414037e-07,-1.7156227325063375e-06,-2.294099474562735e-06,-1.3384763771455443e-06,-7.396984465408828e-07,-1.619178495984852e-06,-1.1817264159492523e-06,-1.1261100948953736e-06,-1.0277118033332055e-06,-9.627661694012703e-07,-1.1731209202114873e-06,-2.031845037703141e-06,-1.6954306445927245e-06,-1.1888548567896417e-06
-1.2941082303732563e-06,-1.116321601548716e-06,-6.94193051492522e-07,-1.2101446846764453e-06,1.4450116240008356e-07,-1.7287450628070162e-06,-2.4438101644885854e-06,-1.3656362925954797e-06,-7.647571735165734e-07,-1.5993960654701394e-06,-1.1695872092353827e-06,-1.1132823435226744e-06,-1.0325153816393827e-06,-9.52868741643214e-07,-1.1769209020980406e-06,-2.0181685545311215e-06,-1.7232658315818688e-06,-1.1787741009460415e-06
-1.3002553725129203e-06,-1.1039136782713114e-06,-6.986317576269198e-07,-1.2106966398267686e-06,1.1618332269024525e-07,-1.740437973738796e-06,-2.574323122701439e-06,-1.3908573376706187e-06,-7.847784378291132e-07,-1.5744985703780238e-06,-1.1584790200142159e-06,-1.0987892162607197e-06,-1.0356197847803133e-06,-9.446848333405789e-07,-1.1772705521908074e-06,-2.0033078059893766e-06,-1.750537445884907e-06,-1.1695784413898819e-06
-1.2988038076654737e-06,-1.090299837464162e-06,-6.947266510121782e-07,-1.202323698313175e-06,8.246078016411844e-08,-1.7487322319389693e-06,-2.6803958943730176e-06,-1.4130074537340789e-06,-7.999721248558696e-07,-1.547846213127025e-06,-1.148413801357798e-06,-1.0853711382938249e-06,-1.0369342111444133e-06,-9.375214862438956e-07,-1.1733580452895788e-06,-1.986597498369364e-06,-1.775569241109975e-06,-1.1629811804221539e-06
-1.2910204339115842e-06,-1.0765322510842942e-06,-6.812481908084445e-07,-1.1864856278765197e-06,4.4705441136913784e-08,-1.7524883946270225e-06,-2.7550060128638297e-06,-1.4319703611596625e-06,-8.102346113293012e-07,-1.522659419326128e-06,-1.1392455458324e-06,-1.0757060644437958e-06,-1.0365113963101877e-06,-9.305167587076951e-07,-1.1651915517084082e-06,-1.9675323032978e-06,-1.7980270556428594e-06,-1.1596082918732537e-06
-1.2785674192822655e-06,-1.063137559148965e-06,-6.590424082597783e-07,-1.165516016156241e-06,5.872975875889908e-09,-1.7505026717572918e-06,-2.7907708766245668e-06,-1.4463842081933672e-06,-8.145778719053113e-07,-1.5003620338000663e-06,-1.1299862153797103e-06,-1.0703581517599837e-06,-1.0338981408630666e-06,-9.215338729568705e-07,-1.1529747089476596e-06,-1.9444271817140426e-06,-1.8158720002713236e-06,-1.1582177668886615e-06
-1.2627883502412704e-06,-1.049254980082e-06,-6.299622290726955e-07,-1.1421353426859607e-06,-2.9767205178453596e-08,-1.7414701210969655e-06,-2.7834552979108938e-06,-1.4541518885061718e-06,-8.119841583735555e-07,-1.4809029519028138e-06,-1.1193374962345943e-06,-1.0683451430635384e-06,-1.0285656028984173e-06,-9.076565338770281e-07,-1.137287277334559e-06,-1.915214070092853e-06,-1.8268308412924885e-06,-1.1568084139568504e-06
-1.244976644846276e-06,-1.033678774368084e-06,-5.967109651691575e-07,-1.119295132031418e-06,-5.964828816235193e-08,-1.7249769763868956e-06,-2.7347637756180914e-06,-1.4542316968153749e-06,-8.027155119800459e-07,-1.4637400905535257e-06,-1.1065682883826794e-06,-1.068414953113924e-06,-1.0202665147844009e-06,-8.877048103697681e-07,-1.1190968819396459e-06,-1.8785978749159018e-06,-1.8308430164681018e-06,-1.153749299019995e-06
-1.2262150212356854e-06,-1.0153331324322625e-06,-5.614342553388122e-07,-1.0992442427417723e-06,-8.177415237610512e-08,-1.7014224410392036e-06,-2.6533732400701553e-06,-1.4468344738450236e-06,-7.881275117409229e-07,-1.447778576080774e-06,-1.0913861545821554e-06,-1.0689011790638235e-06,-1.0087280082474526e-06,-8.612489904523274e-07,-1.0989469428007811e-06,-1.8338028106342572e-06,-1.8277684089274755e-06,-1.1477094058257864e-06
-1.2065219899607046e-06,-9.931797059134952e-07,-5.247708911932786e-07,-1.0821884470262058e-06,-9.460389417444766e-08,-1.6715284184940965e-06,-2.552811820163436e-06,-1.432562175164257e-06,-7.697663265611363e-07,-1.4311876679912551e-06,-1.0736336115564348e-06,-1.0676909390186271e-06,-9.932684930913934e-07,-8.280510824575015e-07,-1.076491632458119e-06,-1.7804260211286596e-06,-1.817409419413794e-06,-1.1375608675029605e-06
-1.1847211901480875e-06,-9.666581829383515e-07,-4.860901505461587e-07,-1.0663429788467427e-06,-9.843802529815238e-08,-1.6363005350532397e-06,-2.4477479990293247e-06,-1.4131103133522729e-06,-7.494046556695758e-07,-1.412355989316499e-06,-1.0537148525289e-06,-1.0637284677341477e-06,-9.735692195405632e-07,-7.888503954748399e-07,-1.0511065165931927e-06,-1.7195064733345976e-06,-1.8010095921122067e-06,-1.1229912202874572e-06
-1.159699409187696e-06,-9.358334183836044e-07,-4.453439398982794e-07,-1.0494810747267873e-06,-9.583425613940454e-08,-1.5973558335044949e-06,-2.3505966967689012e-06,-1.3916316981388037e-06,-7.290325853126093e-07,-1.3908153379765531e-06,-1.032959972280977e-06,-1.0579777879057604e-06,-9.503838353050913e-07,-7.461105618971388e-07,-1.0224839945123759e-06,-1.654031851279277e-06,-1.781854154842352e-06,-1.1046801324656383e-06
-1.1314516621323875e-06,-9.019027306092714e-07,-4.041657271679865e-07,-1.0301898618860867e-06,-9.194148950226922e-08,-1.5565376038421214e-06,-2.2672244201087787e-06,-1.371784051258773e-06,-7.099782563562447e-07,-1.3668858230889583e-06,-1.0128736795914386e-06,-1.0522986657825346e-06,-9.250578291185273e-07,-7.026369658587024e-07,-9.904505378283446e-07,-1.5875453543917142e-06,-1.7626338679297394e-06,-1.0835876621551174e-06
-1.1005696862814246e-06,-8.664285792119237e-07,-3.6402928906983207e-07,-1.0081747310877927e-06,-9.1433309185417e-08,-1.5149628384567303e-06,-2.1946418527135693e-06,-1.3556966778795824e-06,-6.92111403726005e-07,-1.341242551137576e-06,-9.942001986600424e-07,-1.0482120902928445e-06,-8.989098844540518e-07,-6.603373224258906e-07,-9.548783105707497e-07,-1.5230676937221797e-06,-1.7451027129301274e-06,-1.0605705052574043e-06
-1.0681573570775715e-06,-8.307278453956128e-07,-3.265177583696804e-07,-9.8435492458486e-07,-9.708658889571388e-08,-1.4732449836123808e-06,-2.123113977577983e-06,-1.34421157435007e-06,-6.743726885288751e-07,-1.315290443325219e-06,-9.76990711673749e-07,-1.0470934920424846e-06,-8.733403273034424e-07,-6.211597990129436e-07,-9.161130947313197e-07,-1.4631219750895178e-06,-1.7307487412323635e-06,-1.0366898097372483e-06
-1.0358885754277432e-06,-7.961771528409255e-07,-2.930786608461356e-07,-9.606416716880978e-07,-1.0983224718408257e-07,-1.4320529698774965e-06,-2.041137914068925e-06,-1.3370692612557072e-06,-6.555005797744094e-07,-1.2910099363054473e-06,-9.61040791879905e-07,-1.0499814867744105e-06,-8.498316650064862e-07,-5.868584653208678e-07,-8.751192529570333e-07,-1.4093875817143234e-06,-1.7202720281420534e-06,-1.0131225004592115e-06
-1.0053095924016313e-06,-7.639671987906576e-07,-2.6401826624244403e-07,-9.389168662251512e-07,-1.2729751198702706e-07,-1.3918291507827212e-06,-1.9389664405371627e-06,-1.3325646285711882e-06,-6.338564713842253e-07,-1.2696434662793782e-06,-9.456536310283868e-07,-1.056303698007982e-06,-8.290352529678865e-07,-5.579087322078781e-07,-8.330643694450428e-07,-1.361805526999699e-06,-1.7129588185320411e-06,-9.90552784021242e-07
-9.770014658122388e-07,-7.345557137697371e-07,-2.3828516233329484e-07,-9.19759472214536e-07,-1.4631551798944242e-07,-1.3521668292888111e-06,-1.8108228995824157e-06,-1.3269493714044432e-06,-6.074660977467557e-07,-1.2509342857385246e-06,-9.296968746177782e-07,-1.0637200057297874e-06,-8.10358009192493e-07,-5.331549761165682e-07,-7.911401524948105e-07,-1.3184183856951532e-06,-1.706966804616348e-06,-9.690816382540271e-07
-9.506274410125709e-07,-7.075737227058921e-07,-2.142684590404714e-07,-9.023371341054653e-07,-1.632199353920783e-07,-1.3123833031701113e-06,-1.656397652303194e-06,-1.3170476337526774e-06,-5.751336961154308e-07,-1.2337370762711615e-06,-9.123894570878424e-07,-1.0696244611495771e-06,-7.927421839386276e-07,-5.10920565639178e-07,-7.507313123123128e-07,-1.2764961044911826e-06,-1.700512038493823e-06,-9.485986750403078e-07
-9.255238537612102e-07,-6.826555894432448e-07,-1.9076535483538046e-07,-8.850077364689013e-07,-1.7574630599787534e-07,-1.2720076970586383e-06,-1.4809050678348166e-06,-1.3017474526924602e-06,-5.369766978850239e-07,-1.2164813348181523e-06,-8.936918212106937e-07,-1.0721156520946306e-06,-7.750708319329398e-07,-4.897092290382842e-07,-7.131787088158152e-07,-1.233406904704161e-06,-1.6919451199475081e-06,-9.287350732101327e-07
-9.007407963319133e-07,-6.592848341353417e-07,-1.6649953867402134e-07,-8.656017258463675e-07,-1.8237060975830672e-07,-1.2310259746559253e-06,-1.2939170072428329e-06,-1.2805553516913964e-06,-4.939404576768287e-07,-1.19702056835893e-06,-8.738852560996085e-07,-1.0699402254249156e-06,-7.56153850997481e-07,-4.681680889286306e-07,-6.793396011029405e-07,-1.1869931582617255e-06,-1.6795796997713058e-06,-9.087503080304382e-07
-8.751219738829499e-07,-6.367993543865152e-07,-1.4050786651425508e-07,-8.421087783453263e-07,-1.8183614267375375e-07,-1.189634161304123e-06,-1.1083344861154614e-06,-1.2538491564506653e-06,-4.477322003757496e-07,-1.1733012900978847e-06,-8.533443625402415e-07,-1.0630955146544336e-06,-7.352611313767015e-07,-4.457565773052211e-07,-6.496968228447829e-07,-1.1364294853010706e-06,-1.6628282078657862e-06,-8.881201869688712e-07
-8.480877028995872e-07,-6.14923624281681e-07,-1.1130134226441753e-07,-8.137708115840043e-07,-1.747241795853574e-07,-1.148855822813984e-06,-9.401889723177599e-07,-1.2241102204878995e-06,-4.013633974416856e-07,-1.1448447206061597e-06,-8.327743165181409e-07,-1.0537633485216082e-06,-7.12827993763972e-07,-4.2355222791542443e-07,-6.2458723566282e-07,-1.0828337142232253e-06,-1.6429377797640744e-06,-8.670751789850015e-07
-8.202728683844644e-07,-5.937026467549025e-07,-8.001090017534789e-08,-7.819522328786491e-07,-1.6290142228335744e-07,-1.1108714377173934e-06,-8.06650782054863e-07,-1.194683027596425e-06,-3.5890540136948675e-07,-1.1132381311752405e-06,-8.129901947012048e-07,-1.0457089609403547e-06,-6.901447685103991e-07,-4.0334319645589464e-07,-6.038179365114923e-07,-1.0282983576262261e-06,-1.6217063977654672e-06,-8.461863976618271e-07
-7.915763092238869e-07,-5.732886094682103e-07,-4.81514716900081e-08,-7.494158579577885e-07,-1.4890665054525094e-07,-1.0777768549641244e-06,-7.237763494074161e-07,-1.16884676478148e-06,-3.242659903251479e-07,-1.0814177706586655e-06,-7.944106912093216e-07,-1.0427662241612464e-06,-6.686865822460246e-07,-3.865786791593616e-07,-5.863939444199678e-07,-9.750630594628871e-07,-1.6003713739769405e-06,-8.258786588244905e-07
-7.636869142877182e-07,-5.533486742180775e-07,-1.661120581447624e-08,-7.196614118122729e-07,-1.3387418050623384e-07,-1.0509789308959254e-06,-7.01933076765845e-07,-1.1485222336326853e-06,-3.0051663042408165e-07,-1.0530414006363718e-06,-7.772656099995403e-07,-1.0483029064960269e-06,-6.500953153615189e-07,-3.741733181146613e-07,-5.711879506364676e-07,-9.242297075359077e-07,-1.5804108744689157e-06,-8.06776355626223e-07
-7.403311798335281e-07,-5.336906486071957e-07,1.3166678235819784e-08,-6.961021958810225e-07,-1.1881226449060016e-07,-1.0314400944211104e-06,-7.42848828314501e-07,-1.1347719574900797e-06,-2.8975115884490586e-07,-1.0318091291559114e-06,-7.622194642805802e-07,-1.0649462641577642e-06,-6.36254699981077e-07,-3.6960338016889456e-07,-5.576043639746658e-07,-8.772196286192939e-07,-1.563892979326787e-06,-7.899053216693922e-07
-7.228549428090233e-07,-5.14720093807584e-07,3.9615436534003055e-08,-6.812129428290462e-07,-1.0527821243269707e-07,-1.0196024026040075e-06,-8.397960239327864e-07,-1.128964543866139e-06,-2.92502019605001e-07,-1.0200171871255794e-06,-7.50198673120625e-07,-1.0933783935781452e-06,-6.28549249949748e-07,-3.7399655527121406e-07,-5.452701996181465e-07,-8.351758912851678e-07,-1.5519045445672926e-06,-7.759485198012591e-07
-7.119329623325098e-07,-4.968795144290111e-07,5.741007078379915e-08,-6.753811709814109e-07,-9.410156935515398e-08,-1.014639381363381e-06,-9.773373653434505e-07,-1.1308475506082679e-06,-3.071020135822208e-07,-1.0175506649011998e-06,-7.417957387652909e-07,-1.1317175389593124e-06,-6.270653361257814e-07,-3.8656328044665527e-07,-5.336563839565229e-07,-7.975123778450516e-07,-1.5437561566106262e-06,-7.647381078852902e-07
-7.071925479028782e-07,-4.806393232054383e-07,6.823615826088445e-08,-6.766480550381494e-07,-8.562570854579622e-08,-1.014727100952034e-06,-1.1348931879778865e-06,-1.1394933488720938e-06,-3.302916208569839e-07,-1.0226155960993438e-06,-7.373181665223456e-07,-1.1768133636668866e-06,-6.309440634575727e-07,-4.0618644691339987e-07,-5.224733973543381e-07,-7.639944770450139e-07,-1.5384165524182097e-06,-7.558102990532151e-07
-7.064975527801219e-07,-4.664292684209059e-07,7.338684829061444e-08,-6.821251257680183e-07,-8.057575645808194e-08,-1.0181391455947722e-06,-1.2919990456538968e-06,-1.1539896583920257e-06,-3.5836987015554553e-07,-1.0328979905257866e-06,-7.370005020894679e-07,-1.2254941201746917e-06,-6.397361301453133e-07,-4.308931388655484e-07,-5.119204109407288e-07,-7.344437531050315e-07,-1.535290887105916e-06,-7.48791738541459e-07
-7.087126969209092e-07,-4.5442674983280903e-07,7.208846899943324e-08,-6.890010874897069e-07,-7.997031718536107e-08,-1.0234180489542424e-06,-1.432107072530809e-06,-1.1733281602269721e-06,-3.8741550842737537e-07,-1.0456195605194794e-06,-7.404545022962749e-07,-1.2741758413117576e-06,-6.515335648336812e-07,-4.582748485175331e-07,-5.020497732691465e-07,-7.081182989632173e-07,-1.532990923325888e-06,-7.428407499584839e-07
-7.127439251548595e-07,-4.449092654627169e-07,6.674826740153406e-08,-6.947996894542679e-07,-8.39978137943193e-08,-1.0298347392110294e-06,-1.5446218027179152e-06,-1.194105154918764e-06,-4.1325420844303554e-07,-1.0574632583925898e-06,-7.461124732935411e-07,-1.3186251876126962e-06,-6.634137867358128e-07,-4.84515324425141e-07,-4.923169000094311e-07,-6.8313489532771e-07,-1.5288149930157334e-06,-7.363675542933505e-07
-7.162206944651375e-07,-4.3725531893887884e-07,5.6580708982175944e-08,-6.977055201075818e-07,-9.11968037656546e-08,-1.0350271547491927e-06,-1.6252316958368093e-06,-1.211992657225123e-06,-4.322362812860394e-07,-1.0654301673952006e-06,-7.517032540312299e-07,-1.3551522970337399e-06,-6.728376757588099e-07,-5.059294101117936e-07,-4.820837835286137e-07,-6.570986716394126e-07,-1.5201792258330605e-06,-7.277424154262186e-07
-7.168133644565057e-07,-4.3026788318571674e-07,4.7543692092617196e-08,-6.970222687989951e-07,-9.964359647385197e-08,-1.036751467372831e-06,-1.6754247255913822e-06,-1.2231339347473935e-06,-4.420095492412893e-07,-1.0674853006725632e-06,-7.549292883858173e-07,-1.3814231638214893e-06,-6.77606508838703e-07,-5.192222102429146e-07,-4.7111013582552657e-07,-6.278772014723115e-07,-1.505586870519948e-06,-7.159073284324369e-07
-7.134479824352109e-07,-4.2270054507004545e-07,4.1559704729468044e-08,-6.926972250916582e-07,-1.0683386268385998e-07,-1.0333523949142366e-06,-1.6996633793629335e-06,-1.2236472138476685e-06,-4.4140668818466656e-07,-1.0621640304068756e-06,-7.536279829245617e-07,-1.395980853533649e-06,-6.764556373170498e-07,-5.228976392333693e-07,-4.5943789229269395e-07,-5.937498194775617e-07,-1.4849414625466859e-06,-7.003612302847825e-07
-7.053620182902757e-07,-4.1314605918514146e-07,3.990609596412673e-08,-6.845912536599078e-07,-1.1016067543993895e-07,-1.022906325618807e-06,-1.7031860450702946e-06,-1.2111731683239558e-06,-4.303639440144019e-07,-1.0485689714080954e-06,-7.461516767521473e-07,-1.3983739447170282e-06,-6.6942517180066e-07,-5.16806550365375e-07,-4.473263107845147e-07,-5.540588283963513e-07,-1.458972377240133e-06,-6.813317353970901e-07
-6.900730399166956e-07,-4.005736094726987e-07,4.3858403962299435e-08,-6.708604926139602e-07,-1.0817002210381328e-07,-1.0048792900852375e-06,-1.6908571216806456e-06,-1.1860640995002967e-06,-4.104872831993516e-07,-1.0272450569351052e-06,-7.322787743277208e-07,-1.3903153992295477e-06,-6.571220611253743e-07,-5.027058344962446e-07,-4.3535080864310835e-07,-5.096768664647563e-07,-1.430343067245109e-06,-6.601483628093585e-07
-6.710533238500845e-07,-3.8499131076853644e-07,4.3353811789777155e-08,-6.535117335729466e-07,-1.0126376098364319e-07,-9.804663270922399e-07,-1.6668531235407585e-06,-1.151820717495598e-06,-3.8504295715260293e-07,-1.0003343195492355e-06,-7.134745022615121e-07,-1.3757633579126784e-06,-6.413397246521122e-07,-4.849223820448583e-07,-4.240302598782742e-07,-4.6315838804888847e-07,-1.4027412509093488e-06,-6.389362249568519e-07
-6.490220428649822e-07,-3.6717055842505165e-07,3.927351561165712e-08,-6.331819667914004e-07,-9.143284266163671e-08,-9.518509543573161e-07,-1.6343075625947032e-06,-1.1137182510435104e-06,-3.577285633601524e-07,-9.705961831300696e-07,-6.920402335766139e-07,-1.359549714642182e-06,-6.247639301674948e-07,-4.6811651087649993e-07,-4.1332098093857773e-07,-4.1776631948386434e-07,-1.3790618255531506e-06,-6.198954787071035e-07
-6.384022403172846e-07,-3.4781604232929014e-07,3.372071855334859e-08,-6.106951252659052e-07,-7.988699747145327e-08,-9.214008212966272e-07,-1.594219912000885e-06,-1.0768937200930647e-06,-3.3171738706695214e-07,-9.408616144836201e-07,-6.703651156605546e-07,-1.3464738382092217e-06,-6.099064826287749e-07,-4.567386808042513e-07,-4.027988778845494e-07,-3.7674399925045983e-07,-1.3616451159688461e-06,-6.05027640498048e-07
-6.358838831300651e-07,-3.278201851150321e-07,2.7114567102577e-08,-5.870718355294332e-07,-6.855008397681856e-08,-8.921758540531238e-07,-1.5463000270554456e-06,-1.04630647240555e-06,-3.095470776528145e-07,-9.1420446033034e-07,-6.507350083454555e-07,-1.3408540354675242e-06,-5.99095219092538e-07,-4.5484858716431966e-07,-3.921262811243331e-07,-3.434480149543087e-07,-1.3521468200077924e-06,-5.958666160279938e-07
-6.233278495056301e-07,-3.0822789646156434e-07,2.4554250932943154e-08,-5.61528854783988e-07,-6.002839166969943e-08,-8.673028477368185e-07,-1.4897681232641762e-06,-1.0260502254592405e-06,-2.9284737685972107e-07,-8.93522884788168e-07,-6.349445785948925e-07,-1.3453019811485547e-06,-5.938936677202901e-07,-4.6407936777154965e-07,-3.811364588280561e-07,-3.1986741552863873e-07,-1.3503020783672126e-06,-5.926351128209496e-07
-6.044112270408775e-07,-2.8987840980143113e-07,1.2599929587269397e-08,-5.344587150268013e-07,-5.578070383827923e-08,-8.488416723638386e-07,-1.4233348735661725e-06,-1.0177721164060755e-06,-2.817390596767156e-07,-8.808152853579275e-07,-6.238128717212946e-07,-1.359733324078138e-06,-5.944091744002813e-07,-4.835919675183377e-07,-3.70204934072449e-07,-3.055150486146246e-07,-1.3535617310457714e-06,-5.938057514078118e-07
-5.820362619246877e-07,-2.7326781398996395e-07,7.945882521021534e-09,-5.07791224961573e-07,-5.518192474107525e-08,-8.378851495735892e-07,-1.3464897666717574e-06,-1.020959834386838e-06,-2.752629209350563e-07,-8.774056248192337e-07,-6.174214355605769e-07,-1.3819745870193377e-06,-5.998685354422728e-07,-5.105579120833118e-07,-3.614232812566696e-07,-2.982959089011081e-07,-1.3591366152696912e-06,-5.968037799131271e-07
-5.825219003190216e-07,-2.5910488603287856e-07,-2.8544017041683096e-09,-5.002399069319479e-07,-5.823612535715684e-08,-8.347752190775776e-07,-1.2615882615383907e-06,-1.0341449307215227e-06,-2.722415540060081e-07,-8.844512028402732e-07,-6.156151509815778e-07,-1.408575335401174e-06,-6.092915212927563e-07,-5.412850519479526e-07,-3.593731615007185e-07,-2.951383214447835e-07,-1.3650891102893754e-06,-5.98739961692496e-07
-6.059867098622773e-07,-2.4883235989551867e-07,-5.212798804161311e-08,-5.078539534684335e-07,-6.384755113327485e-08,-8.392570447277199e-07,-1.1752486031512951e-06,-1.0548646255559155e-06,-2.714224174847901e-07,-9.025290206221011e-07,-6.178477694640654e-07,-1.4345071983956373e-06,-6.220589255314959e-07,-5.715326835235567e-07,-3.705066868328117e-07,-2.926569009953909e-07,-1.3696804725412605e-06,-5.964201183679213e-07
-6.769926541869961e-07,-2.444599380710822e-07,-1.0530903526348371e-07,-5.423421064344531e-07,-6.982477612301421e-08,-8.501828824672124e-07,-1.098386428313627e-06,-1.0789280936779282e-06,-2.715299807317088e-07,-9.311045297789487e-07,-6.22955808456195e-07,-1.4534443094434078e-06,-6.375255583429687e-07,-5.96752378261964e-07,-4.0174769451828486e-07,-2.877582704704858e-07,-1.3713551540990817e-06,-5.86708135521185e-07
-7.654919160777059e-07,-2.479581508343692e-07,-1.4843270407870204e-07,-6.094981137759895e-07,-7.466363111429481e-08,-8.652862229447005e-07,-1.0457104359317674e-06,-1.101922855651321e-06,-2.719788832612989e-07,-9.68729152955971e-07,-6.297228987522562e-07,-1.4596586366285453e-06,-6.552163699212949e-07,-6.141660731206972e-07,-4.587581559341722e-07,-2.789154245858438e-07,-1.369963506603032e-06,-5.67803938471601e-07
-7.75132359292883e-07,-2.614388472880223e-07,-1.687738837886437e-07,-6.459351478100153e-07,-7.773863839341185e-08,-8.823623879922994e-07,-1.0346052853058441e-06,-1.1204425285102959e-06,-2.734507294474048e-07,-1.012823376029456e-06,-6.373982996556408e-07,-1.449601786897046e-06,-6.749970863389952e-07,-6.237944547103405e-07,-5.449332860113956e-07,-2.668491071884793e-07,-1.3672475701720553e-06,-5.402704743230562e-07
-7.96101075729828e-07,-2.8610209203333177e-07,-1.8680127187505577e-07,-6.706962450228209e-07,-8.013152374269107e-08,-8.989476545316418e-07,-1.081905479568019e-06,-1.1318620905454893e-06,-2.7764573266851777e-07,-1.0585820026464795e-06,-6.455523236688817e-07,-1.4221723690365183e-06,-6.962585720712368e-07,-6.288066529648675e-07,-6.547951984803566e-07,-2.5373714034422937e-07,-1.3659609146966406e-06,-5.071054412906304e-07
-8.467288467009439e-07,-3.213590343770327e-07,-2.107617998876661e-07,-7.209133345593103e-07,-8.43176614641588e-08,-9.125653239327805e-07,-1.1994370737684433e-06,-1.1345235284969846e-06,-2.8679864481482654e-07,-1.0989488092395275e-06,-6.540864411945629e-07,-1.379198439652197e-06,-7.175612358724941e-07,-6.336521349553265e-07,-7.75170629662266e-07,-2.4215172575082365e-07,-1.36882413311056e-06,-4.7330648084650523e-07
-9.74089173587908e-07,-3.64424480258054e-07,-2.686525831768864e-07,-8.001082330742705e-07,-9.407934886315836e-08,-9.219876000918774e-07,-1.3899736521956258e-06,-1.1291266964071223e-06,-3.036009165276802e-07,-1.1267872753035445e-06,-6.637094854534607e-07,-1.3261280796430481e-06,-7.375855866025102e-07,-6.433238152337713e-07,-8.893742852628551e-07,-2.342850429084626e-07,-1.3790561094492963e-06,-4.4475873754118115e-07
-1.1458753403263597e-06,-4.108128380138e-07,-3.067632762148435e-07,-8.851639183417446e-07,-1.1276659344315975e-07,-9.277921875309458e-07,-1.645304292001789e-06,-1.1185446856228046e-06,-3.304692830726571e-07,-1.137704072888257e-06,-6.758802541531627e-07,-1.2707495284929675e-06,-7.549556172004525e-07,-6.609766978533843e-07,-9.53878637745155e-07,-2.3122159563440025e-07,-1.397937003959348e-06,-4.2610541375794285e-07
-1.2411610445857853e-06,-4.555804844074418e-07,-3.145811664558559e-07,-9.375434550903431e-07,-1.4088843809110187e-07,-9.314258260382967e-07,-1.946704137708524e-06,-1.105203553538188e-06,-3.678939945798588e-07,-1.1318463406318413e-06,-6.915165792553274e-07,-1.2201548808369245e-06,-7.678580686541344e-07,-6.867051206872377e-07,-9.845386440006794e-07,-2.322771422057593e-07,-1.423232669770897e-06,-4.189565298323994e-07
-1.2865097776548993e-06,-4.945989073592575e-07,-3.4071278546742595e-07,-9.703715251908308e-07,-1.7435622110122688e-07,-9.342226652224565e-07,-2.267965689428558e-06,-1.0897355970519822e-06,-4.13692800031832e-07,-1.114349787857389e-06,-7.103232009396872e-07,-1.178696104858196e-06,-7.75497879067253e-07,-7.167659174391042e-07,-1.02146788140506e-06,-2.3566181243982005e-07,-1.4506169855857654e-06,-4.2201088652017663e-07
-1.3311846700123334e-06,-5.264563437583154e-07,-3.696731126568268e-07,-9.892820261988681e-07,-2.0650446557600988e-07,-9.373520551541413e-07,-2.5819860941695927e-06,-1.0729695250015594e-06,-4.6381084793462544e-07,-1.0939585407492974e-06,-7.313579279789049e-07,-1.1476228942716723e-06,-7.779197542368053e-07,-7.451149274421487e-07,-1.036533538522223e-06,-2.396203458070761e-07,-1.4753318751081057e-06,-4.3242699304242265e-07
-1.3850829242978415e-06,-5.520254341373172e-07,-3.7067069672251604e-07,-9.75772862024313e-07,-2.3083249667434475e-07,-9.421873314952758e-07,-2.8654516056784052e-06,-1.0547028231773662e-06,-5.133441697164437e-07,-1.0794821451884667e-06,-7.536435911350124e-07,-1.1251057531346137e-06,-7.75812024294244e-07,-7.657029553045046e-07,-1.011840138646248e-06,-2.433521282955508e-07,-1.493097080010815e-06,-4.469533035726145e-07
-1.3666311238496974e-06,-5.733830947653992e-07,-3.4226587230409215e-07,-9.338109113631661e-07,-2.4235374380543126e-07,-9.499739076700354e-07,-3.1003343981684188e-06,-1.0342995845749107e-06,-5.571645842697636e-07,-1.0758476666335796e-06,-7.762802774826095e-07,-1.106920370265953e-06,-7.701140247594579e-07,-7.726276082487724e-07,-9.714037250724726e-07,-2.470367804824967e-07,-1.5006624784098559e-06,-4.6276789345809044e-07
-1.3286399681477878e-06,-5.91998144610005e-07,-3.12622054893844e-07,-8.948945381852881e-07,-2.3850825353209805e-07,-9.611953208410855e-07,-3.274497721927901e-06,-1.0112209017593816e-06,-5.907938313139639e-07,-1.0821060603622611e-06,-7.985977806469891e-07,-1.0884789611377007e-06,-7.615229134880596e-07,-7.636402965563961e-07,-9.540494850520831e-07,-2.5186702431925105e-07,-1.497091623144678e-06,-4.782318273053209e-07
-1.3117889406539725e-06,-6.075017294636954e-07,-2.9217509729211526e-07,-8.740452502127289e-07,-2.2178962209598523e-07,-9.75070736413509e-07,-3.3807042900241546e-06,-9.85469998032718e-07,-6.110278286878258e-07,-1.0916732000787447e-06,-8.194526303369232e-07,-1.0666822433361257e-06,-7.504855184758394e-07,-7.407426801736458e-07,-9.55488946039999e-07,-2.5999073885641227e-07,-1.4837543649780358e-06,-4.927482111502471e-07
-1.2969589682636367e-06,-6.176500987461954e-07,-3.175847489986659e-07,-8.621772942700899e-07,-1.9756682735286966e-07,-9.887526196467932e-07,-3.415050479815686e-06,-9.565323771960495e-07,-6.158503608581757e-07,-1.0944411133421018e-06,-8.367419291711653e-07,-1.0402602244922125e-06,-7.3715983751377e-07,-7.076104330632356e-07,-9.654193000712006e-07,-2.72315453044156e-07,-1.4632672346498974e-06,-5.056917210117015e-07
-1.3033763722679459e-06,-6.185023170861247e-07,-2.991283810955789e-07,-8.549543149636869e-07,-1.7190217751868005e-07,-9.972315568076496e-07,-3.3764836381634053e-06,-9.225045135334931e-07,-6.045556446218227e-07,-1.081068221886513e-06,-8.475756162714519e-07,-1.0096561282033901e-06,-7.210487445857431e-07,-6.698382988594104e-07,-9.761271494897892e-07,-2.8791396390501655e-07,-1.4387552245579799e-06,-5.158662754457969e-07
-1.3135898533692214e-06,-6.066066406275155e-07,-2.79284923645134e-07,-8.411627607005153e-07,-1.497112127872514e-07,-9.950278826274976e-07,-3.268110780882435e-06,-8.829299526037925e-07,-5.78517476989926e-07,-1.0477616875662125e-06,-8.49460429201182e-07,-9.769870776842819e-07,-7.020969303463025e-07,-6.326450195983775e-07,-9.78347376547567e-07,-3.0475383064913624e-07,-1.4135980570609857e-06,-5.220565617151996e-07
-1.3056648827206632e-06,-5.808021700306726e-07,-2.8451426652240605e-07,-8.126299681104462e-07,-1.3280696420186614e-07,-9.783261282237104e-07,-3.0977024248157507e-06,-8.387431916592847e-07,-5.412920535699066e-07,-9.977585932146579e-07,-8.41547240673747e-07,-9.450030633532664e-07,-6.810208231164007e-07,-5.999306968850398e-07,-9.66508558893396e-07,-3.2043720716945435e-07,-1.390675123641462e-06,-5.236648430898007e-07
-1.2554216664839213e-06,-5.434828103979988e-07,-3.1882997183918387e-07,-7.775114852051102e-07,-1.1995320779122025e-07,-9.463005398492389e-07,-2.876925896470866e-06,-7.919899619339221e-07,-4.970840789818612e-07,-9.387126432622152e-07,-8.247407708908553e-07,-9.155413847220265e-07,-6.585722898053016e-07,-5.740694855612088e-07,-9.39770274169202e-07,-3.328340879422044e-07,-1.371648292996174e-06,-5.209732004411444e-07
-1.1797237273250414e-06,-4.988174074888064e-07,-3.3648937403462763e-07,-7.183201142621747e-07,-1.0810097278735514e-07,-9.008901308233075e-07,-2.6199367469170125e-06,-7.454587046656923e-07,-4.5034483255516736e-07,-8.791313985025668e-07,-8.014071043054362e-07,-8.892770964926611e-07,-6.358681470047589e-07,-5.559141172671652e-07,-9.013339370811606e-07,-3.4083862787358237e-07,-1.3576846237698436e-06,-5.153378804570743e-07
-1.0987891276628533e-06,-4.5196981955494054e-07,-2.7678860738612405e-07,-6.493182830650697e-07,-9.514071560895585e-08,-8.464609664231789e-07,-2.3422060085031164e-06,-7.024652438707067e-07,-4.0487502691963126e-07,-8.259396386330343e-07,-7.74926019475983e-07,-8.663463212552604e-07,-6.140762875659656e-07,-5.455608713559645e-07,-8.566775431987488e-07,-3.44772808936506e-07,-1.35045505787323e-06,-5.089104835709398e-07
-1.0237700778934385e-06,-4.081046202080551e-07,-1.7798363397643672e-07,-5.865518150606356e-07,-8.07192541333702e-08,-7.888623712020923e-07,-2.0589906252305677e-06,-6.661037348728514e-07,-3.6292827752992777e-07,-7.829166325302091e-07,-7.48845232654061e-07,-8.46333108245005e-07,-5.941131030508628e-07,-5.423828956646858e-07,-8.112572660577534e-07,-3.454836916434244e-07,-1.3502295108062762e-06,-5.036251081318528e-07
-9.6964996518482e-07,-3.702268276174407e-07,-1.121897398683415e-07,-5.331695871035222e-07,-6.580432114528274e-08,-7.33637881804739e-07,-1.7819976905102077e-06,-6.384047901372463e-07,-3.254902546545281e-07,-7.504468842602919e-07,-7.259128812650647e-07,-8.283452195472214e-07,-5.769459437913167e-07,-5.453186760193061e-07,-7.690516916693847e-07,-3.437945012186455e-07,-1.35614349341236e-06,-5.005467463924909e-07
-9.121547780659359e-07,-3.401818793540665e-07,-5.3809798395532654e-08,-4.871354500709313e-07,-5.199729079413617e-08,-6.853303579324682e-07,-1.520711934950072e-06,-6.207942790249165e-07,-2.9272790407354233e-07,-7.270623353368481e-07,-7.080730680426407e-07,-8.120898359189224e-07,-5.636750108578118e-07,-5.528866268141245e-07,-7.325767798123102e-07,-3.4070574281838804e-07,-1.3674409199912243e-06,-5.00199218615719e-07
-8.547304333090139e-07,-3.1878730607789043e-07,1.6561144181671353e-08,-4.4942735109162265e-07,-4.1256921856071995e-08,-6.471545519939071e-07,-1.281584108924498e-06,-6.141907530938622e-07,-2.6482705814123734e-07,-7.110277792630234e-07,-6.967550750609216e-07,-7.98221715500438e-07,-5.552983046110241e-07,-5.643119307675289e-07,-7.031959462765942e-07,-3.3730351202728014e-07,-1.3833339978433305e-06,-5.02761284874925e-07
-8.025230486359015e-07,-3.058994306658676e-07,6.787896858272647e-08,-4.1900179518487704e-07,-3.53509183437598e-08,-6.203332359589512e-07,-1.0676656449558757e-06,-6.181173142285909e-07,-2.4184020018730936e-07,-7.003998963530504e-07,-6.923903466431617e-07,-7.869275634929969e-07,-5.521696183103335e-07,-5.782604747155585e-07,-6.809069391580945e-07,-3.3377488405227616e-07,-1.40201380902932e-06,-5.075990248052497e-07
-7.727605283376424e-07,-3.006655468483843e-07,8.528586947184332e-08,-3.874624719159741e-07,-3.417204681637094e-08,-6.045179616188979e-07,-8.793878062831875e-07,-6.301128407221495e-07,-2.2327814009207203e-07,-6.928260971362845e-07,-6.941531902044134e-07,-7.770940739906676e-07,-5.533745920788786e-07,-5.918592006770284e-07,-6.644836922709641e-07,-3.2898557021782776e-07,-1.4206682053774461e-06,-5.133497695934486e-07
-7.607966382316268e-07,-3.0167524534743893e-07,7.764802721378307e-08,-3.696901009247548e-07,-3.6300760991537276e-08,-5.980884957004422e-07,-7.156474622619047e-07,-6.470828613802692e-07,-2.0854921091704236e-07,-6.863857173009799e-07,-7.007559508209044e-07,-7.675290882989922e-07,-5.573385416177948e-07,-6.028203140937572e-07,-6.523260961180576e-07,-3.219081567311364e-07,-1.437015386773032e-06,-5.189377689749002e-07
-7.555054093445266e-07,-3.077139116548525e-07,8.200085643107717e-08,-3.5988812864450156e-07,-4.081721286571062e-08,-5.99076084491758e-07,-5.763009091967123e-07,-6.66980285204836e-07,-1.9773083847014376e-07,-6.801203037531592e-07,-7.110026456086313e-07,-7.579519449113417e-07,-5.62772807896281e-07,-6.10135595307582e-07,-6.428371923110462e-07,-3.1262987498454253e-07,-1.4501062609668895e-06,-5.24034350406367e-07
-7.5457782599669e-07,-3.1781969680569925e-07,9.051592159765114e-08,-3.519221384291528e-07,-4.691946619371889e-08,-6.054918421967495e-07,-4.6272918555463836e-07,-6.876258342418945e-07,-1.9112641553857559e-07,-6.731653175314347e-07,-7.233574828927862e-07,-7.480890519972812e-07,-5.682099130239592e-07,-6.130164225748813e-07,-6.339585519619645e-07,-3.0164802749579765e-07,-1.4593709466229328e-06,-5.28384668360694e-07
-7.507571958608543e-07,-3.308351728380962e-07,1.0081605348177987e-07,-3.4758464510774186e-07,-5.26638678389361e-08,-6.145681791664792e-07,-3.7695068356073945e-07,-7.058261405233953e-07,-1.884063931218727e-07,-6.640589235929841e-07,-7.354209081980547e-07,-7.368739979417743e-07,-5.716346961336635e-07,-6.102945188491701e-07,-6.231538982204639e-07,-2.891599541445694e-07,-1.463831062896817e-06,-5.313573140441799e-07
-7.504969881163054e-07,-3.4502836969319496e-07,1.1703700203918687e-07,-3.4496138118692764e-07,-5.589349578702223e-08,-6.231888751549532e-07,-3.203520233043049e-07,-7.184502828420037e-07,-1.889205230202652e-07,-6.514578237091112e-07,-7.445595588807135e-07,-7.232692470020452e-07,-5.710774122558327e-07,-6.007957877276543e-07,-6.083816965240173e-07,-2.751839923210583e-07,-1.4629899079454268e-06,-5.323515970087825e-07
-7.533504642875181e-07,-3.5864233475067224e-07,1.3926070991135813e-07,-3.4415236120259446e-07,-5.489591475633668e-08,-6.292522631364591e-07,-2.936388278921753e-07,-7.23091101186912e-07,-1.9203376974803117e-07,-6.348408900050154e-07,-7.48662649531051e-07,-7.070229998767327e-07,-5.653856568849681e-07,-5.844529741198934e-07,-5.889340214933315e-07,-2.5984322508855436e-07,-1.4570412740484547e-06,-5.310907816998027e-07
-7.571041431024199e-07,-3.7040998304953373e-07,1.6761065352844685e-07,-3.4549595152011396e-07,-4.816944867649371e-08,-6.307766194590447e-07,-2.956481345881206e-07,-7.179554299636825e-07,-1.967902159727941e-07,-6.141847298822218e-07,-7.461711913148331e-07,-6.881990314807181e-07,-5.541256041042523e-07,-5.617919441727001e-07,-5.655516910380217e-07,-2.432365641975729e-07,-1.4462636102725082e-06,-5.275003839377501e-07
-7.560367910553206e-07,-3.7902852563461564e-07,2.0127361780784568e-07,-3.496306698534963e-07,-3.457309888309928e-08,-6.263339031292317e-07,-3.212196298899911e-07,-7.013194177266048e-07,-2.0199607023180006e-07,-5.89865330955489e-07,-7.363060809024995e-07,-6.669374367853162e-07,-5.375265624891276e-07,-5.337672708239836e-07,-5.403335252391458e-07,-2.2575172572995725e-07,-1.4315153621298915e-06,-5.219080991626354e-07
-7.503996482217298e-07,-3.8402354747607637e-07,2.360004195355293e-07,-3.51099921694439e-07,-1.4148201204957135e-08,-6.157729790228489e-07,-3.6256401577370546e-07,-6.74575818625939e-07,-2.0664967798120734e-07,-5.632428053979313e-07,-7.197285073081051e-07,-6.43973819694288e-07,-5.167358289295882e-07,-5.021708304906565e-07,-5.163448216528029e-07,-2.0860630699334752e-07,-1.414943007931689e-06,-5.153403800304421e-07
-7.429593540123058e-07,-3.856548025499603e-07,2.702321086422098e-07,-3.5057133773024005e-07,1.1584001198930992e-08,-6.008113676228389e-07,-4.109548198621005e-07,-6.41556648077567e-07,-2.1027227958816234e-07,-5.364872016817028e-07,-6.984861565686128e-07,-6.203994536638486e-07,-4.936400698865614e-07,-4.6949746266899077e-07,-4.965295417076477e-07,-1.9374064032364979e-07,-1.3989733827644958e-06,-5.090942355111445e-07
-7.344714672302452e-07,-3.846251782736168e-07,3.043976471728524e-07,-3.4901502055989156e-07,4.079049498983405e-08,-5.832152586198395e-07,-4.521616106068709e-07,-6.065691662322073e-07,-2.1240562985095945e-07,-5.115552628304222e-07,-6.750181451554212e-07,-5.967590618713328e-07,-4.6993474818312084e-07,-4.3794245233474887e-07,-4.826494779283643e-07,-1.8201290892125647e-07,-1.3852182946254137e-06,-5.041421080697933e-07
-7.267705607854629e-07,-3.8146119124676347e-07,3.3653427745368717e-07,-3.4518859009207667e-07,7.13684325650324e-08,-5.64384579769729e-07,-4.73935257903908e-07,-5.736157431157286e-07,-2.1229693894834738e-07,-4.899455637134924e-07,-6.515990416244284e-07,-5.732569898872927e-07,-4.471579229039465e-07,-4.096609825019531e-07,-4.752222685861983e-07,-1.7450429204426328e-07,-1.3750870207879491e-06,-5.013228728515901e-07
-7.198710997458904e-07,-3.768789019701808e-07,3.601456990328477e-07,-3.401685175717895e-07,1.0152665806067703e-07,-5.459769085358942e-07,-4.6667578889277687e-07,-5.464383880884257e-07,-2.095600360070441e-07,-4.731607855394837e-07,-6.305234854262475e-07,-5.506266493978322e-07,-4.2717187023120636e-07,-3.872567790399899e-07,-4.7393597951251994e-07,-1.72025220332928e-07,-1.370274603519274e-06,-5.016427911995157e-07
-7.143835385415833e-07,-3.719773124534029e-07,3.7676416669905583e-07,-3.3449777858903695e-07,1.2878816658954117e-07,-5.29012210348591e-07,-4.262328647198417e-07,-5.284956763577392e-07,-2.0433477881545257e-07,-4.6237153411991613e-07,-6.13825456289288e-07,-5.297349262047904e-07,-4.114783569720364e-07,-3.729341161266036e-07,-4.776614067788202e-07,-1.7484982515030272e-07,-1.3715554527794286e-06,-5.057745252884717e-07
-7.113669518861465e-07,-3.677301955209825e-07,3.87621350828949e-07,-3.2874238857917127e-07,1.5135265679779083e-07,-5.153503662441199e-07,-3.5273605914876616e-07,-5.210457286281653e-07,-1.9681305307493784e-07,-4.5769219361190674e-07,-6.026749059420504e-07,-5.105573876244546e-07,-4.0072427864914425e-07,-3.671703893615545e-07,-4.845417640727546e-07,-1.8253562159579778e-07,-1.3779199538893615e-06,-5.135553296919534e-07
-7.111717413529423e-07,-3.6476350830781004e-07,3.9255547736469863e-07,-3.235559203375935e-07,1.6912338092860328e-07,-5.057402824588875e-07,-2.4994051599176593e-07,-5.238532130037494e-07,-1.871540189056367e-07,-4.5848915206691816e-07,-5.974579152802952e-07,-4.92364144185983e-07,-3.947443513303924e-07,-3.688209756779369e-07,-4.926621934758814e-07,-1.9408515582341906e-07,-1.3875253257561816e-06,-5.242877962641688e-07
-7.140664294621511e-07,-3.6360755098347107e-07,3.9509234945126074e-07,-3.1971207122344665e-07,1.823890003838432e-07,-5.002097399456502e-07,-1.2536999499501502e-07,-5.35486896066719e-07,-1.764227201164063e-07,-4.6396513990566683e-07,-5.981199872302211e-07,-4.742977469882415e-07,-3.928428114984266e-07,-3.7560574328923605e-07,-5.004010624726007e-07,-2.082000179129132e-07,-1.3983858511051969e-06,-5.3692513317694e-07
-7.2033748470478e-07,-3.652377612001144e-07,3.9579802981852603e-07,-3.1801771376464417e-07,1.9177815440869638e-07,-4.984515763974436e-07,1.2464761501582318e-08,-5.53101282358082e-07,-1.6503407753259987e-07,-4.7262256058947524e-07,-6.038146869349022e-07,-4.5476437655857696e-07,-3.935436678198162e-07,-3.840308474095806e-07,-5.058984727191626e-07,-2.2222184234393307e-07,-1.4073409030459e-06,-5.495712961140486e-07
-7.294238333973702e-07,-3.694410054167415e-07,3.9379197992871034e-07,-3.1848066905199895e-07,1.9930462714374636e-07,-4.987545756150879e-07,1.5427555110356654e-07,-5.720264664912419e-07,-1.5250610352794945e-07,-4.816158912752763e-07,-6.126953877201542e-07,-4.3095058064497516e-07,-3.9438624137329255e-07,-3.890247924233456e-07,-5.067915743345168e-07,-2.330496882343473e-07,-1.4100392177191309e-06,-5.595456524931713e-07
-7.395128277549769e-07,-3.7523404160909716e-07,3.91922289489416e-07,-3.202609028257447e-07,2.080840625005526e-07,-4.985820956258848e-07,2.932323370475306e-07,-5.870488433505798e-07,-1.380340523311002e-07,-4.874245410584825e-07,-6.224840713449975e-07,-4.0006757730700996e-07,-3.9262643591028966e-07,-3.86061674364715e-07,-5.00960478672686e-07,-2.3730017090660628e-07,-1.4030307573326781e-06,-5.6461299221193e-07
-7.487219810362853e-07,-3.816508527361616e-07,3.938627866155692e-07,-3.223470897699893e-07,2.2026167457035421e-07,-4.95213171283647e-07,4.243666462401566e-07,-5.94496946044776e-07,-1.2085575955311832e-07,-4.868626004889901e-07,-6.311736181795581e-07,-3.6076175128681505e-07,-3.8597850032681774e-07,-3.725638893933937e-07,-4.872393341364779e-07,-2.3295755261492612e-07,-1.385129725631119e-06,-5.639373882328574e-07
-7.554927034382668e-07,-3.8793537969668157e-07,4.0003544823000563e-07,-3.2383841384632846e-07,2.3679563122028223e-07,-4.864074991546188e-07,5.44721737347044e-07,-5.917821728406604e-07,-1.005581738075481e-07,-4.772283383054033e-07,-6.369896212710036e-07,-3.1296519217975866e-07,-3.730729925675331e-07,-3.476992750280762e-07,-4.653943579572128e-07,-2.1954187386551683e-07,-1.3568861483913354e-06,-5.578648761273829e-07
-7.585609380459357e-07,-3.9338752918034865e-07,4.1096129162256016e-07,-3.2380697185736697e-07,2.579889276564831e-07,-4.6996149009519476e-07,6.534658200219031e-07,-5.773779517546593e-07,-7.687182901320411e-08,-4.566159299342901e-07,-6.383070916891766e-07,-2.5749286747982017e-07,-3.531474178875389e-07,-3.119868419871771e-07,-4.3613846226832513e-07,-1.973673020928981e-07,-1.320114446870341e-06,-5.475002188487106e-07
-7.572704753070938e-07,-3.974015348004099e-07,4.2622781861907796e-07,-3.216171624503948e-07,2.831628367094907e-07,-4.4514579705297454e-07,7.50932668070812e-07,-5.520956651575469e-07,-5.0278251594364686e-08,-4.251117870459334e-07,-6.342489570573172e-07,-1.965780228903822e-07,-3.264625571306344e-07,-2.675575824412549e-07,-4.015025122700883e-07,-1.6797398738867642e-07,-1.2780240874496679e-06,-5.346234206734693e-07
-7.519684736485257e-07,-4.0000548064913837e-07,4.439917554983353e-07,-3.172842448615572e-07,3.1056835518437845e-07,-4.1308669500149504e-07,8.343387904005205e-07,-5.187822450154534e-07,-2.1958312753015318e-08,-3.8534177701284094e-07,-6.250305869454326e-07,-1.338555459262279e-07,-2.939890904378441e-07,-2.1838974014154412e-07,-3.6477414717235555e-07,-1.3401601675443592e-07,-1.2344244023441452e-06,-5.212850168204995e-07
-7.438077712204953e-07,-4.014787992458741e-07,4.6243934768456056e-07,-3.110897626970213e-07,3.3887051164523774e-07,-3.773833629274801e-07,9.052767403959457e-07,-4.810926410039945e-07,6.475278284606987e-09,-3.415631393195264e-07,-6.115139424225879e-07,-7.308842178265033e-08,-2.582370227707674e-07,-1.6866775393299476e-07,-3.299254861579751e-07,-9.894734392882723e-08,-1.1924854499889805e-06,-5.092065522903469e-07
-7.341665947796781e-07,-4.0226525196360823e-07,4.800921611876191e-07,-3.0342827871985737e-07,3.664855364406269e-07,-3.406323348799465e-07,9.645758223940023e-07,-4.42729835514417e-07,3.339426550571305e-08,-2.9877427078267417e-07,-5.949815746577807e-07,-1.7484609345590778e-08,-2.2196634017197956e-07,-1.2226494928647622e-07,-3.0119978459039333e-07,-6.619061542201886e-08,-1.1552792553746977e-06,-4.998562304448382e-07
-7.247751981180202e-07,-4.0323552747974287e-07,4.944251682403317e-07,-2.9538965254046897e-07,3.9164287360874656e-07,-3.0619872335636826e-07,1.0113599939307471e-06,-4.081668056574239e-07,5.686833050055445e-08,-2.6248515848156097e-07,-5.776049646256688e-07,2.984613201192804e-08,-1.8840102726753518e-07,-8.307786096815778e-08,-2.8266216370258564e-07,-3.938005587283533e-08,-1.126118211351843e-06,-4.9478941534623e-07
-7.180264082933923e-07,-4.0525585520813523e-07,5.042539332750742e-07,-2.889432468808594e-07,4.120300175584644e-07,-2.7861779609358644e-07,1.0446311482794608e-06,-3.8265013513198236e-07,7.43422965053045e-08,-2.3785373300490558e-07,-5.622191108949468e-07,6.611607716495696e-08,-1.611054734004372e-07,-5.452625159214686e-08,-2.771883052218495e-07,-2.1633977876573264e-08,-1.1073278863782511e-06,-4.952498609645301e-07
-7.160528004065209e-07,-4.089703347548438e-07,5.070188297370226e-07,-2.8603012803800347e-07,4.261801431978916e-07,-2.6104278413839227e-07,1.0616773463914564e-06,-3.7031274371481135e-07,8.355558068093653e-08,-2.2816538853286944e-07,-5.512882919492278e-07,8.991483214341538e-08,-1.4250467851753484e-07,-3.812701314300555e-08,-2.8555782212783174e-07,-1.5209129823153982e-08,-1.0989746917472162e-06,-5.015268553620877e-07
-7.198540404652297e-07,-4.143955852168348e-07,5.016114928734228e-07,-2.877260271080492e-07,4.3432751329968754e-07,-2.5534426029493587e-07,1.0606377207785271e-06,-3.7280058476453496e-07,8.331847670054158e-08,-2.3423070471676948e-07,-5.463142048652765e-07,1.0137508642724346e-07,-1.3365148446797664e-07,-3.3328835843567217e-08,-3.0646386666598326e-07,-2.0528844011415014e-08,-1.0992207871697282e-06,-5.129966299133001e-07
-7.295891860215863e-07,-4.214267813222745e-07,4.888692811330254e-07,-2.943404164889883e-07,4.37456400335346e-07,-2.609659334401514e-07,1.0423061700290525e-06,-3.893809753695468e-07,7.375324521891768e-08,-2.546678210609342e-07,-5.478056526548022e-07,1.0170496499169175e-07,-1.341364842482924e-07,-3.815794834876257e-08,-3.368058416687933e-07,-3.653363716542959e-08,-1.1049992659868537e-06,-5.282910838812993e-07
-7.447875131819018e-07,-4.2989621875898657e-07,4.696056285710781e-07,-3.0554917879276044e-07,4.369934118322961e-07,-2.7505353176908094e-07,1.011596839319729e-06,-4.169769733422088e-07,5.5329129083197505e-08,-2.8584497153982755e-07,-5.550475336453567e-07,9.358065843762468e-08,-1.420681502361022e-07,-4.8848288039769104e-08,-3.7163890549091977e-07,-6.063417899469355e-08,-1.1116580167086445e-06,-5.450067235229347e-07
-7.637499855841319e-07,-4.3904534586797214e-07,4.461424431879479e-07,-3.2007606958667e-07,4.3524133183753166e-07,-2.925046757674064e-07,9.758565450951795e-07,-4.498040055205685e-07,3.23257906231763e-08,-3.2198529752013765e-07,-5.65990033705699e-07,8.143341192659279e-08,-1.5358499646832896e-07,-5.980708923430795e-08,-4.046149906555204e-07,-8.819685537504722e-08,-1.1134677447873094e-06,-5.599270655438997e-07
-7.836392495047058e-07,-4.4784461759111633e-07,4.215169309973875e-07,-3.3577153214548727e-07,4.3521139856401407e-07,-3.0736410531072565e-07,9.449608229962313e-07,-4.810461324726305e-07,1.012581634354112e-08,-3.56508971113153e-07,-5.779315754877885e-07,7.00615466488774e-08,-1.6412928863113376e-07,-6.557640934653505e-08,-4.2947605945433773e-07,-1.1452053050482715e-07,-1.1060522988924168e-06,-5.702945680508328e-07
-8.016793905016469e-07,-4.55286126919023e-07,3.9820054233311234e-07,-3.5088430395243706e-07,4.3933268698733163e-07,-3.1421369278238756e-07,9.275881081982784e-07,-5.050328321941065e-07,-6.851594672115307e-09,-3.836203620992444e-07,-5.883596258797078e-07,6.304530633985568e-08,-1.699096156925985e-07,-6.258257980879471e-08,-4.415157098879463e-07,-1.3589903985194092e-07,-1.0881357274973387e-06,-5.747913813380553e-07
-8.159051733185444e-07,-4.60846669579959e-07,3.776411524808914e-07,-3.6394507587002433e-07,4.4855379449552367e-07,-3.0907669853613564e-07,9.27980421375274e-07,-5.176453970354712e-07,-1.5100801747749387e-08,-3.9888430081995247e-07,-5.950643680805194e-07,6.284636506627811e-08,-1.680268576205756e-07,-4.9202820038711665e-08,-4.3814727181191913e-07,-1.4972158100983115e-07,-1.060848031388303e-06,-5.733483379260165e-07
-8.251925634559307e-07,-4.6421637388111865e-07,3.614507528647754e-07,-3.738549679413873e-07,4.631249837904277e-07,-2.9020755112307395e-07,9.465240401009787e-07,-5.164778180781844e-07,-1.2764327346973073e-08,-3.996258447005703e-07,-5.961827901628444e-07,7.136819784644501e-08,-1.5683911542331484e-07,-2.529833838557364e-08,-4.191450032231202e-07,-1.545360956470901e-07,-1.026651499071108e-06,-5.667077885638226e-07
-8.291282922080598e-07,-4.6512289000103605e-07,3.509332801292946e-07,-3.797314355358292e-07,4.828320158944363e-07,-2.5841451740681576e-07,9.805316722358215e-07,-5.017009495469736e-07,-7.491477444911051e-10,-3.85833248681858e-07,-5.908050127982282e-07,8.946395987240081e-08,-1.3641314219949913e-07,7.483874385855247e-09,-3.867851763055831e-07,-1.505330661091213e-07,-9.888630223237875e-07,-5.563012123046784e-07
-8.280360835595534e-07,-4.6341986170345676e-07,3.4635929425409736e-07,-3.811766663949506e-07,5.068450198239298e-07,-2.1676373113974463e-07,1.024601282951285e-06,-4.762553274225721e-07,1.992457121142974e-08,-3.6025284270795935e-07,-5.793070193665737e-07,1.1650348202290123e-07,-1.0871868359604921e-07,4.6130008433924284e-08,-3.4522620032538385e-07,-1.3924384581906116e-07,-9.506220691628276e-07,-5.438428018396712e-07
-8.225858400223704e-07,-4.5882149298640273e-07,3.4801182329995665e-07,-3.7817529366970426e-07,5.346640544686933e-07,-1.6947729461589283e-07,1.0760099823499059e-06,-4.438736111536508e-07,4.6301587161828395e-08,-3.271096944258877e-07,-5.629127634807646e-07,1.5077545377241734e-07,-7.68254867760861e-08,8.69545882300157e-08,-2.993136508839725e-07,-1.226875985633969e-07,-9.139541526489943e-07,-5.307721674999352e-07
-8.134444543739357e-07,-4.512589844984571e-07,3.556066462245234e-07,-3.7092624726612414e-07,5.660985849974114e-07,-1.2017620035001322e-07,1.1326822411651511e-06,-4.085577549613224e-07,7.50089974329463e-08,-2.9095725817365664e-07,-5.434061664982708e-07,1.8947750158606799e-07,-4.380590476673868e-08,1.262670516483794e-07,-2.5366563287933937e-07,-1.0302033877215554e-07,-8.802397799885184e-07,-5.182947878866828e-07
-8.017685577861976e-07,-4.4101018885794463e-07,3.6654035731544335e-07,-3.605920521443896e-07,6.002885003920449e-07,-7.314061969850339e-08,1.1920538460734327e-06,-3.749518370100424e-07,1.0349777022545985e-07,-2.562413025203502e-07,-5.232536405191794e-07,2.283384393202037e-07,-1.2752861229475923e-08,1.6039751516382855e-07,-2.1192213405900703e-07,-8.268544171894758e-08,-8.511102456518474e-07,-5.075607990336228e-07
-7.898123896990662e-07,-4.2913438985984963e-07,3.7839490905898966e-07,-3.4924333171746087e-07,6.350630655702145e-07,-3.267121207421289e-08,1.249659012245663e-06,-3.4790947748444224e-07,1.2886165185187902e-07,-2.2652279006397614e-07,-5.050903941142228e-07,2.6251953932468014e-07,1.3700808077424783e-08,1.8637227237291502e-07,-1.7587732389281692e-07,-6.32341899598297e-08,-8.272556521953331e-07,-4.992316081265889e-07
-7.794887125910387e-07,-4.1706555068181194e-07,3.8849919298406975e-07,-3.389808065162262e-07,6.679671506549283e-07,-1.8161797708689708e-10,1.2967360034758204e-06,-3.3089711049999135e-07,1.4923116428640675e-07,-2.0355268873152053e-07,-4.908484421145179e-07,2.8827103180707603e-07,3.4167326478339446e-08,2.0371698198920685e-07,-1.4535387164397101e-07,-4.51239815598269e-08,-8.077065907235155e-07,-4.931873037789223e-07
-7.720608376498471e-07,-4.0606206899384616e-07,3.9440810776179513e-07,-3.3125424373036077e-07,6.973140063346353e-07,2.0841437857630274e-08,1.330147790991448e-06,-3.25038328854531e-07,1.6284377104570483e-07,-1.8738807770952715e-07,-4.812539747736804e-07,3.034101552097618e-07,4.866077596439036e-08,2.13685599309685e-07,-1.1930139536223424e-07,-2.8146102827864637e-08,-7.911922879774087e-07,-4.891155495713596e-07
-7.685191103742851e-07,-3.971893404510114e-07,3.955139462641612e-07,-3.270825671952246e-07,7.21688589004974e-07,3.26911035503588e-08,1.3399340847189667e-06,-3.297623215263922e-07,1.683702984586538e-07,-1.769992651231447e-07,-4.7601744008566333e-07,3.071705511189505e-07,5.8018854084759475e-08,2.1824638252535015e-07,-9.68608464990084e-08,-1.2420314867854263e-08,-7.770631872429581e-07,-4.8699764244055e-07
-7.694102869257865e-07,-3.9133026552676387e-07,3.914002006520142e-07,-3.269454253256665e-07,7.400232849518849e-07,3.757739343989551e-08,1.31863507388915e-06,-3.4251770110566106e-07,1.6511068741861385e-07,-1.7022185137592346e-07,-4.737504261667723e-07,3.0087415557189574e-07,6.40333819584851e-08,2.2041067143459206e-07,-7.742858101530548e-08,1.9216149631839134e-09,-7.645119840303247e-07,-4.866799915578943e-07
-7.742784576895054e-07,-3.8856869617190086e-07,3.83146720299931e-07,-3.301323372513306e-07,7.527369158281872e-07,3.804099925282389e-08,1.266999408243871e-06,-3.5839785097937344e-07,1.5412449883787217e-07,-1.6385316131738402e-07,-4.7204532074229834e-07,2.8824454388000657e-07,6.950866215386627e-08,2.241044908054937e-07,-6.04191353000692e-08,1.3475143926709944e-08,-7.518655505595246e-07,-4.874375943355377e-07
-7.813020704895096e-07,-3.879783733685736e-07,3.736469605432319e-07,-3.347740896182557e-07,7.617298021757019e-07,3.908552635902353e-08,1.191925269516118e-06,-3.7163404538281856e-07,1.3859027009188012e-07,-1.548294913231855e-07,-4.683958249757336e-07,2.7400387055102077e-07,7.713959492880236e-08,2.327833286783306e-07,-4.534347025018065e-08,2.4866663832739533e-08,-7.372022782725189e-07,-4.882027511952021e-07
-7.878577202261481e-07,-3.880383268952639e-07,3.665665234027619e-07,-3.3871197436794964e-07,7.699781320729885e-07,4.455407546033633e-08,1.1086702490800984e-06,-3.7736191117082826e-07,1.222390602055962e-07,-1.4131150210855334e-07,-4.611489427008246e-07,2.6230803990305555e-07,8.873550203453634e-08,2.481004234125702e-07,-3.174860742192308e-08,3.491728845670736e-08,-7.186823651333757e-07,-4.877981718176593e-07
-7.910963901486175e-07,-3.8718677178679313e-07,3.651694761915007e-07,-3.3913463172871246e-07,7.806656186409452e-07,5.8097080551029204e-08,1.035615187710479e-06,-3.723862179894559e-07,1.0906137123590722e-07,-1.226794589896295e-07,-4.4954969303257545e-07,2.564240853667902e-07,1.0525323236672039e-07,2.6989986474792065e-07,-1.8945430949825094e-08,4.439145871609445e-08,-6.946905449418988e-07,-4.849702485440839e-07
-7.885556317257876e-07,-3.8383196472775456e-07,3.717397429203327e-07,-3.3367718994113357e-07,7.966383682000139e-07,8.178567827087064e-08,9.89819128776749e-07,-3.55949840488907e-07,1.0249793120609464e-07,-9.939617463305985e-08,-4.337249822631718e-07,2.585440941343002e-07,1.2669372275191462e-07,2.969933200465072e-07,-6.118489634126639e-09,5.5696133364789036e-08,-6.647796980291262e-07,-4.787926796569179e-07
-7.790063488191808e-07,-3.7700801891725915e-07,3.866164859860853e-07,-3.211534176111228e-07,8.187011014914833e-07,1.1615512271756167e-07,9.80469198579442e-07,-3.304284504832251e-07,1.0419313272329688e-07,-7.319289387307778e-08,-4.147958400452178e-07,2.693031257991787e-07,1.5214208794832764e-07,3.2696344535541996e-07,7.386497115359919e-09,6.948256644753124e-08,-6.303239438420411e-07,-4.6911367411511467e-07
-7.627857142266808e-07,-3.6694532871041324e-07,4.0762782651461614e-07,-3.0186369732487927e-07,8.447886629470248e-07,1.577582511158196e-07,1.0097947808377336e-06,-3.011245975123119e-07,1.1391427691501964e-07,-4.6595347756212185e-08,-3.9515432632137125e-07,2.8824561270670994e-07,1.801255679112414e-07,3.571340457331536e-07,2.2138457200303095e-08,8.742983724522464e-08,-5.936350536410924e-07,-4.563843728764701e-07
-7.420922628645842e-07,-3.544383212091313e-07,4.320664418465903e-07,-2.773822120040844e-07,8.7151931265119e-07,2.0171212074900412e-07,1.0726097062638245e-06,-2.739572216216904e-07,1.2586290656151375e-07,-2.192895329384515e-08,-3.7696483389858143e-07,3.1482433761156485e-07,2.0913793080355616e-07,3.856688729013121e-07,3.854158515866463e-08,1.1026087451371805e-07,-5.571607660817145e-07,-4.4148820574902675e-07
-7.191871820275469e-07,-3.407442676984133e-07,4.564801051355825e-07,-2.500463640159399e-07,8.953973173079418e-07,2.430009757502781e-07,1.1588485643517141e-06,-2.539972880700148e-07,1.3831856621670787e-07,-9.928771678087328e-10,-3.6191469612186817e-07,3.483160195351475e-07,2.3742425638494879e-07,4.112032756756716e-07,5.617106102999475e-08,1.3752679708201107e-07,-5.241366884007127e-07,-4.261561196639666e-07
-6.969636128316057e-07,-3.2801243751993284e-07,4.774236377037869e-07,-2.2309014615052598e-07,9.130282399850881e-07,2.7698387301521605e-07,1.256350567756447e-06,-2.4477153831748257e-07,1.507063249568487e-07,1.4929111674940515e-08,-3.5116685256482344e-07,3.872837509218639e-07,2.630438565936409e-07,4.322187521712074e-07,7.34469392314647e-08,1.661254020923192e-07,-4.986721479038774e-07,-4.1301550052938803e-07
-6.789668057376193e-07,-3.1784131229566107e-07,4.92410521051612e-07,-2.0004181882123874e-07,9.22239767602377e-07,3.0026882208798877e-07,1.3551090433002114e-06,-2.470040877318118e-07,1.606262318217389e-07,2.5574484495392245e-08,-3.4471947772359054e-07,4.2990362870609057e-07,2.841823277559247e-07,4.477828954987897e-07,8.828207706820517e-08,1.9287066470705078e-07,-4.839851273502484e-07,-4.0465802914237276e-07
-6.679621178673995e-07,-3.114313333938862e-07,4.995809577163348e-07,-1.838834127100446e-07,9.232421999022701e-07,3.132823518874141e-07,1.4419969843359087e-06,-2.5811367339050353e-07,1.6904255570906998e-07,3.182805475200307e-08,-3.413996790064847e-07,4.74037840121345e-07,2.996794648014476e-07,4.581437624772145e-07,9.88708803416321e-08,2.140206692558966e-07,-4.811744569077436e-07,-4.027401899438557e-07
-6.658126473917937e-07,-3.093193424782689e-07,4.98439362338969e-07,-1.7639374505831736e-07,9.185528771343473e-07,3.1788085735241835e-07,1.5232375781369782e-06,-2.73778078657593e-07,1.776744819439051e-07,3.4744209702996186e-08,-3.3954564032687844e-07,5.162114016537548e-07,3.0879503377644757e-07,4.635297373696675e-07,1.0404684161120432e-07,2.2579018062103352e-07,-4.891522125554361e-07,-4.07698631578653e-07
-6.731746332571066e-07,-3.1122538357675685e-07,4.896444918854384e-07,-1.7800390492340007e-07,9.120843498301247e-07,3.1839193871511437e-07,1.6092123788088754e-06,-2.89658483966061e-07,1.891220003852397e-07,3.489652143689542e-08,-3.377403540214561e-07,5.512185436400557e-07,3.109744234347947e-07,4.6404010336137943e-07,1.037073266197045e-07,2.2600022516472452e-07,-5.042627235204492e-07,-4.1842283643142927e-07
-6.887037984021324e-07,-3.164494335145843e-07,4.7494675722823455e-07,-1.8731126562723466e-07,9.088817455332897e-07,3.1703694510029465e-07,1.7121861298415402e-06,-3.0115932604071954e-07,2.0771229748845832e-07,3.297199965991533e-08,-3.3452787237518734e-07,5.734158724736791e-07,3.0671038578440025e-07,4.606460253408584e-07,9.923535896170943e-08,2.141785681028122e-07,-5.201360635832776e-07,-4.3195942299464493e-07
-7.090877436670302e-07,-3.2359157290730224e-07,4.5796563470162387e-07,-2.007776484263602e-07,9.143361828635164e-07,3.1978503108983267e-07,1.8479405139067767e-06,-3.035703600349685e-07,2.3918435625768074e-07,3.0255420807620574e-08,-3.286196624484947e-07,5.781951571429973e-07,2.9787586377051384e-07,4.5541416451135267e-07,9.322695433051528e-08,1.9245782988615748e-07,-5.292991766317411e-07,-4.4410692993301076e-07
-7.295931973235657e-07,-3.304208239124564e-07,4.434600346213511e-07,-2.1359373674061818e-07,9.320139721796057e-07,3.3367325755992224e-07,2.0243378416607016e-06,-2.9371922572756293e-07,2.8741667792318336e-07,2.822098426583525e-08,-3.193646157438004e-07,5.629380445928929e-07,2.872661313048801e-07,4.507622670654459e-07,8.877555998326143e-08,1.6545978403979314e-07,-5.255987810192651e-07,-4.5061580002631626e-07
-7.450752966390083e-07,-3.3516637449701954e-07,4.3600204746331617e-07,-2.2085985148316239e-07,9.622872109553406e-07,3.6041527669483675e-07,2.2423739382633637e-06,-2.711382537711135e-07,3.527127183737621e-07,2.826036681992283e-08,-3.0684521342651055e-07,5.283690475743914e-07,2.7791825534090986e-07,4.489812479998464e-07,8.897306958586812e-08,1.3928483578081914e-07,-5.05238358442958e-07,-4.4812001120748777e-07
-7.506732890876009e-07,-3.353267565435518e-07,4.3930560886894694e-07,-2.1843230811900605e-07,1.0027325193156206e-06,3.99997734706934e-07,2.494988711498351e-06,-2.3741232557073442e-07,4.3352138652579595e-07,3.181755050848498e-08,-2.9180545276390596e-07,4.794215348866313e-07,2.725645443047218e-07,4.5195196216171023e-07,9.625743854198982e-08,1.1874791633385506e-07,-4.6756395245687727e-07,-4.350342058430328e-07
-7.432673556268788e-07,-3.3041081121740126e-07,4.5537111789646765e-07,-2.040235507332958e-07,1.049146969693843e-06,4.491460519624921e-07,2.7712561018174863e-06,-1.956498441317735e-07,5.273504996371264e-07,4.010600084763704e-08,-2.7457327631525203e-07,4.23853383142297e-07,2.727981485527486e-07,4.6002790258375206e-07,1.1132248815495498e-07,1.0645898486895049e-07,-4.1632409473306396e-07,-4.1259292395376257e-07
-7.224737026874918e-07,-3.20972481240315e-07,4.830961942587991e-07,-1.7820191779331556e-07,1.0963230525083237e-06,5.025507411048601e-07,3.0547646576747536e-06,-1.5022802504686302e-07,6.2900042759057e-07,5.372315312247724e-08,-2.560659934337289e-07,3.695592977301923e-07,2.785173772483298e-07,4.7123388023791526e-07,1.326136337326833e-07,1.028343492054943e-07,-3.593278027581111e-07,-3.848687837655479e-07
-6.908999376318385e-07,-3.079710932851489e-07,5.187173271000427e-07,-1.4443808122048608e-07,1.1387222690382139e-06,5.581743413773089e-07,3.3314486334806735e-06,-1.0538740562457693e-07,7.286411576278988e-07,7.288291464686782e-08,-2.379440252246187e-07,3.228046894198034e-07,2.884625477534824e-07,4.823950603885964e-07,1.5709823881954632e-07,1.064011395062114e-07,-3.0583238701867735e-07,-3.572531439216496e-07
-6.532199502998013e-07,-2.9316507807867005e-07,5.57828463943334e-07,-1.0714172489474249e-07,1.1722873609997395e-06,6.089025012677415e-07,3.592775138523236e-06,-6.402681145863578e-08,8.24239013412485e-07,9.745947508282175e-08,-2.2072487160574145e-07,2.8719197427009364e-07,3.0076180937434145e-07,4.902164348241468e-07,1.8137567869494918e-07,1.1488802001355847e-07,-2.6404459161185653e-07,-3.347239605004392e-07
-6.142586591258028e-07,-2.780027860266473e-07,5.95303645681351e-07,-7.079188658482081e-08,1.1949723910580577e-06,6.52145523025131e-07,3.838043628153957e-06,-2.8623768510189925e-08,9.149328376490148e-07,1.2625221519350266e-07,-2.0565079773621888e-07,2.627637673035887e-07,3.130877975697841e-07,4.910653828634629e-07,2.0236900350103255e-07,1.2517516782794157e-07,-2.398310089546661e-07,-3.208206935546924e-07
-5.78585889030406e-07,-2.640248745083239e-07,6.27827168723054e-07,-3.928925631585982e-08,1.2064214896042338e-06,6.863129364261139e-07,4.0647603211652044e-06,-1.5790993521387597e-09,9.964558164185121e-07,1.5677347369490635e-07,-1.9426273640176919e-07,2.4649705031064254e-07,3.22836150431241e-07,4.816926482073124e-07,2.1796536481385255e-07,1.3354937125663544e-07,-2.3532562775227706e-07,-3.169136717688317e-07
-5.494452917385812e-07,-2.5225779146156264e-07,6.542735796844686e-07,-1.4952901454839553e-08,1.208518040521633e-06,7.134974597182509e-07,4.283882678213046e-06,1.58060727583392e-08,1.0679169233320035e-06,1.862395967612443e-07,-1.8737508147951072e-07,2.3430682505939216e-07,3.2806803705402665e-07,4.605001199324341e-07,2.275402870282536e-07,1.3708652289621332e-07,-2.4827178046874473e-07,-3.2189068189628e-07
-5.281281958813236e-07,-2.434213459349927e-07,6.751653871419357e-07,1.643789249099314e-09,1.204963607117446e-06,7.352597447614018e-07,4.4675543465496824e-06,2.3699114425684874e-08,1.1270771892141938e-06,2.1239877381982733e-07,-1.8513688935469994e-07,2.225966686624734e-07,3.2810024660779476e-07,4.2810418797556117e-07,2.3176642024032644e-07,1.3453416863575922e-07,-2.728497204995009e-07,-3.3287469285234513e-07
-5.136960022034825e-07,-2.3727204672745724e-07,6.916385809115768e-07,1.2006180741739644e-08,1.1996148292292374e-06,7.515855423939538e-07,4.614778786077312e-06,2.3082416165641576e-08,1.1702576534347804e-06,2.3355801379850693e-07,-1.871580416346027e-07,2.0888502921616025e-07,3.233049675190921e-07,3.8711705154312095e-07,2.3209261068816858e-07,1.2646141481343219e-07,-3.018675416173353e-07,-3.463157622267343e-07
-5.049214403148181e-07,-2.3317491850422025e-07,7.044264633943685e-07,1.7272076234610413e-08,1.1947912762893957e-06,7.624677272266415e-07,4.726148578472288e-06,1.5309325688376247e-08,1.1927658806243287e-06,2.488353006915207e-07,-1.9232294049937488e-07,1.9270321223625314e-07,3.151153077618216e-07,3.4213348100691505e-07,2.3062818805381818e-07,1.1512068355027107e-07,-3.27672723837684e-07,-3.5849283873765177e-07
-4.999363268911699e-07,-2.3036422567915923e-07,7.141416217130778e-07,1.9300304449568453e-08,1.1920985258354845e-06,7.665312939834568e-07,4.801998293575969e-06,2.8698979869854703e-09,1.195306121378964e-06,2.5869726892029404e-07,-1.9849012268674273e-07,1.762151799339297e-07,3.0594002867099737e-07,2.9967152364808736e-07,2.2993380384078695e-07,1.0445088874929048e-07,-3.4305519816193867e-07,-3.6598937328709553e-07
-4.96273001955921e-07,-2.275057353992594e-07,7.212540181887452e-07,1.986967154823742e-08,1.1929043944116545e-06,7.656709821592125e-07,4.844732755291997e-06,-1.0518357811983558e-08,1.178593727237261e-06,2.647589772289098e-07,-2.0314879254300466e-07,1.6320653921882782e-07,2.985416263166053e-07,2.6641640813898256e-07,2.321426287986877e-07,1.001197056136973e-07,-3.435935915189901e-07,-3.6674954395686343e-07
-4.920951480450633e-07,-2.2358628527985019e-07,7.267325259244677e-07,2.1987751984878965e-08,1.1978079289337689e-06,7.6099012563019e-07,4.852036675700349e-06,-2.0774912321640404e-08,1.1433488994276667e-06,2.691272861247431e-07,-2.036660306877193e-07,1.5740382264659183e-07,2.95214987944461e-07,2.4722316935639877e-07,2.3823845964760377e-07,1.0502855709819599e-07,-3.287846555665862e-07,-3.6070257237733963e-07
-4.863667648785946e-07,-2.178702572901885e-07,7.312847145969572e-07,2.7041416618852115e-08,1.2069347625269065e-06,7.535658475966099e-07,4.830167717759079e-06,-2.3889258622686682e-08,1.1056730095384843e-06,2.741628629150269e-07,-1.9788235136261404e-07,1.6168668226173847e-07,2.976099578535131e-07,2.452696710273422e-07,2.4818692272632313e-07,1.2099196702187226e-07,-3.009247078116764e-07,-3.4920999341682456e-07
-4.786781348967962e-07,-2.0935057478015122e-07,7.36696076393642e-07,3.5443463947805814e-08,1.2205467632603825e-06,7.450242075310008e-07,4.783834805733345e-06,-1.639864554153386e-08,1.0668031615662314e-06,2.820880034344835e-07,-1.845519646334509e-07,1.7746415259389792e-07,3.065752738140896e-07,2.6025741752806737e-07,2.6127608164909595e-07,1.470098148575466e-07,-2.637357929372982e-07,-3.3424408627008207e-07
-4.692696369713923e-07,-1.981376984961792e-07,7.439967812868679e-07,4.7383261400076956e-08,1.2388058515544985e-06,7.374728510821249e-07,4.7381331750272535e-06,2.8398078849902727e-09,1.0302230712685243e-06,2.9392858192223e-07,-1.639293088264358e-07,2.0367947085972443e-07,3.2153293104938524e-07,2.88803174413948e-07,2.7625588542750035e-07,1.8048196334791678e-07,-2.2173722532903277e-07,-3.179280259507356e-07
-4.5819852381250646e-07,-1.843682870167289e-07,7.53821256563917e-07,6.127455995871591e-08,1.2611666078167583e-06,7.327289064033865e-07,4.70209676840975e-06,3.148910437036511e-08,9.875246062036798e-07,3.0899682254358e-07,-1.383962965461977e-07,2.3684885318208967e-07,3.403665074598961e-07,3.2521326549617345e-07,2.9172492475453884e-07,2.1907923450700385e-07,-1.7902745970833668e-07,-3.0200531035213724e-07
-4.4642120932858657e-07,-1.6819052051285408e-07,7.665997562065868e-07,7.576431860276245e-08,1.2866491985817459e-06,7.317694095016286e-07,4.679418204418483e-06,6.506882046333565e-08,9.390052358419959e-07,3.256527846087556e-07,-1.1146446127076344e-07,2.725208468649111e-07,3.6074597600414317e-07,3.626173915024645e-07,3.066044234401068e-07,2.596430403708328e-07,-1.3849182673505765e-07,-2.874285707611943e-07
-4.337642807071054e-07,-1.5120711292661722e-07,7.831705227323657e-07,8.976451166946472e-08,1.3137365471575773e-06,7.342637686260187e-07,4.669331277241318e-06,9.82858550015099e-08,8.9772357646187e-07,3.422753569857722e-07,-8.686986573523227e-08,3.0661887163559485e-07,3.796981856620818e-07,3.948422392454865e-07,3.2005378000846404e-07,2.992327501770227e-07,-1.0270106272375792e-07,-2.7465552368166365e-07
-4.2002696784682065e-07,-1.3420512382084994e-07,8.028501640289369e-07,1.021203886405056e-07,1.3392331733248674e-06,7.417782075827647e-07,4.672813741916724e-06,1.2560621689467692e-07,8.618780565836122e-07,3.5781545083369395e-07,-6.823040273150522e-08,3.362488236809052e-07,3.9461829753306964e-07,4.1695218096422144e-07,3.3118048449857464e-07,3.3467706420970965e-07,-7.460230948974493e-08,-2.640625813030606e-07
-4.0570668461643435e-07,-1.1873245294943585e-07,8.23821677495489e-07,1.1150702053915249e-07,1.3581735040457792e-06,7.531885041400665e-07,4.679045397041929e-06,1.4229955149939422e-07,8.423987187248082e-07,3.723486156497733e-07,-5.813639152813124e-08,3.6056079650764137e-07,4.043610461948473e-07,4.2637104384771396e-07,3.391600039128432e-07,3.637810849030231e-07,-5.698569385450571e-08,-2.557910129522631e-07
-3.9120588024713796e-07,-1.0706013133379912e-07,8.438952965391508e-07,1.1774788966195022e-07,1.3653168669533818e-06,7.666544512019835e-07,4.690368786241437e-06,1.4525627535609112e-07,8.456589587559276e-07,3.8721652802830906e-07,-5.762981529631736e-08,3.803393829392369e-07,4.08936800228777e-07,4.2306959334857454e-07,3.4335220111693057e-07,3.856290289105289e-07,-5.126556560550009e-08,-2.496596886392402e-07
-3.768868472335309e-07,-1.0091133211451317e-07,8.599759372826987e-07,1.2194169691183653e-07,1.3563628066498983e-06,7.818428680953835e-07,4.685001874538173e-06,1.328485648948531e-07,8.556623591655306e-07,4.0423401970775615e-07,-6.639864718032879e-08,3.985673080424004e-07,4.098001987445555e-07,4.0914501772549834e-07,3.431862084739291e-07,4.0067115356248186e-07,-5.709569320992515e-08,-2.455121760702284e-07
-3.6289401434321155e-07,-1.017992123287359e-07,8.694426976998181e-07,1.2611752922769818e-07,1.3292865112918975e-06,7.929351918248387e-07,4.611563813782189e-06,1.0499427997068716e-07,8.408091885206214e-07,4.250708145345407e-07,-8.293752969496847e-08,4.164598033910838e-07,4.0934219399526366e-07,3.8808764853278554e-07,3.3855142665906724e-07,4.1008667292669453e-07,-7.18138257415071e-08,-2.4314944031846066e-07
-3.4881439785264483e-07,-1.1030812675558136e-07,8.70367527345071e-07,1.331281997354406e-07,1.2855835705474701e-06,7.921985458164012e-07,4.4278254653197555e-06,6.432163632881633e-08,8.060899104377545e-07,4.5161142901459697e-07,-1.044270877977715e-07,4.350962628494088e-07,4.1060938513701757e-07,3.6514951085596124e-07,3.3059267344069277e-07,4.158050946048967e-07,-8.968353946816577e-08,-2.4181263084501323e-07
-3.341620068012262e-07,-1.2554105701208435e-07,8.621784653319305e-07,1.4627339555180277e-07,1.230840732922354e-06,7.755825018871734e-07,4.084045503543382e-06,1.6313630182472394e-08,7.396243146406364e-07,4.859118113859036e-07,-1.2722506185670904e-07,4.5575497705251937e-07,4.169381902749821e-07,3.4655285649104313e-07,3.215523702936021e-07,4.2025486254385717e-07,-1.0391459627217951e-07,-2.404520240225568e-07
-3.1870087809839005e-07,-1.4520122574377902e-07,8.45154191730284e-07,1.6747011735160402e-07,1.172970747750752e-06,7.391392496284163e-07,3.7600923000759215e-06,-3.3265209435479455e-08,7.174862438235692e-07,5.288534474144606e-07,-1.4802503199421115e-07,4.77034048419328e-07,4.303883627158298e-07,3.360784841926652e-07,3.135230490813585e-07,4.241687905979997e-07,-1.1027147596911824e-07,-2.38778133743161e-07
-3.031868751826473e-07,-1.673460937232895e-07,8.19938237634645e-07,1.959822190324601e-07,1.1180066667442838e-06,6.879533793658659e-07,3.481682540920298e-06,-8.074691496573869e-08,7.568979806041042e-07,5.79074510796734e-07,-1.6445727356457474e-07,4.950322812429433e-07,4.5028371030033585e-07,3.3328851470523423e-07,3.0772442389717604e-07,4.2506758199984616e-07,-1.0833541933719983e-07,-2.37556404312165e-07
-2.8938888239156596e-07,-1.8997790710323359e-07,7.873718066106948e-07,2.2790799311340702e-07,1.0696816590910598e-06,6.247785235833214e-07,3.233614451536766e-06,-1.2439555958901794e-07,8.313666554552469e-07,6.332619131560279e-07,-1.74667573461936e-07,5.051212969876466e-07,4.7373176774449156e-07,3.3494346488307084e-07,3.0499574569053817e-07,4.197180366352933e-07,-1.0000588111242917e-07,-2.3781928189766308e-07
-2.7895406602078886e-07,-2.1116902911645388e-07,7.49133847621251e-07,2.5794917117043014e-07,1.0298868181775463e-06,5.510602515127861e-07,2.9144302911802845e-06,-1.6352060600480278e-07,8.203332229602499e-07,6.864156177659582e-07,-1.7695959309367393e-07,5.04413180657213e-07,4.968778293735062e-07,3.370299663476533e-07,3.06358332742596e-07,4.0571594126878293e-07,-8.813277268360295e-08,-2.40229919102182e-07
-2.740855172101994e-07,-2.2918225365038995e-07,7.075189782665689e-07,2.800587874492222e-07,9.983853462772267e-07,4.744908764879895e-07,2.5415120023965472e-06,-1.9883374290748752e-07,7.601554572786521e-07,7.312944793988787e-07,-1.7045155425875466e-07,4.911235662280835e-07,5.152037289651749e-07,3.3647486983365287e-07,3.1276208417830223e-07,3.823330122914772e-07,-7.580146683028022e-08,-2.449614859320608e-07
-2.760438333939506e-07,-2.430880885584897e-07,6.652373790169379e-07,2.8811418390276135e-07,9.731199172556186e-07,4.0291603812943763e-07,2.2369112088381126e-06,-2.3232042817462058e-07,7.056382350596468e-07,7.587050539100859e-07,-1.5569661858685657e-07,4.6779675170406206e-07,5.241324873751386e-07,3.319724757112612e-07,3.2427252813962554e-07,3.5207655063408785e-07,-6.507091490093491e-08,-2.5153298598362353e-07
-2.862795561935505e-07,-2.525930618823739e-07,6.251823057580524e-07,2.7854064605843534e-07,9.534858304847468e-07,3.444780586998126e-07,2.085518557788973e-06,-2.653677195833006e-07,6.782529013143532e-07,7.597561322551583e-07,-1.3488464255381947e-07,4.377701342408772e-07,5.20013891146669e-07,3.244939805288382e-07,3.391522911025742e-07,3.1867640467227964e-07,-5.637481901830092e-08,-2.5895210911741507e-07
-3.0466193147472686e-07,-2.580836110429467e-07,5.901147900213454e-07,2.508074805497867e-07,9.397195457515048e-07,3.050984043264767e-07,2.0423197823227978e-06,-2.976722314059126e-07,6.639686574467356e-07,7.289355290697967e-07,-1.1115193159966596e-07,4.034634509974489e-07,5.010768874564454e-07,3.163211891135499e-07,3.536036568783623e-07,2.8539387527327376e-07,-4.9574542760962116e-08,-2.6661137599287994e-07
-3.295954387526293e-07,-2.604242603922592e-07,5.614980386690365e-07,2.085060674579754e-07,9.323734686757171e-07,2.796562184931571e-07,1.99146237627488e-06,-3.2783128089816687e-07,6.666872015494406e-07,6.667167240826031e-07,-8.768939927589544e-08,3.666020627211123e-07,4.6849454354834573e-07,3.093496730546538e-07,3.6321592311802824e-07,2.5352149642300194e-07,-4.480680575916566e-08,-2.7490260229653705e-07
-3.5868686364914847e-07,-2.6076510657834796e-07,5.393901290214237e-07,1.5798027163587686e-07,9.316951852853757e-07,2.7196148933392824e-07,1.973863639902003e-06,-3.539904328865312e-07,6.234457522864195e-07,5.808577585145383e-07,-6.704514540343202e-08,3.281431173968388e-07,4.2695776231514013e-07,3.050545952089654e-07,3.6550998371677065e-07,2.2239443976679778e-07,-4.1955945122679005e-08,-2.8466299691123976e-07
-3.880606721131848e-07,-2.596532307809916e-07,5.231657340818104e-07,1.0659937719379671e-07,9.364107729917487e-07,2.780156763324444e-07,2.015890250218746e-06,-3.7415368497616235e-07,5.634402210260293e-07,4.84895830789394e-07,-4.999792244173465e-08,2.9037775466211484e-07,3.8397757491254254e-07,3.04731109077432e-07,3.6106653320310216e-07,1.9076077354852355e-07,-4.0518564649981294e-08,-2.963437617920559e-07
-4.129896764377416e-07,-2.5670070076831427e-07,5.112478059695006e-07,6.077333794923682e-08,9.439418139528264e-07,2.9462253130114387e-07,2.208837218434554e-06,-3.8713307054111024e-07,5.614253359979282e-07,3.935598508628418e-07,-3.6170640060578874e-08,2.56688704716622e-07,3.473758082309881e-07,3.088166815282271e-07,3.521071712875796e-07,1.5763914693502982e-07,-4.098315017121615e-08,-3.0977419074211585e-07
-4.286666375980927e-07,-2.5174422831897555e-07,5.013081008265457e-07,2.4321420392542118e-08,9.504743190465478e-07,3.135630089169238e-07,2.543362498995052e-06,-3.931286855639309e-07,5.955774118782516e-07,3.179346334032228e-07,-2.5162999539561597e-08,2.2997750624819686e-07,3.224726392748833e-07,3.160450129998828e-07,3.402631416388195e-07,1.2275259661659732e-07,-4.5541073460121476e-08,-3.240747897208509e-07
-4.3198869218898836e-07,-2.441783879678439e-07,4.925664947046286e-07,-2.8073119880231792e-09,9.52131363487154e-07,3.331490454152322e-07,2.848346067404379e-06,-3.928097215840174e-07,6.46815743033159e-07,2.632322711853124e-07,-1.7163281758605586e-08,2.1216743110192503e-07,3.1136894858518617e-07,3.239933662076435e-07,3.2541174399317284e-07,8.686858095590264e-08,-5.7540101365944564e-08,-3.376104747469806e-07
-4.2046065075495445e-07,-2.338825365101341e-07,4.814661973638291e-07,-2.371591425537484e-08,9.45982218837039e-07,3.5581739310499057e-07,2.993350387572772e-06,-3.8695029063604583e-07,6.77885790009592e-07,2.2897858625746777e-07,-1.353800919211208e-08,2.037083371948205e-07,3.1307394550819097e-07,3.292232015865618e-07,3.057577074399254e-07,5.178926990355208e-08,-8.116672933978925e-08,-3.486585534738349e-07
-3.930114351612576e-07,-2.2150012363553357e-07,4.650856082848912e-07,-4.145280866810711e-08,9.3062141723854e-07,3.777634734395164e-07,3.0436481510399264e-06,-3.7735452604582415e-07,6.707550350885023e-07,2.1054410389757687e-07,-1.7688671022256047e-08,2.026327335460791e-07,3.23994794458075e-07,3.2748038838846577e-07,2.7895710795629527e-07,1.9243793186090915e-08,-1.2056358587022936e-07,-3.564294290183035e-07
-3.516861488301942e-07,-2.0906765109292995e-07,4.41408001585644e-07,-5.964418987063659e-08,9.060542117007902e-07,4.0632440928959157e-07,2.9778456391701373e-06,-3.6670892824627907e-07,6.317619431015897e-07,2.0207993005254688e-07,-3.345177335299322e-08,2.0556191882250453e-07,3.394872570551416e-07,3.1482881182974463e-07,2.4413529849575563e-07,-9.965496576195535e-09,-1.77107114825865e-07,-3.613236296553279e-07
-3.0134979865462443e-07,-1.980631504648567e-07,4.0987092697648846e-07,-8.03706151583317e-08,8.75253728942613e-07,4.328621373605247e-07,2.935880714767452e-06,-3.557635162653147e-07,5.838938114113518e-07,1.9984890464155628e-07,-6.342670885309712e-08,2.1001368738185007e-07,3.5533941263186486e-07,2.900110742661715e-07,2.0347341820188995e-07,-3.616831065826509e-08,-2.4708932135561884e-07,-3.645908173646025e-07
-2.483417453455862e-07,-1.899846646094731e-07,3.73712418168019e-07,-1.0342057355065142e-07,8.443130248055359e-07,4.5436254525909644e-07,2.905505576120612e-06,-3.4383843739985914e-07,5.382841517023105e-07,2.0333685040405984e-07,-1.076091498050473e-07,2.155834008227803e-07,3.685518590807252e-07,2.5560502355350416e-07,1.617565503726292e-07,-6.017949281804961e-08,-3.22725525863655e-07,-3.681702134451189e-07
-2.002242931591381e-07,-1.8671962502763732e-07,3.377638217183376e-07,-1.267949258372726e-07,8.196186288528601e-07,4.7032339260131003e-07,2.733243584856406e-06,-3.298362436880497e-07,4.857063324081131e-07,2.1354062817536493e-07,-1.6275115091434156e-07,2.2376942578418758e-07,3.771842376308245e-07,2.1691343158158966e-07,1.2429118960792172e-07,-7.980807440582728e-08,-3.9510360700623034e-07,-3.7425621439864684e-07
-1.6385503468819317e-07,-1.880509099145127e-07,3.064979095145067e-07,-1.4803924137893644e-07,8.046259859259847e-07,4.750127137128496e-07,2.464682044289887e-06,-3.138982782627986e-07,3.994723066230921e-07,2.3075291578581873e-07,-2.2283855657290517e-07,2.371572546353695e-07,3.8028682885327834e-07,1.8132013222026016e-07,9.500742041338041e-08,-1.0080890462575973e-07,-4.5633305552462317e-07,-3.840983512075274e-07
-1.4315456112217165e-07,-1.9517154017086017e-07,2.8301802904330043e-07,-1.6301123773907597e-07,7.994384547838913e-07,4.639356471720796e-07,2.1174160289849976e-06,-2.9630892131536835e-07,2.7256537496836916e-07,2.5355455430451157e-07,-2.810701439705802e-07,2.609559601134935e-07,3.779849949611565e-07,1.5620736079016432e-07,7.556245908200872e-08,-1.1898134366186289e-07,-5.010746605827941e-07,-3.9715113599308464e-07
-1.384683567113993e-07,-2.076268012853833e-07,2.7062690539485873e-07,-1.7213278017437864e-07,8.018980119405843e-07,4.3316686887321323e-07,1.742953832474458e-06,-2.7823332843201023e-07,1.4030107539595557e-07,2.7892210715416103e-07,-3.3142115405028077e-07,2.9624295934953916e-07,3.7111805269457954e-07,1.4531201845720801e-07,6.52707994202124e-08,-1.3376118416210793e-07,-5.280174443681254e-07,-4.115581800140585e-07
-1.469025580646399e-07,-2.2297625394754753e-07,2.6836179874203296e-07,-1.7598529985273403e-07,8.07975680204212e-07,3.8381601591896283e-07,1.326057807242787e-06,-2.6209875244314437e-07,3.013924641272016e-08,3.0338504781584143e-07,-3.7069825315070206e-07,3.4089158522733444e-07,3.605656037182462e-07,1.486192576039928e-07,6.189707734940387e-08,-1.4786938417659017e-07,-5.399689930859461e-07,-4.2521963245831373e-07
-1.6410385412296682e-07,-2.382584267724403e-07,2.7443305857924357e-07,-1.743347423335524e-07,8.135394434383304e-07,3.2085560813894245e-07,1.002953789547599e-06,-2.4927735504261275e-07,-3.28132401531258e-08,3.2479341782893423e-07,-3.990639820993313e-07,3.914375074482144e-07,3.4758137647144134e-07,1.6209740237268865e-07,6.298844417252063e-08,-1.608936642299559e-07,-5.423878669000604e-07,-4.366240597046429e-07
-1.8659171824509403e-07,-2.507352748745043e-07,2.8662483265541934e-07,-1.6776145856444577e-07,8.14473264426041e-07,2.5066731060595153e-07,7.772018673036175e-07,-2.4033671343270184e-07,-1.0595251001233668e-07,3.4300625070731465e-07,-4.194073701462897e-07,4.432039910363165e-07,3.335886885189319e-07,1.7929800603829726e-07,6.673579871586961e-08,-1.75169936555071e-07,-5.42089562474429e-07,-4.4554112465234656e-07
-2.064546707076865e-07,-2.578256486825702e-07,3.0055785535904656e-07,-1.5670231472128725e-07,8.079159810736459e-07,1.8009041422298416e-07,6.056323647616974e-07,-2.3724588651804317e-07,-1.4976069978870846e-07,3.5885288348549153e-07,-4.3680374447544576e-07,4.927060313931151e-07,3.193751616914633e-07,1.9350035598348852e-07,7.208489278074368e-08,-1.9205154069572057e-07,-5.459215068891883e-07,-4.531799596624835e-07
-2.2343208896483317e-07,-2.598762501829428e-07,3.128005645092065e-07,-1.4380008675429004e-07,7.907458643532976e-07,1.1222330188605718e-07,4.910663761833818e-07,-2.426807210366205e-07,-1.5719640035788386e-07,3.7286302097745634e-07,-4.5624885573126276e-07,5.398460109500903e-07,3.051835911825075e-07,1.994128279247404e-07,7.86344095063713e-08,-2.1306918116246318e-07,-5.586250922415648e-07,-4.6123166972028344e-07
-2.398803093225549e-07,-2.5785370574297515e-07,3.202070668555607e-07,-1.3352602598523345e-07,7.615022003258637e-07,4.859660431395664e-08,3.9964162691880154e-07,-2.587150867368119e-07,-1.4089023551478892e-07,3.847179954346807e-07,-4.814698016869137e-07,5.752666581020209e-07,2.905449036182196e-07,1.950129007515299e-07,8.627819219159505e-08,-2.3733806643317228e-07,-5.812636251544041e-07,-4.7068885452565246e-07
-2.584736886239471e-07,-2.530408959844537e-07,3.19998763700299e-07,-1.2992952309006424e-07,7.21502355753689e-07,-1.1234581386849234e-08,3.204241854048638e-07,-2.863750700208071e-07,-1.389781199950133e-07,3.928978241221312e-07,-5.130774519619327e-07,6.011048172167784e-07,2.746152143532629e-07,1.8133611439942923e-07,9.440558749288761e-08,-2.6627064995303757e-07,-6.119133965456996e-07,-4.816405842486927e-07
-2.8385110343619785e-07,-2.481782574036762e-07,3.1178151506466847e-07,-1.3537323027174447e-07,6.73368677466723e-07,-6.859447091068061e-08,2.391956303279963e-07,-3.248405881404151e-07,-1.476990164498439e-07,3.9464485441050777e-07,-5.486289060097775e-07,6.202132068349609e-07,2.564884732341376e-07,1.610577356280449e-07,1.0142790595123981e-07,-3.009580060093433e-07,-6.473738340726488e-07,-4.936824997430279e-07
-3.1726976185948816e-07,-2.433311896456969e-07,2.9651614394816333e-07,-1.5090711262681452e-07,6.206503394556613e-07,-1.2435290103787573e-07,1.550821115435762e-07,-3.716217072202029e-07,-1.610737034491856e-07,3.8687909701144213e-07,-5.836098736234701e-07,6.310099166031984e-07,2.3550275172294748e-07,1.367796433524202e-07,1.0524094543926514e-07,-3.423151930799265e-07,-6.84378676351364e-07,-5.062474955245553e-07
-3.569317703029831e-07,-2.3755173868414627e-07,2.7599537723804855e-07,-1.7499448299955506e-07,5.665701902275643e-07,-1.8072790463743927e-07,8.175487963837868e-08,-4.233702554217155e-07,-1.8143784509605235e-07,3.6746656725790066e-07,-6.129781196223311e-07,6.350873682287158e-07,2.1164013933690511e-07,1.1074980473753286e-07,1.0407467840161382e-07,-3.920982930102282e-07,-7.206987394299416e-07,-5.19013990296271e-07
-3.984145286770682e-07,-2.279326708424528e-07,2.521164368182092e-07,-2.0433074464210786e-07,5.135556059054477e-07,-2.4051192766299675e-07,2.427202602130507e-08,-4.768689274624168e-07,-2.0577905802041472e-07,3.3599949797699625e-07,-6.329971360305003e-07,6.309686120676553e-07,1.85786191923088e-07,8.469568332992894e-08,9.71761395132423e-08,-4.503563941382658e-07,-7.556851577019987e-07,-5.32230552803588e-07
-4.3812082379062746e-07,-2.136035414706563e-07,2.2737790785746855e-07,-2.3548264182732576e-07,4.6294227940238125e-07,-3.024230955537898e-07,-7.257686947697119e-09,-5.285929596065348e-07,-2.2960668346051221e-07,2.9429625438832977e-07,-6.422478892967866e-07,6.229956869214103e-07,1.5997823665352508e-07,6.022184776381354e-08,8.525823326794898e-08,-5.15909786637756e-07,-7.894168627601259e-07,-5.464446727474783e-07
