0,1,2,3,4,5,6,7,8,9,10,11,12,13,14,15,16,17
9.544452043755866e-08,-1.6256956208805305e-08,2.6502714820170334e-08,-2.238983900392089e-08,-2.1282435759413172e-07,1.705044123040587e-07,-9.589011544984569e-08,2.1836535302642774e-10,2.5256991700237196e-07,1.291793944145248e-07,-1.538476763261106e-08,-2.636374086904722e-08,-1.0586086882934433e-07,-1.5040562084937634e-07,2.4138336564681044e-07,1.033865366857365e-08,2.6733091444240926e-07,1.6365282964281987e-07
7.596932217464563e-08,-1.9776690034406312e-09,4.78102043071288e-08,-6.793270033150143e-09,-1.5040805147995e-07,1.3247838024338214e-07,-2.26969207131459e-08,1.73619819598629e-08,1.6674669860239852e-07,1.0788884844047394e-07,-1.3054656152911102e-08,-1.7958256507915746e-08,-7.106936975370334e-08,-1.0774851052893924e-07,1.8066415077767794e-07,7.190929786257415e-09,2.391944843759139e-07,1.1943001462631702e-07
6.083196606502276e-08,1.5037408804468882e-08,6.086696775321277e-08,5.9583233129656375e-09,-8.639050306872242e-08,1.0024374372869236e-07,3.548705957909724e-08,3.289175033717636e-08,9.094646681177641e-08,8.800559663661495e-08,-8.973584963842322e-09,-1.5226936469341182e-08,-4.005233238692704e-08,-6.659476215003492e-08,1.2938277177185322e-07,1.0914954483451632e-08,2.1082898250797847e-07,8.743391134104075e-08
5.06443508828922e-08,3.2166825374615435e-08,6.597424329497545e-08,1.4421164101304168e-08,-2.595492146913767e-08,7.347593250192542e-08,7.212348881138428e-08,4.3272471887224297e-08,3.680037640014715e-08,7.16351727087147e-08,-4.5371752001231365e-09,-1.594741946308349e-08,-1.642181998044023e-08,-3.547855283894059e-08,8.738724404306199e-08,1.6778659497303024e-08,1.8017503401859608e-07,6.726516900570873e-08
4.441256832005413e-08,4.590647306478874e-08,6.024895293248712e-08,1.809690503342231e-08,2.3561528171179182e-08,5.0367197558834107e-08,8.534871255776754e-08,4.7264647655500835e-08,5.104359545985258e-09,5.788748974290463e-08,-6.699923896155577e-10,-1.9855422738427637e-08,-1.1154690599601134e-10,-1.2793768762824698e-08,5.318981069262547e-08,2.1615085325878102e-08,1.4688855855565004e-07,5.8400842331694e-08
4.0597184044708307e-08,5.394727870460388e-08,4.657259743887511e-08,1.784334796023072e-08,5.0142872244428867e-08,2.930187493725773e-08,7.874726386962523e-08,4.6358936277310545e-08,-4.313815569581838e-09,4.6124549642237655e-08,2.7735484975979988e-09,-2.542133458514237e-08,1.0009734590302856e-08,2.155657980202656e-09,2.5936354239372664e-08,2.449134554937298e-08,1.1193914303572128e-07,5.073473853500656e-08
3.75965783871288e-08,5.558457188803409e-08,2.889426360647961e-08,1.5290742663812274e-08,6.149599513823805e-08,9.591810601101824e-09,5.952652035297142e-08,4.2591330442237616e-08,-6.622469609821422e-09,3.5924919706857805e-08,6.380785383773023e-09,-2.4286601533042353e-08,1.6212458382113034e-08,1.0842127996356964e-08,2.5445360897557254e-09,2.5460045191579393e-08,7.578927341526354e-08,4.1919320298256886e-08
3.3478779055880686e-08,5.0760495163163277e-08,5.526161251461762e-09,1.2017211068006759e-08,6.540416173607851e-08,-9.957357243857833e-09,3.518967954054809e-08,3.602964387307012e-08,-6.828337478525829e-09,2.4171312853486682e-08,1.0009507837121821e-08,-2.266794730902006e-08,2.040669668237325e-08,1.7230044638414877e-08,-1.8529964231892286e-08,2.4017528262557137e-08,3.734946479985603e-08,2.8316990549213428e-08
2.5851190748062605e-08,3.895940244846019e-08,-2.0609091848482017e-08,8.584374803890091e-09,5.9292997825291004e-08,-3.0253913619326724e-08,1.1004908770547138e-08,2.479046253677789e-08,-9.153607929489071e-09,9.273521607026867e-09,1.2401413887584036e-08,-1.561880165565191e-08,2.151032322607822e-08,1.9943603608061394e-08,-3.7300708026897026e-08,1.8980040619547123e-08,-4.966647829040152e-09,6.774018023328628e-09
1.2560882951187227e-08,2.0539525616024002e-08,-3.437178597398484e-08,4.774863885358138e-09,5.204996532106813e-08,-5.117624712251829e-08,-1.0304932162112607e-08,7.728890962124317e-09,-1.995680853356346e-08,-9.523473913749915e-09,1.213103348483645e-08,-4.468131112518304e-09,2.022675685632731e-08,2.157106784679912e-08,-5.542707855732484e-08,9.795923722357508e-09,-5.114486768060007e-08,-1.2798908149586619e-08
-7.2233870914339365e-09,-2.6547153760663147e-09,-4.8758715526568e-08,6.216424677229533e-10,4.4264047441266225e-08,-7.007982517910422e-08,-2.7360301898421624e-08,-1.3258108910256936e-08,-2.9517018964467393e-08,-3.24506032197966e-08,8.984440695531871e-09,6.206158717613553e-09,1.8269245031197975e-08,2.349086148433477e-08,-7.228276357558623e-08,-2.3329926967558517e-09,-9.874178247488995e-08,-3.332083423774578e-08
-3.262537783595103e-08,-2.4303612984629743e-08,-6.240572677867013e-08,-3.5541644228806357e-09,3.55125023414564e-08,-8.315168288699846e-08,-3.91795170572354e-08,-3.373754167655916e-08,-4.6972795557489694e-08,-5.8222680806214306e-08,4.2986074278211296e-09,1.1151397818028398e-08,1.7666676376365125e-08,2.915063760148625e-08,-8.656587582584794e-08,-1.4917554471779774e-08,-1.4436353650878298e-07,-5.688652940766032e-08
-6.179728561254054e-08,-4.4322141393725584e-08,-6.701171461105665e-08,-7.479088754181922e-09,2.8740027536256317e-08,-8.798004989411728e-08,-4.536399371319746e-08,-4.983828701478539e-08,-7.139859607632577e-08,-8.402528162346535e-08,-1.0123554767145368e-10,1.5090700459214475e-08,1.9914532815168917e-08,3.99486849663661e-08,-9.832919915768232e-08,-2.5872120697227673e-08,-1.8610723636772797e-07,-8.510678618750513e-08
-9.305840538611878e-08,-6.096823617366516e-08,-6.098407471696941e-08,-1.1716574768102779e-08,2.509259549853883e-08,-8.505397672586733e-08,-4.678542352184565e-08,-6.071032410966602e-08,-9.622742943274511e-08,-1.0872920873042434e-07,-3.2360125416065585e-09,3.166572011135217e-08,2.4665367684547488e-08,5.5311443413440676e-08,-1.0816591016556864e-07,-3.475031035375709e-08,-2.245859439005434e-07,-1.1482946262344408e-07
-1.2531256394756775e-07,-7.433304051034478e-08,-3.4706232020493765e-08,-1.795761456844668e-08,1.941217637004804e-08,-7.786945248678435e-08,-4.559732059169492e-08,-6.79735899394347e-08,-1.202897559364703e-07,-1.3048098642612715e-07,-5.154303973679734e-09,5.147098690523242e-08,3.009837753505163e-08,7.226800388492841e-08,-1.1716624949249882e-07,-4.235833192747762e-08,-2.615944718502326e-07,-1.44846040627541e-07
-1.5737032319352878e-07,-8.80856094134795e-08,-1.3548763928565505e-08,-2.7718023746031112e-08,1.0608963988092584e-08,-7.044084671667822e-08,-4.424910837444339e-08,-7.299062963360825e-08,-1.4088718327419863e-07,-1.4665857103306406e-07,-5.867608812205114e-09,7.222962823174894e-08,3.453576867688525e-08,8.110908170972405e-08,-1.2672048422785988e-07,-4.935185595987998e-08,-2.9799136853956996e-07,-1.7613927311990275e-07
-1.869606834744576e-07,-9.87171917175741e-08,-4.6659404171445005e-09,-4.068419685255104e-08,-3.301488177869965e-09,-6.573582792312002e-08,-4.449128217430169e-08,-7.509860176171861e-08,-1.5661721860165365e-07,-1.5495733422401424e-07,-4.368146429714349e-09,7.386231062001585e-08,3.807921963892196e-08,7.946546704752223e-08,-1.3781548510236235e-07,-5.545687354176993e-08,-3.331596650866486e-07,-2.0698431368872354e-07
-2.105731072595196e-07,-1.0664748985738974e-07,-3.252259289679561e-08,-5.4075885646189915e-08,-2.052052128559194e-08,-6.601568036283101e-08,-4.7565684711107144e-08,-7.300326056141492e-08,-1.6529037282194255e-07,-1.529227464931489e-07,1.1149632471441418e-09,4.8624359760679425e-08,4.1311440758734765e-08,6.518036561693619e-08,-1.5098216232689373e-07,-6.014295380669213e-08,-3.6656288446027723e-07,-2.395656254517495e-07
-2.245179323870841e-07,-1.1154179035610836e-07,-1.0859136932778358e-07,-6.369628259972816e-08,-3.583032370359748e-08,-7.483098473520063e-08,-5.552099556351288e-08,-6.858496751545609e-08,-1.692883729469531e-07,-1.3982342204895e-07,1.1819158036229716e-08,-7.655076324650665e-09,4.443066317371791e-08,3.2091020257172185e-08,-1.6800547056302916e-07,-6.392030113582188e-08,-3.9953631200351164e-07,-2.7252646587692665e-07
-2.2652875069325075e-07,-1.2287125423323538e-07,-1.351704511662921e-07,-6.716674992512637e-08,-4.864178841938308e-08,-9.690762254246212e-08,-7.215949607008187e-08,-6.696549612779275e-08,-1.6696538212833613e-07,-1.188943138320149e-07,2.7380588707010606e-08,-1.0793595602699652e-07,4.647800422371563e-08,-2.1902390975146884e-08,-1.9120797604568985e-07,-6.864806203210803e-08,-4.3505555657535973e-07,-3.045475574601725e-07
-2.1678270153513142e-07,-1.6230726896506439e-07,-1.545106146556614e-07,-6.246995680385052e-08,-6.089601791335126e-08,-1.3791752817560527e-07,-1.0204916536878044e-07,-7.168042266559009e-08,-1.5823942666148678e-07,-9.447196574502822e-08,4.6116235266725506e-08,-1.0950735187485957e-07,4.3029717251295235e-08,-9.972084529855518e-08,-2.2118923227669557e-07,-7.618966375841916e-08,-4.752953044907198e-07,-3.347741517880439e-07
-1.977707188421084e-07,-2.2830919290277022e-07,-1.741182828994537e-07,-5.0029174322013604e-08,-7.273206704163487e-08,-2.0041254736361156e-07,-1.4765669134812038e-07,-1.0248512703832773e-07,-1.4578519811696126e-07,-7.101478380911526e-08,6.650728170638605e-08,-4.998202314601361e-08,3.38879561317377e-08,-1.9381164640305954e-07,-2.552633333669389e-07,-8.662497902050076e-08,-5.192602660790413e-07,-3.5878581239775783e-07
-1.7338762642561697e-07,-3.0920201115365896e-07,-2.2390483535688654e-07,-3.280157123387581e-08,-8.739964595358534e-08,-2.834854660000108e-07,-2.0663940324693028e-07,-1.4200395606174868e-07,-1.2656136397629527e-07,-5.158841455244806e-08,8.84677414294923e-08,-1.5313368771397315e-07,2.0220281858543508e-08,-2.960344863886675e-07,-2.924260481510803e-07,-9.797286138168223e-08,-5.629580421626565e-07,-3.736796999862894e-07
-1.4788206765563874e-07,-3.6283258982136594e-07,-3.1137438864348585e-07,-1.503485793604736e-08,-1.0757378205807439e-07,-3.763093892936646e-07,-2.7180847984244863e-07,-1.9346823474254635e-07,-1.0120002739688848e-07,-3.5458576176941845e-08,1.1311076090697469e-07,-2.991962187600631e-07,2.625614050423834e-09,-3.944139964931542e-07,-3.2492853448254997e-07,-1.0801906228116737e-07,-6.023104780274366e-07,-3.767943047147401e-07
-1.250341201366758e-07,-3.772185186341273e-07,-3.695637686579455e-07,-2.764477599268075e-09,-1.3420296181365336e-07,-4.673039442525942e-07,-3.344270084305235e-07,-2.473977572078788e-07,-7.023705241663489e-08,-2.0179618550299998e-08,1.4115803466463678e-07,-4.444684142319654e-07,-1.5981584799167264e-08,-4.804554144087312e-07,-3.4339138542638225e-07,-1.1671041480635515e-07,-6.364472890585852e-07,-3.666193647536542e-07
-1.07800659461237e-07,-3.8064938442340943e-07,-3.903956776099025e-07,-2.240176567529229e-09,-1.7253511193516083e-07,-5.45621893444337e-07,-3.8849792234574895e-07,-2.985329846814345e-07,-3.394370784701987e-08,-2.4231935974109413e-09,1.715512894917521e-07,-5.798070328597936e-07,-3.810263958264169e-08,-5.526823999474229e-07,-3.502602249841699e-07,-1.2678105501089665e-07,-6.684073575139522e-07,-3.474389272396848e-07
-9.835404138715734e-08,-3.77828649427413e-07,-4.255200458001768e-07,-1.6082829625164116e-08,-2.2231423935780727e-07,-6.09541178598639e-07,-4.325125106733599e-07,-3.4471601339687816e-07,2.1352490632157784e-09,1.8674264810776738e-08,2.016783812609e-07,-6.549112069284691e-07,-6.592407356639038e-08,-6.097943130160886e-07,-3.4865985295386645e-07,-1.4179426981184638e-07,-7.024401477041117e-07,-3.2304834485590853e-07
-9.790446359700525e-08,-3.939735665275679e-07,-4.542433280022954e-07,-4.48369591841258e-08,-2.795643695038415e-07,-6.666172416536004e-07,-4.675659655499543e-07,-3.8513357891005005e-07,3.954879270223168e-08,4.2415518320431425e-08,2.2913200416786928e-07,-7.03518364441013e-07,-9.830822797980999e-08,-6.523291552412131e-07,-3.416035029792342e-07,-1.6327517614360532e-07,-7.403032651545996e-07,-2.976299106403532e-07
-1.0597525738288028e-07,-3.956468815134001e-07,-4.873070415213322e-07,-8.521014662030976e-08,-3.353182948382563e-07,-7.126497693123956e-07,-4.942793853264752e-07,-4.2068545299734626e-07,7.375573124651398e-08,6.808499526444189e-08,2.5320983865607024e-07,-7.264167720317582e-07,-1.3174305331667158e-07,-6.799028416165331e-07,-3.325044153303087e-07,-1.8945841353896883e-07,-7.799225912863452e-07,-2.7542170206469796e-07
-1.1984459176260173e-07,-3.6717377945241133e-07,-5.365886630142172e-07,-1.3089898496569518e-07,-3.7792857228522686e-07,-7.367887069971253e-07,-5.11648527742054e-07,-4.482250770232332e-07,9.903258921159876e-08,9.603732998603844e-08,2.7464837483137244e-07,-7.10764531463875e-07,-1.6203833024122259e-07,-6.950433068627725e-07,-3.224513195509785e-07,-2.165749873250163e-07,-8.174823669119078e-07,-2.549060837230771e-07
-1.351561153423447e-07,-3.299600956308161e-07,-5.296878383843195e-07,-1.7672207538581183e-07,-3.9877247132026197e-07,-7.299039284054913e-07,-5.185931730280142e-07,-4.715574545489417e-07,1.1337922323938238e-07,1.2735149240746676e-07,2.938246078900964e-07,-6.820531084482714e-07,-1.871017595351193e-07,-7.028234323900707e-07,-3.120472150303636e-07,-2.413233225317554e-07,-8.507055688672243e-07,-2.4093087397599675e-07
-1.4759619525121498e-07,-3.0507319719519686e-07,-4.871954086333417e-07,-2.2013921113403408e-07,-3.9679716103944704e-07,-6.826711431718123e-07,-5.165273193565857e-07,-4.985471288780655e-07,1.1461265437574613e-07,1.6222213004683304e-07,3.0919341156034736e-07,-6.542068898273687e-07,-2.0838748977997978e-07,-7.080016451151922e-07,-3.0464770795025224e-07,-2.623301386219759e-07,-8.800163958093871e-07,-2.3770402213513749e-07
-1.5441394343964848e-07,-2.7702425886034266e-07,-4.599629026023608e-07,-2.61719440646423e-07,-3.7818515751805084e-07,-6.063020619364366e-07,-5.106852651642193e-07,-5.371141650445737e-07,1.0264104004385279e-07,1.9933235650162723e-07,3.1754753479396065e-07,-6.502670731344881e-07,-2.306083068139791e-07,-7.195760852352598e-07,-3.037509201916446e-07,-2.795976530389049e-07,-9.066273800680387e-07,-2.5076309194733567e-07
-1.548870478873146e-07,-2.638916454851414e-07,-4.425347049104322e-07,-3.0330259883013064e-07,-3.513210012351179e-07,-5.333536589383111e-07,-5.091289499415399e-07,-5.942299633846914e-07,7.936073156924997e-08,2.3516622221338596e-07,3.159125591180042e-07,-6.781313126075634e-07,-2.568135239004186e-07,-7.40930624617658e-07,-3.08038713608137e-07,-2.9287043943943493e-07,-9.298042950897272e-07,-2.803674355114068e-07
-1.499807627745394e-07,-2.8523887619522016e-07,-4.4848608748397785e-07,-3.4578441015487714e-07,-3.239537708476373e-07,-4.641872001115576e-07,-5.201209423380789e-07,-6.636829346152292e-07,4.779339611839378e-08,2.647667008923904e-07,3.03481685223757e-07,-7.307561598516284e-07,-2.8698258043852143e-07,-7.669372055780727e-07,-3.13873304254049e-07,-3.006918643486822e-07,-9.461593631621177e-07,-3.2310875595683237e-07
-1.418900908491444e-07,-3.1669165832919516e-07,-4.882331445573845e-07,-3.862577940518538e-07,-2.9952723063748366e-07,-4.0664349041462374e-07,-5.494524412570213e-07,-7.358855697125493e-07,9.695766454999081e-09,2.8152144653117547e-07,2.821383428705725e-07,-7.893315121776484e-07,-3.1795450701504024e-07,-7.874227289934186e-07,-3.1679288186863503e-07,-3.010835266306002e-07,-9.516662782141706e-07,-3.7472696577459307e-07
-1.3372150276123084e-07,-3.4817769737800094e-07,-5.409640086426186e-07,-4.206769227587363e-07,-2.791597304868785e-07,-3.6334177244554345e-07,-5.988408826075949e-07,-7.769478855453084e-07,-3.299977514356157e-08,2.7987265441813604e-07,2.5546719254995163e-07,-8.336795345151566e-07,-3.4271515450971905e-07,-7.899407476529365e-07,-3.138402793710892e-07,-2.931811856670813e-07,-9.446514528395643e-07,-4.2904543823680173e-07
-1.2904561190511767e-07,-3.7465005467428473e-07,-5.629271401108315e-07,-4.457827679886388e-07,-2.645246397254979e-07,-3.2314348216124077e-07,-6.654401185093599e-07,-7.748173662481986e-07,-7.595462145600762e-08,2.5771062783825646e-07,2.272295545355993e-07,-8.577745175275427e-07,-3.579726897654497e-07,-7.700034420927845e-07,-3.0592786993564836e-07,-2.7822722986783447e-07,-9.272272537062436e-07,-4.830303861068785e-07
-1.3098400486023252e-07,-4.0248307615279784e-07,-5.819731444057384e-07,-4.601016434465918e-07,-2.578892631692836e-07,-2.970645487769303e-07,-7.42057538172591e-07,-7.767579447447394e-07,-1.1676776037138046e-07,2.1552288732949873e-07,2.00451176722538e-07,-8.468110306342482e-07,-3.6286140182346527e-07,-7.263480708844066e-07,-2.9505156341295407e-07,-2.589737257730117e-07,-9.040325868722768e-07,-5.32186421448256e-07
-1.409642068705275e-07,-4.3303450450589047e-07,-5.937773709553627e-07,-4.6452955836847196e-07,-2.604919682419704e-07,-3.0554418398699434e-07,-8.181475473046427e-07,-7.707605503393895e-07,-1.5375894915640571e-07,1.5992773063960488e-07,1.77499675405027e-07,-8.103399114528726e-07,-3.579587507129883e-07,-6.655840371708997e-07,-2.8510753935141354e-07,-2.3814531777840846e-07,-8.795838072075566e-07,-5.731357830333247e-07
-1.5783800543286796e-07,-4.6404715069556727e-07,-5.914643341465972e-07,-4.608214890560325e-07,-2.707356062433916e-07,-3.2521545781946116e-07,-8.819573009885665e-07,-7.516788133908712e-07,-1.855980960823129e-07,9.928284132918631e-08,1.6052792306025655e-07,-7.55601689074266e-07,-3.475776626409455e-07,-5.969138998588142e-07,-2.8009634717544383e-07,-2.17381444302574e-07,-8.565603921381404e-07,-6.040984584286967e-07
-1.7802897101997061e-07,-4.826137788248242e-07,-5.864330531144111e-07,-4.5093061834597267e-07,-2.8482110796700026e-07,-3.5988317971039897e-07,-9.235584407967225e-07,-6.868342606948255e-07,-2.1264044536188932e-07,4.5842805877831703e-08,1.514588191676008e-07,-6.901985427283714e-07,-3.3335767597069785e-07,-5.297097556056956e-07,-2.8069654810471603e-07,-1.9734507487107902e-07,-8.360218752479371e-07,-6.244602533676034e-07
-1.9667158352981868e-07,-4.804448286542486e-07,-5.716849735410662e-07,-4.3773754998478894e-07,-3.002480560306246e-07,-4.005994605573671e-07,-9.377073746807886e-07,-6.207282912161707e-07,-2.3493794486168722e-07,9.961152219387212e-09,1.5142076680296213e-07,-6.291502527299223e-07,-3.172913824942833e-07,-4.747809406179717e-07,-2.8735109311829417e-07,-1.7846311275162335e-07,-8.185652926386664e-07,-6.347906175089548e-07
-2.0898321310252936e-07,-4.59607454976421e-07,-5.489868623259247e-07,-4.2486537552234163e-07,-3.1775567753166553e-07,-4.4399419300492964e-07,-9.253880572982216e-07,-5.647930297169651e-07,-2.525055920261234e-07,-1.0162356065794134e-08,1.602722589659596e-07,-5.817220218887399e-07,-3.022773905900529e-07,-4.412675547063075e-07,-2.998387120483299e-07,-1.6123557358426434e-07,-8.047725969275869e-07,-6.353512235086297e-07
-2.1105991218068368e-07,-4.265120168054596e-07,-5.233902810778886e-07,-4.169434773420778e-07,-3.4163972171510214e-07,-4.868315379833196e-07,-8.934153410263546e-07,-5.079655745835009e-07,-2.64021316535471e-07,1.937898982607692e-10,1.7685756327544745e-07,-5.574492365064401e-07,-2.902926031761039e-07,-4.360212656762311e-07,-3.1601913091601564e-07,-1.4568363935712226e-07,-7.94477789344278e-07,-6.257302627380398e-07
-2.0001300513234725e-07,-3.847984099065307e-07,-5.061648873031542e-07,-4.1860878077487885e-07,-3.7672281652354937e-07,-5.277142094696562e-07,-8.523335341514249e-07,-5.006680220243491e-07,-2.674916054110468e-07,5.5452956254867965e-08,1.997625949733771e-07,-5.613101466681843e-07,-2.8167638541438205e-07,-4.6044545182097434e-07,-3.314618108061431e-07,-1.3072150817877055e-07,-7.860672209820721e-07,-6.059200711643467e-07
-1.7415850886962393e-07,-3.3368628927500587e-07,-4.913353611967824e-07,-4.325439911094559e-07,-4.244601200747225e-07,-5.603312571256752e-07,-8.136591680051146e-07,-5.332196116608556e-07,-2.6044629515775977e-07,1.3404193298242706e-07,2.2764074919811927e-07,-5.962296966641865e-07,-2.7523900233241157e-07,-5.115555600922206e-07,-3.41203650309244e-07,-1.1460736859453753e-07,-7.771607196892221e-07,-5.735795134255373e-07
-1.3437587529011348e-07,-2.8182764369206234e-07,-4.787671912511333e-07,-4.586433767142552e-07,-4.833299576349122e-07,-5.805730389717103e-07,-7.87685539162828e-07,-5.819480229534658e-07,-2.4113278677819155e-07,2.1932843117848836e-07,2.5858262452888485e-07,-6.543237239321468e-07,-2.694578369262926e-07,-5.825971513813667e-07,-3.406721950544802e-07,-9.655914011912324e-08,-7.6641374714635e-07,-5.296824597725081e-07
-8.366484157679646e-08,-2.317642396078456e-07,-4.7221322379678606e-07,-4.940017429240611e-07,-5.498513613904968e-07,-5.874535272241735e-07,-7.822692333806318e-07,-5.963805586329854e-07,-2.1093206230921786e-07,3.1141679132528503e-07,2.891824810141784e-07,-7.220641048011832e-07,-2.6312729572345786e-07,-6.626046746415568e-07,-3.2850688976886865e-07,-7.818623335139906e-08,-7.546951675483231e-07,-4.7655792057672287e-07
-2.9173248260584404e-08,-1.8216443798582301e-07,-4.702946444878742e-07,-5.33533551359875e-07,-6.19959888407851e-07,-5.847434901386422e-07,-8.01880314482512e-07,-6.134994708217767e-07,-1.7508951620932122e-07,3.7983962054768705e-07,3.145867145907417e-07,-7.894777715955863e-07,-2.5709410031487934e-07,-7.393131061446598e-07,-3.084159947766185e-07,-6.312783887741491e-08,-7.441837094151656e-07,-4.2175396415602517e-07
1.9387492440231178e-08,-1.4171195345878384e-07,-4.734838062718097e-07,-5.705997363959871e-07,-6.888444305806512e-07,-5.76805898624872e-07,-8.461608797080986e-07,-6.860104955214292e-07,-1.4120921653110612e-07,3.817472954224799e-07,3.300118004626156e-07,-8.434828566939448e-07,-2.523695328538534e-07,-7.998887536750404e-07,-2.8593492657155755e-07,-5.475761576187027e-08,-7.359447749122615e-07,-3.738112248017568e-07
5.88522375925136e-08,-1.1490647196273794e-07,-4.789108884234667e-07,-5.97238354318391e-07,-7.496953866905484e-07,-5.671811232346099e-07,-9.086390870558458e-07,-7.560835344606497e-07,-1.172088127522199e-07,3.549108867772913e-07,3.3278951688640685e-07,-8.7186225995139e-07,-2.4866645696518263e-07,-8.323155645396827e-07,-2.6570294234316527e-07,-5.374514954603089e-08,-7.283174919072768e-07,-3.3004651274766907e-07
8.285449358306378e-08,-1.0233792167793137e-07,-4.805425469233824e-07,-6.079094675839791e-07,-7.942127372508564e-07,-5.578763061070482e-07,-9.773266198821402e-07,-8.029473946171132e-07,-1.0773573688142701e-07,3.2708704781764644e-07,3.2342916962121823e-07,-8.658599382322694e-07,-2.452450954931048e-07,-8.291841550315133e-07,-2.5020107675330403e-07,-5.756790415970957e-08,-7.178683847211296e-07,-3.1272123137282677e-07
7.265118463852254e-08,-1.027146880301943e-07,-4.756415218975799e-07,-6.002099150101806e-07,-8.159883169671222e-07,-5.488677770070649e-07,-1.0381537279290423e-06,-8.094077426022666e-07,-1.1364667674290811e-07,3.2765954752520326e-07,3.050063382199468e-07,-8.247141599939687e-07,-2.4059926277899793e-07,-7.90091545438331e-07,-2.40313140105542e-07,-6.233741466306486e-08,-7.021767271762723e-07,-3.147201040865527e-07
5.73611835294259e-08,-1.1055192363903954e-07,-4.6223664148665556e-07,-5.761902327098119e-07,-8.146884884748672e-07,-5.411534361839007e-07,-1.0800811907258744e-06,-8.433295813153181e-07,-1.3204801168060257e-07,2.844583673510982e-07,2.815320827792383e-07,-7.604509498484354e-07,-2.3474041482051157e-07,-7.249783036511576e-07,-2.358179865484827e-07,-6.525200174447916e-08,-6.818244038846009e-07,-3.2836611319984515e-07
4.000870102494281e-08,-1.2108953251437455e-07,-4.4134946521616676e-07,-5.422592451027249e-07,-7.96870256972936e-07,-5.371705791969667e-07,-1.0990384505442203e-06,-8.484489241043073e-07,-1.57838960628198e-07,2.1038682678090646e-07,2.566601987087301e-07,-6.864220645817023e-07,-2.2948241426325634e-07,-6.503237902353249e-07,-2.3748936569005963e-07,-6.558598063213224e-08,-6.596694595820458e-07,-3.4245976876740265e-07
1.927848824446012e-08,-1.3155251476325562e-07,-4.1904166901711345e-07,-5.060883184318916e-07,-7.729471051826962e-07,-5.394372994412455e-07,-1.09828195820646e-06,-8.051380503919953e-07,-1.8550252051861016e-07,1.542328801977563e-07,2.334873615770581e-07,-6.191188521623622e-07,-2.2598807673749537e-07,-5.827401826868186e-07,-2.465727367457511e-07,-6.376677967771901e-08,-6.382373993872657e-07,-3.6244446124665445e-07
2.8583538637566416e-10,-1.4004051443614323e-07,-3.9716399104115174e-07,-4.739026731547936e-07,-7.521677462485985e-07,-5.485518528040787e-07,-1.085325725087671e-06,-7.358049451683292e-07,-2.090762848788196e-07,1.0237420421049869e-07,2.1489112028361032e-07,-5.698946587363669e-07,-2.2470211670071827e-07,-5.340555469509498e-07,-2.6090628993293083e-07,-5.998977171444096e-08,-6.179242411102465e-07,-3.8360362840910034e-07
-1.0693058783505894e-08,-1.449634989693008e-07,-3.807303094214351e-07,-4.5011288610084603e-07,-7.39763005095476e-07,-5.6239354358323e-07,-1.0679369305399785e-06,-6.911324083943375e-07,-2.2456668300102855e-07,5.912755553571341e-08,2.0336307178525477e-07,-5.415537233850585e-07,-2.2439935131691124e-07,-5.083789206068873e-07,-2.7773809186271815e-07,-5.391816376053781e-08,-5.976355176866922e-07,-3.992037399277091e-07
-1.2124446508302387e-08,-1.4548057828821655e-07,-3.733089897020748e-07,-4.349339101684304e-07,-7.36294809737163e-07,-5.775159257307705e-07,-1.051711802406402e-06,-6.613794685620534e-07,-2.3169698973111313e-07,5.183610436372775e-08,2.0003539675940782e-07,-5.327974096894856e-07,-2.233558963355735e-07,-5.032433090228571e-07,-2.950663251443497e-07,-4.546154432278745e-08,-5.768297702750067e-07,-4.088612939717055e-07
-4.762980722705029e-09,-1.4248919988255916e-07,-3.736132958175454e-07,-4.264928441733552e-07,-7.402315110069774e-07,-5.912471002908994e-07,-1.039766816324107e-06,-6.379955395559729e-07,-2.329117573456965e-07,6.630022049705179e-08,2.03737469371055e-07,-5.383808826566887e-07,-2.2098356237695718e-07,-5.119493412075038e-07,-3.1172325715452994e-07,-3.5315282800079806e-08,-5.565500944954024e-07,-4.1514068663187493e-07
7.664544815793025e-09,-1.3901102007363333e-07,-3.798047803925423e-07,-4.226207489593925e-07,-7.49250644850808e-07,-6.025087067942261e-07,-1.033143132905909e-06,-6.23265380953927e-07,-2.334615524017834e-07,9.133946850491793e-08,2.1114339017652065e-07,-5.503567968669488e-07,-2.1773586622516648e-07,-5.254471531304625e-07,-3.2759710534088833e-07,-2.4293830204351183e-08,-5.383018665485235e-07,-4.2348678110473145e-07
1.9543015448891384e-08,-1.390118831684448e-07,-3.8949757997158813e-07,-4.2011581825592916e-07,-7.59449253235926e-07,-6.109441336874117e-07,-1.0305620428638102e-06,-6.143481190548743e-07,-2.3945604212820944e-07,1.1317520950783209e-07,2.1820977574059963e-07,-5.583283860781571e-07,-2.1381694753138086e-07,-5.330399664996128e-07,-3.415267451610871e-07,-1.2038387687273023e-08,-5.221567317798856e-07,-4.373098079667559e-07
2.533628493933479e-08,-1.4540472834594966e-07,-3.986430809344758e-07,-4.1520395700423995e-07,-7.648004342342901e-07,-6.157836409325807e-07,-1.0279360620280454e-06,-6.048445441433925e-07,-2.550480345809095e-07,1.1423375575431847e-07,2.219878554501692e-07,-5.532313074481341e-07,-2.0820568946941686e-07,-5.247788714657984e-07,-3.5082962867337224e-07,3.4341820494692136e-09,-5.062755408066762e-07,-4.5795938836618416e-07
2.138376691819219e-08,-1.5882892185392616e-07,-4.027272516553296e-07,-4.039645993056067e-07,-7.586556182150523e-07,-6.161125560857145e-07,-1.0191111670172408e-06,-5.867053435766296e-07,-2.8175384427279407e-07,9.200731453706858e-08,2.2162540354179823e-07,-5.287265752165938e-07,-1.9932361238669859e-07,-4.951724162997942e-07,-3.5310413816208286e-07,2.4634382479663896e-08,-4.883419425000733e-07,-4.842198709529457e-07
6.784694319536455e-09,-1.7791404131968702e-07,-3.996326121205071e-07,-3.838895786185666e-07,-7.372617164420473e-07,-6.125557940494631e-07,-9.983352693928464e-07,-5.54286750966098e-07,-3.169119722562817e-07,5.083218987626805e-08,2.1817080942819453e-07,-4.849701851441926e-07,-1.8614746098601812e-07,-4.459433599777626e-07,-3.489444370903908e-07,5.274476364552672e-08,-4.673771859263739e-07,-5.146135583802424e-07
-1.654511991208093e-08,-2.0042065767605145e-07,-3.8865705153094247e-07,-3.554142033438352e-07,-7.027787552808069e-07,-6.085886928783274e-07,-9.632163484420618e-07,-5.075761840120845e-07,-3.585148991052614e-07,-2.317037806519079e-10,2.1382977061162165e-07,-4.3044489800963136e-07,-1.6944004717583215e-07,-3.864883648184648e-07,-3.4176321071538413e-07,8.656441074882947e-08,-4.4406186051079056e-07,-5.477358956821142e-07
-4.4141309352213016e-08,-2.2376117109277893e-07,-3.715009051929631e-07,-3.234227661171825e-07,-6.638273636980813e-07,-6.096967373966615e-07,-9.163313088141414e-07,-4.5210705384195503e-07,-4.025514812172575e-07,-4.8652238201474034e-08,2.1156109477296354e-07,-3.785123551523256e-07,-1.5126526651513535e-07,-3.310851935682528e-07,-3.357805927429966e-07,1.2309431628835004e-07,-4.192222000079311e-07,-5.808617417260417e-07
-6.951528618181361e-08,-2.44660641095612e-07,-3.52082223755617e-07,-2.9460218213195887e-07,-6.320940200760591e-07,-6.20557321835392e-07,-8.646247144019497e-07,-3.959205619042956e-07,-4.4212865438295947e-07,-7.765923600147397e-08,2.149375106600914e-07,-3.4311819746663616e-07,-1.333622811350363e-07,-2.9369964459131293e-07,-3.3341722000011827e-07,1.590490066850641e-07,-3.9218343155207227e-07,-6.097914548050762e-07
-8.551475607894109e-08,-2.591905538593979e-07,-3.332679678193799e-07,-2.7498333533063324e-07,-6.175763182017438e-07,-6.424356613303303e-07,-8.172179235930306e-07,-3.4623966300136537e-07,-4.707686990028849e-07,-6.425050366193222e-08,2.2732636946380493e-07,-3.331702836503149e-07,-1.1634654329555482e-07,-2.835278949535077e-07,-3.335517005266081e-07,1.9186549867074992e-07,-3.6103051071711513e-07,-6.289081423284606e-07
-8.684880813771377e-08,-2.6434183238461233e-07,-3.1616693503496425e-07,-2.68100909023997e-07,-6.251426807203395e-07,-6.726757327957405e-07,-7.828877781669091e-07,-3.080788080211799e-07,-4.832650541465086e-07,-3.96332041713794e-08,2.5002512882654177e-07,-3.502365437358324e-07,-1.002661996841377e-07,-3.027211569748376e-07,-3.326852006683846e-07,2.1958176343843643e-07,-3.248392328300007e-07,-6.322740984295889e-07
-7.29333280050272e-08,-2.605547491927709e-07,-3.009898224767643e-07,-2.739613672200299e-07,-6.535258888920708e-07,-7.063254230855174e-07,-7.67968454639148e-07,-2.8440562158176524e-07,-4.796778815205353e-07,2.9459488605121975e-08,2.804365782015781e-07,-3.891893033358628e-07,-8.593766147683115e-08,-3.461636353783987e-07,-3.26764660693898e-07,2.4026389490022116e-07,-2.8568710271109214e-07,-6.208878407256467e-07
-4.927798680780485e-08,-2.529908033104827e-07,-2.878203593842334e-07,-2.8987028229719946e-07,-6.961866789369809e-07,-7.381704752349997e-07,-7.746207686023693e-07,-2.759078725448562e-07,-4.664290754049455e-07,1.0310730267103182e-07,3.1196238005348717e-07,-4.395266318854493e-07,-7.541710332753808e-08,-4.0305661579367306e-07,-3.1318653417967357e-07,2.521820756672464e-07,-2.4810512160978526e-07,-5.998449674706343e-07
-2.5983773423596254e-08,-2.500589665459755e-07,-2.774443030881274e-07,-3.111675684200024e-07,-7.426675329465163e-07,-7.636736687285377e-07,-7.994573433519126e-07,-2.7944334617009145e-07,-4.5367025006499566e-07,1.6476080467876372e-07,3.363216737541108e-07,-4.87899040400284e-07,-7.072883567113066e-08,-4.5885096889213806e-07,-2.923962725292159e-07,2.5510196258689947e-07,-2.1597386229696695e-07,-5.753294386137944e-07
-1.3583642264942717e-08,-2.593289844653032e-07,-2.704878653994021e-07,-3.3156342854178375e-07,-7.801884878194128e-07,-7.790661728995617e-07,-8.335005117504708e-07,-2.869317736856887e-07,-4.4947030820331244e-07,1.6999318681953158e-07,3.472090283534511e-07,-5.214754644828449e-07,-7.187538673539052e-08,-4.985001380509433e-07,-2.666992169967511e-07,2.5158334610629204e-07,-1.894906200131844e-07,-5.543601714797006e-07
-1.8290419242659446e-08,-2.836035904447852e-07,-2.6731357009652063e-07,-3.4508488174859225e-07,-7.969704596918055e-07,-7.818279324156743e-07,-8.647235102602356e-07,-2.8756588335037165e-07,-4.5626514403186587e-07,1.5721443227488593e-07,3.4305642014911225e-07,-5.326499796046711e-07,-7.613179536835129e-08,-5.112478643783845e-07,-2.3941147620231615e-07,2.467004799336512e-07,-1.6498788036602743e-07,-5.397723750384017e-07
-3.9309595274887595e-08,-3.1989404868180764e-07,-2.695601965085688e-07,-3.480534897525933e-07,-7.866239319050054e-07,-7.720829802432914e-07,-8.827774586700784e-07,-2.7334687779510135e-07,-4.705431803763824e-07,1.464093592889098e-07,3.2719745191389824e-07,-5.235542641431222e-07,-7.95971335957211e-08,-4.953794847496043e-07,-2.145716746771291e-07,2.4582206338726233e-07,-1.3789776071485468e-07,-5.31492844557845e-07
-6.973928321561976e-08,-3.6169743650298694e-07,-2.809773584294659e-07,-3.40904160577848e-07,-7.51867093146007e-07,-7.531773809270782e-07,-8.834270246854004e-07,-2.442031570433078e-07,-4.851491657057382e-07,1.0139402603961775e-07,3.0564948416592287e-07,-5.06926411698171e-07,-7.985755045023566e-08,-4.599919938663838e-07,-1.9636679088235137e-07,2.5193301496665473e-07,-1.0631349113951894e-07,-5.27758937495014e-07
-1.0032238542093039e-07,-4.0276171320331375e-07,-3.0728814943156186e-07,-3.2848334795668687e-07,-7.044956107633396e-07,-7.337186378282901e-07,-8.699777732673036e-07,-2.082067673546222e-07,-4.921527018566138e-07,4.0833034071127524e-08,2.8439804377406977e-07,-5.007211822489626e-07,-7.74980384502658e-08,-4.2147289620906986e-07,-1.8748867788758344e-07,2.6466298610050244e-07,-7.196621338584802e-08,-5.263506961596318e-07
-1.235401322622761e-07,-4.39408314793457e-07,-3.550131015758165e-07,-3.1744629025138807e-07,-6.603492452256932e-07,-7.219730214684497e-07,-8.508253071598549e-07,-1.7611273481381483e-07,-4.86865198536649e-07,-1.018316161297385e-09,2.6801474984016303e-07,-5.188819364144051e-07,-7.521041585020035e-08,-3.9610155900894705e-07,-1.8733182752340483e-07,2.8180166544758894e-07,-3.791815012501314e-08,-5.233351531643176e-07
-1.3580108489298591e-07,-4.701795790221518e-07,-4.2004321761734193e-07,-3.127707649192323e-07,-6.32296018748856e-07,-7.22633990352026e-07,-8.346922060300669e-07,-1.542904100170443e-07,-4.6878275655236595e-07,-1.8410629028133772e-08,2.598024153431316e-07,-5.63970863445499e-07,-7.545523620318117e-08,-3.9304682894699493e-07,-1.9092300739265194e-07,3.0180663477926575e-07,-5.477280976273605e-09,-5.140572449700012e-07
-1.373032071284944e-07,-4.940002337717329e-07,-4.940486261651488e-07,-3.155075719771045e-07,-6.25626081878388e-07,-7.355109492826969e-07,-8.264278826873293e-07,-1.4142613165513325e-07,-4.40500370261181e-07,-1.800107499276926e-08,2.621916759453916e-07,-6.261958453783363e-07,-7.884891375475318e-08,-4.1215326935982086e-07,-1.9022580732598758e-07,3.2496374210269093e-07,2.6654874457973763e-08,-4.938645602675028e-07
-1.3039239898986325e-07,-5.091469237555284e-07,-5.616608986165635e-07,-3.232268977990434e-07,-6.382949228087213e-07,-7.556676937236595e-07,-8.255980564958051e-07,-1.3118804413582575e-07,-4.0521019833325293e-07,-4.731795266319828e-10,2.7622258571898076e-07,-6.89617021039989e-07,-8.45209218088809e-08,-4.471017182674957e-07,-1.783757622365819e-07,3.522132868095564e-07,6.038346586123042e-08,-4.5963591789659016e-07
-1.1861912416393477e-07,-5.141396270257647e-07,-5.738907467007611e-07,-3.3256606257205776e-07,-6.644830524273617e-07,-7.782349688454912e-07,-8.28092319720668e-07,-1.1816681673532788e-07,-3.6675830687610193e-07,3.021982977655311e-08,3.0029621580174807e-07,-7.409719861131816e-07,-9.169154448524899e-08,-4.904953064729897e-07,-1.5340674488514301e-07,3.828542628438524e-07,9.550543655556457e-08,-4.128270296474356e-07
-1.0565673041087978e-07,-5.093384251575001e-07,-5.779719897805042e-07,-3.412425609720873e-07,-6.980453307606108e-07,-7.978666473022427e-07,-8.29056729724548e-07,-1.0159750009091575e-07,-3.2900391487303025e-07,6.859946720680436e-08,3.2967172298476465e-07,-7.748297360884229e-07,-1.0061211683674975e-07,-5.367356857245035e-07,-1.1894112356551738e-07,4.1349711339171864e-07,1.2913588028315574e-07,-3.5900034346837587e-07
-9.465729613062806e-08,-4.980920426938766e-07,-6.002072942873051e-07,-3.4918113940728786e-07,-7.332087027699723e-07,-8.157672067354168e-07,-8.249017100777121e-07,-8.533607029679847e-08,-2.941605328790083e-07,1.0832782513387929e-07,3.58011351964439e-07,-7.926429210855879e-07,-1.1185612425066061e-07,-5.813183839990941e-07,-8.12436165850336e-08,4.3961519778252055e-07,1.5801358438736733e-07,-3.0527893384888995e-07
-8.718746834635964e-08,-4.846637175401585e-07,-5.789757342510254e-07,-3.5738739102981584e-07,-7.633417467820378e-07,-8.192663848083576e-07,-8.134701963668803e-07,-7.254137490376943e-08,-2.6257573629718093e-07,1.4417844649518307e-07,3.8038988697958126e-07,-7.985136245642357e-07,-1.248716345653894e-07,-6.192101722103354e-07,-4.458795539410635e-08,4.585441424464537e-07,1.813964259980031e-07,-2.5732620854241666e-07
-8.211414580744301e-08,-4.7145404731200635e-07,-5.301660508307179e-07,-3.6644680810906107e-07,-7.808234698903526e-07,-7.990562478566297e-07,-7.935109694436894e-07,-6.315677465972468e-08,-2.314903855672787e-07,1.7407533649423065e-07,3.955096125808376e-07,-7.959472369857911e-07,-1.3750990101978116e-07,-6.450435114634127e-07,-8.841889973652953e-09,4.7123774844036964e-07,2.0164828215888038e-07,-2.156116095830336e-07
-7.585779450197056e-08,-4.579979428861475e-07,-4.906191516047684e-07,-3.763964625880794e-07,-7.795622030422264e-07,-7.537251620698365e-07,-7.651552724200138e-07,-5.5153054664218754e-08,-1.9630886447074634e-07,1.992627436849605e-07,4.0507118254501886e-07,-7.872028041726595e-07,-1.4709821191999397e-07,-6.55048674202515e-07,2.9781843027272616e-08,4.811646564330573e-07,2.220628756972245e-07,-1.7800342474779368e-07
-6.423614977205603e-08,-4.4236357942148424e-07,-4.654418042117843e-07,-3.874932647942479e-07,-7.587136210369541e-07,-6.874697875853175e-07,-7.315849429604715e-07,-4.681311849570831e-08,-1.541124349060822e-07,2.2224494992983477e-07,4.120761293028733e-07,-7.73862809257715e-07,-1.5201967814440623e-07,-6.48693013355007e-07,7.512208879421505e-08,4.913444892536052e-07,2.441806753360439e-07,-1.4291894753460988e-07
-4.5129677552954855e-08,-4.2375572506587215e-07,-4.461179048154096e-07,-4.0051768397530307e-07,-7.243321337920809e-07,-6.106446273488382e-07,-7.00198276663721e-07,-3.959961565991775e-08,-1.0648001131375421e-07,2.442491945693071e-07,4.179213981680183e-07,-7.565587568622594e-07,-1.5234542925444047e-07,-6.281410532265592e-07,1.275076484506706e-07,5.021313942460772e-07,2.6716992894690383e-07,-1.1041174770458491e-07
-1.9862461436400087e-08,-4.0360832669696413e-07,-4.334769405649841e-07,-4.1654065962252004e-07,-6.868338308104086e-07,-5.136609083040439e-07,-6.811543355071787e-07,-3.514639681246362e-08,-5.980749206704246e-08,2.6414173680861993e-07,4.2202755262087027e-07,-7.335621731553494e-07,-1.4904417892796568e-07,-5.9583556648313e-07,1.8287626822777698e-07,5.115663727401396e-07,2.89689165202108e-07,-8.291576240202045e-08
7.49305871871969e-09,-3.8482903480085893e-07,-4.256645308073192e-07,-4.3501686084850803e-07,-6.556050745091905e-07,-4.08113690031565e-07,-6.828535088461847e-07,-3.218642568523978e-08,-2.2712128102800855e-08,2.798176253592386e-07,4.2298371051687047e-07,-7.00387257169377e-07,-1.4270302823249228e-07,-5.527433608113828e-07,2.345789479043294e-07,5.178425217160534e-07,3.1219330578819917e-07,-6.216436495447402e-08
3.250785591921561e-08,-3.686290733955763e-07,-4.193559609271329e-07,-4.527431547926949e-07,-6.347435993539811e-07,-3.73845307514177e-07,-7.067440477710372e-07,-2.569336523756044e-08,-8.658599189046398e-10,2.909133561364745e-07,4.210601685495327e-07,-6.524504629686553e-07,-1.331567512212362e-07,-4.994895303226077e-07,2.765705559560977e-07,5.216642345083922e-07,3.372284858190389e-07,-4.7099977009886e-08
5.291286689615832e-08,-3.532892301481623e-07,-4.1139446849173676e-07,-4.65359702727517e-07,-6.229400415149585e-07,-3.5059570874889044e-07,-7.454224732206567e-07,-9.964015486185077e-09,5.64466746590034e-09,3.0048046189988784e-07,4.190628329704984e-07,-5.895035724938012e-07,-1.204203753216261e-07,-4.393000751568269e-07,3.055946952587365e-07,5.263571098177943e-07,3.6719323948832174e-07,-3.3976171275187105e-08
6.984525571774769e-08,-3.35120516664767e-07,-4.0020907801907603e-07,-4.699018908938204e-07,-6.168920699860563e-07,-3.2190563352570024e-07,-7.861429637985147e-07,1.6369706500238467e-08,1.8111837538106626e-09,3.1330633952512e-07,4.202982281864669e-07,-5.179180059415266e-07,-1.0591881500043776e-07,-3.793306493905722e-07,3.2160532136071475e-07,5.355814206495251e-07,4.015498462295649e-07,-1.8711588465000895e-08
8.605330006248103e-08,-3.107919375182827e-07,-3.864333963344871e-07,-4.667432610670895e-07,-6.148306503846484e-07,-3.4209347873933803e-07,-8.173976624316405e-07,4.842769062818441e-08,-5.825088541201818e-09,3.3223855875348575e-07,4.262124865957864e-07,-4.483166888389262e-07,-9.262444149260557e-08,-3.2838572434369896e-07,3.267469336959628e-07,5.508623853565476e-07,4.362648248987549e-07,1.6543199802454105e-09
1.0349808407630682e-07,-2.796459424128534e-07,-3.722141743709769e-07,-4.5918745968318874e-07,-6.170535033090528e-07,-3.784169953733781e-07,-8.335514966028045e-07,7.755492800148854e-08,-1.3624705525567645e-08,3.5578963061793904e-07,4.3512407952391367e-07,-3.8996295903086436e-07,-8.366496100991132e-08,-2.9241554907647656e-07,3.2455163926500616e-07,5.71253958301045e-07,4.66289526144778e-07,2.7019964138639403e-08
1.2223000837139635e-07,-2.437349364010015e-07,-3.598862337581492e-07,-4.511035774671149e-07,-6.235019798712365e-07,-4.039363663494739e-07,-8.347173499555063e-07,9.688376178275166e-08,-2.0875597671562742e-08,3.7873259375617033e-07,4.4367687791798245e-07,-3.458655603699741e-07,-8.042188078857361e-08,-2.710850573937282e-07,3.196999899201365e-07,5.94987123199626e-07,4.888914398886975e-07,5.5515266836421044e-08
1.4085552042875482e-07,-2.0628616217985662e-07,-3.499648698921916e-07,-4.4436640047584047e-07,-6.312913872283748e-07,-4.2712827976344953e-07,-8.235322204284182e-07,1.0476019217747156e-07,-2.939982844283994e-08,3.9470285819837723e-07,4.489264366317624e-07,-3.117875250866151e-07,-8.174560458343934e-08,-2.576276401634566e-07,3.172104068370896e-07,6.209970086730045e-07,5.04872546700248e-07,8.496798106293183e-08
1.5747525566226205e-07,-1.7025797623026914e-07,-3.40773878124137e-07,-4.3828661254476456e-07,-6.348386025230561e-07,-4.362896401143568e-07,-8.024600879650749e-07,1.0442512709331454e-07,-4.197307106108772e-08,3.9835668966116574e-07,4.4941104936246037e-07,-2.7943410645565357e-07,-8.500149923985365e-08,-2.42225261883488e-07,3.2069021422662645e-07,6.48905881321264e-07,5.169005347977298e-07,1.1244921418097323e-07
1.7011362512274206e-07,-1.381330422232385e-07,-3.3020466744543824e-07,-4.3066804990228093e-07,-6.286594745185347e-07,-4.362934087377351e-07,-7.735527077166734e-07,1.0093633841021769e-07,-6.244595058080769e-08,3.8600919503825454e-07,4.4457381974621983e-07,-2.4155390167782213e-07,-8.811258751839565e-08,-2.1669768986014463e-07,3.303987665057956e-07,6.779926938602411e-07,5.267814634659469e-07,1.3442849552820812e-07
1.7676791007155867e-07,-1.1237091206849288e-07,-3.1734969623787933e-07,-4.198032060201948e-07,-6.106729935070319e-07,-4.28157998185781e-07,-7.397296548355676e-07,9.727309995153398e-08,-9.44811332399266e-08,3.568290628832215e-07,4.3396585216166323e-07,-1.9580712915097782e-07,-9.095083272397419e-08,-1.7849703238287096e-07,3.426924991168752e-07,7.066386988688353e-07,5.341195541485316e-07,1.4671232980684235e-07
1.7581083170718403e-07,-9.513754824926506e-08,-3.031731736235708e-07,-4.0592450576480665e-07,-5.834368119234298e-07,-4.122801980829687e-07,-7.054167157389772e-07,9.366026923452651e-08,-1.3920103725020118e-07,3.1336338270007324e-07,4.1750137816763295e-07,-1.451877701952479e-07,-9.49842006026196e-08,-1.3159014274804266e-07,3.5184694251927904e-07,7.329954061780712e-07,5.372604739925339e-07,1.47385858767344e-07
1.6722761056875712e-07,-8.704063448621834e-08,-2.8964187400564305e-07,-3.909495285368722e-07,-5.524537741520945e-07,-3.9746146370188975e-07,-6.75530132568783e-07,8.95317859061344e-08,-1.9416985976606143e-07,2.618601035279846e-07,3.964354960972886e-07,-9.528395205009801e-08,-1.016094709813829e-07,-8.39469805408099e-08,3.530425511285372e-07,7.561598521671487e-07,5.352898181810274e-07,1.376492144143454e-07
1.5343408616245008e-07,-8.609820087404175e-08,-2.7800510506628463e-07,-3.7716521152633704e-07,-5.232390796104294e-07,-3.8406883034154535e-07,-6.536557008793288e-07,8.541767501851647e-08,-2.5276303468598016e-07,2.1131267248558367e-07,3.737159790960249e-07,-5.1028181503271e-08,-1.1072731471197758e-07,-4.385322421049087e-08,3.444888996755752e-07,7.765655926658647e-07,5.291227695502877e-07,1.2177130792876404e-07
1.3886105102468372e-07,-8.799335316380375e-08,-2.6867061193875696e-07,-3.662332645589335e-07,-4.997404399755183e-07,-3.7402664980171996e-07,-6.409311806090724e-07,8.308737621025205e-08,-3.066590504602986e-07,1.7087972020469265e-07,3.5340297208526346e-07,-1.5555576721800722e-08,-1.207871775704977e-07,-1.743866071641627e-08,3.272333933433335e-07,7.950863813383781e-07,5.208033454865589e-07,1.0556211997794571e-07
1.2835654993830506e-07,-8.787727148038771e-08,-2.6159662096151044e-07,-3.5903626822514753e-07,-4.850745833693321e-07,-3.696827087577024e-07,-6.363634556916154e-07,8.283405902381228e-08,-3.4909732393885926e-07,1.4751892533493856e-07,3.389662050805117e-07,8.609590240875806e-09,-1.3016966872438323e-07,-8.529005618350385e-09,3.0321376705202284e-07,8.115666363578243e-07,5.117857028287279e-07,9.318098586624955e-08
1.2531804295940153e-07,-8.241915892977693e-08,-2.5709883225494023e-07,-3.565290253742722e-07,-4.830437111222727e-07,-3.7345451155368225e-07,-6.381029915533718e-07,8.152298780530486e-08,-3.77299071635922e-07,1.442511287357953e-07,3.319722881865056e-07,1.8207630409119224e-08,-1.3855075502102886e-07,-1.9506968123905045e-08,2.7365936598913384e-07,8.241432159314648e-07,5.018845754903513e-07,8.632878186927246e-08
1.307544506292435e-07,-7.103486621041817e-08,-2.5637531194518173e-07,-3.601887054010799e-07,-4.979674852593957e-07,-3.890922894457661e-07,-6.44515823858649e-07,7.349437237136014e-08,-3.9225490679097233e-07,1.6037650987232045e-07,3.3188684583825777e-07,9.959088299772946e-09,-1.4684036299216074e-07,-5.1378585445909196e-08,2.3913954909649284e-07,8.302401776715299e-07,4.900004366533947e-07,8.490858051481564e-08
1.4369455574501693e-07,-5.517968470887082e-08,-2.6078211870791307e-07,-3.711824992624522e-07,-5.321561479941177e-07,-4.189687731504697e-07,-6.542316803292077e-07,5.41589659251628e-08,-3.974087803857352e-07,1.9272976456580324e-07,3.372424037247633e-07,-1.6884947894487414e-08,-1.5571535678231022e-07,-1.0256397307296628e-07,2.0141681776622326e-07,8.285957809230842e-07,4.759131996739869e-07,8.83203398176039e-08
1.6214199167162877e-07,-3.683242676553282e-08,-2.693984138259342e-07,-3.8880696812575926e-07,-5.83167389499076e-07,-4.6153905677409045e-07,-6.654905249156551e-07,2.343611679564335e-08,-3.9651385051442157e-07,2.3672399461669004e-07,3.470128803679895e-07,-5.866626779302379e-08,-1.6433008567989287e-07,-1.6795693450681668e-07,1.6408497830485328e-07,8.205106652580048e-07,4.6119521270723945e-07,9.640193279320269e-08
1.8377152813022917e-07,-1.776637134739976e-08,-2.793047116396882e-07,-4.1043247678617764e-07,-6.43663609758037e-07,-5.11169774641512e-07,-6.759402765942662e-07,-1.4257871741520994e-08,-3.924843063892491e-07,2.8643404039091676e-07,3.6059435289139316e-07,-1.0812376119965205e-07,-1.7067134087654092e-07,-2.3969769738607965e-07,1.314429897441094e-07,8.090833866428159e-07,4.481085607806533e-07,1.0881683529907759e-07
2.0564218957313257e-07,1.415706521015799e-11,-2.8715783264886457e-07,-4.322017296353304e-07,-7.043859065403061e-07,-5.605325294646391e-07,-6.835435178902162e-07,-5.310256296410015e-08,-3.8815364035150143e-07,3.3394505725790963e-07,3.766550856523807e-07,-1.5735311428037848e-07,-1.7335031961602024e-07,-3.094061945636032e-07,1.0631009195746716e-07,7.970251519228183e-07,4.374255448939827e-07,1.236002046536012e-07
2.235811659023648e-07,1.3273712021628223e-08,-2.9081562306440675e-07,-4.51371202444954e-07,-7.578850088995717e-07,-6.036940411716276e-07,-6.878452644579707e-07,-8.940222124909328e-08,-3.8729440632305457e-07,3.696241524597882e-07,3.920240139878912e-07,-2.0055217843560003e-07,-1.7313773405411324e-07,-3.7036409563626285e-07,8.840441457755841e-08,7.849737754569931e-07,4.2735152881679504e-07,1.3701536176223166e-07
2.3277969967190544e-07,1.7648302173881237e-08,-2.90668479065764e-07,-4.6578428505875255e-07,-7.997964380123569e-07,-6.376069085611972e-07,-6.901434758829239e-07,-1.222500307700894e-07,-3.9396268866783484e-07,3.844887522057113e-07,4.023012438975519e-07,-2.344054944739031e-07,-1.7254555881442165e-07,-4.1814380395808134e-07,7.495337385395487e-08,7.717956826254665e-07,4.1479886253977723e-07,1.4432816181935765e-07
2.295714272805869e-07,9.473899478869706e-09,-2.8879494952197605e-07,-4.7437957430808264e-07,-8.286766647502572e-07,-6.613377614483639e-07,-6.921221169028396e-07,-1.5121581231128869e-07,-4.104106369426514e-07,3.7421807700810593e-07,4.041665094192454e-07,-2.5833118768363603e-07,-1.743236031238874e-07,-4.5124703033322016e-07,6.27004822888296e-08,7.564510064593223e-07,3.9786558943558393e-07,1.4251013394051714e-07
2.1373058537278383e-07,-1.1545170815547644e-08,-2.874061845537479e-07,-4.775570650641391e-07,-8.443102698108873e-07,-6.751146674713788e-07,-6.942379806323426e-07,-1.7536195757110027e-07,-4.3462940041251655e-07,3.422871626666017e-07,3.977289621794451e-07,-2.73057029338408e-07,-1.7914587894998481e-07,-4.712306011523737e-07,4.957504911633361e-08,7.394662380719531e-07,3.7700986708896917e-07,1.3194096079220164e-07
1.8945792381924747e-07,-4.1456054366648887e-08,-2.8822681102728956e-07,-4.750892823132386e-07,-8.479219540947474e-07,-6.801988746021718e-07,-6.955528397419498e-07,-1.943919224858495e-07,-4.600316481881987e-07,2.9922092211317505e-07,3.869096389876043e-07,-2.819615495420023e-07,-1.8562276688252984e-07,-4.83424869247717e-07,3.4933105853374626e-08,7.225117243234183e-07,3.5369346864448087e-07,1.1659432646502811e-07
1.640695761406762e-07,-7.409991323553107e-08,-2.933715769611048e-07,-4.676982615964352e-07,-8.439717255514158e-07,-6.796106743853883e-07,-6.952656537196192e-07,-2.103524628365692e-07,-4.780785224267473e-07,2.5907027621280755e-07,3.7741680053580524e-07,-2.9227310503636153e-07,-1.9199604009719227e-07,-4.971776195269224e-07,1.842456863027571e-08,7.065170874406991e-07,3.279121680415778e-07,1.0113297135537949e-07
1.450412180703273e-07,-1.033320654309826e-07,-3.066626658703306e-07,-4.586067331509664e-07,-8.404855096561991e-07,-6.782299297350792e-07,-6.944658777433607e-07,-2.2989901838076047e-07,-4.815969639703084e-07,2.3352195620205205e-07,3.7384227913162095e-07,-3.131468726291115e-07,-1.9760011928908753e-07,-5.225466895994456e-07,-2.676526755074993e-10,6.902645867958233e-07,2.974073202547089e-07,8.899318034910669e-08
1.3719603010200753e-07,-1.2548127430559262e-07,-3.310294598909237e-07,-4.531455943097077e-07,-8.472428842000243e-07,-6.808836077950133e-07,-6.963488379688744e-07,-2.6194296351390445e-07,-4.6727056297045317e-07,2.2777893028117918e-07,3.7744949413524146e-07,-3.517528463480387e-07,-2.031473815700736e-07,-5.661080640665878e-07,-2.0750905275603872e-08,6.709889302272688e-07,2.5940875303515244e-07,8.167710681079197e-08
1.4151426553007172e-07,-1.3979575636665823e-07,-3.6611206452317393e-07,-4.562713138520974e-07,-8.706632321071315e-07,-6.895068399137595e-07,-7.045710831505548e-07,-3.117442896140603e-07,-4.3556890961110694e-07,2.4001460948537236e-07,3.863034882712356e-07,-4.0860164901277807e-07,-2.0936066135150007e-07,-6.269516483230961e-07,-4.0978532516980295e-08,6.464878322422695e-07,2.1377119982984712e-07,7.88902067137748e-08
1.5549848544275968e-07,-1.4735392252145767e-07,-4.099942651980538e-07,-4.703532478060162e-07,-9.108538789649601e-07,-7.017771822801129e-07,-7.210755164687718e-07,-3.772362948621752e-07,-3.8977946601169155e-07,2.630854438888746e-07,3.967258928594937e-07,-4.7608040859602697e-07,-2.156972899386661e-07,-6.959501147483283e-07,-5.7269726639404176e-08,6.167697557296023e-07,1.6430171468920104e-07,8.01521784099191e-08
1.7435200047333329e-07,-1.502764631270908e-07,-4.5668237792456444e-07,-4.944002262967047e-07,-9.614940557537284e-07,-7.127157521477392e-07,-7.449395795221178e-07,-4.495155568710948e-07,-3.3493712324747497e-07,2.879575421477423e-07,4.051529099013357e-07,-5.413374847838e-07,-2.2030164361377295e-07,-7.596244197990547e-07,-6.608656574597277e-08,5.839596376756003e-07,1.1684882945133714e-07,8.45917768449011e-08
1.9234699567117718e-07,-1.5172149122800628e-07,-4.991245043046003e-07,-5.246026148548225e-07,-1.0130988736715452e-06,-7.179255432300624e-07,-7.726950068207655e-07,-5.172908007975476e-07,-2.7719208230728263e-07,3.0659599411617817e-07,4.0924658674860676e-07,-5.928327419336163e-07,-2.2133249640619225e-07,-8.063432547515228e-07,-6.602949984687013e-08,5.510332923691294e-07,7.734402197285377e-08,9.112355385019837e-08
2.0436193158294052e-07,-1.5530532189391312e-07,-5.326819323698263e-07,-5.56812516427264e-07,-1.0576645996420523e-06,-7.158946817163652e-07,-7.994761304060377e-07,-5.728099979058202e-07,-2.224422696097002e-07,3.1505890779189197e-07,4.084736370559445e-07,-6.245658757858552e-07,-2.1820319793735812e-07,-8.311221814859537e-07,-5.8473472124270654e-08,5.207884609224602e-07,5.009273122424943e-08,9.824301983692917e-08
2.0734090327781735e-07,-1.6370962698002225e-07,-5.553722261367343e-07,-5.878726138585411e-07,-1.090868723851656e-06,-7.077088630019791e-07,-8.201876242377086e-07,-6.13253354068858e-07,-1.7421405294648155e-07,3.1438259255616286e-07,4.0430021403407573e-07,-6.371566643041009e-07,-2.110738402622613e-07,-8.358876477163867e-07,-4.610155797069291e-08,4.956271501445335e-07,3.642743752257913e-08,1.0493411734202262e-07
2.0114750668656558e-07,-1.7778553542975282e-07,-5.66711268954968e-07,-6.146567898093952e-07,-1.1114211852810702e-06,-6.950625993573233e-07,-8.304436450045343e-07,-6.392705413784775e-07,-1.3414016026419308e-07,3.0916193915621865e-07,3.993635661987106e-07,-6.345929856679927e-07,-2.001913459224164e-07,-8.256259303564713e-07,-3.120899482777759e-08,4.77548875400308e-07,3.6464061119925265e-08,1.1129946414573981e-07
1.8768195328833495e-07,-1.966660054901104e-07,-5.680617571223476e-07,-6.342747662732073e-07,-1.118805507340623e-06,-6.788108255898517e-07,-8.273615077494562e-07,-6.519835372511347e-07,-1.0278593575127757e-07,3.005725571086001e-07,3.958172793009444e-07,-6.187449023873125e-07,-1.8535359127188453e-07,-8.026601713736271e-07,-1.507237691238046e-08,4.677320381512356e-07,4.9441925300044156e-08,1.172160301111189e-07
1.6873835977695973e-07,-2.1908380564951141e-07,-5.604123519422275e-07,-6.433383951215412e-07,-1.111666130240668e-06,-6.590997364035107e-07,-8.100136944021839e-07,-6.530159214994328e-07,-8.028003318653411e-08,2.8600470213624377e-07,3.936063361843442e-07,-5.887860631590261e-07,-1.6635922490308528e-07,-7.656101046202109e-07,1.5925610145189144e-09,4.6596647475071096e-07,7.287376914654597e-08,1.2178324143632925e-07
1.4433618771369873e-07,-2.45600920823231e-07,-5.436451984841554e-07,-6.391932369142291e-07,-1.089535431630911e-06,-6.363458840632352e-07,-7.792240820020556e-07,-6.456702510558128e-07,-6.861982441653574e-08,2.591298542688178e-07,3.9027737587220833e-07,-5.429774175574418e-07,-1.4391113016658866e-07,-7.113064684539476e-07,1.7843671071398824e-08,4.7070602045881305e-07,1.023797318629763e-07,1.2241373180819567e-07
1.1348577973132243e-07,-2.776482753434561e-07,-5.186966361348882e-07,-6.212199475226396e-07,-1.0532926105612136e-06,-6.116591608024237e-07,-7.368653099280193e-07,-6.374024054197579e-07,-6.94589528951207e-08,2.136538564805283e-07,3.827549172242414e-07,-4.809850491560582e-07,-1.2022854027968642e-07,-6.384004138274035e-07,3.250968152174024e-08,4.800743554031176e-07,1.3224529984808632e-07,1.155574299356173e-07
7.474920339370157e-08,-3.15351012983709e-07,-4.873251648212373e-07,-5.909004408203901e-07,-1.005285481591384e-06,-5.862724865407303e-07,-6.852632220906509e-07,-6.317526426473714e-07,-8.196999064429148e-08,1.4982737518472388e-07,3.700438189196591e-07,-4.062633555732359e-07,-9.80552640411242e-08,-5.504910028831946e-07,4.4931710440562934e-08,4.938727168421557e-07,1.5587335292775737e-07,9.884200685082673e-08
2.9477502087010607e-08,-3.561936447976074e-07,-4.5186623314375613e-07,-5.51623243154755e-07,-9.485485419096025e-07,-5.605559142583647e-07,-6.272373664564879e-07,-6.258647624232485e-07,-1.0222002509082677e-07,7.537082278059848e-08,3.5482541287125194e-07,-3.258380189515106e-07,-7.892923887363933e-08,-4.5564150155401324e-07,5.543760763423543e-08,5.115027663217257e-07,1.7005529344361492e-07,7.164740516854462e-08
-1.74570300050037e-08,-3.9505131802845236e-07,-4.1493637651301664e-07,-5.072562152357344e-07,-8.856273240960945e-07,-5.341688548688515e-07,-5.667771896377789e-07,-6.205328963566471e-07,-1.2405533429212745e-07,3.2168844599712077e-09,3.426638299457269e-07,-2.4810385666840483e-07,-6.313595951336626e-08,-3.644007699783078e-07,6.471684341469261e-08,5.332306214882177e-07,1.7323013255486087e-07,3.6329808378875826e-08
-5.952226268508753e-08,-4.2532584107978596e-07,-3.801874995296015e-07,-4.6157827166790073e-07,-8.192967291243428e-07,-5.076293631252198e-07,-5.097765764496815e-07,-6.191806752853108e-07,-1.4208721838841007e-07,-6.063121976886087e-08,3.3930021829777853e-07,-1.8242666286211624e-07,-5.106882668867066e-08,-2.880059959250973e-07,7.21070382216828e-08,5.563618446463193e-07,1.6282449277941416e-07,-4.1462716226221755e-09
-9.052543993916928e-08,-4.4174883449551147e-07,-3.49697265413947e-07,-4.1846366289362383e-07,-7.536149920815693e-07,-4.839567247782522e-07,-4.6409917941447844e-07,-6.194764107963325e-07,-1.5462891661480297e-07,-9.688017617035977e-08,3.4779901508066454e-07,-1.3836521065853712e-07,-4.3199745238468155e-08,-2.3733086397104053e-07,7.446227405093477e-08,5.758950126540703e-07,1.380453156575142e-07,-4.753471503154669e-08
-1.0679974713766206e-07,-4.4313220915302105e-07,-3.304519261687836e-07,-3.826280483634614e-07,-6.94301525404865e-07,-4.685431751350868e-07,-4.3849395715871863e-07,-6.25512688165112e-07,-1.6458966201107608e-07,-1.0139033343580319e-07,3.671742980709567e-07,-1.2321297893632177e-07,-4.0999267266887665e-08,-2.1872199109561177e-07,6.701001345198849e-08,5.871595911492622e-07,9.688969490587867e-08,-9.147740712457132e-08
-1.0760499688962926e-07,-4.308023129631021e-07,-3.259248920040961e-07,-3.5902683635677765e-07,-6.46413542600435e-07,-4.6647136404488766e-07,-4.402600772160082e-07,-6.334076605271982e-07,-1.7670680283916564e-07,-7.7521202120165e-08,3.9324966489391183e-07,-1.3957607166119283e-07,-4.5647919723674414e-08,-2.3357005953804443e-07,4.593545943594514e-08,5.830570462909507e-07,3.90638593181442e-08,-1.335359635013626e-07
-9.44150374694131e-08,-4.0778848954095727e-07,-3.387370263126108e-07,-3.516017102418346e-07,-6.118870277693964e-07,-4.790483058203593e-07,-4.7294276923125724e-07,-6.01179938560255e-07,-1.9216960762819104e-07,-1.338878293293685e-08,4.2074090904623975e-07,-1.8443436131065675e-07,-5.625222265330429e-08,-2.768670265609001e-07,1.0903988972303971e-08,5.617068146628022e-07,-2.8118900093854e-08,-1.6993920262973645e-07
-6.969503033616234e-08,-3.759538302657405e-07,-3.6807101665326994e-07,-3.6070746211812797e-07,-5.894945284076824e-07,-5.023796738939531e-07,-5.305745530190935e-07,-5.308508502673146e-07,-2.1322305283750664e-07,6.370484751550683e-08,4.45109099358592e-07,-2.4623482555348424e-07,-6.969804800056e-08,-3.3414237676777966e-07,-3.4339282942575846e-08,5.251875622091922e-07,-8.505282971467675e-08,-1.9615865650354454e-07
-3.7514345244104614e-08,-3.414898787557319e-07,-4.0316824373725616e-07,-3.8218160131570976e-07,-5.748546038603697e-07,-5.291968668031086e-07,-6.031593680169198e-07,-4.379677327543661e-07,-2.3596139223222718e-07,1.4583308768788883e-07,4.6326342308775543e-07,-3.1574934664914383e-07,-8.187055433834633e-08,-3.9347422972479257e-07,-8.362719712236604e-08,4.797439286145134e-07,-1.2125902151664765e-07,-2.1025444375379256e-07
-2.0446374046913016e-09,-3.0641710650908136e-07,-4.398453861356213e-07,-4.121494948152046e-07,-5.640539174427494e-07,-5.52349850268184e-07,-6.782959894465709e-07,-3.547752563984261e-07,-2.6192327540979806e-07,2.2628689425860726e-07,4.7339930151125617e-07,-3.808841639769907e-07,-8.940379911554575e-08,-4.4352936118992486e-07,-1.3046509044348666e-07,4.340542624378811e-07,-1.1134822032050771e-07,-2.14620068642283e-07
3.160448343118703e-08,-2.96568613486862e-07,-4.735063866681345e-07,-4.440270539545963e-07,-5.562544504295556e-07,-5.673699812695442e-07,-7.444662642552064e-07,-2.820550324733432e-07,-2.908842440436552e-07,2.798026208817981e-07,4.749547662450302e-07,-4.3436562086942266e-07,-9.193437711171609e-08,-4.740011198416366e-07,-1.6891617182341175e-07,4.036926542551243e-07,-7.63026905930264e-08,-2.138937508857844e-07
5.832902234333373e-08,-3.1696118902627975e-07,-4.991087724775952e-07,-4.7176301493048e-07,-5.524488098092607e-07,-5.737014156919574e-07,-7.959876233230328e-07,-2.0854737281408272e-07,-3.225563442728232e-07,3.256963741257461e-07,4.6977851518919897e-07,-4.636910943064248e-07,-8.95990741290814e-08,-4.7543825375042946e-07,-1.9337115655170925e-07,4.026832427851668e-07,-6.793068053534481e-08,-2.1343946490858307e-07
7.31180848611479e-08,-3.333804814531478e-07,-5.16202882532918e-07,-4.846617723503394e-07,-5.534433532583255e-07,-5.71928466120501e-07,-8.284133446584241e-07,-1.562548383665117e-07,-3.6011546312727234e-07,3.360943170457679e-07,4.610347819973383e-07,-4.2822236702076704e-07,-8.279746370699739e-08,-4.3707179669842286e-07,-1.9880090373490098e-07,4.256647798481967e-07,-7.015643031280001e-08,-2.1668316178446928e-07
7.593067296683278e-08,-3.4885009329859777e-07,-5.221419715851965e-07,-4.815667993461358e-07,-5.613302608134406e-07,-5.618168512571538e-07,-8.393521277570916e-07,-1.3189142085585788e-07,-3.9748093875080513e-07,2.964373893781916e-07,4.527114189516867e-07,-3.9632201794615227e-07,-7.28980662828181e-08,-3.6222461980535527e-07,-1.8255082164123514e-07,4.5090824789083196e-07,-6.862253666900857e-08,-2.2598164669471107e-07
6.981149111132448e-08,-3.682736541670787e-07,-5.187392557692972e-07,-4.6537716530021425e-07,-5.740427736258593e-07,-5.458111673188996e-07,-8.288525041059048e-07,-1.1610931039583881e-07,-4.364475658172466e-07,2.5425244677405303e-07,4.503090010487563e-07,-3.220765834767352e-07,-6.061196848885092e-08,-2.59540821924613e-07,-1.4641394283648895e-07,4.652674996007549e-07,-4.81194397389776e-08,-2.3992183658454234e-07
6.046640541250896e-08,-3.7947227419191224e-07,-5.123420544434963e-07,-4.391438634075365e-07,-5.912233865200112e-07,-5.27237010646303e-07,-8.020397765834084e-07,-1.0772573754658863e-07,-4.532419577077168e-07,2.1880842288407648e-07,4.576857669711416e-07,-2.628589588041169e-07,-4.922209079186991e-08,-1.782763481677291e-07,-9.665390784801148e-08,4.783370687344292e-07,1.0390670324269859e-08,-2.5601236875988415e-07
5.4588047645022317e-08,-3.7544181837829874e-07,-5.12415075168318e-07,-4.140285232686155e-07,-6.157776572490661e-07,-5.097416199742228e-07,-7.66009279655206e-07,-1.1221712044185772e-07,-4.4603810098609684e-07,1.8654032541382805e-07,4.7592807226051774e-07,-2.198158938747019e-07,-4.2750757230230704e-08,-1.6130369639265865e-07,-4.116593930333984e-08,5.502517453037307e-07,7.602920276666486e-08,-2.710257955656879e-07
5.72941592825528e-08,-3.688514354118778e-07,-5.302643117927514e-07,-4.039473315982772e-07,-6.514187989831741e-07,-4.966200492109253e-07,-7.300381483111293e-07,-1.3718155982777386e-07,-3.8039721231319397e-07,2.1071797335764212e-07,5.055841265571919e-07,-2.665078245833415e-07,-4.361108712123517e-08,-2.2746631523577886e-07,1.4378799888576404e-08,6.258310349458664e-07,1.3907016614149236e-07,-2.6428939211996497e-07
7.18908375035203e-08,-3.5456407702157974e-07,-5.611057293766426e-07,-4.1031092321723244e-07,-6.991398167365869e-07,-4.870926817489064e-07,-7.039486587548162e-07,-1.7932696188372434e-07,-3.2648770040525754e-07,2.6957618623036564e-07,5.431283274927599e-07,-3.300485756028723e-07,-5.0861308805028266e-08,-2.74490004283373e-07,6.816480452388549e-08,7.017760530379319e-07,2.0381587990707574e-07,-2.114920993705336e-07
9.836553872436573e-08,-3.3932430663317264e-07,-6.162809557466311e-07,-4.2952829219190337e-07,-7.498712152539208e-07,-4.808285232030877e-07,-6.941449108934052e-07,-2.3467806229472532e-07,-2.5914136551975964e-07,3.2082215816998673e-07,5.760012388938646e-07,-3.5839756442586973e-07,-6.196970459996731e-08,-2.8157534669895593e-07,1.2067549901998285e-07,7.841310458885489e-07,2.5122808178302794e-07,-1.7656500896832753e-07
1.3389854583469895e-07,-3.237502920004128e-07,-6.643925943440424e-07,-4.552427297633715e-07,-7.965479606355283e-07,-4.77312951267656e-07,-7.020271735326061e-07,-2.8893989004253616e-07,-1.6016606889595557e-07,3.9762159123919976e-07,6.011638814467631e-07,-3.9235744079601036e-07,-7.381735130772732e-08,-3.1142548900887757e-07,1.7164235147296697e-07,8.145964511378831e-07,2.904796447491489e-07,-1.0375340792451426e-07
1.7315746017067758e-07,-3.097325930471934e-07,-6.840311178939683e-07,-4.795612064175894e-07,-8.317539404352496e-07,-4.760877507667942e-07,-7.249558144057524e-07,-3.1509069969632736e-07,-4.2606597267214145e-08,4.935501140774955e-07,6.019322392071393e-07,-5.184409879809833e-07,-8.393880608391447e-08,-4.0560204261878883e-07,2.1827088449832826e-07,8.158964336624856e-07,3.299116072997508e-07,-1.6332419684257277e-08
2.1078503857488467e-07,-2.9422394224486394e-07,-6.468066907219662e-07,-4.994655812451188e-07,-8.512803573266155e-07,-4.7547055584495746e-07,-7.512994196809816e-07,-3.0913330757353394e-07,3.1126800549657176e-08,5.686078386218113e-07,5.798724831251439e-07,-5.985207774406165e-07,-9.16441741080486e-08,-5.148719747586792e-07,2.5608230303441817e-07,8.181171432264848e-07,3.7277976364383765e-07,7.854537490055497e-08
2.4545279168224595e-07,-2.7710164939002433e-07,-5.890018146206724e-07,-5.081415720066027e-07,-8.582838819413254e-07,-4.7257515546198407e-07,-7.91414847742605e-07,-2.570083417186738e-07,9.815025909815953e-08,6.086553729307692e-07,5.711250435776328e-07,-5.802892144564971e-07,-9.603114590785201e-08,-5.894213258943117e-07,2.8109883913583716e-07,8.085254046224646e-07,4.130791935101408e-07,1.319778004152669e-07
2.7955453235149375e-07,-2.5604224261203656e-07,-5.529007800243448e-07,-5.044042058954559e-07,-8.474139980590717e-07,-4.6216907974520377e-07,-8.353471370385851e-07,-2.2551974638400996e-07,1.4273860933861402e-07,6.191660718116522e-07,5.788700501080506e-07,-5.780887850785507e-07,-9.698292740185526e-08,-6.48093004360091e-07,2.913906492686247e-07,7.893516437694488e-07,4.394047903296843e-07,1.427587474955885e-07
3.141572324069026e-07,-2.2886357705826126e-07,-5.165704731973525e-07,-4.821862556998552e-07,-8.220511932898337e-07,-4.4329528608393123e-07,-8.714226597475332e-07,-2.0377141359379585e-07,1.5709460248411602e-07,6.026582647144485e-07,5.47133009574124e-07,-5.572705519250101e-07,-9.701727789687571e-08,-6.89706520567228e-07,2.868856678830549e-07,7.578430813926928e-07,4.402110157341451e-07,1.3252601387463693e-07
3.496957165249483e-07,-1.9656124498025976e-07,-4.945307113236467e-07,-4.4620297833195863e-07,-7.884330555140473e-07,-4.195424687257423e-07,-8.892999799501489e-07,-1.3572533940512394e-07,1.6042542768609075e-07,5.666672024259731e-07,5.046583839057697e-07,-5.345714145990755e-07,-8.993966721733136e-08,-7.154133442629269e-07,2.68248960922169e-07,7.29732506973511e-07,4.15639312637156e-07,1.395121783080261e-07
3.8369365288559415e-07,-1.599146702614881e-07,-4.350568915840759e-07,-4.0128211738864604e-07,-7.523776294353823e-07,-3.894121769840646e-07,-8.758443282332589e-07,-4.9196958911018524e-08,1.4863781363073344e-07,5.186093568634201e-07,4.6654163995735757e-07,-4.668874898911218e-07,-7.89212441012889e-08,-6.445245476999779e-07,2.368685916726104e-07,7.046509740599605e-07,4.018281775656881e-07,1.6866697124797134e-07
4.118348347684155e-07,-1.2221884559266814e-07,-3.617996648237653e-07,-3.643780282524052e-07,-7.254516723460923e-07,-3.621099789662845e-07,-8.562139677435058e-07,-3.082979855672228e-08,1.1531676128469657e-07,4.6469237938764327e-07,4.303840724014184e-07,-4.0514982697049864e-07,-6.711638478219908e-08,-5.458174112004697e-07,1.934810575303282e-07,6.76564114906895e-07,3.870076484102309e-07,1.5179565368561237e-07
4.301675714303598e-07,-8.528648794441766e-08,-3.0668491558431306e-07,-3.3947160963925303e-07,-7.023026407224032e-07,-3.5952946259573537e-07,-8.465844282383573e-07,-1.2797651410176404e-08,7.373155815184235e-08,4.117004367810045e-07,4.0902288762908886e-07,-3.281842119606829e-07,-6.655329257853651e-08,-4.6700573263369904e-07,1.4165523799022788e-07,6.494646465973086e-07,3.838436977886653e-07,9.576778392661976e-08
4.3103996657386663e-07,-5.8139729883909836e-08,-2.724015988696121e-07,-3.1243581209940436e-07,-6.800300693832271e-07,-3.7475931164943063e-07,-8.940035374537664e-07,-6.4894963690713915e-09,3.530345385752783e-08,3.662178315831403e-07,4.1721402984871824e-07,-2.6628409165597174e-07,-7.472718916006748e-08,-4.242986673275684e-07,9.148152049220336e-08,6.317307551985819e-07,3.4469063182771934e-07,5.121805465141999e-08
4.189653658751275e-07,-4.9016331964838955e-08,-2.5712025250869557e-07,-2.995158801272011e-07,-6.385137782229885e-07,-3.8609036221196033e-07,-9.908390077423251e-07,-4.203048023958862e-08,-3.05754405595825e-08,3.3131571504119275e-07,4.3008420975043553e-07,-2.2371924758052972e-07,-8.53145184317788e-08,-4.0485647424983e-07,4.8113408908857935e-08,6.252352658943796e-07,3.1085512395281154e-07,-4.395273520835919e-10
3.983394091304694e-07,-6.457373078354622e-08,-2.501585855235461e-07,-2.881717878107119e-07,-5.942744809740522e-07,-3.830605886057189e-07,-1.0607898918294394e-06,-8.698111025808549e-08,-1.1904830696728732e-07,3.0710133122992307e-07,4.3669110946062644e-07,-1.9402254142664125e-07,-8.69779141326178e-08,-3.7212120060386867e-07,1.5624513236342775e-08,6.576181536748199e-07,3.2036181499859325e-07,-3.072295984076918e-08
3.723002187017672e-07,-1.1434529202341065e-07,-2.5331018303021775e-07,-2.29726275274962e-07,-5.241445048966005e-07,-3.190734804723623e-07,-1.109670713840269e-06,-1.391149889402598e-07,-1.5730817993865362e-07,2.881849658427906e-07,4.1111162190289523e-07,-1.8775851548460562e-07,-6.775194626635196e-08,-3.521249202354999e-07,-4.6525798366750216e-09,7.48848645587846e-07,3.342063246647051e-07,-4.2849683946244915e-08
3.468092753904482e-07,-1.5244762565787737e-07,-2.2812907962261957e-07,-1.8006995801677438e-07,-3.9462884484487484e-07,-2.3246308598729835e-07,-1.1600505866634189e-06,-1.4192668178586804e-07,-1.8512380532870283e-07,2.700411726347692e-07,3.6583445419443747e-07,-2.0138315236615187e-07,-3.827901631650577e-08,-3.1552679251035183e-07,-1.3068435954505822e-08,8.009512400889115e-07,3.3611765276673833e-07,-5.940947898089818e-08
3.236541382245673e-07,-1.775275409460747e-07,-1.9929887390916375e-07,-1.3522507884305498e-07,-3.083521508498593e-07,-1.7066956779632225e-07,-1.209330491967496e-06,-7.59410341227037e-08,-1.9436235618699472e-07,2.4132898295623753e-07,3.317773395316091e-07,-1.4212910242823803e-07,1.0758957200299602e-08,-2.090981069955002e-07,-6.7321363058294254e-09,8.273427650389033e-07,3.4095653491861436e-07,-9.715115242872487e-08
3.053424933889311e-07,-1.9873769566957372e-07,-1.665149816801064e-07,-1.1364461874629905e-07,-2.422639120319873e-07,-1.3682172272263962e-07,-1.2574646810514606e-06,-3.383387471882451e-08,-2.1264893923246502e-07,1.8507594296662035e-07,3.0741062554552936e-07,-6.025261473096956e-08,3.4142617093527847e-08,-1.7569007115229366e-07,1.3429284919643396e-08,8.423677117394425e-07,3.479248182949618e-07,-1.6987880528643763e-07
3.1406396130020067e-07,-2.5159273949836674e-07,-1.4546052276606525e-07,-9.783017238295922e-08,-1.8347046682981704e-07,-9.611527165381027e-08,-1.305318047113274e-06,-2.695388891416373e-08,-2.8541822746741565e-07,1.1516289596464093e-07,2.8469793473064895e-07,7.1687590710252765e-09,4.805315157711799e-08,-1.841239656358783e-07,4.925482586824633e-08,8.33821712576927e-07,3.562541811712444e-07,-2.4689380345606667e-07
3.5193093665439675e-07,-2.9280635258918727e-07,-1.18841776986301e-07,-8.548215282276134e-08,-1.580999079794044e-07,-5.613561338539914e-08,-1.2881838842429828e-06,-1.430245619986169e-08,-3.3297622926547107e-07,4.7391903380796205e-08,2.4190840124724606e-07,8.124881381621725e-08,5.954972123101653e-08,-1.7907958224109422e-07,7.651918097502528e-08,8.701818481228873e-07,3.6577354514858013e-07,-3.0675766998651676e-07
3.5416529618038036e-07,-2.963286725198402e-07,-7.477145392925306e-08,-4.708598990827972e-08,-1.2053166366339242e-07,-2.3727636073020767e-08,-1.2661786458837501e-06,-3.799924031854378e-09,-3.7491374974719016e-07,9.56074691523201e-09,2.1209154889311815e-07,2.173180682239027e-07,9.627024174362296e-08,-1.1077123265532319e-07,7.011775203507997e-08,9.050044970383527e-07,3.4182238749943805e-07,-3.698628243626743e-07
3.995298711093177e-07,-3.0665465411919533e-07,-6.678830885640937e-08,-2.6175301451206286e-08,-5.176985763401221e-08,-1.1714690206120554e-08,-1.2505167851392568e-06,6.576649753702226e-08,-4.143055472540506e-07,1.1047283596477876e-08,2.1749413850611272e-07,2.810827305321988e-07,1.1406362981737405e-07,-7.550433025631751e-08,-1.0714955416985448e-08,8.901004071599972e-07,3.0146344086548417e-07,-4.305969531853833e-07
4.5550598703208416e-07,-3.304102728858504e-07,-1.0759530976519592e-07,-3.7792849129943623e-08,-1.7013254627158563e-08,-6.134884165281971e-08,-1.2053171987501293e-06,9.048197334834575e-08,-4.378013186568114e-07,4.975860291567082e-08,2.2881037550850522e-07,2.0309418661087052e-07,7.50237648229807e-08,-1.3313442511618612e-07,-9.513896720127613e-08,8.460089423088524e-07,2.5749111831609077e-07,-4.97938329363684e-07
4.756372293596415e-07,-3.440994959379584e-07,-1.4061430238444536e-07,-5.551717360136213e-08,-1.658483808742421e-08,-8.265048609151993e-08,-1.2041887581196793e-06,3.382844693327462e-08,-4.672130721230988e-07,9.784858608906935e-08,2.2075761661917167e-07,1.4053491525608336e-07,5.017290857278522e-08,-1.7547048057269604e-07,-1.7236025419336599e-07,8.221730624052962e-07,2.207388281428908e-07,-6.219774139569955e-07
4.4832060022467886e-07,-3.581441674789706e-07,-1.5518616990542901e-07,-7.579036894148716e-08,-4.712651486101172e-09,-1.199999591716979e-07,-1.1588408175708189e-06,3.429784461916271e-09,-4.448292266422356e-07,1.0721868522356021e-07,2.2582533423917915e-07,1.0129530977223276e-07,4.589140377388546e-08,-1.6585304552877652e-07,-2.34876492654962e-07,7.871441503403788e-07,1.8267124275715586e-07,-7.28027492312044e-07
4.160093897706534e-07,-3.497584607348669e-07,-1.680418669490263e-07,-9.475035182414625e-08,1.3661621399147847e-08,-1.5628480934878566e-07,-1.1214257689330746e-06,-1.2567124906976896e-08,-4.5415997121350364e-07,1.4412662290152915e-07,2.3497897674263552e-07,4.678462443121827e-08,2.1675435140317258e-08,-1.842297557283475e-07,-3.129221197742611e-07,7.585779249460486e-07,1.2965815195480802e-07,-7.88639288403529e-07
3.76263623319428e-07,-3.7217025402295893e-07,-1.9305743537429086e-07,-9.332135860309571e-08,2.0028138175706526e-08,-1.7878881726429394e-07,-1.0925546337834292e-06,-5.315711885013749e-08,-4.512289964907185e-07,2.3056168220554333e-07,2.5206491455500815e-07,7.786279617345346e-09,-5.1847420231293665e-09,-1.9939023977527254e-07,-4.24711110798706e-07,7.468686474664522e-07,6.529855227048014e-08,-8.576838155376237e-07
3.4871183541476275e-07,-4.25421013592283e-07,-2.0223977824742852e-07,-8.94186869092019e-08,3.7600024400613815e-08,-2.394888141411225e-07,-1.0683863935061942e-06,-8.732804812286328e-08,-4.5221484559329147e-07,3.1198287574281043e-07,2.7141434655763224e-07,5.07130633553056e-09,-3.4345922009679353e-08,-2.3324069688220263e-07,-5.694096721999872e-07,6.948650486938006e-07,-3.018027230455986e-09,-9.319624118856054e-07
3.5430273958893187e-07,-4.692909207537626e-07,-2.038870080452807e-07,-1.1362539048405471e-07,3.119868011768082e-08,-2.949685181490216e-07,-1.0586202575204927e-06,-1.3771962148199229e-07,-4.921185342343344e-07,3.8335463512079053e-07,2.819592094876444e-07,-4.7043288433218434e-08,-8.833266300516306e-08,-3.0628222110655063e-07,-6.583842672549547e-07,6.315703831662455e-07,-6.009320629215526e-08,-9.893702787503426e-07
3.4291001243381574e-07,-5.040401746829394e-07,-1.9721606996398644e-07,-1.5352823832954964e-07,-5.777710303826318e-08,-3.250958608917901e-07,-1.0428906139949352e-06,-1.9610490023598073e-07,-4.832609315237134e-07,4.366590591825639e-07,2.761548362035577e-07,-1.3109406691650847e-07,-1.2246051869842252e-07,-3.6851726297458895e-07,-7.446275778084091e-07,5.457147276567361e-07,-1.1758463898437221e-07,-1.0344202022087756e-06
3.3442347047812796e-07,-5.378997538752703e-07,-1.8448567871378394e-07,-1.761911698837847e-07,-1.0576946094814473e-07,-3.882444363177519e-07,-1.0405194488453095e-06,-2.708895135897959e-07,-4.882896912815855e-07,4.441486045703879e-07,2.7301504301576255e-07,-1.8155510846438958e-07,-1.5438495606062804e-07,-3.9446552461091926e-07,-7.897298827447118e-07,4.808300834855519e-07,-1.6078525424976377e-07,-1.0327772250012165e-06
3.184715080036154e-07,-5.531613854982219e-07,-2.1408870131257033e-07,-2.250486943855813e-07,-1.1903105251095921e-07,-4.784026139748792e-07,-1.0782876272541959e-06,-3.4141281856670024e-07,-5.132700486796696e-07,4.3311586009802095e-07,2.6765339402794094e-07,-2.2939467965831292e-07,-2.0309419582273896e-07,-4.396205177369857e-07,-8.396754292048489e-07,4.2533477979767786e-07,-2.257444542184047e-07,-9.86864151669797e-07
2.95709348301599e-07,-5.851724843811308e-07,-2.904691816415432e-07,-2.6547385568751257e-07,-1.4709891002410158e-07,-5.573545030563482e-07,-1.1396593584685132e-06,-3.955770442705414e-07,-5.338509885784664e-07,4.7200144761783007e-07,2.6147422610940834e-07,-3.292693652008229e-07,-2.6351650047436786e-07,-5.51905097809118e-07,-8.807117708929913e-07,3.5200626555788824e-07,-3.0437661651574543e-07,-9.663634817412912e-07
2.668315336434988e-07,-6.350821209693235e-07,-3.6255268063540447e-07,-3.125257791001489e-07,-2.1109218219692822e-07,-6.352338715231584e-07,-1.173624989709834e-06,-4.418239353156962e-07,-5.914194931109684e-07,4.46263294737342e-07,2.3736143456612825e-07,-4.378264941853432e-07,-3.3568911056710106e-07,-6.829654531678376e-07,-9.174980583794729e-07,2.763610581552692e-07,-3.7389601262807617e-07,-9.4487637072799e-07
2.374105391826983e-07,-6.766223490429805e-07,-4.071828617866666e-07,-3.7580783390957003e-07,-2.9558796439778837e-07,-6.744532033718433e-07,-1.2504860133071078e-06,-5.056738567601194e-07,-6.737481097401643e-07,3.7762541695302416e-07,2.1147519193522476e-07,-5.250266090331346e-07,-4.069866155019169e-07,-7.999408210264181e-07,-9.459785866031141e-07,1.8831627830987023e-07,-4.6645394532994275e-07,-9.596213811750316e-07
2.1283374448861623e-07,-7.110854292183904e-07,-4.592118678320007e-07,-4.478126922068132e-07,-3.3574237931386135e-07,-7.116763686431311e-07,-1.3235819097154125e-06,-6.260479870767603e-07,-7.571329045424354e-07,3.2056849799236466e-07,1.777673392207179e-07,-5.644620705201941e-07,-4.5340651470538616e-07,-8.57676396083672e-07,-9.392833444879549e-07,1.0653602586974045e-07,-5.308328463856706e-07,-9.74103990990434e-07
1.8613964206896042e-07,-7.564973157403706e-07,-5.114019840547303e-07,-4.994437732440211e-07,-3.675028997607494e-07,-7.533732693624949e-07,-1.3433188930410755e-06,-7.159839238433761e-07,-8.439614227680303e-07,2.5580656739709365e-07,1.3205240601072996e-07,-5.894141704528367e-07,-4.906029102227984e-07,-8.457708804478893e-07,-9.183175022988278e-07,3.6497132931683635e-08,-5.717303145068645e-07,-9.948440013818973e-07
1.4780156027869838e-07,-7.903458579868377e-07,-5.324851134766815e-07,-5.250586550893412e-07,-4.1990263494858317e-07,-7.722519867358348e-07,-1.3411362766728303e-06,-7.656679530398897e-07,-8.924169905639623e-07,1.9296896535613439e-07,8.105805758030593e-08,-6.536584086574574e-07,-5.25683007740111e-07,-8.478802566324589e-07,-8.826351641569284e-07,-8.335568817505747e-10,-6.236802293629029e-07,-1.0220880600406142e-06
1.0939669765768754e-07,-8.177561754773515e-07,-5.323775841608136e-07,-5.531042150628803e-07,-4.746566624199114e-07,-7.854724980048417e-07,-1.3146363714522254e-06,-8.259031241849069e-07,-9.197975623267196e-07,1.6229078141635378e-07,2.925565069376028e-08,-7.163710678338281e-07,-5.65473103901945e-07,-8.816174387307242e-07,-8.466476147728062e-07,-2.89577849816651e-08,-6.789424275103363e-07,-1.0523449790492284e-06
7.141042085420437e-08,-8.548986047904409e-07,-5.473073023736386e-07,-5.887264470769568e-07,-5.348257265892051e-07,-7.90218946996468e-07,-1.3007299578961914e-06,-8.926405836610437e-07,-9.473713410058231e-07,1.4264426371548335e-07,-1.3554583586841142e-08,-7.815934949777293e-07,-5.881329288746408e-07,-9.046836242640372e-07,-8.262200228802752e-07,-4.246961918487752e-08,-7.2636081138848e-07,-1.0849080075650048e-06
3.608994664385049e-08,-8.974559648842018e-07,-5.927723542540314e-07,-6.190348010376778e-07,-6.104014024949588e-07,-7.80969874491016e-07,-1.3300620279530734e-06,-9.697351774710742e-07,-9.77944786515618e-07,1.2025124837043825e-07,-4.906155570851502e-08,-8.580896425977935e-07,-6.100075440173709e-07,-9.547096796304958e-07,-8.235036159483573e-07,-4.0066526791380406e-08,-7.719168469445198e-07,-1.1152635082642094e-06
2.9738070431160735e-09,-9.38011853025145e-07,-6.565674069250047e-07,-6.581510550806582e-07,-6.803503168355048e-07,-7.651613790150744e-07,-1.3341701212967879e-06,-1.0582156741771254e-06,-1.025006809448354e-06,9.228905194906253e-08,-8.101603983399361e-08,-9.269716550618126e-07,-6.294193876388365e-07,-1.0065908227539228e-06,-8.240569427047711e-07,-4.587487721943467e-08,-8.234032594836667e-07,-1.1456746973117775e-06
-3.7436811878317714e-08,-9.848650348111286e-07,-7.434549047103009e-07,-6.753283110514047e-07,-7.44783498282291e-07,-7.570419137205993e-07,-1.410741142001913e-06,-1.120913531841759e-06,-1.0840531337355016e-06,4.227822613582515e-08,-1.1715556958132167e-07,-9.857234736017293e-07,-6.430208973072312e-07,-1.0342006522551132e-06,-8.296121255761881e-07,-5.2956219433167105e-08,-8.603038918153021e-07,-1.1787587949770892e-06
-8.147312569643783e-08,-1.026883659073568e-06,-8.141693501256723e-07,-6.984809231802072e-07,-8.039511225763809e-07,-7.77698425525626e-07,-1.4721864499241002e-06,-1.1661217464447184e-06,-1.1520496356505131e-06,-2.5974914986683082e-08,-1.5619911690142014e-07,-1.0207778783890001e-06,-6.559299797483655e-07,-1.0393760195614491e-06,-8.627768395911505e-07,-5.852642438780941e-08,-8.936799623678689e-07,-1.2127647520190048e-06
-1.2893491300145037e-07,-1.064951178832766e-06,-8.495424068127432e-07,-7.502558053311993e-07,-8.464573843111828e-07,-8.41279609396276e-07,-1.499372968823737e-06,-1.2123937048629534e-06,-1.2263842656253591e-06,-1.0677300960793e-07,-1.889902690118634e-07,-1.0298740989239356e-06,-6.614535274790652e-07,-1.0109047335464443e-06,-9.058714672930675e-07,-7.148555351370121e-08,-9.26284099794728e-07,-1.247365604124675e-06
-1.7580848983864527e-07,-1.0937880039961904e-06,-8.401923725629022e-07,-8.0590949576869e-07,-8.783717793445253e-07,-8.832546956383966e-07,-1.4640260397287907e-06,-1.2508461053984534e-06,-1.3009793446447307e-06,-1.9563594562928034e-07,-2.1755880149061455e-07,-1.0147461927200069e-06,-6.624277296303439e-07,-9.547225286042351e-07,-9.528128176671154e-07,-7.292542079500523e-08,-9.432571958404896e-07,-1.2812250518545144e-06
-2.198524431436501e-07,-1.1122618974229681e-06,-8.349409145014115e-07,-8.230826048537736e-07,-9.001172721955824e-07,-9.203770616694691e-07,-1.3956611075649414e-06,-1.2630186923773452e-06,-1.3707121320989583e-06,-2.818143685293468e-07,-2.412551729591619e-07,-9.838075681576535e-07,-6.621674193423419e-07,-8.85978168951959e-07,-9.989100530473333e-07,-6.484645287294897e-08,-9.554128694970643e-07,-1.3125065291094201e-06
-2.59838432220853e-07,-1.1027987123213406e-06,-8.800277349646205e-07,-8.315142797490949e-07,-9.106477001828562e-07,-9.659385269211508e-07,-1.311841491863474e-06,-1.264124386053381e-06,-1.4307248306804434e-06,-3.5660799033865243e-07,-2.602224984022522e-07,-9.556155675963754e-07,-6.606310210867893e-07,-8.226356646088328e-07,-1.0328265061114694e-06,-5.6576133017542895e-08,-9.58969935268657e-07,-1.3394009460650598e-06
-2.9353465744555766e-07,-1.0878107469892796e-06,-8.787921812837167e-07,-8.259329859628135e-07,-9.154154704076622e-07,-1.0009503312981282e-06,-1.268055683916322e-06,-1.2641320852430808e-06,-1.4781651643948507e-06,-4.1346792278783714e-07,-2.7679219121631494e-07,-9.384013476647048e-07,-6.623742657159335e-07,-7.662886313986493e-07,-1.0531503379210292e-06,-4.605782770879726e-08,-9.595860000243237e-07,-1.3622687946942597e-06
-3.193444011127146e-07,-1.0786724008011724e-06,-8.520202696763274e-07,-8.02824817205457e-07,-9.157319530637339e-07,-1.035176320226926e-06,-1.2463766053018823e-06,-1.2700353816244124e-06,-1.5123183494099977e-06,-4.5649907202645497e-07,-2.899293034716529e-07,-9.406312836628355e-07,-6.706755133180737e-07,-7.333016637161645e-07,-1.063124299345805e-06,-3.7518292553160034e-08,-9.670335130443129e-07,-1.378833491195809e-06
-3.3509098383905637e-07,-1.0814989380351715e-06,-8.598876990978793e-07,-7.766067050958114e-07,-9.078127387519837e-07,-1.0643594239645272e-06,-1.2292402615222202e-06,-1.295403387627654e-06,-1.5337636382152976e-06,-4.7592350859012723e-07,-2.9630197963372083e-07,-9.652088851809017e-07,-6.837807393381479e-07,-7.258884866483204e-07,-1.0597936983479321e-06,-3.0344937251231145e-08,-9.891806830444842e-07,-1.3859921253897947e-06
-3.4338046548662e-07,-1.084230135477829e-06,-8.742123189088257e-07,-7.497367972380935e-07,-8.867613259074485e-07,-1.080218649518454e-06,-1.1676821243582858e-06,-1.3315281557828952e-06,-1.544452423029481e-06,-4.814081753703204e-07,-2.9567797657210334e-07,-9.957403183345596e-07,-6.963863781060339e-07,-7.32204779021516e-07,-1.037816119516304e-06,-2.0412362192734936e-08,-1.01634650607452e-06,-1.382592794985315e-06
-3.4549743528814634e-07,-1.1019446945391777e-06,-9.068240348258886e-07,-7.237948175153728e-07,-8.375002009522363e-07,-1.0844824604362006e-06,-1.0496422448365918e-06,-1.3418479391102421e-06,-1.5475258312015462e-06,-4.839400591960322e-07,-2.9057413013287627e-07,-1.0333984776289425e-06,-7.031434916230804e-07,-7.451354025838934e-07,-1.0050160170020177e-06,-3.4410181764409036e-09,-1.0413993166371665e-06,-1.3674565543457847e-06
-3.346881854408316e-07,-1.1271046200025693e-06,-9.722407746875818e-07,-6.968150745205873e-07,-7.732605298880183e-07,-1.0760253795793777e-06,-9.379884130805227e-07,-1.3321460996895273e-06,-1.5464395442608751e-06,-4.861006445651898e-07,-2.818585477609024e-07,-1.0752291275199637e-06,-7.016502773482164e-07,-7.558891827555031e-07,-9.675964097299813e-07,1.7336556502895077e-08,-1.0621750929997441e-06,-1.344104486115385e-06
-3.1962747288583997e-07,-1.143979264427763e-06,-1.0317289614220682e-06,-6.639579316769281e-07,-7.067031018442764e-07,-1.0610586365502188e-06,-8.270155037978098e-07,-1.3281929074607313e-06,-1.5436511319280044e-06,-5.030482172179056e-07,-2.71669782215544e-07,-1.1153433998958082e-06,-6.924183991368517e-07,-7.619368693580055e-07,-9.307213814332425e-07,4.146865123341535e-08,-1.0743894473291415e-06,-1.3157328356477453e-06
-3.030244944682911e-07,-1.1595994720188787e-06,-1.0799040741485609e-06,-6.248475603950929e-07,-6.462791402491436e-07,-1.0459221069627107e-06,-6.831665412818252e-07,-1.3225827801093817e-06,-1.5396923970038266e-06,-5.219114461693144e-07,-2.6122327307399814e-07,-1.1520265959489113e-06,-6.802489013742359e-07,-7.651087898898224e-07,-8.981434104837659e-07,6.994592660712945e-08,-1.0808842120636384e-06,-1.282264532136192e-06
-2.900774665786657e-07,-1.1606479137622602e-06,-1.116838960197657e-06,-6.00659441327853e-07,-6.021238575145519e-07,-1.0318204995956128e-06,-5.848938416514537e-07,-1.3119880781867132e-06,-1.5334672425653377e-06,-5.287395880774605e-07,-2.493774512193715e-07,-1.1740341775768323e-06,-6.674774360965339e-07,-7.672012490281598e-07,-8.674161139221972e-07,1.0265707558888687e-07,-1.0784458219210325e-06,-1.250048052875864e-06
-2.821695885887338e-07,-1.1475756588120766e-06,-1.140623640104149e-06,-5.845137537323393e-07,-5.726321427731013e-07,-1.0172449430542915e-06,-5.342988861641425e-07,-1.2944470452731098e-06,-1.5235529315414586e-06,-5.077789186848905e-07,-2.347667263697292e-07,-1.174478025303668e-06,-6.558319035087005e-07,-7.677216077837371e-07,-8.360835674096949e-07,1.4029009189430613e-07,-1.0653119078048237e-06,-1.216934562911575e-06
-2.725433533711322e-07,-1.114605281027785e-06,-1.133265121498579e-06,-5.727308939188848e-07,-5.589629180035017e-07,-1.0011795600349645e-06,-5.072299975355816e-07,-1.265874023688536e-06,-1.5095783691834209e-06,-4.784992986826775e-07,-2.1647961519845894e-07,-1.1541886649665447e-06,-6.445720465092948e-07,-7.694535850080276e-07,-8.041495291101766e-07,1.7973929091799627e-07,-1.0419693610736983e-06,-1.184193071832171e-06
-2.5740396944979515e-07,-1.069938734166834e-06,-1.099976226505044e-06,-5.739231799743174e-07,-5.63459948476644e-07,-9.84666480269118e-07,-4.978200885151477e-07,-1.2383323993395407e-06,-1.4927146072173625e-06,-4.3978839413826325e-07,-1.9494160884630226e-07,-1.1212240955860077e-06,-6.344421798307517e-07,-7.766408077218545e-07,-7.735034910609335e-07,2.1518844931456707e-07,-1.0145855755012318e-06,-1.1529653098555732e-06
-2.304864028880613e-07,-1.0164464051557977e-06,-1.0508877777461738e-06,-5.841569447445934e-07,-5.885515418001212e-07,-9.692783462803935e-07,-5.063440261929546e-07,-1.2234396644677675e-06,-1.4745171241654945e-06,-3.872731006823327e-07,-1.715012802363257e-07,-1.082056561181454e-06,-6.261148911050462e-07,-7.914219206961286e-07,-7.459823913283522e-07,2.441754682309394e-07,-9.882122842995327e-07,-1.1275010624308868e-06
-1.9960537723761284e-07,-9.586125434415611e-07,-9.908532349668835e-07,-6.037462546261785e-07,-6.268011817752909e-07,-9.547683630186007e-07,-5.338143161787519e-07,-1.222904713346806e-06,-1.4552019258330232e-06,-3.2921515924123106e-07,-1.4690267937559643e-07,-1.0430325106009913e-06,-6.180028250962446e-07,-8.130706720120281e-07,-7.211311381898471e-07,2.613124422233491e-07,-9.631378956336786e-07,-1.107724334185285e-06
-1.6838858093396553e-07,-9.170324670131586e-07,-9.401635320632757e-07,-6.317352742579581e-07,-6.678936917918757e-07,-9.389813624881666e-07,-5.575421694415368e-07,-1.2302841354339397e-06,-1.4334359679008151e-06,-2.427533731756372e-07,-1.2079971287991083e-07,-1.0068386514072104e-06,-6.07990396383206e-07,-8.374669383477256e-07,-6.959428451848861e-07,2.684960737580336e-07,-9.38789407451199e-07,-1.0912272121711566e-06
-1.377772775104055e-07,-8.842216741774792e-07,-9.060217960720626e-07,-6.628302660357397e-07,-7.027482934055257e-07,-9.203886361234978e-07,-5.803737292178023e-07,-1.2433997869422315e-06,-1.4079330635554642e-06,-1.527132882028147e-07,-9.346981930781832e-08,-9.73333163123271e-07,-5.964194437494676e-07,-8.600756974184631e-07,-6.665723965397555e-07,2.704548874954543e-07,-9.155038069282757e-07,-1.076026598088487e-06
-1.08812193845939e-07,-8.580315571571164e-07,-8.868029051897199e-07,-6.881302057993207e-07,-7.254277068515181e-07,-9.006575672787554e-07,-6.083191544694845e-07,-1.2660113256261728e-06,-1.37918045721066e-06,-7.581982679107885e-08,-6.634596773296846e-08,-9.444773814092675e-07,-5.83357409330319e-07,-8.813127825377085e-07,-6.304743120433307e-07,2.6947349939876414e-07,-8.952071591915499e-07,-1.0556243950241034e-06
-8.130870643240867e-08,-8.382413465751191e-07,-8.822037702297075e-07,-7.090235501119437e-07,-7.381413861467224e-07,-8.844784150098875e-07,-6.337853441053723e-07,-1.2918683574122708e-06,-1.3498413173457936e-06,-2.3865771882716566e-08,-4.2941213883808146e-08,-9.204785525557783e-07,-5.703193173861772e-07,-8.972912801645027e-07,-5.872834921853609e-07,2.681806925554951e-07,-8.793325719455235e-07,-1.028904857425037e-06
-5.801354952654296e-08,-8.2431247266624e-07,-8.852823215116716e-07,-7.253955663785126e-07,-7.44982783416159e-07,-8.762115456087478e-07,-6.58887140888608e-07,-1.3183617589299174e-06,-1.3231897075358143e-06,1.263421186681019e-08,-2.693375013717634e-08,-8.990607764386985e-07,-5.589083951547767e-07,-9.043857968906426e-07,-5.382964129012744e-07,2.6775633688143435e-07,-8.685915268676341e-07,-9.9639324197892e-07
-4.2352586211597336e-08,-8.15716843144411e-07,-8.931059359856994e-07,-7.381992005091568e-07,-7.482567478824757e-07,-8.762075985647963e-07,-6.83545923434196e-07,-1.3398176502754752e-06,-1.3011701289067435e-06,3.503003451471538e-08,-2.0855338152898836e-08,-8.780555810885773e-07,-5.480018945773674e-07,-8.983258760658687e-07,-4.859709782067457e-07,2.695336083435689e-07,-8.665384955492524e-07,-9.606002036168259e-07
-3.65502956959985e-08,-8.039566208218929e-07,-9.012799559786393e-07,-7.473683907759702e-07,-7.508953759026505e-07,-8.802004981751325e-07,-7.022920802592449e-07,-1.3503544918837387e-06,-1.2838197450132373e-06,4.273169703690815e-08,-2.479664433768976e-08,-8.55863140784803e-07,-5.354819140794183e-07,-8.740059677013339e-07,-4.3437846318191e-07,2.7417575414651837e-07,-8.671223906683956e-07,-9.258013307531032e-07
-3.872056577890378e-08,-7.936540014035185e-07,-9.040141007983262e-07,-7.505457484890823e-07,-7.488335749885783e-07,-8.82515652628876e-07,-7.210620108457429e-07,-1.3503219522405955e-06,-1.2701922250503076e-06,4.3781994643035166e-08,-3.6695563712877066e-08,-8.283821778714759e-07,-5.231583133398223e-07,-8.318188349996839e-07,-3.8960109668179524e-07,2.8224963554244273e-07,-8.668066879254507e-07,-8.988743409380976e-07
-4.7058187952887125e-08,-7.814162138890401e-07,-8.995208151366703e-07,-7.495111906944195e-07,-7.422254778805682e-07,-8.802433271112582e-07,-7.457015530699197e-07,-1.3304583565510292e-06,-1.2597242246226588e-06,2.1456276253021816e-08,-5.375098052689766e-08,-7.970350386288281e-07,-5.107002196650543e-07,-7.772720640898658e-07,-3.582892775902942e-07,2.9161725307512425e-07,-8.66515778831417e-07,-8.836356650474426e-07
-6.116314061077715e-08,-7.697985869779957e-07,-8.90383830826502e-07,-7.464901620015252e-07,-7.354074085335696e-07,-8.747108497668667e-07,-7.779971563700226e-07,-1.2980457429750637e-06,-1.2522960509551844e-06,-6.3295932897828194e-09,-7.222594484470219e-08,-7.6701298595884e-07,-4.989415479492131e-07,-7.197596110150331e-07,-3.4430728129357397e-07,3.002018860100875e-07,-8.656752879694462e-07,-8.740861467746018e-07
-7.396346352716765e-08,-7.632347290077434e-07,-8.770941768873765e-07,-7.43859005430495e-07,-7.316423663689327e-07,-8.69460953494221e-07,-8.177150819367712e-07,-1.2593612044970707e-06,-1.2467952214146298e-06,-2.964737257021358e-08,-8.738782297697943e-08,-7.434290520279536e-07,-4.903742085701021e-07,-6.693695696369327e-07,-3.458545371141059e-07,3.092175288694369e-07,-8.648195633325429e-07,-8.670881499443253e-07
-8.29608799826595e-08,-7.531157448153781e-07,-8.612953422897411e-07,-7.428562206786754e-07,-7.337879106105042e-07,-8.671489201290327e-07,-8.589800658010453e-07,-1.218136740756461e-06,-1.2399788517559833e-06,-4.226815054591115e-08,-9.359020683377385e-08,-7.2584855168878e-07,-4.813487342756808e-07,-6.357979644222041e-07,-3.55634725204232e-07,3.224187217053856e-07,-8.620506337897137e-07,-8.568391565414162e-07
-8.498781189729056e-08,-7.499846041881553e-07,-8.546099565042315e-07,-7.427975979396253e-07,-7.416688087868396e-07,-8.67969884758719e-07,-8.942463825479204e-07,-1.1796764025344588e-06,-1.227502680643497e-06,-3.786320521749861e-08,-8.619023348040046e-08,-7.187213084732737e-07,-4.755341166995948e-07,-6.247862381164137e-07,-3.641653324043756e-07,3.442696488295512e-07,-8.540054055119906e-07,-8.350556199586804e-07
-7.503702465295877e-08,-7.455793805929478e-07,-8.530609688306105e-07,-7.421671986599621e-07,-7.536642309018316e-07,-8.690300856234e-07,-9.184813902032446e-07,-1.1437906496233987e-06,-1.2063881757532863e-06,-1.530475975416472e-08,-6.391686297586185e-08,-7.234265968674417e-07,-4.6866837700168307e-07,-6.369881250879161e-07,-3.638486838167056e-07,3.765508662469865e-07,-8.376548913015209e-07,-7.999797927029679e-07
-5.84021186501668e-08,-7.363390172557095e-07,-8.540996131985816e-07,-7.411782922362501e-07,-7.674755350619553e-07,-8.67246469958945e-07,-9.309925375642897e-07,-1.113831735266683e-06,-1.1768675664467662e-06,2.262855639214506e-08,-3.0151619842570975e-08,-7.364512669701238e-07,-4.5980092112088895e-07,-6.676881015670251e-07,-3.5121370247631983e-07,4.1700620443786245e-07,-8.143692269437306e-07,-7.520413692712914e-07
-3.5798642081024624e-08,-7.2627166095493e-07,-8.587964353376789e-07,-7.403079128677242e-07,-7.818099201711502e-07,-8.587058927026851e-07,-9.342917202938656e-07,-1.0899072029211663e-06,-1.1421916543480266e-06,6.661985785737168e-08,8.315909938887867e-09,-7.59231657948397e-07,-4.498578703185818e-07,-7.060922985065753e-07,-3.2701049660073034e-07,4.6097400453658383e-07,-7.80401010331702e-07,-6.961384853628462e-07
-1.0076969250173873e-08,-7.136324191180482e-07,-8.637575294577032e-07,-7.385361910760993e-07,-7.931075571803452e-07,-8.388887139982712e-07,-9.322636078762617e-07,-1.0717093678617684e-06,-1.1068201513310265e-06,1.1128010829647673e-07,4.433994672401004e-08,-7.804392554582523e-07,-4.372751471489195e-07,-7.377427911583613e-07,-2.9320019434831977e-07,5.040984827848211e-07,-7.383164095083734e-07,-6.395146177979387e-07
1.3524977380489105e-08,-7.03133729366296e-07,-8.677046883592081e-07,-7.334268481995299e-07,-7.959412665077036e-07,-8.051610571985799e-07,-9.253122356630602e-07,-1.0529296621386474e-06,-1.074688933159437e-06,1.428902834008198e-07,7.304728595410634e-08,-7.874991220537168e-07,-4.222560538798827e-07,-7.486515150863128e-07,-2.5334367148374326e-07,5.44062351756186e-07,-6.922193840214991e-07,-5.892525587252114e-07
3.1480092368916436e-08,-6.955501866948079e-07,-8.696872413778374e-07,-7.222001288193298e-07,-7.859773820408719e-07,-7.594614351778153e-07,-9.145002338986756e-07,-1.0242247085505483e-06,-1.048492988805746e-06,1.5412618524805693e-07,9.249422675603581e-08,-7.732105098212176e-07,-4.038047241965552e-07,-7.299212465216195e-07,-2.1196062979262948e-07,5.805873663877178e-07,-6.405107470679521e-07,-5.491728714655776e-07
4.168188545906342e-08,-6.931512225156127e-07,-8.679350297775436e-07,-7.010718970428342e-07,-7.614166717749968e-07,-7.064483605851317e-07,-8.922046672444821e-07,-9.823661098559212e-07,-1.029431050612822e-06,1.4442874239466195e-07,1.0344119632051476e-07,-7.350879660326719e-07,-3.813726709949243e-07,-6.804025377912553e-07,-1.7360492116140197e-07,6.147603375515911e-07,-5.862595647386922e-07,-5.200868123593775e-07
4.393670249372627e-08,-6.915632571531895e-07,-8.620887703405429e-07,-6.69143121672975e-07,-7.239947339069281e-07,-6.543087500040762e-07,-8.563828368519903e-07,-9.254858811217755e-07,-1.0168312001690843e-06,1.159560345254301e-07,1.0849407652346763e-07,-6.759418435011314e-07,-3.540498517542642e-07,-6.056630772601327e-07,-1.4193176749970873e-07,6.487578314704205e-07,-5.310254871837286e-07,-5.011565580975258e-07
3.984130427800212e-08,-6.891903831212328e-07,-8.527650303618383e-07,-6.277320874187532e-07,-6.774254158012511e-07,-6.111813428686082e-07,-8.079217241307402e-07,-8.543695835109172e-07,-1.0079516367512757e-06,7.695448835106372e-08,1.1156831005645188e-07,-5.969361435684603e-07,-3.2258439646983375e-07,-5.145444728887755e-07,-1.1778751516459206e-07,6.85582293346199e-07,-4.726027287579829e-07,-4.89035988788536e-07
3.3707833669083656e-08,-6.868226276299106e-07,-8.400130695556118e-07,-5.79044471586356e-07,-6.257352438826848e-07,-5.797680153319277e-07,-7.47299954734313e-07,-7.704792924132136e-07,-9.99015887448043e-07,3.688084587278883e-08,1.1675379440063214e-07,-5.047198727404638e-07,-2.866214099875525e-07,-4.162080703703567e-07,-9.957001869716539e-08,7.279132107659925e-07,-4.1186231162885044e-07,-4.815840899822566e-07
2.7203215814430465e-08,-6.805773039026238e-07,-8.237934959568134e-07,-5.269133168400325e-07,-5.734094894530261e-07,-5.606182675623923e-07,-6.833277181567539e-07,-6.753738379141986e-07,-9.871979519528328e-07,5.708677780233819e-09,1.2694383929831587e-07,-4.0655032103098335e-07,-2.454179985769874e-07,-3.194526620466987e-07,-8.51325435236061e-08,7.763866351317708e-07,-3.512008423804219e-07,-4.739429128004791e-07
2.236636893029644e-08,-6.702191154383683e-07,-8.046868585809279e-07,-4.7603582375228787e-07,-5.263198913843271e-07,-5.543680231094779e-07,-6.247188869557684e-07,-5.768106550587321e-07,-9.723302896926274e-07,-1.0544409622922687e-08,1.431157589803455e-07,-3.1185382103838586e-07,-2.011816041349397e-07,-2.3523221031788696e-07,-7.372454977015898e-08,8.287625139505798e-07,-2.9209609144261086e-07,-4.655389199750557e-07
2.110911551889231e-08,-6.56305356583342e-07,-7.843042244063846e-07,-4.3169311827845473e-07,-4.91177214779855e-07,-5.584474781521354e-07,-5.956489944345623e-07,-4.802904820441847e-07,-9.570378159974295e-07,-8.052296575703294e-09,1.6457159564117727e-07,-2.319743179657279e-07,-1.5710824445960812e-07,-1.7208310640574732e-07,-6.585462260453928e-08,8.80973725454769e-07,-2.354541904102305e-07,-4.565611684734311e-07
2.3288988000127313e-08,-6.396322721466842e-07,-7.648673166522148e-07,-3.9214123674347856e-07,-4.727622941276718e-07,-5.696651871690865e-07,-5.905932138952996e-07,-3.902702758162885e-07,-9.451450878742178e-07,1.502596707469415e-08,1.903756964711797e-07,-1.749035895952894e-07,-1.1555650977066357e-07,-1.3460790456860917e-07,-6.01023191733794e-08,9.29332021529234e-07,-1.8796938982323184e-07,-4.3787578398085886e-07
3.295043547373131e-08,-6.206265388234748e-07,-7.48200108733776e-07,-3.680374158702906e-07,-4.7128896327233563e-07,-5.875524612668417e-07,-6.501036708011285e-07,-3.0786016718521326e-07,-9.396312896027719e-07,6.121373451908646e-08,2.2037526905266267e-07,-1.4640283920533912e-07,-7.879814149565467e-08,-1.2690603744962419e-07,-5.277160573477378e-08,9.720020571791779e-07,-1.4527392455207855e-07,-4.066436061810906e-07
5.3316690368050844e-08,-5.959712185281062e-07,-7.326989385903648e-07,-3.596985781740473e-07,-4.827948726620986e-07,-6.030657690901183e-07,-7.492422655967391e-07,-2.3362973059548818e-07,-9.413595877421178e-07,1.3305609247194734e-07,2.548657893270143e-07,-1.4628382510702162e-07,-4.980270473532476e-08,-1.4885330316952944e-07,-3.837526718067963e-08,1.0086010721155211e-06,-1.0583425757062018e-07,-3.5905005502631505e-07
8.571885395988682e-08,-5.648290194161443e-07,-7.206961434666368e-07,-3.640979413831329e-07,-5.024483354222939e-07,-6.005318846091087e-07,-8.072909832080324e-07,-1.6985533135426456e-07,-9.490662305572009e-07,2.2711574013836637e-07,2.930070201353271e-07,-1.7287956767811315e-07,-2.7986753005181488e-08,-1.9972726715439252e-07,-1.3248330302778988e-08,1.0386768304478696e-06,-7.338445751353909e-08,-3.0120902082179e-07
1.313608568823573e-07,-5.274612509788176e-07,-7.153604692777489e-07,-3.9393169063762806e-07,-5.275616583636953e-07,-5.53544995739683e-07,-9.162347071871846e-07,-1.2473442433534817e-07,-9.60017207051256e-07,3.3502976026745714e-07,3.3158030693553816e-07,-2.2140944551588173e-07,-1.2940555249462436e-08,-2.746413776529122e-07,2.2747942805816444e-08,1.0608509143167284e-06,-4.8364538548096056e-08,-2.37340750961412e-07
1.8340886314328958e-07,-4.903033589551616e-07,-7.190434158160493e-07,-4.3049656910090586e-07,-5.575224068389159e-07,-5.284473599262664e-07,-1.0835511590167912e-06,-1.0563836418974537e-07,-9.709218734394474e-07,4.2974263011945033e-07,3.6525597042492707e-07,-2.807228309834331e-07,-6.821433421229022e-10,-3.6004296948279873e-07,7.180072009405693e-08,1.0734910149179082e-06,-3.532642580740164e-08,-1.749459671286715e-07
2.343468917470657e-07,-4.570384899395104e-07,-7.336706456880459e-07,-4.719852584034293e-07,-5.913823038049994e-07,-4.5605334950947267e-07,-1.2405847685394336e-06,-1.1230976784635017e-07,-9.792144006520525e-07,4.824136949895593e-07,3.8826258320232807e-07,-3.366424576463492e-07,6.853865155302382e-09,-4.2448336386744556e-07,1.2520371306022744e-07,1.0759481580428198e-06,-3.276073816644289e-08,-1.2376313132342176e-07
2.7616440252359197e-07,-4.333838728219752e-07,-7.576776745889643e-07,-5.167142364346251e-07,-6.262531887247118e-07,-3.8538733096317243e-07,-1.3874797154413114e-06,-1.3656187563808037e-07,-9.845680698238801e-07,4.714909602522291e-07,3.9658035771140195e-07,-3.7430771748923236e-07,7.854990372170425e-09,-4.3950299012156853e-07,1.8310810844634398e-07,1.0689142405277625e-06,-3.627935007512439e-08,-9.922881409621093e-08
2.8632464947962067e-07,-4.2344797047369607e-07,-7.871319259657496e-07,-5.464338104027716e-07,-6.581136366693428e-07,-3.213146009772991e-07,-1.500367180909986e-06,-1.6679699848629236e-07,-9.894207103797648e-07,4.561351872340114e-07,3.889111891234702e-07,-3.8872274320924e-07,2.9548854075232165e-09,-3.9430616912040093e-07,2.4445637877157337e-07,1.0538966615839467e-06,-4.282682838573817e-08,-8.22687712959109e-08
2.863118881415228e-07,-4.290339432995563e-07,-8.169754809466872e-07,-5.814554319586377e-07,-6.83561859186948e-07,-3.4888353149216906e-07,-1.542245833384854e-06,-1.9503946191796352e-07,-9.974077136105938e-07,4.4869408040878414e-07,3.6708510604157293e-07,-3.480229849882585e-07,-1.2123434693789859e-08,-3.4674560184467987e-07,3.040543993301088e-07,1.0329950622047528e-06,-4.880988463413426e-08,-6.165835462015189e-08
2.8840987715221177e-07,-4.3155797177283946e-07,-8.423029670101775e-07,-5.977535888166939e-07,-7.005693355474803e-07,-4.2281885431383296e-07,-1.5086417171673734e-06,-1.9997879671862725e-07,-1.0094833171432102e-06,4.481182399157474e-07,3.355662834409756e-07,-2.901627824431908e-07,1.2873103936871818e-08,-3.305419811677259e-07,3.294256451635607e-07,1.0092165036019891e-06,-5.161651893407792e-08,-6.586245779165632e-08
2.6608460655425203e-07,-4.2026756129510415e-07,-8.578292438913341e-07,-5.832239293332847e-07,-7.085027776752837e-07,-4.851182410073045e-07,-1.49912022184712e-06,-1.856079104700679e-07,-1.0207605295948707e-06,4.186172288765572e-07,3.008191026254973e-07,-2.1262873587345078e-07,4.8337034675412355e-08,-2.8526252582393044e-07,3.134070280590163e-07,9.860155756141893e-07,-4.436185016262402e-08,-8.25867941272988e-08
2.3067073481566724e-07,-3.773646527308087e-07,-8.597067473778961e-07,-5.756270255044443e-07,-7.089568016558473e-07,-5.365145845760651e-07,-1.4883799627573884e-06,-1.6722618406399813e-07,-1.0212426067072418e-06,3.5337626528830027e-07,2.6956791215093835e-07,-1.302886426079806e-07,9.777786991059982e-08,-1.793548912036741e-07,2.724289022214928e-07,9.652930329883765e-07,-3.759378147403967e-08,-8.848671837560668e-08
2.0540475140026693e-07,-3.170200208555807e-07,-8.472084171923059e-07,-5.760127821182797e-07,-7.074051693238158e-07,-5.698776647923168e-07,-1.4514452645430858e-06,-9.104508155361402e-08,-1.0007949830760216e-06,2.613885940614789e-07,2.461902426418963e-07,-5.6406177672763716e-08,1.3884087843173695e-07,-8.720113719423327e-08,2.2966606218012905e-07,9.451496596130292e-07,-3.343694990721121e-08,-5.8407764136373833e-08
1.9591309489394453e-07,-2.645606983309335e-07,-8.235311399578691e-07,-5.78952953025149e-07,-7.136480211689709e-07,-5.835172975478478e-07,-1.4190237985788789e-06,-2.6939561611597755e-08,-9.555604650505713e-07,1.9978447781322296e-07,2.3048291511712252e-07,1.963651403058148e-09,1.6768994563388375e-07,-6.386020419244042e-08,1.9417834042732439e-07,9.195270070008215e-07,-4.5961304889555736e-08,-1.3711870943790622e-08
1.957728252240015e-07,-2.1572022912354562e-07,-7.957683320906503e-07,-5.907517209762004e-07,-7.391348739967037e-07,-6.285115396236208e-07,-1.2763673183921326e-06,-3.5743129121140583e-08,-8.91573309577923e-07,1.530715106130389e-07,2.1722586819447303e-07,4.4798153084879584e-08,1.447049971136416e-07,-6.018295991793187e-08,1.5909228090560595e-07,8.805937320860543e-07,-9.955006875885152e-08,3.4697375151737026e-08
1.9794547031678024e-07,-1.2149945273490298e-07,-7.720367295669854e-07,-6.18137433106298e-07,-7.915594571533756e-07,-7.39617842713327e-07,-1.1027769846432184e-06,-6.194422128133013e-08,-8.229833412832325e-07,1.860715384012676e-07,1.988775928910321e-07,7.285413790409114e-08,9.804611431538379e-08,-7.919191359838183e-08,1.1462305418171331e-07,8.22638960131389e-07,-1.1131712296087548e-07,3.6032101670724664e-08
1.9295032469363888e-07,-7.68709461721655e-08,-7.57923403388369e-07,-6.598313154473515e-07,-8.723961651570614e-07,-8.181772556853278e-07,-1.0121020083945993e-06,-1.1883930199423094e-07,-7.658247052865838e-07,2.1024748661823938e-07,1.695940386497561e-07,8.492524923354268e-08,5.857133572672624e-08,-3.332979198529152e-08,6.182011277051177e-08,7.450672924551335e-07,-1.1418131121740183e-07,-8.478761665785406e-09
1.745190612888641e-07,-5.8380488728115657e-08,-7.545592758431186e-07,-7.116834740883801e-07,-9.674530279192912e-07,-8.287691797152772e-07,-9.109759854234755e-07,-1.3615279657693208e-07,-7.316049129525476e-07,2.317656721566464e-07,1.2802036562811655e-07,8.54074413093655e-08,3.614665539439128e-08,-6.137727289175612e-08,-1.0207022380587395e-08,6.52793431792575e-07,-1.204367959252319e-07,-6.067958128918202e-08
1.414243897681706e-07,-3.8694361114221944e-08,-7.593704671979412e-07,-7.671441779871775e-07,-1.0598983130293303e-06,-8.600051015175677e-07,-8.497700798110407e-07,-1.8784862406864256e-07,-7.243957618060195e-07,2.541090839872794e-07,7.750850310883437e-08,7.886618326318631e-08,2.979612967587737e-08,-1.5184665125868233e-07,-9.471627823219411e-08,5.541641364637267e-07,-1.0679401789097202e-07,-8.970242692485312e-08
9.642673178848089e-08,-3.087298538188892e-08,-7.685595959634511e-07,-8.19461760769664e-07,-1.1343235921149912e-06,-9.316317259643293e-07,-8.339324559532954e-07,-2.891761978903887e-07,-7.418853609155773e-07,2.5947686895929177e-07,2.296805024017129e-08,6.717385958624665e-08,3.175165923714912e-08,-2.2275673914946745e-07,-1.8056364109629118e-07,4.579754989197283e-07,-1.0557003149217127e-07,-1.203988895590439e-07
4.391555834836481e-08,-2.7014108771823463e-08,-7.79224785126924e-07,-8.63601702696128e-07,-1.1569315084213858e-06,-9.881448607411248e-07,-8.751112619911339e-07,-3.814330695094387e-07,-7.780334508284874e-07,2.4185171375115345e-07,-3.0123823000550365e-08,5.923456473665409e-08,1.7488366665084773e-08,-2.9812513914686305e-07,-2.559031116074304e-07,3.713123561094598e-07,-1.1526759012395559e-07,-1.1861978484635447e-07
-1.2039081947540066e-08,-3.256784973121767e-08,-7.897662047565455e-07,-8.969463704379096e-07,-1.1531900106587183e-06,-1.03890649916233e-06,-9.190253346641924e-07,-4.2934272024221524e-07,-8.248878167850674e-07,2.0446419863167059e-07,-7.662510444549745e-08,5.7249086160846984e-08,-1.9896459959594764e-08,-3.7473140073498866e-07,-3.219043426289924e-07,2.988274024039883e-07,-1.5368717260938505e-07,-1.4826932516376887e-07
-6.718233946347974e-08,-8.241271548815749e-08,-7.989775127461605e-07,-9.189071735021123e-07,-1.1663649541681323e-06,-1.0543242737236635e-06,-9.462810660571692e-07,-4.524740740806474e-07,-8.733344480360607e-07,1.5350544444523603e-07,-1.156518391220033e-07,6.190000298139323e-08,-5.703688231869779e-08,-3.986144021980172e-07,-3.778369939152955e-07,2.4276197117215885e-07,-1.8615432756609862e-07,-2.327261243677451e-07
-1.1656106009521581e-07,-1.6045086990903223e-07,-8.05400866329242e-07,-9.30333464872015e-07,-1.1428313880380017e-06,-1.0395364487741534e-06,-9.63535812395013e-07,-4.7185414733053374e-07,-9.141702073302558e-07,1.0095645474368495e-07,-1.4252495513160812e-07,7.326562502671021e-08,-8.650613702752072e-08,-3.937776121221559e-07,-4.23161945933968e-07,2.028145239073004e-07,-2.2723174414804524e-07,-3.1909111915498317e-07
-1.5501948176265636e-07,-2.098317407345991e-07,-8.078399368921734e-07,-9.333179723754054e-07,-1.068910531546956e-06,-1.010238604335236e-06,-9.521679797050448e-07,-4.920367911146955e-07,-9.401482244845881e-07,6.089778294287897e-08,-1.430697916411275e-07,8.642460626988813e-08,-1.2025863051025066e-07,-3.752127671950214e-07,-4.6265800632751403e-07,1.7589067081014584e-07,-2.729699326722554e-07,-3.9879800438422765e-07
-1.786451514119454e-07,-2.236627292063495e-07,-8.06306308850367e-07,-9.311862354497825e-07,-1.0012134810506836e-06,-9.603697447952224e-07,-9.16969938388085e-07,-4.63774653169139e-07,-9.480857925156349e-07,4.520204956159975e-08,-1.3509177298785064e-07,9.298581790610138e-08,-1.4585500695558117e-07,-3.590122928065945e-07,-4.984681414456053e-07,1.565848649674256e-07,-3.0405052594473563e-07,-4.6841221518180624e-07
-1.8599767586037002e-07,-2.679202878280074e-07,-8.020177580828487e-07,-9.279156882140835e-07,-9.499453787117795e-07,-9.220449835049468e-07,-8.673117873652636e-07,-4.1161411731675747e-07,-9.393564176332264e-07,6.034955781769803e-08,-1.214810360240666e-07,8.13646258156079e-08,-1.6781911358150825e-07,-3.712736243345405e-07,-5.338516673607607e-07,1.3888790049878538e-07,-3.3823119369848986e-07,-5.044865146108137e-07
-1.7794155566166807e-07,-2.796831542105152e-07,-7.961937041636786e-07,-9.267763674396265e-07,-9.086975770966441e-07,-9.036792470860367e-07,-8.188917655432799e-07,-3.8663656883799205e-07,-9.181061061378744e-07,1.0619576923060185e-07,-1.0264227689771323e-07,4.806796366099974e-08,-1.9693636952449463e-07,-4.1162286582597554e-07,-5.696985232955417e-07,1.1833110850403201e-07,-3.7659065662842916e-07,-5.222843074042618e-07
-1.5673465655892774e-07,-2.5321433356064504e-07,-7.889341185910665e-07,-9.289829308598319e-07,-8.797600110394197e-07,-8.934387710902624e-07,-7.742981974029559e-07,-3.7797687375730853e-07,-8.891131403018449e-07,1.762057279818739e-07,-8.284455258802241e-08,-3.6646977299496073e-09,-2.2842000846503544e-07,-4.7111545775708354e-07,-6.048714188365844e-07,9.307494746465239e-08,-4.1935550420413575e-07,-5.487015218639335e-07
-1.260073082332302e-07,-2.0672667915777754e-07,-7.795310174950822e-07,-9.334024224858026e-07,-8.586093965036027e-07,-8.885575957799374e-07,-7.331123149944392e-07,-3.7344241846507606e-07,-8.565785752085131e-07,2.5846809043163265e-07,-6.621035896888084e-08,-6.455098570180995e-08,-2.6857441914563934e-07,-5.38201543641699e-07,-6.33948831581828e-07,6.331545535432679e-08,-4.6155940468193137e-07,-5.661907757960502e-07
-9.06025584881233e-08,-1.6553032429887122e-07,-7.680619197652292e-07,-9.374450988238413e-07,-8.402288362847426e-07,-8.789520828851101e-07,-6.923816502794885e-07,-3.738085625015345e-07,-8.241395135106189e-07,3.377762030754704e-07,-5.3089404800690414e-08,-1.2249446404693677e-07,-3.034535707527366e-07,-5.989246303613114e-07,-6.553782723124129e-07,2.998010941332458e-08,-5.03908201002381e-07,-5.715780646805483e-07
-5.639413227308433e-08,-1.3361225634221727e-07,-7.56625036836843e-07,-9.381943187230635e-07,-8.216863173750147e-07,-8.693851827086485e-07,-6.533933615897177e-07,-3.7712485559665934e-07,-7.956662766152596e-07,3.992574914179285e-07,-4.292479135278878e-08,-1.6784778497956646e-07,-3.3086838466206505e-07,-6.415748396241517e-07,-6.70730125109451e-07,-5.710148828266268e-09,-5.505637277606797e-07,-5.763350346947933e-07
-2.9103490830625962e-08,-1.1036964495598114e-07,-7.487813128543074e-07,-9.3288843743524e-07,-8.018587618903328e-07,-8.627760815829026e-07,-6.331995918567941e-07,-3.811101598636933e-07,-7.729385637594556e-07,4.3289221988663053e-07,-3.688002912406671e-08,-1.9249405674424234e-07,-3.4715512658404287e-07,-6.58558708018163e-07,-6.815189513735565e-07,-4.1442378001699866e-08,-5.983249700569181e-07,-5.788961727941893e-07
-1.2089491785901704e-08,-1.0389823289278442e-07,-7.476207516617691e-07,-9.189872493202152e-07,-7.797488598395392e-07,-8.571766146924776e-07,-6.381751970095839e-07,-3.8317513402331516e-07,-7.566920005639934e-07,4.3696645225208714e-07,-3.0534836982400475e-08,-1.9375666917898685e-07,-3.5612045842867507e-07,-6.474546747609199e-07,-6.894463897243486e-07,-7.314981232929591e-08,-6.457335245546951e-07,-5.855000908316875e-07
-5.104818298408549e-09,-1.1341293721618639e-07,-7.542533724386907e-07,-8.947867656127125e-07,-7.541448715929218e-07,-8.505008776755952e-07,-6.941639350221529e-07,-3.800969796542676e-07,-7.463526640072038e-07,4.1849586144508835e-07,-2.1003897564197308e-08,-1.7376724252243325e-07,-3.568282441886429e-07,-6.124255530497432e-07,-6.944579552198259e-07,-9.595177230867207e-08,-6.880894815095833e-07,-6.049439099959952e-07
-4.892741000449096e-09,-1.3413758312559016e-07,-7.678489979582497e-07,-8.608229086665643e-07,-7.254191540391419e-07,-8.399252028188868e-07,-8.014580130819271e-07,-3.709749774939928e-07,-7.410710179687544e-07,3.9046269340967023e-07,8.137769273595479e-10,-1.422919682451383e-07,-3.471017797845749e-07,-5.651760511046339e-07,-6.962415057766577e-07,-1.0638827999475834e-07,-7.223296316306646e-07,-6.168227131128163e-07
-6.995538871162789e-09,-1.6148047678649624e-07,-7.864660151466844e-07,-8.210249003979375e-07,-6.97319358695097e-07,-8.227987896252326e-07,-8.86097080319523e-07,-3.6077801945240135e-07,-7.417355023702119e-07,3.6757770067301096e-07,4.985347621347562e-08,-1.1674179337005087e-07,-3.2540511718414096e-07,-5.233263233381681e-07,-6.950841952339698e-07,-1.0410622107143982e-07,-7.489605716795648e-07,-6.162159646103652e-07
-7.13401258575868e-09,-1.9018373394074432e-07,-8.072608362611177e-07,-7.822543347250289e-07,-6.760804996678633e-07,-7.970284404879342e-07,-9.532877755590617e-07,-3.5898897950832513e-07,-7.498565744494809e-07,3.626048409889971e-07,1.1757347540975209e-07,-1.1319700389967241e-07,-2.971230076819279e-07,-5.052711218010579e-07,-6.904686278549325e-07,-9.162487581271723e-08,-7.725989503514099e-07,-5.984523766449493e-07
-1.7035082513204213e-09,-2.1514266309520998e-07,-8.260318439431277e-07,-7.5190776825256e-07,-6.669241855368533e-07,-7.706310553253225e-07,-1.00374480252997e-06,-3.732590640220934e-07,-7.654165414467086e-07,3.83661138350695e-07,1.8552663056720203e-07,-1.4233257480696252e-07,-2.733582806647707e-07,-5.233364456599759e-07,-6.794111843670475e-07,-7.271278407914433e-08,-7.926672133431532e-07,-5.396201358678221e-07
1.2135494793910291e-08,-2.3408855439200044e-07,-8.375278482742568e-07,-7.349362950463836e-07,-6.710473874771785e-07,-7.150419858722129e-07,-1.031324088855549e-06,-4.067693640608498e-07,-7.848965292677894e-07,4.311555393582361e-07,2.473012509985153e-07,-2.0825612709166958e-07,-2.563830902459127e-07,-5.808271728263315e-07,-6.565873482051275e-07,-5.106870606481164e-08,-7.954705220868734e-07,-5.202287287435495e-07
3.567975304969363e-08,-2.4703504333353054e-07,-8.374461195895783e-07,-7.32254855566222e-07,-6.859858766374615e-07,-6.392325339673156e-07,-1.1385912513542045e-06,-4.582602706641314e-07,-8.019583944703271e-07,4.991703795159256e-07,3.035513253693948e-07,-3.0042551825932707e-07,-2.468216974333438e-07,-6.677011327925396e-07,-6.170941104953699e-07,-3.025490894982618e-08,-7.869511356218199e-07,-5.193551796746963e-07
6.732700712281896e-08,-2.5476716796498296e-07,-8.250867440865255e-07,-7.413107403797244e-07,-7.08842179535158e-07,-5.682673247243553e-07,-1.2388813433734152e-06,-5.239710040663204e-07,-8.094175527217913e-07,5.72524301597754e-07,3.394395497610218e-07,-3.980882653655593e-07,-2.401094520875603e-07,-7.614391082014134e-07,-5.60040177332822e-07,-1.4186110943822893e-08,-7.703245018852385e-07,-5.2133714583794e-07
1.0216981511493105e-07,-2.405274511104725e-07,-8.045000186864452e-07,-7.578138162090153e-07,-7.388214521996098e-07,-5.361342955912776e-07,-1.279404945287488e-06,-6.002580262269454e-07,-8.006099448358639e-07,6.33488607883484e-07,3.3429891142987996e-07,-4.839676884668074e-07,-2.320549738938986e-07,-8.436686292678123e-07,-4.8991789434199e-07,-6.74200780070008e-09,-7.488411965402336e-07,-4.925222824230469e-07
1.3352590072870581e-07,-2.0498632350895135e-07,-7.828535004225004e-07,-7.770373113154683e-07,-7.762088416918477e-07,-5.515802319544227e-07,-1.291613640856863e-06,-6.815068513858481e-07,-7.733917712369922e-07,6.825594210026861e-07,3.479098287669075e-07,-5.116097161916248e-07,-2.1941113895744896e-07,-8.759321159096029e-07,-4.144618362701164e-07,-1.0086842555419924e-08,-7.283021400958433e-07,-4.270195892840035e-07
1.5578339785192027e-07,-1.5894553611297118e-07,-7.668667716816934e-07,-7.941866858849512e-07,-8.188779548062465e-07,-5.691547475747804e-07,-1.3296828393018083e-06,-7.59967146260308e-07,-7.278686624634659e-07,6.905039331977412e-07,3.733764498469647e-07,-4.6071559993410966e-07,-2.005010380936517e-07,-8.2613527367815e-07,-3.4138573974694967e-07,-2.2980092488183972e-08,-7.07070177460068e-07,-3.5874626479196655e-07
1.6660928845543807e-07,-1.2128791924422024e-07,-7.598627341482475e-07,-8.046882305048724e-07,-8.602512012763675e-07,-5.825487853426061e-07,-1.3254101452514319e-06,-8.236469281124316e-07,-6.673312010995661e-07,6.525684212823766e-07,3.9477744688233854e-07,-4.643948643264419e-07,-1.723257052804153e-07,-8.099653323414764e-07,-2.7519503355292575e-07,-4.07689659549123e-08,-6.830171466078368e-07,-3.0020491219819627e-07
