0,1,2,3,4,5,6,7,8,9,10,11,12,13,14,15,16,17
2.656169499033321e-06,-1.9052246765632133e-06,-3.960938399479875e-08,-3.5170858898372625e-08,-5.905428715612202e-09,-3.793828985502001e-09,-1.7883862403992597e-07,-8.348421899546854e-08,-2.3025376062705946e-07,5.255967574712168e-08,-3.084766109369156e-08,-2.7378668742488498e-08,-2.866026632966904e-08,5.715569989107377e-08,-8.603235257671566e-08,-2.364248739593856e-07,-3.806833605106785e-08,-2.1839409006215782e-07
3.061675592679513e-06,-1.3204654970775317e-06,-3.3428963343776685e-08,-3.609639264020931e-08,6.278694594791037e-09,-9.107802690955243e-09,-1.6047634295248954e-07,-9.356746523418457e-08,-2.0502827364599318e-07,2.4852321043056924e-08,-4.1776625392012546e-08,-3.60042724179936e-08,-4.79079510639163e-08,3.093320351525358e-08,-1.0408035785877281e-07,-2.417249413151313e-07,-5.425420229905191e-08,-1.9626797082713936e-07
3.6238221850368636e-06,-7.033015639422487e-07,-2.661476513152767e-08,-3.87376785347187e-08,1.0185275473012182e-08,-1.7252058613234675e-08,-1.4417672173707365e-07,-1.017570495714355e-07,-1.788087010789098e-07,2.6004070289631046e-09,-5.079266856453823e-08,-4.4597692110898485e-08,-6.47397955931212e-08,6.477089383531507e-09,-1.2137250317271585e-07,-2.479181236611382e-07,-7.595394683534168e-08,-1.7373209048068518e-07
4.130060439109671e-06,-1.814147486409609e-07,-2.0269687631299676e-08,-4.2457250513358666e-08,5.432732641263578e-09,-2.6529729093538308e-08,-1.2827296133913883e-07,-1.0494844125807475e-07,-1.5065550308090239e-07,-1.2668623840119995e-08,-5.7390997576485254e-08,-5.123553517725041e-08,-7.615855862688742e-08,-1.4671460978945266e-08,-1.33106917362639e-07,-2.4878445909804206e-07,-9.596562151394457e-08,-1.5016782637708359e-07
4.3771316718696074e-06,2.014131357904568e-07,-1.4449042849231679e-08,-4.483435231122825e-08,-4.9363688722863315e-09,-3.3966522953447724e-08,-1.097552985365988e-07,-9.949273497831455e-08,-1.1881663369786273e-07,-1.991678417346527e-08,-6.081250153999139e-08,-5.3227989544918495e-08,-7.94860154075944e-08,-2.9516308929505756e-08,-1.3349255865687466e-07,-2.37239687555068e-07,-1.0725394301651155e-07,-1.2368324185651835e-07
4.223599015673727e-06,4.883805452153356e-07,-8.861041230821619e-09,-4.343282040808652e-08,-1.647370592642342e-08,-3.648390228687739e-08,-8.675697538974384e-08,-8.38746190748037e-08,-8.340847677686173e-08,-2.0228458825409395e-08,-5.9171700287992094e-08,-4.9245332927588006e-08,-7.39827324731743e-08,-3.628595027457022e-08,-1.200075841641411e-07,-2.091476223695122e-07,-1.0679119300850697e-07,-9.270829594532355e-08
3.596720522909195e-06,7.59692264799323e-07,-4.203217091104132e-09,-3.790475104785627e-08,-2.6177444270828176e-08,-3.4403337675766034e-08,-6.02079217735754e-08,-6.034349982370567e-08,-4.6666866773867294e-08,-1.6982337730206766e-08,-5.2227161596766326e-08,-4.0245201536063556e-08,-6.127385112632952e-08,-3.624007480637162e-08,-9.454616489472521e-08,-1.6516203650938577e-07,-9.574675183067681e-08,-5.723256852966197e-08
2.4582973357476497e-06,1.0626255129073313e-06,-1.6175196762940119e-09,-2.932148975602254e-08,-3.266597262968232e-08,-2.951014007530571e-08,-3.19426150822619e-08,-3.2686218447341925e-08,-1.0994627243947471e-08,-1.2326375712827496e-08,-4.090566448335015e-08,-2.7953992028475406e-08,-4.3253576558788716e-08,-3.1171339319761205e-08,-6.017975292603285e-08,-1.0783420806467462e-07,-7.607947742801696e-08,-1.8534807898448497e-08
8.128136589097409e-07,1.3640827420015576e-06,-8.706520786323084e-10,-1.8309819037559706e-08,-3.458720977376114e-08,-2.2410002193777482e-08,-2.0082895975053426e-09,-3.185284659137332e-09,2.287566820046693e-08,-7.776422198221564e-09,-2.5195785402437473e-08,-1.2914841028459314e-08,-2.112109071051734e-08,-2.1706122806467813e-08,-1.9123519410837908e-08,-3.934643373496199e-08,-4.851762638217452e-08,2.1398454724274497e-08
-1.221240987740978e-06,1.55781605496964e-06,-1.6102234314879412e-10,-4.765689170753042e-09,-3.060551732686893e-08,-1.2738723006574531e-08,3.052203018766771e-08,2.7028859118322973e-08,5.564548421728934e-08,-3.615424046615081e-09,-5.3433205232334204e-09,4.445250507852942e-09,4.149592572275255e-09,-8.880981312622678e-09,2.564502097644016e-08,3.7219218809237365e-08,-1.3951694653678083e-08,5.995451338063857e-08
-3.3315281120609712e-06,1.5111800272249918e-06,2.417540928746283e-09,1.0796636819008588e-08,-2.0870704524112343e-08,-5.52809442888819e-10,6.502355877009803e-08,5.616302870421972e-08,8.800112968777594e-08,6.054680704788336e-10,1.7442217182919066e-08,2.2598275311558087e-08,3.088475787946136e-08,4.694916401531856e-09,6.945011120784993e-08,1.1679909291101853e-07,2.530834873842405e-08,9.454384713499665e-08
-5.01544891261207e-06,1.124023777499094e-06,7.807000646636107e-09,2.7244532948654454e-08,-6.987380251153379e-09,1.3195725595582736e-08,9.947264054782568e-08,8.20174160080054e-08,1.1943647461486115e-07,4.124507919812934e-09,4.125891365888053e-08,3.9971921392220446e-08,5.673052331056166e-08,1.5985084853709507e-08,1.0811624304773075e-07,1.9393259519624e-07,6.648466757144314e-08,1.2401591997659462e-07
-5.921581236290465e-06,3.873213753107178e-07,1.6357637908768864e-08,4.433272005057236e-08,9.695350683189413e-09,2.8852646531557233e-08,1.325718427662757e-07,1.0350387391433703e-07,1.490598728289994e-07,6.248428573361428e-09,6.455971134299207e-08,5.535954755239194e-08,7.97290992629429e-08,2.282866542931857e-08,1.3965609044881023e-07,2.6478913485312053e-07,1.0702792635509333e-07,1.492249594473966e-07
-5.8326545149441275e-06,-5.795434318501456e-07,2.7908430080092854e-08,6.282815517257673e-08,2.8652739806596036e-08,4.5471715654932886e-08,1.6394027951523207e-07,1.2048063473457683e-07,1.7577628331368438e-07,6.000176987191308e-09,8.548934196350659e-08,6.752603668591351e-08,9.806254174052419e-08,2.3597289719410796e-08,1.6318371002263142e-07,3.265935629038349e-07,1.4384659784615632e-07,1.7194941953685442e-07
-4.749150350594875e-06,-1.5407828373959937e-06,4.117901221655818e-08,8.265461080505194e-08,4.907591798596623e-08,6.19707592950632e-08,1.9267094464316474e-07,1.326692014246875e-07,1.98159824536727e-07,2.027025331390239e-09,1.0210213224922457e-07,7.505571860690929e-08,1.1028382212705738e-07,1.6182792902490305e-08,1.7840121632443408e-07,3.7710362741352094e-07,1.737696316019484e-07,1.9373302603694132e-07
-2.868685806725803e-06,-2.225802680248353e-06,5.441567358983177e-08,1.0317444652230262e-07,6.988902110590966e-08,7.725800994073271e-08,2.1823445401805263e-07,1.414765181383192e-07,2.156781055256011e-07,-5.503584174507919e-09,1.1361177006298133e-07,7.784677545728945e-08,1.1674350099717601e-07,6.174963319278441e-10,1.874893189955585e-07,4.1714515418032865e-07,1.9614562090590651e-07,2.159007517393218e-07
-4.5038748015790713e-07,-2.4460586373827127e-06,6.72579740835744e-08,1.2511188916523168e-07,9.148941428290342e-08,9.263134647688502e-08,2.427499239538481e-07,1.505924340068533e-07,2.306931362080609e-07,-1.3422601099966705e-08,1.214667869777613e-07,7.840175928222152e-08,1.2064254748056745e-07,-1.9192394398382787e-08,1.9546048306186145e-07,4.5203975323292693e-07,2.1388225262789014e-07,2.396563266482292e-07
2.1641984186175967e-06,-2.1693498978013095e-06,8.114599322282168e-08,1.5051391666230476e-07,1.1596289135360057e-07,1.1207813208190389e-07,2.7035166088576773e-07,1.652639307465443e-07,2.4723603751200633e-07,-1.7310724302545948e-08,1.2867409813070395e-07,8.026677295001718e-08,1.263380550418244e-07,-3.80907326266921e-08,2.063899083605083e-07,4.883877347529545e-07,2.306302738807822e-07,2.652491176010208e-07
4.584851267374229e-06,-1.4997878106875678e-06,9.83214751664524e-08,1.8023256359333933e-07,1.4451414070848684e-07,1.369409574244742e-07,3.0312775977888217e-07,1.8823723706128562e-07,2.6800641873450166e-07,-1.4969167102918027e-08,1.373296437186558e-07,8.534125286391345e-08,1.3635034438117452e-07,-5.340970738957242e-08,2.1975442508276396e-07,5.286302932549302e-07,2.474709444018368e-07,2.913915346253396e-07
5.967708750661974e-06,-5.995223925106326e-07,1.1783526406165476e-07,2.1234928573489375e-07,1.754516337605667e-07,1.6560193105662253e-07,3.3917783451967253e-07,2.1749825270725604e-07,2.92290225297984e-07,-7.311298191482201e-09,1.4760869157459004e-07,9.309575578984294e-08,1.5043089054555296e-07,-6.585784782003775e-08,2.3155246283967622e-07,5.70664763001044e-07,2.628464931407571e-07,3.1623856402577866e-07
6.552936202692182e-06,3.628785632624134e-07,1.3737272887942488e-07,2.433423474789251e-07,2.0519204647875595e-07,1.9454412188574835e-07,3.746302980040917e-07,2.4885237142870104e-07,3.173335946871108e-07,3.5440684843218227e-09,1.5925185919176918e-07,1.0214051735468643e-07,1.6679492759641258e-07,-7.745379858647122e-08,2.3781970605563936e-07,6.105072617014557e-07,2.74313844793176e-07,3.3884313823062704e-07
6.1418233873206185e-06,1.2023786502480335e-06,1.5501341439983328e-07,2.700178642431828e-07,2.3009596081232957e-07,2.2038891761879142e-07,4.0609232057879053e-07,2.794840590406418e-07,3.4050595038967057e-07,1.574627740317155e-08,1.7172424006434595e-07,1.1107107738653236e-07,1.8346049716960583e-07,-8.917214047115729e-08,2.3586018849433514e-07,6.44640568568849e-07,2.792056058384203e-07,3.5931173438851855e-07
4.582508447852991e-06,1.7196396164230802e-06,1.687235895618703e-07,2.898641959760043e-07,2.46775527566045e-07,2.402784898625716e-07,4.3064225546386195e-07,3.070604202797176e-07,3.5942086159182856e-07,2.768083642440936e-08,1.841922935003798e-07,1.1812106029458465e-07,1.9862303828184166e-07,-1.0385078386547863e-07,2.239734998463837e-07,6.706545367932161e-07,2.7501527521341556e-07,3.7802755985186293e-07
3.063900368901682e-06,1.7680498856744183e-06,1.7699487297477895e-07,3.010630752494646e-07,2.523082661385999e-07,2.5322745593002283e-07,4.461276532454709e-07,3.29720829966237e-07,3.7249050960936356e-07,3.8100601019390344e-08,1.95700433951062e-07,1.220181711132262e-07,2.1146593914690231e-07,-1.2322427924037718e-07,2.0285747138485131e-07,6.88413309589837e-07,2.614432590091006e-07,3.9544235249869177e-07
8.036374928004924e-07,1.343948118416955e-06,1.796273410902464e-07,3.0415189778174913e-07,2.4594698996721754e-07,2.600292796318896e-07,4.5355916226450877e-07,3.485479858169718e-07,3.8055847411317994e-07,4.8043565596715825e-08,2.0616752884360647e-07,1.2355491625777744e-07,2.2370487364269521e-07,-1.4516553609801508e-07,1.772030093590509e-07,7.022102830773201e-07,2.42103053717433e-07,4.123562736373735e-07
-1.7138217999399525e-06,6.123164825481814e-07,1.7834715359902784e-07,3.0268645957850983e-07,2.3032129907986442e-07,2.6384592089536596e-07,4.575401976899638e-07,3.6721987437858015e-07,3.8700211912291975e-07,5.9283614316267563e-08,2.180354393098906e-07,1.2577355417145273e-07,2.387940327575851e-07,-1.6513036628837062e-07,1.5365405820579344e-07,7.190193592689075e-07,2.2280969330865766e-07,4.295008291809578e-07
-3.7281186447634602e-06,-1.6539000454870851e-07,1.7529024696767481e-07,3.0113642391950377e-07,2.1002785071910473e-07,2.690283422722508e-07,4.632309710082162e-07,3.891638681512892e-07,3.952836504599943e-07,7.372835175331962e-08,2.3227642538588588e-07,1.313468948875787e-07,2.5965770014237756e-07,-1.801398303704283e-07,1.3666119470191031e-07,7.442038840485825e-07,2.0821041330956815e-07,4.467131058046322e-07
-5.70576011337367e-06,-7.471382507185354e-07,1.7171221038267531e-07,3.0242473329910067e-07,1.8945494091293483e-07,2.7695483749757577e-07,4.7280554070930733e-07,4.154407082332996e-07,4.070614304586505e-07,9.143489975284347e-08,2.487982532011346e-07,1.4155157475459003e-07,2.854047067639192e-07,-1.880997717697599e-07,1.2745918515060406e-07,7.794148459953072e-07,2.0095942711601795e-07,4.6311202060536396e-07
-6.621295632075967e-06,-9.92519398859222e-07,1.676017812382063e-07,3.0796042565143395e-07,1.7248399734437545e-07,2.8815788628761254e-07,4.86184417317222e-07,4.456103690832513e-07,4.22551441215447e-07,1.1082204307389524e-07,2.675108235825007e-07,1.5723794569793753e-07,3.1648960644526695e-07,-1.8847256353741072e-07,1.2638444528022304e-07,8.244258589247653e-07,2.0306081512338884e-07,4.780875154491484e-07
-6.544881437636388e-06,-8.827818399179208e-07,1.6146447503467292e-07,3.1866310484499933e-07,1.6296287179736797e-07,3.0295929580298717e-07,5.022255594196933e-07,4.788188071859282e-07,4.414450847009641e-07,1.3020940109084635e-07,2.8883741960654356e-07,1.7796118827696194e-07,3.5159282608815873e-07,-1.8203850611267787e-07,1.3364079359064819e-07,8.781165328700707e-07,2.1606014886978404e-07,4.914192595129109e-07
-5.995133824646944e-06,-5.021357737411459e-07,1.5380142613878825e-07,3.346762711561509e-07,1.63579003590212e-07,3.253559946181116e-07,5.178337761750355e-07,5.131089186445603e-07,4.6223303264115584e-07,1.4342768226327755e-07,3.127401547641451e-07,2.0330972813281726e-07,3.873719658386802e-07,-1.7107982290604638e-07,1.475365704224406e-07,9.367700376468812e-07,2.394224180647872e-07,5.024535447916805e-07
-5.158974745770968e-06,1.5727428885737836e-08,1.4496069831947059e-07,3.5449316775661e-07,1.7419977922654394e-07,3.517369618646081e-07,5.2790510045752e-07,5.443807516290208e-07,4.817890433022357e-07,1.568233438798017e-07,3.381522455129142e-07,2.328775058939132e-07,4.2021643802718143e-07,-1.5994123008726578e-07,1.6458545064780744e-07,9.944137541122588e-07,2.706573199147813e-07,5.101171062078922e-07
-4.670778389681767e-06,5.505838239663862e-07,1.3364133865115119e-07,3.7580855589036564e-07,1.9236380224456566e-07,3.77122373020889e-07,5.280317412698813e-07,5.688184031870611e-07,4.969645031237669e-07,1.6680346348623715e-07,3.636156129195238e-07,2.637215477125684e-07,4.4730599774602806e-07,-1.5187912631504508e-07,1.8233635278970214e-07,1.0460698948774707e-06,3.0772093479628467e-07,5.140269220344758e-07
-4.698060251612239e-06,1.0382711797706554e-06,1.255319841409433e-07,3.973599648694623e-07,2.152524444655137e-07,3.993582737601988e-07,5.173826815999891e-07,5.851242815389846e-07,5.062250449889205e-07,1.726572374963243e-07,3.885163214386522e-07,2.937575211771631e-07,4.6647569242927526e-07,-1.4759445218282684e-07,2.0026247309931222e-07,1.0898382693645513e-06,3.4998054746228495e-07,5.148405995692952e-07
-5.021753649547264e-06,1.4598806463258778e-06,1.243955880836226e-07,4.189408789812797e-07,2.4033698319548034e-07,4.176107777030499e-07,4.981430842911492e-07,5.938156139718113e-07,5.100002620440721e-07,1.7583431125567555e-07,4.128940745937825e-07,3.220865111985881e-07,4.772784424114914e-07,-1.467391693173842e-07,2.1738072228484932e-07,1.1252817538012314e-06,3.9676392919652745e-07,5.133141578114599e-07
-5.2981242865895505e-06,1.8070460915678585e-06,1.3295138086418035e-07,4.4037617336780417e-07,2.649244774653466e-07,4.3348869443045793e-07,4.7351497489613873e-07,5.958916958874641e-07,5.090862305445532e-07,1.7437066500816452e-07,4.360528089992927e-07,3.4666422811790184e-07,4.808781724237347e-07,-1.4998365092396517e-07,2.3119260078141082e-07,1.151716551280085e-06,4.4660575030189513e-07,5.098707145466713e-07
-5.1293093503534656e-06,2.0512282457085526e-06,1.5376502702881838e-07,4.620222436433445e-07,2.8708097106830323e-07,4.4917911726504977e-07,4.478731818778026e-07,5.934800404656382e-07,5.048787039979494e-07,1.703368361126614e-07,4.577222934174525e-07,3.66359974434237e-07,4.784728801428466e-07,-1.5743801632742484e-07,2.3981646266528987e-07,1.1693265790212465e-06,4.9844265581309e-07,5.054794210611278e-07
-4.257441926659748e-06,2.1055080878989415e-06,1.8710676051276435e-07,4.858804788064524e-07,3.0737087625971505e-07,4.610145276536843e-07,4.26586611908649e-07,5.917844184425763e-07,5.00419298827364e-07,1.6611681051101622e-07,4.78181547955079e-07,3.8172495519524716e-07,4.730810311524746e-07,-1.668688273390325e-07,2.432041594500648e-07,1.179751053942642e-06,5.51788194416793e-07,5.022105186523305e-07
-2.7165584996694418e-06,1.8665427691252843e-06,2.3231098826326984e-07,5.146371974550922e-07,3.2827962648359185e-07,4.773504771691541e-07,4.139378361652465e-07,5.953252412432312e-07,4.992140395108176e-07,1.659683770565667e-07,4.981751409049582e-07,3.9289070964358394e-07,4.697097912950407e-07,-1.7758024510047803e-07,2.413433334606383e-07,1.1838387869433832e-06,6.049883198149645e-07,5.024657327735855e-07
-7.853625681125341e-07,1.2714175089414974e-06,2.8666660423266653e-07,5.489348367107305e-07,3.5148187707039453e-07,5.037391460357533e-07,4.102585837468419e-07,6.061635570686745e-07,5.034747286057526e-07,1.5976769199045823e-07,5.179644511570765e-07,4.008343652409894e-07,4.687302652220107e-07,-1.8844999391151095e-07,2.3342071984632392e-07,1.1801247342706534e-06,6.546796968306559e-07,5.082165440960149e-07
1.1528009214191782e-06,3.658193559068301e-07,3.461497379121817e-07,5.868560749769863e-07,3.767108591554287e-07,5.396161037237513e-07,4.124466257961105e-07,6.241186822706898e-07,5.134992040121999e-07,1.4917631971243216e-07,5.384672418831823e-07,4.055116348423346e-07,4.6813973564532333e-07,-2.0019664202804854e-07,2.2000888237304098e-07,1.1670176179392624e-06,6.978624176945944e-07,5.212039608622999e-07
2.7854248967710254e-06,-7.080575336134624e-07,4.057975646631074e-07,6.277804745055335e-07,4.032498044943885e-07,5.882413441904982e-07,4.1784771579855643e-07,6.485710247203322e-07,5.295051494841874e-07,1.5011117387014766e-07,5.593891113940542e-07,4.061512627523827e-07,4.709482530068935e-07,-2.1248833400477124e-07,2.043245825511382e-07,1.1454143134329107e-06,7.334519853313814e-07,5.428382206276621e-07
3.9415843909577546e-06,-1.78084494053848e-06,4.6546385946269176e-07,6.691398325650419e-07,4.308134291351574e-07,6.506644197815383e-07,4.2568511609694696e-07,6.795669280273026e-07,5.517288560145466e-07,1.622509211788227e-07,5.821588808290316e-07,4.0598712857721437e-07,4.777337165371228e-07,-2.234280005710605e-07,1.9006943850509155e-07,1.1179474196885496e-06,7.612428436455396e-07,5.729376504655013e-07
4.604502306865885e-06,-2.7277285955489936e-06,5.204033589564235e-07,7.075902166091054e-07,4.58444465538241e-07,7.258776204316612e-07,4.356195572664552e-07,7.158971948334838e-07,5.812687082618601e-07,1.8718050970784913e-07,6.073647172033931e-07,4.0617587566009645e-07,5.047736354348125e-07,-2.3513999164455776e-07,1.7966943787235822e-07,1.087400756058705e-06,7.810563999498743e-07,6.089832025359898e-07
4.8653819755383474e-06,-3.503523856254849e-06,5.692467785486805e-07,7.397359911067033e-07,4.842524373994767e-07,8.086323069792498e-07,4.4727380309278133e-07,7.554648406894132e-07,6.158633978702848e-07,2.2548470407965286e-07,6.348317770884834e-07,4.0907944874264055e-07,5.425713914901909e-07,-2.4690164594564776e-07,1.7586725113258456e-07,1.0578129674864982e-06,7.94161093029467e-07,6.473675449822122e-07
4.854438916221203e-06,-4.1006508633545355e-06,6.136098090657241e-07,7.628653555395413e-07,5.073093470154295e-07,9.003723811128241e-07,4.6223289528884204e-07,7.965433396876942e-07,6.542175417546109e-07,2.74529502941699e-07,6.604281023850552e-07,4.226079490713791e-07,5.859332011444986e-07,-2.5611504033535866e-07,1.8272965719703603e-07,1.035903324327669e-06,8.038290476262088e-07,6.851700395477605e-07
4.722951522106671e-06,-4.500840414575347e-06,6.565674834618371e-07,7.771084969919687e-07,5.287327603614253e-07,9.854390762891845e-07,4.839771369411886e-07,8.413307979883453e-07,6.96575110803932e-07,3.384566181397369e-07,6.850598177124192e-07,4.4562781492557854e-07,6.348928180816975e-07,-2.5903208436079506e-07,2.0225216972299395e-07,1.028552064917666e-06,8.125861968398788e-07,7.204457849167501e-07
4.614537891764101e-06,-4.6518879504960115e-06,6.994987890714196e-07,7.816480910824277e-07,5.50256179512088e-07,1.0562287827804544e-06,5.149410537761908e-07,8.85130361661542e-07,7.410313019717561e-07,3.983995905856629e-07,7.082013848817072e-07,4.6091310958267546e-07,6.845290259746956e-07,-2.5202152789180683e-07,2.3245988828717622e-07,1.0387226606442062e-06,8.19645054159666e-07,7.516367718088552e-07
4.631982722439945e-06,-4.481734756650863e-06,7.601316567893147e-07,7.786231411620663e-07,5.731679757577045e-07,1.115625465425656e-06,5.553047219664873e-07,9.285982673204917e-07,7.831033892820264e-07,4.7039899093318373e-07,7.336453291606879e-07,4.721640972674534e-07,7.508757323442006e-07,-2.3180360234638077e-07,2.654837660080787e-07,1.0656866290433818e-06,8.228147373235696e-07,7.777084883371027e-07
4.7842688964741656e-06,-3.991680432225432e-06,8.139145565821666e-07,7.725499454421939e-07,5.996814024570336e-07,1.1543320360992183e-06,6.050233468127186e-07,9.744006029088039e-07,8.230768584007272e-07,5.242826510599041e-07,7.73021506738843e-07,5.112649328719873e-07,8.320223220629114e-07,-1.9338917386253887e-07,2.9502165417462476e-07,1.108701300457038e-06,8.225145849248777e-07,7.985431531584125e-07
4.971235516294272e-06,-3.2835893630292915e-06,8.546105123977628e-07,7.720389321643277e-07,6.339427397917931e-07,1.1754184224728565e-06,6.646310951032418e-07,1.027342587109792e-06,8.658506797554371e-07,5.885751273643641e-07,8.282643427675496e-07,5.71004284191688e-07,9.499984155375961e-07,-1.3124863703132925e-07,3.1714698300651206e-07,1.1682951478364717e-06,8.222121165551102e-07,8.148943716327262e-07
5.0967000649664875e-06,-2.5729136323115314e-06,9.220869229041716e-07,7.878682565247538e-07,6.799807838363682e-07,1.1898031113842874e-06,7.325728683849316e-07,1.0922887833095765e-06,9.190188217320064e-07,6.982882959030288e-07,9.161353184216807e-07,6.553553221999164e-07,1.090036415425075e-06,-4.176646345447549e-08,3.306564245201769e-07,1.2432130220274752e-06,8.249455968368753e-07,8.268058624781455e-07
5.094714610802952e-06,-2.1689642284165824e-06,1.018848351375894e-06,8.26969992980832e-07,7.387621591288505e-07,1.2124088487247298e-06,8.033233943793727e-07,1.1749067680742612e-06,9.913585714531905e-07,7.757628093399583e-07,1.0127631773133226e-06,7.631521798722371e-07,1.1840474456321933e-06,7.608929695833321e-08,3.34189242380346e-07,1.329091047796211e-06,8.303965131785508e-07,8.347694253435551e-07
4.968036040665546e-06,-2.2116127717973024e-06,1.1942499612355436e-06,8.942634088364268e-07,8.07543340208311e-07,1.2907778911664027e-06,8.691580436135005e-07,1.258722485933915e-06,1.087594418943773e-06,8.456891092943268e-07,1.0880186940758794e-06,8.536697425161206e-07,1.268166572976809e-06,2.159879384921812e-07,3.2654702987052243e-07,1.41908717119874e-06,8.349919107905615e-07,8.429757177634906e-07
4.705278311395844e-06,-2.658330540527917e-06,1.3930228465168454e-06,9.87333319286246e-07,8.810280440954616e-07,1.4180727664610194e-06,9.228547079394887e-07,1.338051035490295e-06,1.207687120323699e-06,9.056984775137932e-07,1.1761139226189864e-06,8.943029191345218e-07,1.3322764721459594e-06,3.702283390011946e-07,3.09992349946655e-07,1.5056097244087825e-06,8.340718892453852e-07,8.527438570750845e-07
4.337406275285166e-06,-3.238209886149124e-06,1.5168477400783296e-06,1.0992351450078898e-06,9.526367143543787e-07,1.5358363196744363e-06,9.590980499568936e-07,1.4116043000856216e-06,1.3474785727157894e-06,9.668684690959941e-07,1.295208928070485e-06,9.65565473804221e-07,1.3892251392151883e-06,5.139842052500763e-07,2.902302068436932e-07,1.5824283415975238e-06,8.250979870134191e-07,8.66305305385347e-07
3.894788099953043e-06,-3.5438114153245524e-06,1.5432795181920045e-06,1.2228083572639587e-06,1.0161419661675004e-06,1.642367082138492e-06,9.755128074126022e-07,1.4700845084098613e-06,1.4993223578078082e-06,1.0410407047781663e-06,1.4206271430337448e-06,1.0856240118928513e-06,1.523425413186787e-06,6.386869594631301e-07,2.7796355630161855e-07,1.646282220055465e-06,8.101704988130093e-07,9.082481023016956e-07
3.3814785713615548e-06,-3.210551020220374e-06,1.6508485306972068e-06,1.3338345579311197e-06,1.0674906301329228e-06,1.7917719672821268e-06,9.73306392944868e-07,1.5124774610530905e-06,1.6523913000962099e-06,1.1668757991616685e-06,1.5288224224835617e-06,1.222952276570199e-06,1.6660057374437885e-06,7.423449510657646e-07,2.829399595452371e-07,1.6967185638795991e-06,7.949097153349435e-07,9.707236553979583e-07
2.876892974292895e-06,-2.12739761975793e-06,1.798439395634262e-06,1.4260911323078984e-06,1.1049729036742072e-06,1.9173758740398648e-06,9.561488899492906e-07,1.5199068745280262e-06,1.7950105622434442e-06,1.2687669893125806e-06,1.6092793639269088e-06,1.3300378119753233e-06,1.7434721793007127e-06,8.199788420905696e-07,3.117662207007768e-07,1.7335612354730534e-06,7.818742757133329e-07,1.025296370589996e-06
2.327887229001894e-06,-4.908665940883318e-07,1.9456758677508444e-06,1.4995971864510253e-06,1.127753155282107e-06,1.9469762334014646e-06,9.283603148070524e-07,1.4911219791716252e-06,1.897887671064799e-06,1.3460364015519302e-06,1.6561594181650519e-06,1.3771774065590876e-06,1.804286806985602e-06,8.879100322230892e-07,3.6209045075667695e-07,1.7551399481332396e-06,7.727472873624009e-07,1.0728166517098863e-06
1.788939757654307e-06,1.2862820969422946e-06,2.0556020553660726e-06,1.5525787780462963e-06,1.1350083572116401e-06,1.954893139432708e-06,8.939926029612498e-07,1.428802247206541e-06,1.9586101396604377e-06,1.4148190737704555e-06,1.6834963400108369e-06,1.3524261990778832e-06,1.830765285196074e-06,9.168761045381033e-07,4.266483340924069e-07,1.7593126708890175e-06,7.664643719918077e-07,1.1112296206123471e-06
1.378078641144376e-06,2.795696620315935e-06,2.0783018952606404e-06,1.562201307119861e-06,1.1261111259076853e-06,1.918316171865751e-06,8.564130716301907e-07,1.3793016473177485e-06,1.981748589089394e-06,1.4521883522906125e-06,1.7000406096064557e-06,1.3536124833236472e-06,1.8581639138308596e-06,9.043023007479383e-07,4.950161619256522e-07,1.7448364278271792e-06,7.603119783040418e-07,1.1190748115380821e-06
1.088263804234961e-06,3.7798162453393267e-06,2.0233659414515532e-06,1.5275892084255737e-06,1.1005138337366986e-06,1.8889322049828737e-06,8.172182815257785e-07,1.366581980496554e-06,1.970830250415078e-06,1.4874667206236334e-06,1.6917799541514367e-06,1.3636711027107605e-06,1.9059259766326771e-06,8.583649112862469e-07,5.591135566886598e-07,1.710362341272064e-06,7.544618037098759e-07,1.1266854341165672e-06
9.158461930547083e-07,4.0950517681646915e-06,1.916702829500216e-06,1.4781088263592486e-06,1.0575908181838646e-06,1.8885862580180803e-06,7.758631533191441e-07,1.3865551792124006e-06,1.937520020517236e-06,1.5736267310106478e-06,1.664714497697923e-06,1.3399414985148097e-06,1.9343262209355306e-06,8.085033948478586e-07,5.958275818935059e-07,1.6546160352076036e-06,7.469957619682537e-07,1.1166440678758961e-06
8.062711015352985e-07,3.8225432527528565e-06,1.892651531031483e-06,1.373007499690156e-06,9.973127007637688e-07,1.8704047905784953e-06,7.310739004818165e-07,1.4330347449356973e-06,1.9023688613432751e-06,1.6538791724528058e-06,1.659466677176022e-06,1.3746541857548252e-06,1.9637080422653742e-06,8.143082168560403e-07,6.079372633378018e-07,1.5778884451820546e-06,7.374232933337793e-07,1.0961536438842758e-06
8.797467870244854e-07,3.117325350741027e-06,1.8501247142842439e-06,1.2650024247763333e-06,9.207939881887104e-07,1.8861361546869328e-06,6.817179269449696e-07,1.466389055308203e-06,1.860149761409802e-06,1.697495452310681e-06,1.6828359347668044e-06,1.4010473352364883e-06,1.9985618283265158e-06,8.527716350253272e-07,6.039066613873716e-07,1.4827986021552e-06,7.261248361193802e-07,1.050999525327835e-06
1.3001651117123261e-06,2.1520398783176203e-06,1.8344333181616985e-06,1.2687641405920485e-06,8.300925320906932e-07,1.907856563918376e-06,6.264818852707652e-07,1.4738567228512564e-06,1.8042799195240774e-06,1.7292411672274244e-06,1.7004187077953043e-06,1.4078297898889211e-06,2.040423748231995e-06,9.017646591010986e-07,6.02638668707596e-07,1.3746908230478311e-06,7.121155918514683e-07,1.0014200010314453e-06
2.0340415709390446e-06,1.151587857074135e-06,1.8766123683642533e-06,1.2788870633731933e-06,7.286170837692509e-07,1.9469993650330392e-06,5.644627952219974e-07,1.4677062221057337e-06,1.7700661222236655e-06,1.7429856861133195e-06,1.7197304239356813e-06,1.4076008790495186e-06,2.0242875457972116e-06,9.221157645243062e-07,6.042917123320266e-07,1.2625954668633653e-06,6.931212841054966e-07,9.497437791088466e-07
3.0028942906394158e-06,4.2964424643362467e-07,1.9382888345960237e-06,1.3294592539078743e-06,6.22282437880192e-07,2.0037559998212047e-06,4.96620084261758e-07,1.4405474787634182e-06,1.7402297702561e-06,1.7461030641742565e-06,1.7169307050092893e-06,1.3876993350767824e-06,1.9950113433118806e-06,8.564761519173191e-07,5.825429462629048e-07,1.1575934025980207e-06,6.624671996709006e-07,8.939448491097335e-07
4.243609521132515e-06,2.6168814859002506e-07,1.974014678719929e-06,1.3382575935380489e-06,5.203976097059924e-07,2.0468174925717277e-06,4.2608370383625784e-07,1.3843646890106702e-06,1.7040700820848632e-06,1.7639362922128667e-06,1.7060904796634919e-06,1.325296516370241e-06,1.9372865942820797e-06,7.655976742654226e-07,5.331646770202631e-07,1.0685898305734159e-06,6.151999596616581e-07,8.368524773245579e-07
5.535373855787689e-06,6.37619560016589e-07,1.987411769182067e-06,1.260770382357911e-06,4.3098806253429005e-07,2.084703685255085e-06,3.5674166911076996e-07,1.3152426156656447e-06,1.6651266385977882e-06,1.7405616184833905e-06,1.6970509327405104e-06,1.2624015222612544e-06,1.8486172934586037e-06,6.972299064392222e-07,4.218480365693623e-07,9.989331796713425e-07,5.452357431545455e-07,7.796735775851125e-07
6.6530137387444955e-06,1.3834434694964399e-06,1.9907072841179765e-06,1.1236833094044043e-06,3.5866965756543197e-07,2.0882528130555495e-06,2.922649670006875e-07,1.2347087084741155e-06,1.6144747051657629e-06,1.6893145801096578e-06,1.6605846408682395e-06,1.1696214052374625e-06,1.801710909879856e-06,6.799041054728402e-07,3.1132093198606356e-07,9.462341179238467e-07,4.480667057615944e-07,7.230496925571795e-07
7.412226802921692e-06,2.215503633217504e-06,1.9908055663445316e-06,9.980576003197782e-07,3.062869906618357e-07,2.072418136743282e-06,2.3509001069286867e-07,1.1594710647085286e-06,1.5262231055071224e-06,1.6276209740151123e-06,1.6122810487171704e-06,1.1008142515860787e-06,1.7517500945621454e-06,6.830971970823231e-07,2.432075207526844e-07,9.046233453746546e-07,3.236148943284667e-07,6.673845784227909e-07
7.590065563186047e-06,2.8817252225839035e-06,2.0323584918211803e-06,8.551730483093654e-07,2.721880023348895e-07,2.025877964220861e-06,1.8493722130030753e-07,1.094151505295066e-06,1.4233857721131886e-06,1.5645621735754366e-06,1.5580991114509678e-06,1.1043105905773612e-06,1.7043096074235933e-06,6.608631254187676e-07,2.3752110689874173e-07,8.675589922231353e-07,1.7456026565158492e-07,6.133394423767763e-07
7.1410100149176535e-06,3.3105438787192847e-06,2.0595589056830017e-06,7.347047508259192e-07,2.5148976982700665e-07,1.9609458214012334e-06,1.390487126850332e-07,1.0361744637804961e-06,1.3257755694037017e-06,1.513441775929017e-06,1.4990578220403635e-06,1.0402577285018674e-06,1.6675055392925211e-06,6.142690775659139e-07,1.9813542299303857e-07,8.305472607862444e-07,2.9021441794861664e-08,5.624591607042378e-07
6.281738074790831e-06,3.500637964637333e-06,2.027615640147489e-06,6.362725541621724e-07,2.3872448536602213e-07,1.8984756218549081e-06,9.414703636730443e-08,9.88133268424194e-07,1.2120021938079024e-06,1.4724120731881884e-06,1.4471167891984165e-06,9.610176664955135e-07,1.623058649973353e-06,6.169992462979071e-07,1.059812198559256e-07,7.924322680890194e-07,-1.0488509057203011e-07,5.171318460002355e-07
5.2579058272527234e-06,3.5790629854180498e-06,1.966200494761003e-06,5.388306209142073e-07,2.2888923666215717e-07,1.8388574079391785e-06,4.822574986845424e-08,9.423360441670894e-07,1.1053212446288589e-06,1.4393763045406448e-06,1.4007545475233389e-06,9.23353737532533e-07,1.5693427904432385e-06,6.300294141523876e-07,3.234718759877845e-08,7.545873859502422e-07,-1.9328390787538026e-07,4.796210037118383e-07
4.332213365473524e-06,3.553397853739937e-06,1.8543549554448612e-06,4.5021487136014993e-07,2.1879627434430053e-07,1.7938325175460967e-06,1.404594142197391e-09,9.224371782640344e-07,1.013784991441398e-06,1.398055623017826e-06,1.3541745975218176e-06,9.218360117629723e-07,1.597343311975544e-06,6.930541893525673e-07,2.805846613946323e-08,7.19959624915703e-07,-1.974698295405552e-07,4.512388865109812e-07
3.660113781272506e-06,3.3936890513746533e-06,1.7189065755956768e-06,3.568670460847389e-07,2.0875834669122548e-07,1.7591816233920767e-06,-4.3249530267537854e-08,9.243923143996551e-07,9.331472691544807e-07,1.3762020268237018e-06,1.3086612526028172e-06,9.517103034489572e-07,1.695726573465898e-06,7.688310095164717e-07,1.9928914046313722e-08,6.934551643653384e-07,-1.202990728267707e-07,4.323008376324762e-07
3.1548469127277074e-06,3.140459456538133e-06,1.5874206222137643e-06,2.864623270801047e-07,2.0271794136724718e-07,1.7356125270014859e-06,-7.97528053289557e-08,9.327984933102069e-07,8.711285543074424e-07,1.3610807278791516e-06,1.2780626183417484e-06,9.773917973762132e-07,1.748169852824622e-06,8.455433541106944e-07,5.246199468884077e-08,6.817536666378905e-07,-4.8346598174689084e-08,4.224487718677407e-07
2.8562125535904696e-06,2.764033125184393e-06,1.4586539599682398e-06,2.3549826589711257e-07,2.0652216841817509e-07,1.7241718732923643e-06,-1.0059427581984343e-07,9.317899354814398e-07,8.504992915219663e-07,1.340323997004219e-06,1.2600727785937876e-06,9.994758445869745e-07,1.8149789904279346e-06,9.1733256362718e-07,1.2074755284632078e-07,6.92306435235003e-07,1.6608498803700322e-09,4.211320503281471e-07
2.3399877432769507e-06,2.2332393158269088e-06,1.3417872269863276e-06,2.0607781269186298e-07,2.2685551617024737e-07,1.7285167504205625e-06,-9.855562229157389e-08,9.264826284907186e-07,8.604661558814265e-07,1.3206875618944672e-06,1.253942040790923e-06,9.486942014727133e-07,1.859714279023815e-06,9.8309362455455e-07,9.505125385517763e-08,7.319554433887676e-07,-3.163593308907404e-09,4.280393194650972e-07
1.0081895034900834e-06,1.5534265589482953e-06,1.2332646485379743e-06,2.030266732056545e-07,2.690269867901953e-07,1.7485108113900741e-06,-6.89969810858064e-08,9.270700856627644e-07,8.94556024534399e-07,1.3008983503923061e-06,1.2642996774126936e-06,9.01295848572028e-07,1.830437890264919e-06,1.0478439475284533e-06,6.497631780344354e-08,8.040928458120199e-07,-3.255690862219523e-08,4.428453542622501e-07
-1.2965382849234185e-06,7.88286727457088e-07,1.1625347061180095e-06,2.2012515650233978e-07,3.343294822685007e-07,1.784809812027462e-06,-1.2527873116408672e-08,9.368526005455066e-07,9.614842167652707e-07,1.2902670404684059e-06,1.2909052279849704e-06,8.68818109580726e-07,1.774696835660805e-06,1.121205817381207e-06,3.820886317651169e-08,9.062766986668467e-07,-6.677225677965792e-08,4.644642800450073e-07
-3.955868969738409e-06,5.595258713396952e-08,1.1217589889217735e-06,2.592595665206615e-07,4.190182484880342e-07,1.8325180050522302e-06,6.44292967083774e-08,9.842365330778731e-07,1.0481159026419263e-06,1.2952529824481001e-06,1.3345266763594955e-06,8.718434286398566e-07,1.7327667322148725e-06,1.20700237809248e-06,4.3742217107829665e-08,1.0308972936821412e-06,-6.272468448340522e-08,4.908997626801519e-07
-6.414711015789753e-06,-4.801367311945266e-07,1.1067695060018942e-06,3.1559895536236473e-07,5.154178537091026e-07,1.8859507789896326e-06,1.523743752538072e-07,1.0436802108515795e-06,1.146661043522952e-06,1.3174504558186964e-06,1.393951381591903e-06,9.015086594952897e-07,1.7338468473637977e-06,1.3104407308385348e-06,8.664850628019271e-08,1.1680070991393298e-06,-2.507306055651757e-08,5.19929098026662e-07
-6.639879159889046e-06,-7.627674635311195e-07,1.1157516952265402e-06,3.814094074856005e-07,6.156691206229664e-07,1.9419870467369873e-06,2.4276127639395604e-07,1.09703379415232e-06,1.2498451212069962e-06,1.3449555243214366e-06,1.462262936381041e-06,9.525488369325641e-07,1.7483027241716842e-06,1.4239417082493762e-06,1.6528659884664333e-07,1.3080874225210533e-06,6.941928916808279e-08,5.49959264570188e-07
-4.838439906105143e-06,-8.561316135585525e-07,1.1332991484308248e-06,4.4278251729418637e-07,7.142251155339527e-07,1.9879831868749055e-06,3.306095626192493e-07,1.1436035948797592e-06,1.345843620178679e-06,1.3787256251893908e-06,1.528530602110462e-06,1.0208066036072506e-06,1.7730530694384542e-06,1.5412160507815073e-06,2.7903236089174587e-07,1.443511046141495e-06,1.9475963429735465e-07,5.806384678354539e-07
-3.8238847975723e-06,-8.847911983416686e-07,1.1543200162348713e-06,4.968391148141098e-07,8.080927510237095e-07,2.0215670664999066e-06,4.148647816764369e-07,1.1899673813825002e-06,1.4223460306318455e-06,1.4151859181675888e-06,1.589289257462279e-06,1.0869733462613635e-06,1.8090287724697917e-06,1.6556282119642513e-06,3.957985684338959e-07,1.5690661492342945e-06,3.1569606039313055e-07,6.128026492573779e-07
-4.4120540496571105e-06,-9.768617246976938e-07,1.1704029692817023e-06,5.429779306604607e-07,8.966151604435484e-07,2.042676557363231e-06,4.963762478806201e-07,1.236382955065669e-06,1.4805246420082828e-06,1.4475720640095035e-06,1.6426200110999668e-06,1.1475063462956477e-06,1.8376129948459887e-06,1.761099776329368e-06,5.022329568439424e-07,1.6809840084067574e-06,3.943985016741586e-07,6.474008710817395e-07
-3.946576641569949e-06,-1.1811675448874805e-06,1.1765856033005714e-06,5.792943510327793e-07,9.79129869178046e-07,2.0516520022452367e-06,5.747103813926191e-07,1.2822486720126745e-06,1.5237640805859688e-06,1.4767135675627288e-06,1.6880009965268333e-06,1.2005103545362445e-06,1.8599296985809663e-06,1.8530486810368055e-06,5.924717443665103e-07,1.7759247591357588e-06,4.66140834398284e-07,6.841150160376292e-07
-2.9024081340087524e-06,-1.460291714893476e-06,1.1586662749148943e-06,6.064576744353516e-07,1.0534186134296393e-06,2.061991397081034e-06,6.472859081867557e-07,1.328015931552574e-06,1.554360818111768e-06,1.5003091937219855e-06,1.7275083184546236e-06,1.2419525568714686e-06,1.8767727987498583e-06,1.927735942137493e-06,6.680838873732905e-07,1.851570062413803e-06,5.368918574802334e-07,7.210731851186829e-07
-5.929047082976563e-07,-1.7233901122350044e-06,1.1163392133041541e-06,6.231675327441253e-07,1.116770931484514e-06,2.0693953446975012e-06,7.109968914453167e-07,1.3530597652149586e-06,1.5775060305361956e-06,1.5184085385277913e-06,1.7625492992040666e-06,1.2739850078448526e-06,1.8853022445380068e-06,1.9843643733444674e-06,7.356829057215117e-07,1.9083303647236495e-06,6.005265143887179e-07,7.556655151364753e-07
1.729741294823369e-06,-1.8960418416524515e-06,1.0730845498118943e-06,6.299396078010131e-07,1.1677477913988417e-06,2.0693886736390367e-06,7.64184116752182e-07,1.3658710547190803e-06,1.5960609298656538e-06,1.5337620152679993e-06,1.7952148036836731e-06,1.297868132712608e-06,1.8892553633018756e-06,2.025605940009278e-06,8.00442431740861e-07,1.95030693014445e-06,6.715829747361178e-07,7.857013693600376e-07
3.58817680184055e-06,-1.9224300205787684e-06,1.0286539963734888e-06,6.3036459199401e-07,1.2091546698215504e-06,2.0624369084830692e-06,8.09302815660443e-07,1.3750791386153998e-06,1.6124017554930432e-06,1.5495038669405805e-06,1.8280224654224193e-06,1.317770480967527e-06,1.8900820331565131e-06,2.056788050751537e-06,8.453357118573082e-07,1.9848979681253224e-06,7.18011078000156e-07,8.103514721840606e-07
5.137990318417669e-06,-1.8048555308504646e-06,9.893287319038948e-07,6.301710259587936e-07,1.24404170842853e-06,2.0483193316507333e-06,8.488829883061438e-07,1.385022756658035e-06,1.6289171303877531e-06,1.5689791818127289e-06,1.8632166859571698e-06,1.3397523887624202e-06,1.8908471503532228e-06,2.0845966082475567e-06,8.850792705708873e-07,2.020969531993781e-06,7.556103061272088e-07,8.302647195531383e-07
5.852531851972025e-06,-1.55158679315823e-06,9.649277313951114e-07,6.361619759088448e-07,1.2771942595275171e-06,2.02936787996807e-06,8.853250801017789e-07,1.398338814654802e-06,1.64644317870123e-06,1.5946258236242022e-06,1.902179638893897e-06,1.3678308079781874e-06,1.8953102850867868e-06,2.114557622569169e-06,9.316423437074481e-07,2.0656820158873636e-06,8.010617143823764e-07,8.467799884971917e-07
5.961848336603537e-06,-1.1409269606876208e-06,9.56684017667423e-07,6.546731436981631e-07,1.3141683119247183e-06,2.0105627836278776e-06,9.244049635261637e-07,1.416351534065821e-06,1.6639068695269611e-06,1.6267800595752705e-06,1.9449723301095317e-06,1.402638942183542e-06,1.904800937292145e-06,2.149449765571825e-06,9.776887559446166e-07,2.1224957801987367e-06,8.547368477449338e-07,8.611281131279468e-07
5.743327987408884e-06,-5.555472301057762e-07,9.740377828621262e-07,6.910839831256104e-07,1.3579552292537656e-06,1.991500161700996e-06,9.717956872702809e-07,1.440650333936181e-06,1.678738444075609e-06,1.6631660604736046e-06,1.990522256661224e-06,1.442392385487723e-06,1.918508895673924e-06,2.1896138950565753e-06,1.0290078190701772e-06,2.1918908046192694e-06,9.157767228976749e-07,8.742416218432317e-07
5.2687483007525705e-06,1.7785071516505477e-07,1.0188928573861987e-06,7.496126247184115e-07,1.4143253904728656e-06,1.968079239893313e-06,1.0330438023010018e-06,1.4712743030930985e-06,1.6877399827278285e-06,1.7006142633755257e-06,2.0373336402229874e-06,1.4841311134735958e-06,1.934293898084383e-06,2.2339484360879253e-06,1.0835403485903327e-06,2.272592293611248e-06,9.8319491588997e-07,8.867292175456331e-07
4.771402085976758e-06,9.463693302680856e-07,1.0886326994380058e-06,8.320902589951084e-07,1.4879095855419915e-06,1.9415878137522884e-06,1.1120048327802377e-06,1.5098030399229102e-06,1.6871712024551778e-06,1.7355573986363373e-06,2.0836091401545263e-06,1.524747942261734e-06,1.9496217548299473e-06,2.280264923863651e-06,1.1387098778341821e-06,2.361882957149789e-06,1.0565358413669743e-06,8.989230968340328e-07
4.117823483138394e-06,1.5504816700567265e-06,1.1752033793109272e-06,9.367249413342698e-07,1.570200565176333e-06,1.912233695100277e-06,1.2085766151459261e-06,1.5524605021052655e-06,1.6734480968863447e-06,1.765540258379186e-06,2.1278008878385513e-06,1.5621834529265352e-06,1.9629593529167307e-06,2.3262293007534653e-06,1.1976726676918688e-06,2.456745067026396e-06,1.1353236998262345e-06,9.112732300792136e-07
3.619983386630015e-06,1.7611034859851086e-06,1.2743205678747394e-06,1.058050899785772e-06,1.6620607355082504e-06,1.8813223312201302e-06,1.319427067993303e-06,1.5952170329886784e-06,1.6452854270584325e-06,1.791293550196419e-06,2.169380716060911e-06,1.5963231479334084e-06,1.974896536816597e-06,2.3711616968298774e-06,1.2667527712180332e-06,2.554551641787929e-06,1.2273038429991307e-06,9.245257731823675e-07
3.5001612654462957e-06,1.4089385066421667e-06,1.382358465377698e-06,1.1876148924556102e-06,1.7718258926475669e-06,1.8550469328746733e-06,1.4401772375842538e-06,1.6357614303374602e-06,1.6059818233281755e-06,1.8164971494381697e-06,2.2091082271826805e-06,1.6285283455857216e-06,1.9878475285848926e-06,2.415307054229279e-06,1.3413709517599988e-06,2.6523951104771477e-06,1.3255486776325072e-06,9.3922500851536e-07
3.59111074948935e-06,4.6670845653480987e-07,1.4940089745732911e-06,1.3153820623964896e-06,1.8886229411100604e-06,1.8383925459510007e-06,1.5659789878224182e-06,1.6740814041432444e-06,1.5620230052469454e-06,1.8466977809208837e-06,2.2489062847192785e-06,1.6607935410412251e-06,2.004796848939384e-06,2.4591216576841553e-06,1.4157000459650883e-06,2.7471429431229205e-06,1.4218177621358062e-06,9.55344549599891e-07
3.732227911558875e-06,-8.852281764949196e-07,1.6059950878627554e-06,1.4325824951739253e-06,2.003937087035598e-06,1.835637296357381e-06,1.6921434843307054e-06,1.712989167730636e-06,1.5225787049772798e-06,1.887176524725614e-06,2.2916959092471963e-06,1.6954327760226056e-06,2.0285116381666497e-06,2.503794286691463e-06,1.486824725108896e-06,2.8371672752141453e-06,1.5122937170270626e-06,9.726265754353925e-07
3.54520421216952e-06,-2.2820717749867663e-06,1.7139812243970642e-06,1.5344748477774854e-06,2.111712000254928e-06,1.8514222550106685e-06,1.816517583352441e-06,1.7564377811686715e-06,1.497071818597894e-06,1.9411009970503413e-06,2.3403916065681557e-06,1.734823259873503e-06,2.0610423663951265e-06,2.550871190610271e-06,1.552208807017885e-06,2.9232004909657075e-06,1.5933409951603287e-06,9.90968333263551e-07
2.7107759441952406e-06,-3.3152532931620397e-06,1.8166716842380714e-06,1.62080788784581e-06,2.2043699195006323e-06,1.883574852430504e-06,1.938275577866328e-06,1.807310151578788e-06,1.4914741706945993e-06,2.008051651943808e-06,2.3963642540429304e-06,1.7804837351308108e-06,2.102964512959293e-06,2.601378827704543e-06,1.6133382373176062e-06,3.0070912970412527e-06,1.6663040505855618e-06,1.010488161135543e-06
1.22717744088384e-06,-3.712767461275963e-06,1.914700685254784e-06,1.6945665347971776e-06,2.2815622146292094e-06,1.929281868328051e-06,2.0563479874798812e-06,1.8659947211672158e-06,1.5068029711500006e-06,2.0840854377793733e-06,2.4586427752741887e-06,1.8321751242665e-06,2.1532521267042558e-06,2.655262340610623e-06,1.6724554570204789e-06,3.0906619797836056e-06,1.7340782713120619e-06,1.0315133590014601e-06
-5.736823856455552e-07,-3.44068436141701e-06,2.004884684472332e-06,1.760524723735635e-06,2.3482682587687356e-06,1.9847027724171194e-06,2.1697350116204163e-06,1.9295067698718085e-06,1.5397568227411203e-06,2.1635936170691958e-06,2.524431169225535e-06,1.8881678734879844e-06,2.2096059039374977e-06,2.7117454565449746e-06,1.7313246162872272e-06,3.175150812466707e-06,1.7994760452380172e-06,1.0543397825192408e-06
-2.3200273103433046e-06,-2.670239280488332e-06,2.091633990956884e-06,1.823351086976559e-06,2.3896676907352658e-06,2.0437224943238564e-06,2.261731163762091e-06,1.993463232319325e-06,1.5844031298216584e-06,2.2408094406795213e-06,2.5901910877477587e-06,1.945394913252112e-06,2.26860369095078e-06,2.7688021499418377e-06,1.7904977777593775e-06,3.260104856612602e-06,1.8641510894861186e-06,1.0785414676362428e-06
-3.6593765417864354e-06,-1.6342052085760131e-06,2.178398365843125e-06,1.8854443305283616e-06,2.4092623031004396e-06,2.1006026843986093e-06,2.335065406734029e-06,2.0528889652816164e-06,1.633414999348458e-06,2.3104640925183053e-06,2.6521696006297165e-06,1.999667970081216e-06,2.32610775607768e-06,2.8230062405286465e-06,1.8487389527786994e-06,3.3427389046422457e-06,1.9273596707353627e-06,1.1027308549226253e-06
-4.352131137276443e-06,-5.081261781151416e-07,2.265172217342565e-06,1.9462181894259325e-06,2.4139776182011593e-06,2.151484865027258e-06,2.406284892654684e-06,2.1031163526505597e-06,1.6802742661856631e-06,2.369142560041158e-06,2.707223981825381e-06,2.047048303190748e-06,2.3785136885473928e-06,2.8708509720467574e-06,1.904495080768543e-06,3.4189610167737937e-06,1.9867030487902555e-06,1.1253676571415675e-06
-4.3550014456608025e-06,6.282125215880117e-07,2.3541590920367973e-06,2.0030481659587454e-06,2.4031020191302404e-06,2.1931369636830327e-06,2.467042125296098e-06,2.1416572850381725e-06,1.7206772877462023e-06,2.4152178748570495e-06,2.753354227601587e-06,2.0844907215566123e-06,2.423562735930619e-06,2.909476730021497e-06,1.9564313268573993e-06,3.4840185945424263e-06,2.0388557261491347e-06,1.1455477587122367e-06
-3.7234504787426172e-06,1.7421490950257006e-06,2.4396151275274777e-06,2.0520745996049426e-06,2.395179691546317e-06,2.224719791041336e-06,2.514108292821241e-06,2.1677445347160287e-06,1.7529599802110513e-06,2.4476185881817108e-06,2.7890627600487227e-06,2.1094369260562256e-06,2.4599096829827167e-06,2.9356989322397608e-06,2.0019517475829683e-06,3.5316556477599717e-06,2.0793981156772426e-06,1.1630070237910963e-06
-2.576261391655014e-06,2.7504161536147282e-06,2.512625429737138e-06,2.0889087502877297e-06,2.382037676399233e-06,2.2481203744458973e-06,2.5434992831570153e-06,2.181433992430677e-06,1.7777229329650866e-06,2.464841587994917e-06,2.8127608652705248e-06,2.1188750122119426e-06,2.486587987351609e-06,2.945482963289837e-06,2.036932401314911e-06,3.55427887706426e-06,2.1033169320493844e-06,1.1780315725162958e-06
-1.0528934952482233e-06,3.4757425644697537e-06,2.564599786439131e-06,2.109606174595752e-06,2.353852053944619e-06,2.2651282357546472e-06,2.5470505267146e-06,2.1839629731773005e-06,1.7993342899907912e-06,2.4663147858383684e-06,2.82341054728482e-06,2.110410957679741e-06,2.5031809799213776e-06,2.935525142035162e-06,2.057425056767334e-06,3.5459138378918324e-06,2.106410551258514e-06,1.1915602337315061e-06
7.062680961232554e-07,3.7053225403368836e-06,2.544802141549626e-06,2.111576690649583e-06,2.328871043388055e-06,2.278562690000311e-06,2.525205884326452e-06,2.17778011762836e-06,1.8217168883084275e-06,2.4531381979967628e-06,2.8212045321564014e-06,2.0834475925828197e-06,2.5100252045985334e-06,2.904817241795571e-06,2.060835362004529e-06,3.504319413984763e-06,2.0859737377094485e-06,1.2047875520828458e-06
2.5428470064654193e-06,3.2983239486885547e-06,2.4913072965892105e-06,2.093299265263546e-06,2.3309776959133593e-06,2.291524244354502e-06,2.5121636119832914e-06,2.165508996489517e-06,1.8472010345329021e-06,2.4283891903062993e-06,2.8075666334139035e-06,2.0395682194340374e-06,2.5082291818152707e-06,2.854618618305131e-06,2.046308659987761e-06,3.431747835713725e-06,2.0414576735882343e-06,1.2185782817098686e-06
4.262319855823015e-06,2.2531763513145518e-06,2.4676492412503094e-06,2.0543601345470344e-06,2.325555415833194e-06,2.307052186501985e-06,2.5011550846420904e-06,2.149902398834862e-06,1.8799825616296258e-06,2.3978898650929525e-06,2.785494246996673e-06,1.9835962466008387e-06,2.5003382069559033e-06,2.7896990844763385e-06,2.015965250960339e-06,3.3360632206800905e-06,1.97601716720938e-06,1.2336329378350888e-06
5.63795671100711e-06,6.693790589880649e-07,2.4255025992284326e-06,1.9969573997518873e-06,2.3134004865334406e-06,2.3286481747834916e-06,2.4587615927648387e-06,2.1350677715227754e-06,1.9235281587520557e-06,2.369876004284086e-06,2.7599198922928085e-06,1.9237218751430483e-06,2.4909236951019686e-06,2.7188870426213407e-06,1.97521373517084e-06,3.230656325770338e-06,1.896847935591316e-06,1.250802336814413e-06
6.431883298492746e-06,-1.138214181501409e-06,2.3271208616367345e-06,1.926142485044413e-06,2.30098487209321e-06,2.3599298897798475e-06,2.405271822114435e-06,2.1257379215993195e-06,1.981466276390425e-06,2.3523535059562196e-06,2.7363055979131484e-06,1.868760302747218e-06,2.4849747258943063e-06,2.652337525747832e-06,1.9297513152872266e-06,3.1304188597951454e-06,1.8124741413097848e-06,1.2703893434010114e-06
6.464515409732798e-06,-2.8816744217715667e-06,2.2073128275085705e-06,1.8475576360163373e-06,2.2526711694679886e-06,2.4015083976581332e-06,2.3489235149727433e-06,2.1239641107997625e-06,2.0516385643603715e-06,2.3487986793512004e-06,2.717499090337086e-06,1.8244669885206334e-06,2.485452849237727e-06,2.5974764449342907e-06,1.8820647563250669e-06,3.0464278206642715e-06,1.7291121862140804e-06,1.2911301383863007e-06
5.712609582793296e-06,-4.159716182939214e-06,2.12594185827243e-06,1.7652947538199925e-06,2.1926023712213418e-06,2.448801855437462e-06,2.2950661049719493e-06,2.1272606452289384e-06,2.1264862839991772e-06,2.3560838347433415e-06,2.7023044153884798e-06,1.7914290332433226e-06,2.4921036992316476e-06,2.557407920188442e-06,1.8311749479063723e-06,2.983520321899863e-06,1.649382888833151e-06,1.3101989725108537e-06
4.348415175154829e-06,-3.875423075386822e-06,2.079321838688163e-06,1.681960968361653e-06,2.1340451554047316e-06,2.493703651454627e-06,2.2563912926183115e-06,2.130108766993275e-06,2.1774819894141404e-06,2.365776283883583e-06,2.686480332500776e-06,1.765768010425193e-06,2.5018164658424423e-06,2.531337452983134e-06,1.7743857256504062e-06,2.940635745042204e-06,1.5728320717220807e-06,1.3240527459548524e-06
2.693321656238461e-06,-3.3889934632029633e-06,2.058562008211426e-06,1.5994079682593985e-06,2.0702322365757297e-06,2.5264933229437137e-06,2.229831545545204e-06,2.1266016426559338e-06,2.1706700573343395e-06,2.3672828496524086e-06,2.664703751443779e-06,1.7409145311087976e-06,2.5096032271982638e-06,2.516184697339947e-06,1.7084952829143946e-06,2.9120371000313145e-06,1.496898192025965e-06,1.3292075502876583e-06
1.0832770089718506e-06,-2.299914184210692e-06,2.0579962939065358e-06,1.5191464674791412e-06,1.9875405194557327e-06,2.5388220040008216e-06,2.1869859807113564e-06,2.1127040913611086e-06,2.137180853461439e-06,2.3515846624789685e-06,2.632669520061988e-06,1.71000882693638e-06,2.5099453637015646e-06,2.506195620108252e-06,1.6312670582934174e-06,2.8892455248740992e-06,1.4187941623909045e-06,1.323050192258618e-06
-2.2020125284427238e-07,-6.197555061609853e-07,2.0639659200002597e-06,1.4429968174377574e-06,1.899673359349181e-06,2.5260430464988733e-06,2.1332593377318388e-06,2.0880374376056137e-06,2.0880365609519395e-06,2.3139147937321827e-06,2.5889205281121262e-06,1.6686215689751508e-06,2.498679848949108e-06,2.4963863072391546e-06,1.54337955908834e-06,2.864781584810316e-06,1.338019230231794e-06,1.3047133823158487e-06
-1.0287476008402112e-06,1.674943186551633e-06,2.061695974687706e-06,1.3732371337549687e-06,1.8125630163733165e-06,2.4879464251562603e-06,2.0962487548564265e-06,2.0558547758097678e-06,2.0726992583557332e-06,2.2551663999964494e-06,2.535266965327306e-06,1.6160968125731185e-06,2.4741547173755637e-06,2.4840840560647043e-06,1.4486878027291766e-06,2.834315833773262e-06,1.257339530946383e-06,1.275195359009986e-06
-1.2519825506882914e-06,3.358461680066412e-06,2.039111064900889e-06,1.3115733184736242e-06,1.7276626263385404e-06,2.4285998381535543e-06,2.06355965644022e-06,2.020543187000073e-06,2.03773657139365e-06,2.180187401894257e-06,2.4754561137128297e-06,1.5546740693031365e-06,2.437197855843848e-06,2.4677720716490673e-06,1.352876092559008e-06,2.7957873858026673e-06,1.1819675795001845e-06,1.2367352961678865e-06
-8.717168692491642e-07,4.259713750116279e-06,1.989563760785748e-06,1.2583629517999566e-06,1.6759758838310077e-06,2.3541890852709357e-06,2.0297948024547746e-06,1.985508204934351e-06,1.9502284061934474e-06,2.0956889508101464e-06,2.4135972443040313e-06,1.4878581086737764e-06,2.3906219776951066e-06,2.447418221471764e-06,1.2625734127890346e-06,2.749118995896249e-06,1.1184288778377908e-06,1.1923570483782142e-06
-1.25161965662397e-07,4.640157269696904e-06,1.912912789985357e-06,1.213230899305744e-06,1.6458487140836664e-06,2.272176425049428e-06,1.9900668809159873e-06,1.9532201259416565e-06,1.8443185851509197e-06,2.009177347721928e-06,2.3534830044954793e-06,1.4198165642301866e-06,2.3386386670701035e-06,2.424581504487176e-06,1.1844470475629221e-06,2.696259183686902e-06,1.0730175301642325e-06,1.1456201091742746e-06
8.567369569112395e-07,4.598320098763578e-06,1.8186482357831726e-06,1.1761506822206355e-06,1.6258598779483254e-06,2.190767886033726e-06,1.935078870344801e-06,1.9259927061566734e-06,1.735648955107587e-06,1.9276809489519804e-06,2.299146472367153e-06,1.3545878189104969e-06,2.2858000543426983e-06,2.402070833781154e-06,1.123269226554584e-06,2.640415821846213e-06,1.0497763820144343e-06,1.0999938622101582e-06
1.877473625829919e-06,4.26649874526504e-06,1.718263741484094e-06,1.1478786207145765e-06,1.5987487705438487e-06,2.117799651435773e-06,1.8701469245489833e-06,1.9063047143894063e-06,1.629183667655962e-06,1.8569338276734907e-06,2.252670507736638e-06,1.2955374792074274e-06,2.2359241585981745e-06,2.383091713062388e-06,1.0806545106980702e-06,2.5850308343028313e-06,1.0494695610462597e-06,1.0581213936406808e-06
2.677328620318124e-06,3.7140084983551453e-06,1.622804867731994e-06,1.1299077241621734e-06,1.5687844474892044e-06,2.0594415984494607e-06,1.8100111238359477e-06,1.8966646738510748e-06,1.553651992479315e-06,1.8007094589928005e-06,2.2153810835839853e-06,1.2452818700657995e-06,2.1916604525748197e-06,2.3709300961763823e-06,1.0553276399742555e-06,2.5331451302555964e-06,1.0698006195351e-06,1.0213918906702446e-06
3.203962596311548e-06,2.9642920456210606e-06,1.543851854524958e-06,1.1233373738934968e-06,1.5566892163024457e-06,2.019663054806934e-06,1.7593558782025712e-06,1.8985168074695269e-06,1.5036266246306445e-06,1.7603328815490722e-06,2.1877767866263147e-06,1.2053386421683073e-06,2.1541573270395e-06,2.3675897733370573e-06,1.0436850842319548e-06,2.4862832095413174e-06,1.1056829985884615e-06,9.89691659619538e-07
3.5402565342414775e-06,2.043842200172149e-06,1.48713460798787e-06,1.1267104709476664e-06,1.5559546044317315e-06,1.9986555800466176e-06,1.7139180147039915e-06,1.910579655350524e-06,1.4765753680434883e-06,1.7343731701605705e-06,2.1683113801162848e-06,1.1756171380929944e-06,2.1231806584719026e-06,2.3728398156049353e-06,1.0407777606091023e-06,2.44368554354268e-06,1.1499422896394834e-06,9.616356547258778e-07
3.844899032228145e-06,1.0267456336421457e-06,1.4527850842997988e-06,1.1352013349213117e-06,1.5637253725690917e-06,1.992654221357298e-06,1.675195802690883e-06,1.9289110177025744e-06,1.4675845227610448e-06,1.7196802402631381e-06,2.1543099897838362e-06,1.1550646415174515e-06,2.0978597050958406e-06,2.3853583754591007e-06,1.0424319528635262e-06,2.403823056597561e-06,1.1951941232712004e-06,9.356525936024476e-07
4.288686785071318e-06,5.733910454936544e-08,1.4372824550431834e-06,1.142422823962297e-06,1.5678852239295635e-06,1.9961668537508697e-06,1.6398388074023271e-06,1.9489648535519595e-06,1.4622567404935925e-06,1.7131703493820069e-06,2.1429553667233413e-06,1.1425618989168373e-06,2.077573362321813e-06,2.4043335240777767e-06,1.0464890715718564e-06,2.3661357699852032e-06,1.2355379042564042e-06,9.110571658404293e-07
4.955732695766905e-06,-6.564256202981371e-07,1.4348400677938206e-06,1.1431654762843623e-06,1.5634457270437462e-06,2.0038550394355596e-06,1.6048043418533813e-06,1.967474229317741e-06,1.456694084591433e-06,1.712741510946421e-06,2.132040845708692e-06,1.1368760881788154e-06,2.062097098787403e-06,2.4297412235386917e-06,1.0518597963022928e-06,2.3311041586042696e-06,1.2670773959348067e-06,8.881257302692965e-07
5.838338329580278e-06,-8.853023966929397e-07,1.4393775307722789e-06,1.1356046681099008e-06,1.5525374705096944e-06,2.010912900152773e-06,1.5714661376764812e-06,1.983500565378159e-06,1.4475963172388984e-06,1.7175819811796367e-06,2.1202958741386634e-06,1.1367707071152609e-06,2.0513871434438677e-06,2.4622151920126466e-06,1.0576947486740748e-06,2.2999521186790013e-06,1.2885369423742763e-06,8.676455607711437e-07
6.80499392591012e-06,-4.762009192269165e-07,1.4477749114433157e-06,1.1228573410302059e-06,1.5488882904624825e-06,2.0155895024604467e-06,1.5423276861711564e-06,1.9991565698293212e-06,1.4309934972323953e-06,1.728283576054746e-06,2.108385465075775e-06,1.1415525315106642e-06,2.045835114986379e-06,2.503081819723752e-06,1.0638100517821591e-06,2.2750164750869945e-06,1.3019691643630666e-06,8.505751319515109e-07
7.616002111563565e-06,5.122825303206823e-07,1.460177615978817e-06,1.1155780277713357e-06,1.5570570343905056e-06,2.01777713650272e-06,1.523359888669319e-06,2.0187932786430378e-06,1.40472256977057e-06,1.745798750772012e-06,2.0981912083091644e-06,1.1511513071400194e-06,2.0461452825791286e-06,2.5541838237432853e-06,1.070646816443274e-06,2.25905932477048e-06,1.3118967189742777e-06,8.376516866997755e-07
8.019008342509398e-06,1.7509858589738552e-06,1.4779745606186154e-06,1.1207741146957773e-06,1.5724852338868014e-06,2.0169686639513623e-06,1.5193004805041676e-06,2.046270865148955e-06,1.3670571618238788e-06,1.7698443669315683e-06,2.091521243718033e-06,1.1653244405754363e-06,2.0526236968685586e-06,2.615865080034555e-06,1.0788561855649641e-06,2.2532578237318992e-06,1.3234287631440449e-06,8.291205127986414e-07
7.858916490684195e-06,2.757952287609712e-06,1.5062802101412778e-06,1.1479867030797282e-06,1.6256841144769805e-06,2.011665803235265e-06,1.5355889021936224e-06,2.083052495528977e-06,1.3167474344278937e-06,1.7982258615395588e-06,2.0897485974635613e-06,1.1835364210800985e-06,2.0649920673587835e-06,2.686598148084054e-06,1.0900321608714816e-06,2.2567090363557226e-06,1.341158140316751e-06,8.250455595181058e-07
7.130499121213208e-06,3.1262617080996865e-06,1.5469632581715302e-06,1.2046857200555244e-06,1.704970297183907e-06,2.0007917174227595e-06,1.57165589928941e-06,2.128438770215091e-06,1.2549926871593683e-06,1.828028802391295e-06,2.0940834141937683e-06,1.2053406571319255e-06,2.0825884196622068e-06,2.7640292624221944e-06,1.1069609966150521e-06,2.2673667462104296e-06,1.3680878044487018e-06,8.255515484771597e-07
5.955104755640168e-06,2.6967464660085175e-06,1.5982639948462889e-06,1.293662419994088e-06,1.825815556772195e-06,1.9847019629507284e-06,1.6220646842733808e-06,2.1795208469665595e-06,1.185938023880251e-06,1.8564964664576689e-06,2.1055147923115416e-06,1.2297799359208534e-06,2.103820049280806e-06,2.8445211577479496e-06,1.131470313262978e-06,2.281984863632417e-06,1.4037015684244173e-06,8.301432123125495e-07
4.530143782430815e-06,1.5848671171551012e-06,1.6659113915255953e-06,1.4080641935899014e-06,1.932479505691791e-06,1.9649899168945922e-06,1.6776257983993305e-06,2.230437685093431e-06,1.1159528704143943e-06,1.8810819891289359e-06,2.123924937653498e-06,1.2548190665558122e-06,2.125477041435902e-06,2.9226658411327056e-06,1.16260941694838e-06,2.295970233512899e-06,1.4434888424340857e-06,8.369372053923871e-07
3.091116844297493e-06,9.006899509970781e-08,1.7267063821717577e-06,1.5299969690024234e-06,2.045521668026064e-06,1.9447338647057625e-06,1.7252062451961209e-06,2.2735078409615615e-06,1.0523129616872018e-06,1.899752697467427e-06,2.1477131012021137e-06,1.2779012164051361e-06,2.143387164941445e-06,2.9925506468028634e-06,1.1975747402487283e-06,2.305205037779327e-06,1.4812774273423617e-06,8.430741031817296e-07
1.8620603066854738e-06,-1.4368925436261648e-06,1.7774787655496963e-06,1.644855511545616e-06,2.100720299251769e-06,1.927743576766916e-06,1.7539975712583733e-06,2.302336624843368e-06,1.001601114496555e-06,1.9116889540590376e-06,2.1749130127408844e-06,1.296808309989878e-06,2.1537626718890664e-06,3.048405407825985e-06,1.2327112778740196e-06,2.306863483888611e-06,1.5115734466379976e-06,8.457758277311484e-07
9.727761041556562e-07,-2.708667935688551e-06,1.8294295648475303e-06,1.6922327126259266e-06,2.1109254256461623e-06,1.9171628177690925e-06,1.7577086478046195e-06,2.313176526397766e-06,9.674087624729219e-07,1.916795029188746e-06,2.2027650276180433e-06,1.3092677426600961e-06,2.1537135961529225e-06,3.086452434567551e-06,1.2625287957865554e-06,2.297469785645944e-06,1.5298581619738648e-06,8.427746574287603e-07
4.067805679666329e-07,-3.5654671736018493e-06,1.8672761354743302e-06,1.6819082019143284e-06,2.1046623707740683e-06,1.9127425908582037e-06,1.7342227344674855e-06,2.304210392351863e-06,9.482494621157017e-07,1.9144761826084185e-06,2.2272522737126468e-06,1.3123016206926943e-06,2.1414199146929445e-06,3.1032901243493907e-06,1.2797861658670156e-06,2.2717380099769406e-06,1.5330804281178976e-06,8.322754198478578e-07
5.6452463615038505e-08,-3.988633116471624e-06,1.8594508554965102e-06,1.7038531151607653e-06,2.1008830489339627e-06,1.9110679368483187e-06,1.6813552732010509e-06,2.2758112011808625e-06,9.382376004148672e-07,1.9036314247703137e-06,2.244015985614518e-06,1.3029987002106999e-06,2.116938300327932e-06,3.0970323891713614e-06,1.278589766129088e-06,2.2246942994268583e-06,1.521502022781372e-06,8.131756409604978e-07
-1.6582800052334788e-07,-4.0966004363334245e-06,1.8043799235987944e-06,1.7459189319849297e-06,2.114638854556177e-06,1.908344515892224e-06,1.6046747917976655e-06,2.231542770405243e-06,9.302158070109217e-07,1.8831272895086014e-06,2.2485702886563025e-06,1.2792825811974938e-06,2.0829018728223047e-06,3.0690278385886017e-06,1.2567961432372316e-06,2.154006181035568e-06,1.4989685661530966e-06,7.852245414710986e-07
-2.8899658147240287e-07,-4.132068371933297e-06,1.7266101012306143e-06,1.7330480750978198e-06,2.068827029354469e-06,1.9022832985425798e-06,1.510934011765241e-06,2.17711542883982e-06,9.174196353111533e-07,1.8516107203178899e-06,2.238491946607387e-06,1.2400276941816603e-06,2.043348743129871e-06,3.0226653573946236e-06,1.215345558810828e-06,2.0590261921214834e-06,1.4704026195158475e-06,7.489511874681733e-07
-3.314237824854816e-07,-4.385685782826564e-06,1.6118163390821654e-06,1.667732306426855e-06,2.010928315547406e-06,1.8925715921466608e-06,1.4038354343444038e-06,2.11764107816866e-06,8.970115870936381e-07,1.807699962427232e-06,2.2124508976304556e-06,1.184851426672666e-06,2.0017447311214277e-06,2.959682658307743e-06,1.1577707563720081e-06,1.9397223272162907e-06,1.4397520456386596e-06,7.061357981561414e-07
-3.265686562192998e-07,-5.03508099043849e-06,1.5445549710006112e-06,1.5968208850444277e-06,2.0055661283578637e-06,1.8814331399263266e-06,1.2894800236290625e-06,2.0565971277430577e-06,8.70550920504968e-07,1.7516959200076253e-06,2.1711149099363975e-06,1.1154147773277768e-06,1.9601955427020383e-06,2.8820828264755163e-06,1.091451734336398e-06,1.7982848217113856e-06,1.4100929640790588e-06,6.606029477939657e-07
-2.805266282666406e-07,-5.9992523128706035e-06,1.5109415206752048e-06,1.531833571705566e-06,1.9432050940567067e-06,1.8735382417710971e-06,1.1684132264233738e-06,1.996606473501692e-06,8.449219205593484e-07,1.6869265415287522e-06,2.1184289185317224e-06,1.0363548031772097e-06,1.9196249258748414e-06,2.7933999337374606e-06,1.0267037007559565e-06,1.6406382357092265e-06,1.3839317824101142e-06,6.175664217471999e-07
-1.376381914986914e-07,-6.935786494978114e-06,1.4136453784630676e-06,1.4241647284209286e-06,1.8712834496556122e-06,1.874521402704671e-06,1.039034036834627e-06,1.939545975633574e-06,8.289010134414217e-07,1.6187775890299439e-06,2.0598980424262776e-06,9.537808541444224e-07,1.8800323398452951e-06,2.697386596108487e-06,9.722507778827e-07,1.4751379555498282e-06,1.3619411804451653e-06,5.812734115195502e-07
1.8648426446525606e-07,-7.402359605078978e-06,1.2898184545122258e-06,1.321466750274539e-06,1.8034519613391866e-06,1.8878582284449856e-06,9.211129231374636e-07,1.886102613918641e-06,8.277929436674562e-07,1.5522962059319379e-06,2.0006435493750025e-06,8.731665523757404e-07,1.8411055596250974e-06,2.5983507236615065e-06,9.318244310477503e-07,1.310525993261347e-06,1.3423717427149774e-06,5.53223851645964e-07
7.258968427249629e-07,-7.087638925119786e-06,1.1234986402527132e-06,1.2258920513633295e-06,1.7228647003649983e-06,1.9127469064488525e-06,8.207238035422775e-07,1.8365878102252836e-06,8.424952360272718e-07,1.4912144797460462e-06,1.944241625604053e-06,7.985130874118224e-07,1.8033534314488113e-06,2.5019448238184017e-06,9.048343736281063e-07,1.1558045161647946e-06,1.3223488874273347e-06,5.324348913487926e-07
1.385959620724344e-06,-5.973560004572879e-06,9.472770153623693e-07,1.1430492063377356e-06,1.6711516543504298e-06,1.9441746540624925e-06,7.375272847585953e-07,1.7923390619142237e-06,8.66358451767028e-07,1.4370369720669159e-06,1.892724671810281e-06,7.323804821121076e-07,1.7684554164151753e-06,2.4154196436646896e-06,8.885709359694815e-07,1.0202078799993084e-06,1.2993049461679615e-06,5.167425575140242e-07
1.932683546625177e-06,-4.340220500589262e-06,8.376674135597948e-07,1.0904208109936699e-06,1.6260909456790537e-06,1.9738730505503534e-06,7.067612749006497e-07,1.7559330684524247e-06,8.971196439758571e-07,1.388735830203875e-06,1.8463319809094641e-06,6.75812042699778e-07,1.7384009795045345e-06,2.3459908724851318e-06,8.801112323857325e-07,9.117010073872851e-07,1.2720744395018236e-06,5.03931722287182e-07
2.108576338516641e-06,-2.629679239209718e-06,8.000645320980026e-07,1.0665323565957644e-06,1.6036056929796602e-06,1.994745840486954e-06,7.431550780743393e-07,1.730913178323057e-06,9.358819798169043e-07,1.34414933398707e-06,1.8048821995803795e-06,6.290524579156302e-07,1.7148032609019095e-06,2.300115509840171e-06,8.785970156186598e-07,8.362053707189219e-07,1.2424599295039782e-06,4.925757558699532e-07
1.8188482795800509e-06,-1.258721089170863e-06,7.403685198005107e-07,1.1259858085374865e-06,1.6127595925189216e-06,2.0069834940575e-06,7.260414525190957e-07,1.721669062127611e-06,9.565574741173748e-07,1.3019564046859021e-06,1.7690834198158094e-06,5.925832632769893e-07,1.6989600551888426e-06,2.2826346561019378e-06,8.863639434391263e-07,7.97649212931746e-07,1.216101391328615e-06,4.822242624736707e-07
1.245666741460732e-06,-4.7058479107006814e-07,6.570973291191562e-07,1.1439299232132005e-06,1.6466212413878516e-06,1.9960981700812734e-06,7.003315335610183e-07,1.7316682332658808e-06,9.402780542285038e-07,1.2624149676539801e-06,1.7408200395240077e-06,5.668794825656649e-07,1.6915364741971334e-06,2.2945542342815747e-06,9.067741791836998e-07,7.965961640595164e-07,1.2006637160736687e-06,4.725091299990654e-07
8.043739571501713e-07,-2.7196762300876025e-07,5.776109142104506e-07,1.14521864353958e-06,1.6742637456612412e-06,1.9828591559087574e-06,6.66919646984952e-07,1.760354983846133e-06,8.676537902074747e-07,1.2262961551733639e-06,1.7213339274055544e-06,5.514686433045355e-07,1.6917364510241837e-06,2.3331535676022508e-06,9.41155982492173e-07,8.285127861108355e-07,1.2029310845770095e-06,4.621836143552517e-07
9.390259850283438e-07,-4.639980967553593e-07,5.932875747664836e-07,1.1521106816816712e-06,1.6776270640430267e-06,1.961897780253723e-06,6.512104279687122e-07,1.802357607953237e-06,7.856321055165702e-07,1.1940832846590764e-06,1.710168756183015e-06,5.451579313680657e-07,1.6972856312660468e-06,2.391718133921777e-06,9.885440892909917e-07,8.846819700927327e-07,1.2272696155919669e-06,4.4941434780353965e-07
1.7886254382117115e-06,-7.58635432002284e-07,6.269033644424228e-07,1.1844059476563657e-06,1.6822504211805984e-06,1.939508133270974e-06,7.269040135509849e-07,1.8499917248957783e-06,7.112892821417494e-07,1.1660057753648002e-06,1.7058349017717778e-06,5.469174799026786e-07,1.7051813849112364e-06,2.4618152437046283e-06,1.0466771127549872e-06,9.54765452350882e-07,1.274858166182627e-06,4.3284223246887816e-07
3.1380419623816513e-06,-9.284072869380496e-07,6.657396248110839e-07,1.2737866001674784e-06,1.6882717486494216e-06,1.919424181615536e-06,8.2359936351081e-07,1.895971810744603e-06,6.590291589605706e-07,1.1420907240333285e-06,1.7064016699815114e-06,5.556723929172285e-07,1.7122170001715603e-06,2.535230505913707e-06,1.1115318511473034e-06,1.0280406264049353e-06,1.3426033446436302e-06,4.1219794509602655e-07
4.489839763339047e-06,-8.958224702837113e-07,7.097671645210809e-07,1.3772577751012837e-06,1.7713703191089703e-06,1.9043288035818033e-06,9.076323076714537e-07,1.934515032514588e-06,6.330637130335718e-07,1.1220501635476417e-06,1.709204378238485e-06,5.696293130725307e-07,1.7152597568331685e-06,2.6039319921428925e-06,1.1770036639873598e-06,1.094142501632689e-06,1.4230126333856903e-06,3.884471513987967e-07
5.312023689990493e-06,-7.2310419669128e-07,7.192550480881154e-07,1.48146501968991e-06,1.900183250749357e-06,1.8955172638709048e-06,1.0122284382036723e-06,1.961843225220947e-06,6.3362038601658e-07,1.1057606520609962e-06,1.7116806482854609e-06,5.865659097503906e-07,1.711828610240969e-06,2.6621659653876258e-06,1.2365396838336708e-06,1.1448065116118767e-06,1.5059020806311867e-06,3.6382860935326423e-07
5.300823579454084e-06,-5.444622401936712e-07,7.343203597201726e-07,1.601971169380757e-06,2.0334133820807925e-06,1.8938125267198701e-06,1.0708557827716062e-06,1.9763006204075374e-06,6.607526308325071e-07,1.093859077424792e-06,1.7121366651598203e-06,6.047429739933174e-07,1.7006948533579908e-06,2.7072436995609276e-06,1.2853321662818216e-06,1.175583241516445e-06,1.5807859495000623e-06,3.4161451228254876e-07
4.310850904000537e-06,-4.801145030087956e-07,7.606582281514137e-07,1.6728090522895194e-06,2.149118533585678e-06,1.898540930538305e-06,1.096996878546078e-06,1.9779723086477823e-06,7.019555774735483e-07,1.0876666430609235e-06,1.7097457271989239e-06,6.235869656594815e-07,1.6822135257582849e-06,2.7399617762796245e-06,1.32208704348096e-06,1.1867661626659348e-06,1.639249272581563e-06,3.2563598369830586e-07
2.3115333475759538e-06,-5.572148311762498e-07,7.91286717421906e-07,1.6874165228525803e-06,2.1740533020813637e-06,1.9088735977976076e-06,1.1094138603197348e-06,1.9688909258426884e-06,7.536447231555052e-07,1.0888235360135293e-06,1.7049104180392247e-06,6.441993809255501e-07,1.658564663189898e-06,2.764172784652899e-06,1.3502253400446137e-06,1.1838251365520145e-06,1.6772470016422292e-06,3.1979731250019305e-07
-4.845789175533502e-07,-6.865408364215485e-07,8.454724825525194e-07,1.6650878189213059e-06,2.1583460218785728e-06,1.9251260901447757e-06,1.1308074984270354e-06,1.9536473484125347e-06,8.150271663431397e-07,1.0985240450464846e-06,1.6989971778147008e-06,6.690429992194824e-07,1.6333688409587637e-06,2.785694217032941e-06,1.3765987337811666e-06,1.1761187863317451e-06,1.6957006235510667e-06,3.271649140919433e-07
-3.2274080983006007e-06,-7.136575507756475e-07,9.149976216417981e-07,1.6407875888687364e-06,2.160707179634597e-06,1.9483920571290295e-06,1.1488770978467729e-06,1.938721833090787e-06,8.812977730514143e-07,1.1161344608757066e-06,1.693254356612249e-06,7.001937738459626e-07,1.6103858598892382e-06,2.8097702176873613e-06,1.4075767850613574e-06,1.1731828949383722e-06,1.6988289525421188e-06,3.48618860390894e-07
-5.409380058619814e-06,-4.963531160085799e-07,9.938474994388039e-07,1.6150395639649457e-06,2.1755874722237e-06,1.9805012203825316e-06,1.1677378077030635e-06,1.930733276095367e-06,9.496326500741433e-07,1.1388986694495847e-06,1.6879751821360637e-06,7.373090122798365e-07,1.592474005069593e-06,2.8392502846878125e-06,1.4462268035605784e-06,1.1815129144370022e-06,1.692342649198148e-06,3.821792991042531e-07
-5.9341747535386605e-06,3.277956712226817e-08,1.0791336751823576e-06,1.5875643680447496e-06,2.193453309172042e-06,2.0225645917072152e-06,1.1974139267161419e-06,1.93505078259449e-06,1.014971343963151e-06,1.1631694158752852e-06,1.6827868460399433e-06,7.789168826139781e-07,1.5815961024122616e-06,2.8753381312291704e-06,1.4922680145107487e-06,1.2038224603727976e-06,1.6825202561344019e-06,4.2347573379951684e-07
-3.8088553117839204e-06,8.173753162614929e-07,1.1626303208974377e-06,1.585151239906773e-06,2.2182584488049215e-06,2.0740827276655154e-06,1.2330473788042864e-06,1.954193743214802e-06,1.0745015031379773e-06,1.184623777658338e-06,1.676762276650735e-06,8.220285782531162e-07,1.5786544109406496e-06,2.917659769486837e-06,1.54247684200414e-06,1.239017983991977e-06,1.6749713321281932e-06,4.666106609591343e-07
-2.6909058793618383e-06,1.6612365466762985e-06,1.2371637948468745e-06,1.5917849602576812e-06,2.2568982767773345e-06,2.1318749973754987e-06,1.2813343977762058e-06,1.9858327174922046e-06,1.1275898973416716e-06,1.2003056055959398e-06,1.6680819774668519e-06,8.623452522805565e-07,1.5826922375881854e-06,2.9635553387243414e-06,1.5911954578943724e-06,1.2820154072173375e-06,1.6732104642748041e-06,5.052312973876873e-07
-2.4943447045238737e-06,2.287397863030398e-06,1.2977777831023289e-06,1.6064847210709286e-06,2.2948948162093638e-06,2.1901998185392925e-06,1.3367501216945834e-06,2.0228530258953425e-06,1.1734702403910693e-06,1.2079342808356863e-06,1.6541685851651041e-06,8.957976644819015e-07,1.590853516287091e-06,3.009019139817593e-06,1.6326328354855494e-06,1.3258087708935968e-06,1.6785517312973997e-06,5.34220687283966e-07
-1.0449059618316854e-06,2.4638957872425846e-06,1.3424250712838942e-06,1.6296730627998032e-06,2.3366513934977125e-06,2.243083639469005e-06,1.3903128883809196e-06,2.0566110247826196e-06,1.2115281471867662e-06,1.2067700102518736e-06,1.6330509213273408e-06,9.199186751877408e-07,1.5995494595604042e-06,3.0494091808180846e-06,1.663594916675685e-06,1.3646384915185443e-06,1.6906626753780166e-06,5.513269773080356e-07
1.2216982849620323e-06,2.1294808708625853e-06,1.372548654446832e-06,1.6497334939854232e-06,2.376838695642891e-06,2.286347584594478e-06,1.430968753814337e-06,2.080627303389983e-06,1.2417081715655506e-06,1.198811209713784e-06,1.6045264624031726e-06,9.348225428110351e-07,1.6057216548880754e-06,3.0817410799954387e-06,1.684123925726514e-06,1.3954737393814742e-06,1.7076277146414743e-06,5.575786991478105e-07
4.623951909633088e-06,1.443572992117231e-06,1.3922136216273877e-06,1.666318777726613e-06,2.409970381034104e-06,2.3186311676026896e-06,1.4647859769484811e-06,2.0925734941126925e-06,1.2646649267525913e-06,1.1879942355838978e-06,1.5704926368861815e-06,9.42985544231323e-07,1.6077268166796526e-06,3.105842781499716e-06,1.6969758219876259e-06,1.4183383747181075e-06,1.7266427563931906e-06,5.565398704937506e-07
6.754576139080776e-06,7.21286928567324e-07,1.4069215795983511e-06,1.6763083283356373e-06,2.441796569685307e-06,2.3413004216968596e-06,1.4932913863974864e-06,2.094803163599526e-06,1.2823432303591992e-06,1.1797331896454452e-06,1.5351364705952133e-06,9.488938231964622e-07,1.6060269755736506e-06,3.124643081707524e-06,1.7072049876432854e-06,1.4366739063300025e-06,1.7459178045676674e-06,5.530309219941687e-07
7.44723824948927e-06,2.954951872440946e-07,1.4225327982557244e-06,1.6789087760954689e-06,2.4785263001779643e-06,2.358127021140471e-06,1.518933627445048e-06,2.093029073244765e-06,1.2981107310274792e-06,1.1796950707368367e-06,1.5034463490477762e-06,9.57426289026216e-07,1.602916004896218e-06,3.1430611427791444e-06,1.7205777506368647e-06,1.4562409602777945e-06,1.7658520162051775e-06,5.51549281184988e-07
9.300841660124578e-06,3.904513968477731e-07,1.4437731133136066e-06,1.677944767397548e-06,2.51948546220855e-06,2.373600836222078e-06,1.548999613040274e-06,2.0930607388638326e-06,1.3157177272303866e-06,1.1919453839051364e-06,1.4795801864783937e-06,9.723829545991881e-07,1.6012849403157502e-06,3.165471848534926e-06,1.741147272787919e-06,1.4822601478940712e-06,1.7883936393237165e-06,5.550120497696303e-07
8.608920450346757e-06,1.033791468242073e-06,1.4729088854099405e-06,1.6776656924346978e-06,2.5638731787075334e-06,2.3910302233032205e-06,1.584151588292672e-06,2.0981147738316987e-06,1.3380952256691193e-06,1.2173401908224094e-06,1.4656062645164752e-06,9.95615845092012e-07,1.603594877813391e-06,3.1934590408876775e-06,1.7704942977571202e-06,1.517456450514054e-06,1.815909505829325e-06,5.646522869964976e-07
6.4014065155298465e-06,2.002869015937566e-06,1.5096431355922804e-06,1.6813753673247416e-06,2.61012379647236e-06,2.4126558069620606e-06,1.6243264193141582e-06,2.1087110334479893e-06,1.3671996187362602e-06,1.2543636057345133e-06,1.4615346392598467e-06,1.027163478670296e-06,1.6114842842657163e-06,3.225711957114133e-06,1.8084252215236909e-06,1.5618261057373733e-06,1.849911979871857e-06,5.807157171314613e-07
4.267641696961799e-06,2.8671640134097603e-06,1.5517717342909404e-06,1.6903950672012499e-06,2.65355310816298e-06,2.439637503195704e-06,1.6678302920171174e-06,2.123828676254199e-06,1.4042447237897157e-06,1.3003573032823357e-06,1.4661340046835678e-06,1.0656234124801584e-06,1.625452142990968e-06,3.2599571804510732e-06,1.8530954455469597e-06,1.6129361002038617e-06,1.889529536994365e-06,6.029165896492141e-07
2.517940723965048e-06,3.1728033015664443e-06,1.5957155324118152e-06,1.7033749262134802e-06,2.690532268123813e-06,2.4720441679051534e-06,1.7110218466075726e-06,2.1418671945009005e-06,1.4496345612267325e-06,1.3519772437381186e-06,1.4774130072391798e-06,1.108217472261333e-06,1.6446966263166331e-06,3.2931717671425665e-06,1.9010589265424337e-06,1.6665058296077054e-06,1.9309119129478744e-06,6.305604215650187e-07
1.196071389232444e-06,2.6623855373799456e-06,1.6370943326332365e-06,1.7169706725467417e-06,2.7167872851252176e-06,2.509175258565932e-06,1.750484585611894e-06,2.161406372839303e-06,1.5028868889906354e-06,1.4058228124578951e-06,1.4932079733025053e-06,1.1513087601030254e-06,1.6674882593359195e-06,3.322530998838648e-06,1.9481493182993368e-06,1.7178998033834854e-06,1.968267487705097e-06,6.626823173830736e-07
3.530473098120067e-07,1.3716842661477414e-06,1.6714849230717486e-06,1.7273347082846133e-06,2.728222132786907e-06,2.549353425106431e-06,1.783783239847022e-06,2.1811607991556857e-06,1.562599221857931e-06,1.4587286993264458e-06,1.5112985781047928e-06,1.191126656541833e-06,1.6914805464572027e-06,3.345964251733321e-06,1.9901149166376143e-06,1.7633547232485598e-06,1.995556861125544e-06,6.980093646976875e-07
-9.492409931245605e-08,-4.1935863294788676e-07,1.6951310576755465e-06,1.7312353365025242e-06,2.7226254008219585e-06,2.5896204644834918e-06,1.8090491203298667e-06,2.1989061059360238e-06,1.6254744658176044e-06,1.507447236210513e-06,1.5292346619998097e-06,1.2239867813096878e-06,1.7137762286753457e-06,3.3617773877729082e-06,2.0232225478466214e-06,1.8001792491619503e-06,2.008483089563059e-06,7.349191637445379e-07
-2.440967697713795e-07,-2.291461368157336e-06,1.7060035717905066e-06,1.7271586076470422e-06,2.7005492736413536e-06,2.626108928544348e-06,1.8250116031434126e-06,2.2114175085835118e-06,1.6869659541925967e-06,1.549255855939148e-06,1.544576404978329e-06,1.2476986924512958e-06,1.7315179829955283e-06,3.3695038086314147e-06,2.046132260249022e-06,1.8282242952215792e-06,2.0068743747688834e-06,7.719543855324125e-07
-2.5858878768908315e-07,-3.7871602034672036e-06,1.705185880031982e-06,1.7164703635464093e-06,2.666416229753345e-06,2.6557111052746375e-06,1.8322743648934118e-06,2.2161261005933407e-06,1.7430066903434126e-06,1.5824482346132139e-06,1.5557156923654176e-06,1.2627448236954497e-06,1.7427917807455102e-06,3.371001601928686e-06,2.061156631751235e-06,1.8506759014857076e-06,1.995518350576697e-06,8.083872409977483e-07
-3.0521287883036776e-07,-4.5190334851336996e-06,1.6970535727379772e-06,1.7030621455200251e-06,2.627931557984473e-06,2.677265034061292e-06,1.833314416977246e-06,2.2120808036075626e-06,1.7910963082820843e-06,1.6066545813244326e-06,1.5627753620337662e-06,1.271611933247674e-06,1.746737684853085e-06,3.369584845493936e-06,2.072537072547465e-06,1.8722417890718855e-06,1.9819798096508446e-06,8.439432931009059e-07
-4.79728284346455e-07,-4.291747359688972e-06,1.687529715206012e-06,1.6910727528288764e-06,2.593251471348079e-06,2.6912354397051216e-06,1.8307858303870165e-06,2.199312216785931e-06,1.8303834231677252e-06,1.6221124513978108e-06,1.5665736322503656e-06,1.2772204788456468e-06,1.743135056023251e-06,3.36730683081495e-06,2.0839575304360455e-06,1.8964407721360325e-06,1.973386873075707e-06,8.782450827053722e-07
-7.778334061758578e-07,-3.18535144036018e-06,1.6820664236754546e-06,1.6831622922779283e-06,2.5683179171804825e-06,2.6989982674696057e-06,1.8267828911389713e-06,2.1786112330721047e-06,1.8614196032955357e-06,1.62947017465542e-06,1.5681767256441866e-06,1.2818831594763664e-06,1.7324983039459071e-06,3.3647763661714877e-06,2.097968702057793e-06,1.924812098294263e-06,1.974493566342851e-06,9.108902238874257e-07
-1.1484076353594555e-06,-1.53153891510457e-06,1.6846962153342139e-06,1.6803034341419553e-06,2.555898342952535e-06,2.7026660338618216e-06,1.8236649904327227e-06,2.1520674679657454e-06,1.8858614051163782e-06,1.630370758802056e-06,1.569019457047773e-06,1.2869419296428595e-06,1.7161703285464935e-06,3.3615317621826734e-06,2.1157852640584436e-06,1.9574022561078415e-06,1.986627727257544e-06,9.416810693296085e-07
-1.5729117123677761e-06,2.1958851982478255e-07,1.6975809104034465e-06,1.6818625909862665e-06,2.5553869749905996e-06,2.7045187814511496e-06,1.8241450237747404e-06,2.122747597669253e-06,1.905761510786204e-06,1.6270740257575856e-06,1.5702693556223354e-06,1.2922476008351164e-06,1.695854870447895e-06,3.3557877168864437e-06,2.136333627602118e-06,1.9925536106821193e-06,2.0072452279842682e-06,9.704822630922296e-07
-2.081983800872942e-06,1.6628962602395574e-06,1.7207035270933431e-06,1.6858250004288065e-06,2.5632280035095237e-06,2.706231875543415e-06,1.8306028801827005e-06,2.0940437859521613e-06,1.9231175413238976e-06,1.6222912452289196e-06,1.5728764056117673e-06,1.2965939447503823e-06,1.6733432258083194e-06,3.345547549016664e-06,2.156870724255576e-06,2.0276629916808673e-06,2.0313130584412466e-06,9.97348498929513e-07
-2.6861282428338994e-06,2.5383918941086774e-06,1.7521924417148815e-06,1.689966850947246e-06,2.5747711904595867e-06,2.7093494346547713e-06,1.8452677485546595e-06,2.0698738806891727e-06,1.94012296680331e-06,1.6188017961495174e-06,1.5780018570331192e-06,1.2989619133906848e-06,1.650775360839241e-06,3.3302469426707016e-06,2.175234893722663e-06,2.06113362217004e-06,2.053847934160086e-06,1.0229973115471872e-06
-3.286918913532923e-06,2.739033661209335e-06,1.7887954140717426e-06,1.692814198701872e-06,2.5861891291423263e-06,2.7157650145351586e-06,1.8701090817051345e-06,2.0542170430981307e-06,1.9591577914978547e-06,1.6191244150329814e-06,1.5868490094646717e-06,1.298887067064063e-06,1.6302223595540343e-06,3.310913253977019e-06,2.1902714533433585e-06,2.0927810950320973e-06,2.0709979478730013e-06,1.0485625445723699e-06
-3.6718521518261118e-06,2.2703372422697604e-06,1.8257576846387295e-06,1.6929910229491809e-06,2.594525541961791e-06,2.7259126915290864e-06,1.9049353586757056e-06,2.0489294429998502e-06,1.9814751807186106e-06,1.62383015148458e-06,1.5993457135664903e-06,1.295642200470178e-06,1.612320316284743e-06,3.288078339897972e-06,2.200307284763328e-06,2.1220849291052907e-06,2.0796333175633074e-06,1.074639577603504e-06
-3.634912009241993e-06,1.2264347754125445e-06,1.8571105695271781e-06,1.6885441899149562e-06,2.5970363849461906e-06,2.7380683342553302e-06,1.946110586355067e-06,2.052431655285393e-06,2.0062817060414327e-06,1.6307107251393733e-06,1.6138148914760315e-06,1.2880224775152577e-06,1.595713211632128e-06,3.2605757955179184e-06,2.2030815022682496e-06,2.1475380312516405e-06,2.0775455209349172e-06,1.1008675204597143e-06
-3.1269657315383824e-06,-1.9445550762920153e-07,1.8774199911544334e-06,1.6779191240848972e-06,2.591663560861756e-06,2.749377144504147e-06,1.9881537536523324e-06,2.0607376103801317e-06,2.0315553629836304e-06,1.636278126403057e-06,1.6281422743574428e-06,1.275048666322757e-06,1.5779268344140772e-06,3.2264993531961424e-06,2.1971460794800234e-06,2.1679005810544336e-06,2.0641449306272385e-06,1.126190468904487e-06
-2.281162683848305e-06,-1.6815958828192645e-06,1.8837055471145588e-06,1.6608342148197975e-06,2.5775645651210764e-06,2.7572800000773364e-06,2.0259029759499507e-06,2.0702731874694796e-06,2.0552148418916125e-06,1.6372947660010974e-06,1.6406265086167616e-06,1.2563236464261484e-06,1.5564099797881952e-06,3.1838733274240514e-06,2.1821124301339674e-06,2.1825636343805186e-06,2.040174055614448e-06,1.1489598659689734e-06
-1.3054115942532994e-06,-2.872896329717731e-06,1.8759701409978633e-06,1.6377505714965987e-06,2.5545237745521527e-06,2.759956564647432e-06,2.0553346830355675e-06,2.077417919657461e-06,2.0754546896553233e-06,1.6315849570062332e-06,1.649988554612283e-06,1.2319515120851633e-06,1.5291503240829698e-06,3.130939073838585e-06,2.1585270398723513e-06,2.191584908733892e-06,2.007267433251891e-06,1.1671384640425126e-06
-3.9706564325408423e-07,-3.4704140759637623e-06,1.8569064881457538e-06,1.609653767327845e-06,2.52274594388098e-06,2.75690621328182e-06,2.0746620450959537e-06,2.0798755405555757e-06,2.091534664709571e-06,1.6188705504514243e-06,1.655554918158177e-06,1.2026061919709988e-06,1.495571416249332e-06,3.067520579081821e-06,2.129026541050907e-06,2.1961044862700625e-06,1.9684979461707956e-06,1.1792593992254974e-06
2.512203797961637e-07,-3.3280509913653204e-06,1.8314062983039107e-06,1.5788047058592273e-06,2.4836478299538277e-06,2.7497655590801878e-06,2.0858888294436825e-06,2.078387549148987e-06,2.104692976406732e-06,1.6015606722116563e-06,1.657764535882726e-06,1.1701621995297414e-06,1.4570578463472858e-06,2.9960154361381446e-06,2.0984970502263505e-06,2.1997449177323833e-06,1.928202643997681e-06,1.1852598621074309e-06
4.6155244763479395e-07,-2.4737282212369654e-06,1.8049322076514004e-06,1.5482040438862601e-06,2.4394904482589127e-06,2.741322227619511e-06,2.0937752224151942e-06,2.075464213624013e-06,2.117445039554954e-06,1.5829274157323728e-06,1.657594997357202e-06,1.1367767386774495e-06,1.415947689854837e-06,2.9197549675894106e-06,2.0712760494361303e-06,2.20675123405009e-06,1.8899207127452501e-06,1.186130636590811e-06
1.6368513472803825e-07,-1.0950218567815965e-06,1.7809764430499137e-06,1.519506288011064e-06,2.3914401210079374e-06,2.7333202862786982e-06,2.102390799048483e-06,2.072985731741056e-06,2.131551293600992e-06,1.5654672690518078e-06,1.655174515253842e-06,1.1036291132120297e-06,1.3740840689256079e-06,2.840975738842733e-06,2.048783518553433e-06,2.219119803083029e-06,1.8547766755986257e-06,1.1831807608356e-06
-5.124627859093942e-07,4.957327317691813e-07,1.7599913178619941e-06,1.4923491492598155e-06,2.338871126435227e-06,2.7252369555765627e-06,2.1132426880639046e-06,2.071037311198633e-06,2.14699211370251e-06,1.5505416103788895e-06,1.6498506323750655e-06,1.0712835328666157e-06,1.3325806245703733e-06,2.7605130481852906e-06,2.0304042291776745e-06,2.2370491107339638e-06,1.8221195263918974e-06,1.1780057122787496e-06
-1.2398047803114878e-06,1.934176736765991e-06,1.7405987411617023e-06,1.4657928653285294e-06,2.28081409774386e-06,2.7154024455676228e-06,2.1260160844990065e-06,2.0689224759514748e-06,2.1627069411374838e-06,1.5387595148808777e-06,1.641014198099575e-06,1.0403997945137184e-06,1.2922507875614145e-06,2.6790300381248467e-06,2.014954433168688e-06,2.260132335969303e-06,1.79062616611567e-06,1.1725403295563584e-06
-1.6100117935238384e-06,2.9060675192762323e-06,1.7210283453653862e-06,1.4392819985230675e-06,2.2170668607409543e-06,2.7019553106069686e-06,2.13916869714272e-06,2.0654768316780303e-06,2.1772262459157484e-06,1.5302091354618358e-06,1.6282127411342366e-06,1.0115092038528919e-06,1.2535471194036543e-06,2.597004665430624e-06,2.000691200804187e-06,2.287307830869848e-06,1.7585273136655511e-06,1.1684637128431345e-06
-1.3272731685256064e-06,3.227766859723354e-06,1.6996560862049758e-06,1.412350170173948e-06,2.1480472782615195e-06,2.6832231790844876e-06,2.1501080134842218e-06,2.0594547180398294e-06,2.1890178551864923e-06,1.524546472523028e-06,1.6114398441839601e-06,9.84786477158739e-07,1.2166137090965493e-06,2.5148565542535737e-06,1.986253961129039e-06,2.3170728898832818e-06,1.7244932550048558e-06,1.1667610221916247e-06
-3.9041866307526623e-07,2.8731572672262204e-06,1.6756822990508982e-06,1.3850237826753427e-06,2.075129435670107e-06,2.658837037022773e-06,2.157090828891477e-06,2.0506550060027755e-06,2.1975730632028336e-06,1.521953350421438e-06,1.5914632093088424e-06,9.615103523958317e-07,1.1821414022801747e-06,2.4343942330706227e-06,1.9729496309328497e-06,2.3499576805337063e-06,1.6893667741657229e-06,1.168014272273208e-06
8.632038499525069e-07,1.9658235082360025e-06,1.649944020542985e-06,1.3587268639996917e-06,2.0013675837493597e-06,2.630659615365871e-06,2.161313861857093e-06,2.040809285084737e-06,2.2043267699468306e-06,1.5237769867504073e-06,1.5705409924563135e-06,9.442147787915262e-07,1.1517273153052067e-06,2.3597280672766684e-06,1.964374836272905e-06,2.3891825601832486e-06,1.6561427635474504e-06,1.1724437325111499e-06
1.9133604301800894e-06,7.613225999588186e-07,1.6244401632097698e-06,1.335492948901581e-06,1.930548216485191e-06,2.601645650547401e-06,2.1660701237703846e-06,2.032295481120021e-06,2.211495526455697e-06,1.531714603128224e-06,1.5513387504495122e-06,9.353422906831774e-07,1.1269683639834369e-06,2.294759581353987e-06,1.962877526114962e-06,2.4379366980803046e-06,1.6277832464021978e-06,1.1794167281753367e-06
2.3219714921142227e-06,-3.854472321027558e-07,1.600862618980469e-06,1.3161012322255456e-06,1.865083977252876e-06,2.5738669623059287e-06,2.1741352613015894e-06,2.026079463665572e-06,2.2204359075571654e-06,1.5464865781412215e-06,1.535548564126551e-06,9.361692497595363e-07,1.1087064602443669e-06,2.241325150772195e-06,1.96772096681096e-06,2.4970970978275175e-06,1.6056235365503903e-06,1.1876081330036755e-06
1.931747107146299e-06,-1.0977044093192915e-06,1.5798896899223044e-06,1.2996544705852998e-06,1.805290988917873e-06,2.5478076527127187e-06,2.186762341334155e-06,2.0218096614552045e-06,2.231228353138666e-06,1.5678789081590666e-06,1.5240436477557056e-06,9.468985894107075e-07,1.0972133039212255e-06,2.199597391476586e-06,1.976561180719e-06,2.565683762447062e-06,1.5894247436520064e-06,1.1960256111928742e-06
9.067098663687015e-07,-1.1059072617392199e-06,1.5613228036607683e-06,1.28435302059639e-06,1.7500664623551818e-06,2.5227462597604105e-06,2.2038530870680036e-06,2.018768076247069e-06,2.2433022905912805e-06,1.5948180624116257e-06,1.5170153427085242e-06,9.667537002948142e-07,1.0921000343211608e-06,2.1681049536026022e-06,1.98662352054604e-06,2.6416367291137446e-06,1.5774667073065202e-06,1.2045522290783784e-06
-3.5576046221776496e-07,-3.5960302566783247e-07,1.5439798394976767e-06,1.2677423525018476e-06,1.6972554795899506e-06,2.496828998910258e-06,2.223423835427295e-06,2.015360028870056e-06,2.2553556039605574e-06,1.6252882499066539e-06,1.5135062147940996e-06,9.933947722668416e-07,1.0915625464562337e-06,2.14322504353756e-06,1.994641820129491e-06,2.72115949400721e-06,1.5665105816958038e-06,1.2136036569199178e-06
-1.393402497489558e-06,9.611523274591367e-07,1.5258020831672457e-06,1.2472183631426623e-06,1.6441752118182311e-06,2.4676075648167767e-06,2.2418697360662566e-06,2.009897812651853e-06,2.2654447561285234e-06,1.6561535711724883e-06,1.5115819855093652e-06,1.0233641231999398e-06,1.0925509421690807e-06,2.1201833440757304e-06,1.998264600446491e-06,2.799326318704077e-06,1.5532613873460098e-06,1.2239619062450516e-06
-1.8686647970929721e-06,2.5308345612219187e-06,1.5050170863755305e-06,1.2218371137652074e-06,1.5893743873284511e-06,2.4338582175400234e-06,2.2564009140623745e-06,2.0020395581824846e-06,2.2725488116995183e-06,1.6846990287472328e-06,1.5098423031073106e-06,1.0537309378394273e-06,1.0921454331933177e-06,2.095652239773542e-06,1.9981144243539626e-06,2.872827629042555e-06,1.5363740476260425e-06,1.2369214710065775e-06
-1.6737639789311708e-06,3.997045597237277e-06,1.4811420173136929e-06,1.19338340433456e-06,1.5339456382800507e-06,2.3966722057511752e-06,2.266869771788277e-06,1.9936908023753173e-06,2.277134479264812e-06,1.7093918717278052e-06,1.5079897588720044e-06,1.082845558538988e-06,1.0884175923054256e-06,2.068517935751748e-06,1.996967026980045e-06,2.940582023787588e-06,1.5164934713006594e-06,1.2538038745351256e-06
-8.962549207917231e-07,5.0869739897301154e-06,1.454557682484433e-06,1.1651389988211147e-06,1.4806018241919047e-06,2.3582632414016053e-06,2.274794192245492e-06,1.987190198985385e-06,2.2800176227398443e-06,1.7290126821893167e-06,1.5060264081443197e-06,1.1097827385289856e-06,1.080214330519481e-06,2.038821943432746e-06,1.9970477879712994e-06,3.0020520814885633e-06,1.4948755909400347e-06,1.2750014097889161e-06
2.8734743939388855e-07,5.629910404261601e-06,1.4258488374864794e-06,1.1403214346050534e-06,1.4319953858365131e-06,2.320335362290309e-06,2.282071572976182e-06,1.983244694527963e-06,2.2813481443807356e-06,1.7421939281953942e-06,1.5035817115417556e-06,1.1337701300010066e-06,1.0670192490081546e-06,2.0073330755533324e-06,1.9990803679461007e-06,3.056896404714719e-06,1.4727724595696718e-06,1.299564380223028e-06
1.6852003558348927e-06,5.6560564343172165e-06,1.3961537877638222e-06,1.1217600823735356e-06,1.390022251984332e-06,2.283657899590013e-06,2.2904770936012877e-06,1.981271396271812e-06,2.281011581001623e-06,1.7479793693180298e-06,1.5010810409812747e-06,1.154470796707292e-06,1.0490993223360852e-06,1.975164655284369e-06,2.0024979147914305e-06,3.1053035003913014e-06,1.4513277354353022e-06,1.325223078587796e-06
3.095846273430671e-06,5.287064305693027e-06,1.367441449922702e-06,1.111375507523087e-06,1.355272184903228e-06,2.2486887527595184e-06,2.301695319572401e-06,1.9798106332373035e-06,2.2789112854572717e-06,1.7463324198175775e-06,1.498306438054687e-06,1.1716586605955816e-06,1.027156800639856e-06,1.943225291812508e-06,2.0049880322113695e-06,3.1472240917447067e-06,1.4309913887457446e-06,1.3483810901804717e-06
4.294014696959435e-06,4.6355827965422e-06,1.3418719954787358e-06,1.108905491611092e-06,1.326319122885124e-06,2.2148626517436914e-06,2.3162923813249527e-06,1.976702419929764e-06,2.2753129563091446e-06,1.7380388627948177e-06,1.4946290689517396e-06,1.184891943882391e-06,1.0019946106778767e-06,1.911568845021695e-06,2.0031388570686763e-06,3.181845075930834e-06,1.4116629757911063e-06,1.3648230966561737e-06
5.046503298169671e-06,3.71327692468664e-06,1.3214004190268112e-06,1.1122452129166747e-06,1.3005815769694493e-06,2.1812950673181436e-06,2.3339252453450603e-06,1.9704156573577174e-06,2.271241422415273e-06,1.7253552164412353e-06,1.4901851796589563e-06,1.1945756029289198e-06,9.74995624739085e-07,1.8803730554721247e-06,1.9952262466496413e-06,3.2093283616750245e-06,1.3940290565956404e-06,1.371518546245902e-06
5.155469033023981e-06,2.415038675177858e-06,1.3080037954231153e-06,1.1195269742907481e-06,1.2765009555995112e-06,2.1484892137920186e-06,2.3549924336116928e-06,1.962011391276211e-06,2.2691583131387348e-06,1.7121498196044714e-06,1.486005098137411e-06,1.2034226046531287e-06,9.484816371275131e-07,1.8511585310383195e-06,1.9824724424751243e-06,3.2321799552578643e-06,1.3797565837418309e-06,1.3680023248138308e-06
4.516389255986004e-06,7.332436427738564e-07,1.304221682142444e-06,1.129844287455712e-06,1.2540764172752259e-06,2.1179620375075444e-06,2.3801800190053077e-06,1.954355950505905e-06,2.2721836471830316e-06,1.702601065869799e-06,1.4837585304940955e-06,1.2135475750874396e-06,9.248586009361069e-07,1.8254503714413992e-06,1.9667891852950957e-06,3.253567989167324e-06,1.3696074046760748e-06,1.3560306650431144e-06
3.1974196757719723e-06,-1.290125146386877e-06,1.3091839437825286e-06,1.141919748860328e-06,1.2331073282126171e-06,2.090696466812948e-06,2.408400357441974e-06,1.949392421063358e-06,2.281849721472824e-06,1.6995229949331516e-06,1.4847110919118297e-06,1.2253886456937991e-06,9.055575274076534e-07,1.8035915663405306e-06,1.9488119319000878e-06,3.2751435691786005e-06,1.36207445980556e-06,1.3383976735537144e-06
1.49453767036078e-06,-3.0444254427788262e-06,1.3194536908597147e-06,1.1532960214842315e-06,1.2118500512434137e-06,2.065762626453595e-06,2.4363329113953233e-06,1.946922979972766e-06,2.2976226135787797e-06,1.703911641746735e-06,1.4889992831791137e-06,1.2398840249728142e-06,8.910055718371426e-07,1.7852657874124489e-06,1.92867774437071e-06,3.2973746597931892e-06,1.3541347427983378e-06,1.3180677605907844e-06
-1.0437653632225307e-07,-3.835337332351783e-06,1.3305796904782283e-06,1.1609771729532278e-06,1.1874776701184387e-06,2.0411600522259414e-06,2.4598931846040757e-06,1.945091695827316e-06,2.3173082477318002e-06,1.715393598138924e-06,1.495392732022392e-06,1.2569877188380704e-06,8.808960234668987e-07,1.770172786468982e-06,1.906839458767879e-06,3.320684912392757e-06,1.342453779701054e-06,1.2974486001043906e-06
-1.0688293555629115e-06,-2.949102957378505e-06,1.3377942694151419e-06,1.1621605634086003e-06,1.1573110943503933e-06,2.0144058601267197e-06,2.475228045658209e-06,1.9411424586496306e-06,2.337501240877667e-06,1.7323344355979686e-06,1.5033509924269723e-06,1.2756794325395766e-06,8.740791000960681e-07,1.7574680922871867e-06,1.8835979207044978e-06,3.345190322416486e-06,1.3241468733208424e-06,1.277807089305778e-06
-1.04615782693777e-06,-1.929666343307575e-06,1.3379440210208436e-06,1.1552649464706836e-06,1.1204876672358135e-06,1.9832156274711413e-06,2.4796698014160276e-06,1.932370482673392e-06,2.3544105626073894e-06,1.7521871407857479e-06,1.512203363673907e-06,1.2947272001756326e-06,8.689477225205926e-07,1.746239671382661e-06,1.8597405153878675e-06,3.370808339286234e-06,1.2981907353592399e-06,1.2596278129345743e-06
-3.8487135348092166e-08,-1.4006188463516745e-06,1.3303499069879614e-06,1.1417441154517996e-06,1.0799512776138274e-06,1.948051129909511e-06,2.4738904763429585e-06,1.9184695257717053e-06,2.3655964886366865e-06,1.772911918175995e-06,1.5221782227743389e-06,1.313600989860367e-06,8.645250729530264e-07,1.737351178513549e-06,1.8379704971473402e-06,3.398160161052415e-06,1.2667715170528462e-06,1.2436378992281242e-06
1.592468754238885e-06,-7.830614303729975e-07,1.3169524311204656e-06,1.126638037745963e-06,1.0426933712886455e-06,1.912196856493044e-06,2.462342558016926e-06,1.9020594322937576e-06,2.3708826623016086e-06,1.7934082470740423e-06,1.5353577035099815e-06,1.3327617633444257e-06,8.607447247023583e-07,1.73348160312491e-06,1.8220625734985888e-06,3.4280993342199725e-06,1.2345391524067022e-06,1.2311570194095036e-06
3.305121482774923e-06,7.874925636544529e-07,1.2998208704870136e-06,1.1167920702646754e-06,1.0170821553943946e-06,1.879838380372605e-06,2.45061037701604e-06,1.8863952606663869e-06,2.3714299472754053e-06,1.8127165055730382e-06,1.5537379023718588e-06,1.3534138161460553e-06,8.576195885951145e-07,1.7371751856555096e-06,1.8144138729851204e-06,3.459083959135347e-06,1.2064750037710332e-06,1.2235878116155388e-06
4.621150909909813e-06,2.26213380991004e-06,1.2824892838990372e-06,1.1182722022611537e-06,1.0097373054877567e-06,1.8540314400330979e-06,2.4427513263191726e-06,1.873485288538024e-06,2.368572007404638e-06,1.828899915248686e-06,1.5781192499734336e-06,1.376446778655899e-06,8.546678701600223e-07,1.7494002875637991e-06,1.8150535302209303e-06,3.4875018726738775e-06,1.18655493148675e-06,1.2218057322042738e-06
5.276512856902706e-06,2.2221238616488407e-06,1.2679941222737607e-06,1.1353010564421988e-06,1.0241675713872995e-06,1.8360123916270691e-06,2.4406548757041437e-06,1.863789055093788e-06,2.36331912784584e-06,1.8396691499462558e-06,1.60798524046907e-06,1.4013564643902042e-06,8.508935430989349e-07,1.7690659902693618e-06,1.8215133879753936e-06,3.508081686053598e-06,1.1770797736042523e-06,1.2254152212564593e-06
5.228190896606617e-06,1.4197149402836573e-06,1.2584162264443695e-06,1.169222238113336e-06,1.060101212295034e-06,1.8251515851405439e-06,2.4440755642978497e-06,1.8559676980356559e-06,2.3559293076863723e-06,1.8427782912542163e-06,1.6411663105262995e-06,1.426002445802763e-06,8.446398176582522e-07,1.7929167818394778e-06,1.8282444463746842e-06,3.5139541193857408e-06,1.1777621588396542e-06,1.2318168606180841e-06
4.584435825717135e-06,1.0427655434473908e-06,1.2551607356090352e-06,1.2170777579061167e-06,1.1127161317377086e-06,1.8185883720522327e-06,2.4501674316713803e-06,1.8465128878104645e-06,2.3454882830715173e-06,1.8363068510435882e-06,1.6740695928121826e-06,1.4464400383985635e-06,8.338037169495385e-07,1.8158837460280238e-06,1.8277794660767066e-06,3.4979618455347325e-06,1.1857114262455892e-06,1.2362072441183946e-06
3.526391363532396e-06,1.1748305523204159e-06,1.2579862883271998e-06,1.2721843586210751e-06,1.1733827827809702e-06,1.8122833060978262e-06,2.4546616761897234e-06,1.831188323848293e-06,2.330548690948991e-06,1.8200897362747815e-06,1.7031476646806544e-06,1.4585964801135433e-06,8.172487864634747e-07,1.8333782136954223e-06,1.8144393895736518e-06,3.455513102324039e-06,1.1968265942645697e-06,1.2330899513614342e-06
2.244971430321777e-06,-2.1724812676828927e-08,1.2660913734708258e-06,1.3266725265943114e-06,1.2323646476012592e-06,1.8026511741301346e-06,2.454191118285669e-06,1.807322051676114e-06,2.3106325817726896e-06,1.7964456033520898e-06,1.7259826609077257e-06,1.4602458009116625e-06,7.951669290488657e-07,1.8430559711355636e-06,1.7868098621985652e-06,3.387159893669995e-06,1.2068254088335953e-06,1.2180876036617545e-06
9.184675201861854e-07,-2.5060654864819427e-06,1.2784836820962808e-06,1.3738043592609816e-06,1.2814919068506066e-06,1.787669806705319e-06,2.4472566039783418e-06,1.7739917396350253e-06,2.2865433688615865e-06,1.769318831786532e-06,1.7416556454249282e-06,1.4509582978873932e-06,7.690155575828179e-07,1.844332258094107e-06,1.7470712217444965e-06,3.2981060204684288e-06,1.2114423738516523e-06,1.1890134166399763e-06
-2.5937256897171156e-07,-4.395668239766239e-06,1.293660616494755e-06,1.4093534060091744e-06,1.3157801385697335e-06,1.7671768508450603e-06,2.434157559878121e-06,1.7333533265495737e-06,2.259944753279203e-06,1.7429628603560508e-06,1.750576796880263e-06,1.4323649208852128e-06,7.409782777386777e-07,1.8378547445576026e-06,1.6998107912449525e-06,3.1964145980508375e-06,1.2072224274928396e-06,1.146435450711469e-06
-1.0595755641164288e-06,-5.137690422031187e-06,1.3101321487292995e-06,1.4327338409034316e-06,1.3343820821913014e-06,1.742841409573596e-06,2.4170936117525336e-06,1.689610310114938e-06,2.2328368161594516e-06,1.7216213099069744e-06,1.7546053656141497e-06,1.4080678282701695e-06,7.136843479672238e-07,1.826066544891316e-06,1.6512035799401696e-06,3.0914504752161027e-06,1.1926106041151863e-06,1.0936017282521688e-06
-1.2495620469447111e-06,-6.178765761772244e-06,1.3268558703111255e-06,1.4466164646827819e-06,1.3401896524130542e-06,1.7175884305562826e-06,2.39934554675829e-06,1.6475272679250237e-06,2.2074590777827653e-06,1.708177989413372e-06,1.7565848307458316e-06,1.382010097936699e-06,6.898594854699488e-07,1.812095859265883e-06,1.606755536627907e-06,2.992053563401511e-06,1.1676599090772786e-06,1.0351572562297314e-06
-6.563708011743978e-07,-6.24218028182531e-06,1.3428218553090822e-06,1.454550637224574e-06,1.3376316977740062e-06,1.6936479448213086e-06,2.382945647914195e-06,1.610949115270655e-06,2.1847750571947535e-06,1.7030534571648588e-06,1.7578530565767559e-06,1.3571236938164495e-06,6.712095460856409e-07,1.7979141353241115e-06,1.568840200609334e-06,2.9029889461791885e-06,1.133048827379522e-06,9.753596451648551e-07
7.506326820324596e-07,-4.969582125719815e-06,1.3568343643927844e-06,1.4591565446775188e-06,1.3306920954404817e-06,1.6716611903245363e-06,2.36777328177809e-06,1.5794370186213451e-06,2.163690122799643e-06,1.704430967692582e-06,1.7587343382621438e-06,1.33456823741719e-06,6.581299281320726e-07,1.7834978286371516e-06,1.5369937564304557e-06,2.8253060788230243e-06,1.0901796739694928e-06,9.171462451929329e-07
2.774449897511897e-06,-3.3457633673307782e-06,1.3682176671616068e-06,1.4623639468838844e-06,1.3227529206175122e-06,1.6518455452468268e-06,2.3532875599041207e-06,1.5515519711020046e-06,2.1424211322333076e-06,1.7095715340174713e-06,1.7594566738321465e-06,1.3140695058300424e-06,6.502524605608062e-07,1.7679213412318527e-06,1.509739975785497e-06,2.75853633894771e-06,1.0416075468607193e-06,8.619929214181181e-07
4.973600347197478e-06,-2.43969821256178e-06,1.3772218466962572e-06,1.4658600036005935e-06,1.316799930997928e-06,1.6348375173379319e-06,2.3397143448808043e-06,1.5262673671879767e-06,2.1197017444048053e-06,1.716243969392686e-06,1.7591057327700688e-06,1.2974202111422685e-06,6.468419405128794e-07,1.7501151860069315e-06,1.4852473992109621e-06,2.701348718366677e-06,9.904373440801035e-07,8.098152400404487e-07
6.782063984258391e-06,-2.0081682016588703e-06,1.384286732272708e-06,1.470588857919046e-06,1.3148454138337656e-06,1.62171496210341e-06,2.3274078661490836e-06,1.5026213893474082e-06,2.094499470962126e-06,1.7229587520042122e-06,1.757709093429327e-06,1.2839497911568264e-06,6.467831446709532e-07,1.7309644405466422e-06,1.462119899445726e-06,2.651759671596958e-06,9.399154473536636e-07,7.593513451090318e-07
7.71255945377495e-06,-1.5682676272933056e-06,1.3899196514677814e-06,1.4790533893500596e-06,1.3181240356774292e-06,1.6142006152298747e-06,2.316837445212837e-06,1.4803825972135767e-06,2.066728517156386e-06,1.7311463523636548e-06,1.7550441075258458e-06,1.2734009835232224e-06,6.513844087029757e-07,1.7101032368700674e-06,1.4417209904232221e-06,2.6087094837851787e-06,8.943045267613236e-07,7.095226238309826e-07
7.525345712640523e-06,-9.458454507286256e-07,1.3963945876770263e-06,1.4925927802029457e-06,1.3285320183338538e-06,1.6155116688759132e-06,2.3097128373143873e-06,1.461159005305844e-06,2.03834908894805e-06,1.741523055072631e-06,1.7519013745535392e-06,1.2679755039686365e-06,6.609469551759316e-07,1.6906663658119362e-06,1.4290214998077126e-06,2.573439945303847e-06,8.591342158259256e-07,6.606218832426819e-07
6.296561397019626e-06,-1.1408314386156035e-07,1.4057453780892824e-06,1.5136986094382751e-06,1.3489285508146838e-06,1.6300778265502496e-06,2.308861056917122e-06,1.4481928289570288e-06,2.0129630781840494e-06,1.7569728502657632e-06,1.7509850304681601e-06,1.2703475255633286e-06,6.759478914005512e-07,1.6781315341854235e-06,1.4299676449463876e-06,2.548271090648012e-06,8.393842044018386e-07,6.141554684396713e-07
4.416337181535954e-06,8.438233394606802e-07,1.4210036043174402e-06,1.5447030286011026e-06,1.3814314668317961e-06,1.6617494418308394e-06,2.3159503255841474e-06,1.4441451759988288e-06,1.994531947929092e-06,1.7811783361688825e-06,1.7490207914124388e-06,1.2842083166175497e-06,6.995353694666352e-07,1.6775762045916111e-06,1.448511917537202e-06,2.534763839093619e-06,8.373442066182894e-07,5.720017542160112e-07
2.515068474104027e-06,1.726483498059879e-06,1.446014598666897e-06,1.5849776045438571e-06,1.4258896431686076e-06,1.712008261564011e-06,2.3308570112972823e-06,1.4503116496762363e-06,1.986064378997457e-06,1.8164794720046277e-06,1.7487975621950013e-06,1.3119467356269013e-06,7.309374543024064e-07,1.6912644527017228e-06,1.4855923630026103e-06,2.5329047437916013e-06,8.516666872846384e-07,5.35785333684714e-07
1.2754995767662671e-06,2.3250466598205743e-06,1.4841955260989953e-06,1.6306312200599757e-06,1.4796764037118144e-06,1.7792946599904535e-06,2.3519943218103917e-06,1.4656176521634607e-06,1.9884345274535886e-06,1.864852693650467e-06,1.7538508143436048e-06,1.35044472597539e-06,7.714706663610405e-07,1.7218944491907176e-06,1.5381633303100362e-06,2.5405337469358095e-06,8.76917288955488e-07,5.061305551516349e-07
1.1427444910051957e-06,2.489108419672568e-06,1.5381558420725768e-06,1.678345192590341e-06,1.5379235023101075e-06,1.8586022529541983e-06,2.376051371010883e-06,1.4859327027882458e-06,1.999368084413001e-06,1.9230313803128994e-06,1.759958374697906e-06,1.3960091746236954e-06,8.202381152034575e-07,1.7681691606744447e-06,1.5979403476734479e-06,2.552008252676247e-06,9.0383582724121e-07,4.817966385519811e-07
2.089715590759286e-06,2.205688508099612e-06,1.6085544201707874e-06,1.7235258849795868e-06,1.5943707818280864e-06,1.9419864627589454e-06,2.3984684514795054e-06,1.5047772312289997e-06,2.013549806429655e-06,1.9857854866736468e-06,1.7644791327122888e-06,1.4345267946094893e-06,8.716875705215802e-07,1.8231387445870022e-06,1.6529344860713645e-06,2.558442499885602e-06,9.218925029091645e-07,4.5971785496542516e-07
3.6432719523734346e-06,1.5501452712214775e-06,1.6812951371530874e-06,1.7612769741420492e-06,1.6434844773599243e-06,2.0210465722748357e-06,2.415155457232938e-06,1.515125158515914e-06,2.024319409346412e-06,2.0454801930014473e-06,1.763743805495657e-06,1.4601919629863399e-06,9.191454695504225e-07,1.879356214087543e-06,1.6919402029678857e-06,2.5504258752547326e-06,9.233502641570147e-07,4.360785708116921e-07
5.08963426956167e-06,6.351706227002337e-07,1.7493216866204946e-06,1.7900982201363976e-06,1.682263286456127e-06,2.0896246387377806e-06,2.4232978074287972e-06,1.5117961133156753e-06,2.0259031793226757e-06,2.094255690645617e-06,1.7532026987510574e-06,1.4783869810248907e-06,9.563627607201246e-07,1.9284007987705338e-06,1.7082471373616812e-06,2.5199972245893347e-06,9.05891188690506e-07,4.0739434250100445e-07
5.8267301714136205e-06,-3.7726481516305636e-07,1.8061754624122343e-06,1.8095534394042636e-06,1.7101073848668616e-06,2.143923407259198e-06,2.4199941027419616e-06,1.4916517488061457e-06,2.0140419970125898e-06,2.1261939237517724e-06,1.7300711646643573e-06,1.485101039551385e-06,9.792316852617255e-07,1.9614664215112588e-06,1.7012168648510291e-06,2.460993358272603e-06,8.72988248334101e-07,3.713692672219244e-07
5.713412944115972e-06,-1.316106459265819e-06,1.840503895820698e-06,1.8202061353277267e-06,1.728140440095366e-06,2.182494798410451e-06,2.4019325658865742e-06,1.4521202026886702e-06,1.9864327417717243e-06,2.138181917848623e-06,1.7017154295984117e-06,1.4754937797035338e-06,9.847219839588185e-07,1.9757766286864153e-06,1.6769439337774443e-06,2.3682292935661097e-06,8.330332546850478e-07,3.2788614577053174e-07
4.825156379752027e-06,-1.899615212471204e-06,1.846308145534223e-06,1.8246299693968456e-06,1.739458852841528e-06,2.20664036736532e-06,2.3673670759434495e-06,1.3985520451624046e-06,1.9437348225618107e-06,2.134524155702327e-06,1.6654250228631682e-06,1.458738475853694e-06,9.788173413314914e-07,1.9729300726959113e-06,1.6470549373655394e-06,2.2446575563496735e-06,7.968533834197675e-07,2.7941166760387414e-07
3.5199935702658027e-06,-2.1459490453546175e-06,1.8203797376214774e-06,1.827378090741231e-06,1.7488555431222727e-06,2.219102446836841e-06,2.317710354140039e-06,1.333154011523545e-06,1.8894086894645964e-06,2.123122054600815e-06,1.6156949293344242e-06,1.4446197662634506e-06,9.687009843995921e-07,1.9584406432228848e-06,1.624479876740057e-06,2.098471104462821e-06,7.734793069937666e-07,2.2996557288545899e-07
2.2636261351509543e-06,-2.224886177205096e-06,1.766521214902911e-06,1.830511388964059e-06,1.7590283966134976e-06,2.2226485742889855e-06,2.25525760604261e-06,1.2625499449283008e-06,1.8279764639660184e-06,2.114570710690687e-06,1.6015781703153837e-06,1.4339033512106793e-06,9.627416126204725e-07,1.9418481470064417e-06,1.6187680576801869e-06,1.9434132961770894e-06,7.666910423777821e-07,1.8336642539571247e-07
1.457513875189664e-06,-2.4821729339311494e-06,1.7002289469217442e-06,1.83694267259057e-06,1.7728371377451187e-06,2.2192143651883837e-06,2.1874907084761295e-06,1.1941653515060382e-06,1.7634107481603136e-06,2.1221841451628126e-06,1.598338750290779e-06,1.4662069328031266e-06,9.722519310676148e-07,1.9153057122645645e-06,1.6336724742621182e-06,1.789429586931957e-06,7.744320480194619e-07,1.4218995850679346e-07
1.2715704053136543e-06,-3.057020442409779e-06,1.6503082217463455e-06,1.83052224938057e-06,1.7922430677432104e-06,2.2101770247020083e-06,2.120594476168902e-06,1.1316262113927328e-06,1.6983076356892868e-06,2.1465939955969277e-06,1.588599798022864e-06,1.5425306004059207e-06,9.837533479393005e-07,1.8982411974228646e-06,1.6663679149162105e-06,1.6509070187460844e-06,7.902095611267795e-07,1.0668667822973993e-07
1.6006892102123895e-06,-3.8466956155926535e-06,1.6573810418618685e-06,1.8133756420114746e-06,1.8134860928634038e-06,2.1972256027726256e-06,2.0603709861785564e-06,1.0775859097155388e-06,1.6339682402723824e-06,2.170304222839307e-06,1.5926439856498217e-06,1.5950938307235242e-06,9.998620674838331e-07,1.8955967923156095e-06,1.707928169062579e-06,1.536388824132052e-06,8.05353614206921e-07,7.522555047489603e-08
2.127121827212215e-06,-4.597628751722395e-06,1.6935887962566338e-06,1.7859012026112872e-06,1.8313471986636641e-06,2.183124149933574e-06,2.012377860583746e-06,1.0326763180163218e-06,1.571503546300941e-06,2.224795225743446e-06,1.5930524531985359e-06,1.6193522745845963e-06,1.0276913372272546e-06,1.9026367150345694e-06,1.7462722443829546e-06,1.4463521799547214e-06,8.119565897857806e-07,4.549937648146723e-08
2.4455104586812205e-06,-4.807410201786647e-06,1.7127448751985962e-06,1.7430517048468343e-06,1.8401638278650683e-06,2.1719705731485717e-06,1.979534084200571e-06,9.947866455174816e-07,1.5128955725601848e-06,2.281006739005707e-06,1.551452116420753e-06,1.6059649732936183e-06,1.0500425141185179e-06,1.8998424344508892e-06,1.770203113116349e-06,1.381527141118501e-06,8.05000574764108e-07,1.57006875745791e-08
2.256206945132329e-06,-4.094094618954866e-06,1.7053025612149485e-06,1.6859647587721314e-06,1.83442245299259e-06,2.167705581464431e-06,1.9629946205064334e-06,9.596429150273685e-07,1.460222942006206e-06,2.3230934312259704e-06,1.4675506268732283e-06,1.5071821232897e-06,1.0666555089861868e-06,1.8889405113405239e-06,1.7713522264798056e-06,1.3313098136586164e-06,7.82016180188912e-07,-1.5068687696777234e-08
1.4930203173313555e-06,-3.309001980763604e-06,1.7761365750284714e-06,1.6262893139344909e-06,1.809878738156333e-06,2.1713641064766416e-06,1.959273611451649e-06,9.226737065330713e-07,1.4132347571016368e-06,2.317531881728402e-06,1.388548423780597e-06,1.3803527328345468e-06,1.0477927123662833e-06,1.8284275808116035e-06,1.7444191864195135e-06,1.275806152658856e-06,7.41829721967014e-07,-4.7704430076342987e-08
3.5454552768120553e-07,-1.3290693139595887e-06,1.850683316190425e-06,1.5533887055165686e-06,1.7629900437959593e-06,2.17961269182753e-06,1.9598293500865746e-06,8.734743835356381e-07,1.3680381730323077e-06,2.255176357383405e-06,1.3347182073001472e-06,1.2765446356860567e-06,9.654139128040477e-07,1.7140607313079983e-06,1.688197775788909e-06,1.1767472878107323e-06,6.848397597969361e-07,-8.292736111227017e-08
-8.52264404949512e-07,9.577711198101473e-07,1.8183176141175188e-06,1.4577994409743326e-06,1.6909514329581512e-06,2.1854629482717328e-06,1.9505585625477045e-06,8.104346123599305e-07,1.3184285457494463e-06,2.17134486555382e-06,1.2790427933252489e-06,1.196980630711742e-06,8.643691338688607e-07,1.62591086993135e-06,1.6065528425526507e-06,1.0252770537919515e-06,6.139164452196543e-07,-1.214301118722265e-07
-1.8055662131260697e-06,3.097883037464235e-06,1.7078554652446923e-06,1.3707650141533759e-06,1.593196412694688e-06,2.1808850796052494e-06,1.91953802963867e-06,7.278649717386422e-07,1.2580225856866222e-06,2.1127077505300017e-06,1.2243702071553553e-06,1.1218666215839874e-06,7.929258485327291e-07,1.5391917461168024e-06,1.5074445574137238e-06,7.973745628083463e-07,5.341355746798151e-07,-1.6376541365399623e-07
-2.2566880182506556e-06,4.5806830001156016e-06,1.6213716734030717e-06,1.2799424953530077e-06,1.4723981981527123e-06,2.1582703293425507e-06,1.8582804825008552e-06,6.223839557599557e-07,1.181878187445232e-06,2.067997530391516e-06,1.1695802074540925e-06,1.0652445580466754e-06,7.453773024873005e-07,1.4437703348966278e-06,1.4013936678703872e-06,6.267637135107897e-07,4.523575476621536e-07,-2.1013828038941758e-07
-2.1905824509155976e-06,5.289634524526708e-06,1.5569828758873664e-06,1.1790473351665296e-06,1.3331619210605214e-06,2.111977502559566e-06,1.7634591377987631e-06,4.98788616291859e-07,1.0877079481611546e-06,2.0085161538916495e-06,1.1310950018014508e-06,1.0184808542233203e-06,6.999762756395901e-07,1.3924269220728548e-06,1.3005196083423822e-06,4.7493008752791855e-07,3.771898395000803e-07,-2.601368603768911e-07
-1.7410120111083673e-06,5.216316067415858e-06,1.4827751476799843e-06,1.076425337625809e-06,1.18232060172949e-06,2.0398474934053618e-06,1.6346235125214281e-06,3.646795314674731e-07,9.769973692845798e-07,1.98294796718333e-06,1.0812071594986546e-06,9.051280400995691e-07,7.11295744877435e-07,1.338624419939332e-06,1.21585968518002e-06,2.5074492106246264e-07,3.171944557627653e-07,-3.127050267241771e-07
-1.1079634315606285e-06,4.821199985700182e-06,1.4245508875886148e-06,9.658487186495123e-07,1.0279792870273105e-06,1.9436611172332623e-06,1.4748587674048103e-06,2.2834608071260667e-07,8.543000740204575e-07,1.9235867258276754e-06,1.022374278706522e-06,8.111104519708351e-07,6.295983525059287e-07,1.251728969872518e-06,1.152588641664215e-06,-2.0014846448783554e-08,2.7665164326958577e-07,-3.670007036783508e-07
-5.949953945947271e-07,4.4529964196589436e-06,1.3678793143512347e-06,8.1955458397349e-07,8.767492601950022e-07,1.8275815944361134e-06,1.2936328329134908e-06,9.984921174055305e-08,7.252935621024772e-07,1.8264639661685252e-06,9.499687153169748e-07,7.220679421579507e-07,5.039024188073508e-07,1.1291115143721884e-06,1.1074589572236951e-06,-2.40646034211967e-07,2.5237282447538597e-07,-4.2259149472911685e-07
-4.3386633982822264e-07,4.29090755844722e-06,1.3328776216896983e-06,6.757761575984893e-07,7.494505134021839e-07,1.69715593143636e-06,1.1168717113641668e-06,3.946531564458939e-09,5.956478183373589e-07,1.7107868133804213e-06,8.989067028568129e-07,6.79079011750673e-07,4.0831734463073477e-07,1.0622560511122076e-06,1.0710572068002547e-06,-4.3392301711829614e-07,2.3450010320810265e-07,-4.779907478247559e-07
-5.330850183017852e-07,4.162132409112376e-06,1.268922327872999e-06,5.466309752734012e-07,6.449065249289476e-07,1.5596419494064107e-06,9.581916150770414e-07,-3.9949525573286094e-08,4.7089538253437847e-07,1.6429311901495587e-06,8.53394193116468e-07,6.452387018107055e-07,3.668739720761083e-07,1.0099822821841377e-06,1.032556891247929e-06,-5.300470564882101e-07,2.1108058361696922e-07,-5.306773623899516e-07
-5.554396684673476e-07,4.002308714522827e-06,1.1958821862155653e-06,4.166578342442968e-07,5.455361299028755e-07,1.423386599456909e-06,8.51658046664777e-07,-1.8898699565610257e-08,3.5617326295155996e-07,1.5655710768563545e-06,8.066350819957562e-07,5.864594595896737e-07,3.220088325755663e-07,9.416559631651514e-07,9.845479320561715e-07,-5.866605108583344e-07,1.7119721255747706e-07,-5.762785421469759e-07
-1.7115931125044122e-07,3.712351679596313e-06,1.1519373031617107e-06,3.3078336876856095e-07,4.6185462668962725e-07,1.2969782541256642e-06,8.17183541559273e-07,1.2227371014283454e-08,2.5644762302715064e-07,1.4834327901691334e-06,7.894279529268843e-07,5.593911439223213e-07,2.8421999306997547e-07,9.093230047330874e-07,9.267752001372945e-07,-6.187924104899989e-07,1.1435560667163563e-07,-6.094702697728736e-07
7.189517912353584e-07,2.966288576611489e-06,1.122745865291273e-06,3.113744197314378e-07,4.0007404201958897e-07,1.188387882701419e-06,7.878605136221848e-07,9.04075683392053e-09,1.756473296664611e-07,1.4093099496711766e-06,7.78862171293737e-07,5.316955708504942e-07,2.501064221873179e-07,8.640682791054637e-07,8.6624018513285e-07,-6.418521594642462e-07,4.7587981779117845e-08,-6.259525565725922e-07
