0,1,2,3,4,5,6,7,8,9,10,11,12,13,14,15,16,17
-1.72537792312818e-07,-3.2826625917134597e-07,-1.7705550839146208e-07,-2.603775849729752e-07,2.811170275953378e-07,5.244313927492577e-07,3.088930221867248e-07,3.7647376007932444e-08,1.90567801292794e-07,-2.512119595107471e-07,-1.9955507874439323e-07,8.971636266769121e-08,-2.6505201254056955e-07,-2.2703409545699272e-08,4.386084565451594e-07,3.6074923209284335e-07,-2.6786457818243793e-07,-1.7809085953963074e-07
-1.7041832621668278e-07,-2.9322810069701905e-07,-1.4851273729845007e-07,-2.119154641598956e-07,2.459917739672606e-07,3.9447479897455164e-07,1.565018122240325e-07,7.849479585948448e-08,1.6457877841560267e-07,-2.2456449584190604e-07,-1.7398653889506422e-07,-5.26679156725266e-08,-2.5741400791661994e-07,-8.873132389334035e-08,2.5242133906756085e-07,2.2464815148023995e-07,-2.5172952320132746e-07,-1.713259788344334e-07
-1.5419665658774307e-07,-2.427919642642981e-07,-1.1682713497171022e-07,-1.5299991936744525e-07,1.883864918296715e-07,2.4905205940087806e-07,1.762530239233204e-08,1.1606187384588502e-07,1.2457905741237475e-07,-1.9080053819931133e-07,-1.4769005297078938e-07,-1.233014647718113e-07,-2.3654583484302395e-07,-1.2568538901093028e-07,1.2647568660942864e-07,1.0955928114141561e-07,-2.2765741363359785e-07,-1.6038074066059697e-07
-1.2635770201842816e-07,-1.801787570104317e-07,-8.543539009361255e-08,-8.934590594066137e-08,7.266315911325384e-08,1.0480942256407822e-07,-9.346886635708841e-08,1.456657631285205e-07,7.187817710362107e-08,-1.5029409081537532e-07,-1.1995137969667368e-07,-1.7783671547822274e-07,-2.0358676566800338e-07,-1.3166850667995585e-07,4.798714908611517e-08,4.1177674197043086e-08,-1.9508296267039012e-07,-1.4391319803838777e-07
-9.070586676776833e-08,-1.1029065006430937e-07,-5.6659451876067966e-08,-2.4799749286085907e-08,-3.288080652016039e-08,-1.3223275661551661e-08,-1.3374675414112159e-07,1.6243689802305612e-07,1.328321787488026e-08,-1.0509319758240712e-07,-9.028371019474425e-08,-2.569275926676907e-07,-1.620272070427378e-07,-1.1144511759939321e-07,8.253899457081365e-09,5.587413299320663e-09,-1.5625362960028126e-07,-1.21790256594286e-07
-5.227361140198177e-08,-3.9981023801754255e-08,-3.0860672725516385e-08,3.292185322890534e-08,-1.4639575875884496e-07,-8.605851819279898e-08,-1.1229157268440897e-07,1.6232625292439417e-07,-3.980848744101046e-08,-5.892369291983956e-08,-5.8309844092971025e-08,-1.9996612771527087e-07,-1.1896055880739357e-07,-7.410909906449503e-08,-7.1448883399713835e-09,-8.550958628223573e-09,-1.1431793709554104e-07,-9.464709631632431e-08
-1.4690338610427677e-08,2.3151449435965774e-08,-7.042681393113417e-09,7.841665195957092e-08,-1.9362142433331587e-07,-1.518041003436056e-07,-1.1065821434336534e-07,1.439496266250932e-07,-7.659073614768718e-08,-1.639566947128053e-08,-2.5598363861880623e-08,-1.0472698046323053e-07,-7.694250755942539e-08,-2.9726403786752647e-08,-1.1462011676331205e-08,-1.2119818340226725e-08,-7.122355226803134e-08,-6.317333963575873e-08
2.0077659488882837e-08,7.339538839660298e-08,1.565590816300117e-08,1.1034772467822974e-07,-1.696640608411834e-07,-1.077874640434979e-07,-1.3801706910929845e-07,1.0901476189022454e-07,-9.120545636446744e-08,2.0818845486140097e-08,6.7065581436458755e-09,-2.75914697990222e-08,-3.5341384729695023e-08,1.3212643868550922e-08,-1.352401095761333e-08,-2.0562827174118956e-08,-2.736808251950806e-08,-2.81107494776545e-08
5.020791931067193e-08,1.0899330200173172e-07,3.8933287433344495e-08,1.2445413814923266e-07,-1.603651555997691e-07,-7.059562029226163e-08,-1.5395499259241826e-07,6.074209384352318e-08,-8.480841174390863e-08,5.247605999086878e-08,3.806809560292244e-08,3.3915434830128164e-08,6.8253871703717546e-09,4.853360264595142e-08,-1.9014293345839123e-08,-3.419581951940844e-08,1.7243779113298397e-08,9.142176448425853e-09
7.661266933874954e-08,1.319825628607918e-07,6.238636774094442e-08,1.2270994848624587e-07,-1.440095029007042e-07,-4.900988779451558e-08,-1.3747425949763224e-07,2.4624617274666935e-09,-6.526153491091972e-08,7.898714788919059e-08,6.700915209044987e-08,8.280964206768186e-08,5.1734819089283524e-08,7.24042348877721e-08,-3.124939424323106e-08,-5.1176824819511397e-08,6.207522172770116e-08,4.6379992076226235e-08
9.888501582351437e-08,1.4605850934858584e-07,8.28111582885873e-08,1.0981600574079445e-07,-7.87913033368759e-08,-4.158937583793851e-08,-6.768467136530168e-08,-6.156002867431131e-08,-4.32034648719708e-08,1.0153804201328289e-07,9.20052304354735e-08,1.120782047766735e-07,9.901646710601146e-08,8.369655172314286e-08,-5.159549882008315e-08,-6.958201807017354e-08,1.063273439760688e-07,8.144080971193584e-08
1.1464730326596342e-07,1.5403896648248577e-07,9.687321684041551e-08,8.894976178670699e-08,6.268063249379394e-10,-5.568918542845626e-08,5.246816793664645e-09,-1.2439095873194991e-07,-2.7296534207361355e-08,1.210854351928119e-07,1.1121381906847834e-07,1.2313697931223977e-07,1.481161535350831e-07,8.420245503645681e-08,-7.986260590466068e-08,-8.659506397417771e-08,1.4955984949577945e-07,1.1323683845627626e-07
1.2169602934623888e-07,1.563772916759488e-07,1.0152899439005247e-07,6.422847705359571e-08,4.011020566025952e-08,-9.423350806488843e-08,6.035306542580313e-08,-1.7696749302484103e-07,-2.1570271709086092e-08,1.3844093724341363e-07,1.2372445974365337e-07,1.2212984495686518e-07,1.9820206925583543e-07,7.810445713264135e-08,-1.1394029660919852e-07,-1.0013274675971782e-07,1.9138394502216196e-07,1.4184104719004528e-07
1.1879833485422592e-07,1.5134651492056064e-07,9.520413766406931e-08,3.609749321657645e-08,4.886316848070964e-08,-1.4643384872902035e-07,1.2091239873118929e-07,-2.115463884855458e-07,-2.595190599201245e-08,1.5294260900644812e-07,1.2903284766285232e-07,1.18120100283171e-07,2.451369897716013e-07,7.037127432002882e-08,-1.5055237854502158e-07,-1.1092467887647361e-07,2.3043433517368208e-07,1.6766209628492488e-07
1.0374685695570583e-07,1.3678418689251547e-07,7.794691949177333e-08,3.986126430712734e-09,3.810329116946865e-08,-2.0231841299162765e-07,1.4081260093809e-07,-2.2506163774627302e-07,-3.7523706350121365e-08,1.6347876536632973e-07,1.2746395368190602e-07,1.2097400765897039e-07,2.86669401823359e-07,6.559862021062218e-08,-1.8494703634973257e-07,-1.2003527195327857e-07,2.6417592324055805e-07,1.9075683813055558e-07
7.650850553189626e-08,1.1260858299397015e-07,5.1053586737744e-08,-3.248955700350714e-08,9.866088149954602e-09,-2.54024476308601e-07,1.369513813987999e-07,-2.1927539721265807e-07,-5.166652236072822e-08,1.6751580215238152e-07,1.2015085202713403e-07,1.4013769001435347e-07,3.201689913559232e-07,6.794540975540007e-08,-2.104541159736625e-07,-1.2784572409555254e-07,2.9029728142186527e-07,2.1097242079868312e-07
4.061553619561655e-08,8.263904758314223e-08,1.6281633377422243e-08,-7.164663001660812e-08,-3.1388008592781415e-08,-2.9490002234119366e-07,1.3138795940213003e-07,-1.9798279713352247e-07,-6.269659200636744e-08,1.6300318406926487e-07,1.0887405715313267e-07,1.836424129721776e-07,3.4377424580614424e-07,8.198237866550515e-08,-2.181350834901396e-07,-1.325278123567347e-07,3.083909606233553e-07,2.285079413450554e-07
1.283468490750034e-09,5.432589281916952e-08,-2.3662511226314013e-08,-1.1197527364976179e-07,-8.062737593361944e-08,-3.185356233943593e-07,1.2617725815904117e-07,-1.6447053224297914e-07,-6.460254535809176e-08,1.4910766212848784e-07,9.625320119455248e-08,2.5649647481479077e-07,3.5842441861387076e-07,1.1256662766373984e-07,-1.9817037783885047e-07,-1.2845580760841764e-07,3.201140743126203e-07,2.4408965999431434e-07
-3.474393472933532e-08,3.614552972879813e-08,-6.425035266930597e-08,-1.5144553637223745e-07,-1.3351993050810166e-07,-3.199241840618843e-07,1.3870656883026672e-07,-1.2153851202394124e-07,-5.298806219239513e-08,1.2654580286702038e-07,8.455408559584847e-08,3.5811112051202094e-07,3.6654590204060016e-07,1.627457255783594e-07,-1.434605119769068e-07,-1.0894757271924883e-07,3.2778138932704344e-07,2.5860998807354524e-07
-6.200314941994383e-08,3.3983495554127316e-08,-1.032427837384537e-07,-1.8764193528953818e-07,-1.861734385679858e-07,-2.980058531355674e-07,1.6884084697259978e-07,-7.294357516612779e-08,-2.6936571268602092e-08,9.734827945155254e-08,7.500753835087228e-08,4.800224661551857e-07,3.713898929334067e-07,2.312241208343582e-07,-5.3903280333187464e-08,-6.844921838699165e-08,3.3306262374875e-07,2.7278423060256805e-07
-7.943425060077249e-08,4.8845486832401235e-08,-1.3864507156204347e-07,-2.1899374029094093e-07,-2.3513221090170208e-07,-2.5813415564177053e-07,2.1080579391484546e-07,-2.355677340462253e-08,1.1224968433021916e-08,6.349493358810694e-08,6.784088957597015e-08,6.062490753220168e-07,3.7557571900308216e-07,3.1161804266380413e-07,6.114643012567005e-08,-6.5054148444160495e-09,3.3701646592999265e-07,2.872274855680595e-07
-8.875116033205197e-08,7.765430108276251e-08,-1.6780943299977794e-07,-2.4316880221760856e-07,-2.7667075101516943e-07,-2.072047289109039e-07,2.5926051958265145e-07,2.2359055037526957e-08,5.609504038007553e-08,2.7598402554097544e-08,6.375216955338013e-08,7.174940645348613e-07,3.8177061422910707e-07,3.944088420710836e-07,1.8488409078658975e-07,7.236050445808052e-08,3.4080923831085234e-07,3.0260831877970973e-07
-9.172668144894998e-08,1.1655358526297783e-07,-1.8808903304593912e-07,-2.57750451791733e-07,-3.0699266866908537e-07,-1.5416799606909215e-07,3.07587460582378e-07,6.265497955800244e-08,1.0330194070705893e-07,-7.564955633970992e-09,6.362805954243126e-08,7.973885033548392e-07,3.9096529972439047e-07,4.702245874702245e-07,2.9889157174368257e-07,1.6013247066381327e-07,3.456913079547359e-07,3.192749058690311e-07
-8.917968559106518e-08,1.639760214117397e-07,-1.9677052910538392e-07,-2.6069747607890837e-07,-3.2415607633992885e-07,-1.04721509649073e-07,3.5141653767874496e-07,9.689662684586501e-08,1.5120659536741248e-07,-4.0603892026152396e-08,6.800743166855848e-08,8.379786774780719e-07,4.022856045299654e-07,5.324627655722559e-07,3.9132529246258515e-07,2.4721139337070484e-07,3.5211419765408543e-07,3.365241564416233e-07
-8.043063763581059e-08,2.2110739878987832e-07,-1.9380546662620328e-07,-2.5094483174960213e-07,-3.298434350420228e-07,-6.0450304932992e-08,3.9003664656126343e-07,1.2503661074582881e-07,2.0037149668536884e-07,-7.167257324746647e-08,7.569166399189224e-08,8.426862094168092e-07,4.129097638602656e-07,5.788352516184409e-07,4.5975123917213644e-07,3.255813771624411e-07,3.593183038034457e-07,3.525477830874275e-07
-6.567807848306454e-08,2.897149001103434e-07,-1.8241864519917649e-07,-2.2937648430352686e-07,-3.28773945402153e-07,-1.901624596328886e-08,4.2660212543706863e-07,1.4714462297700895e-07,2.5296797726448523e-07,-1.0219544882003656e-07,8.363722302505093e-08,8.251996878966411e-07,4.1805764298143796e-07,6.118777038983793e-07,5.105961351789317e-07,3.9042793549387337e-07,3.6625679326984253e-07,3.656261487919788e-07
-4.686763919352051e-08,3.692499575519803e-07,-1.6845806008167713e-07,-1.9868631655024998e-07,-3.2579574793752957e-07,2.6196492467119973e-08,4.671496447349432e-07,1.6425171529470963e-07,3.109612376396771e-07,-1.339829904166148e-07,8.841678032056516e-08,8.038094359138407e-07,4.140190126394993e-07,6.376909353475838e-07,5.536985190785836e-07,4.408000908645191e-07,3.7301633241055996e-07,3.756596046617502e-07
-2.77274265357021e-08,4.551459463196704e-07,-1.5750460228203174e-07,-1.626101363598914e-07,-3.23167260024148e-07,7.958795752392332e-08,5.179116291751031e-07,1.785410823988853e-07,3.7457196255315266e-07,-1.6756719453056778e-07,8.780276132155866e-08,7.940738544295773e-07,3.991638470203407e-07,6.624418528325264e-07,5.945826370951654e-07,4.780489802354239e-07,3.8126374022138903e-07,3.845837895094895e-07
-1.3429746192905944e-08,5.387925500882786e-07,-1.5306950418323396e-07,-1.2540986316172785e-07,-3.20016486113072e-07,1.437317627856918e-07,5.8149448582966e-07,1.9211449051840357e-07,4.408156814900999e-07,-2.016550043064938e-07,8.097572635532406e-08,8.007647503883936e-07,3.745474035576634e-07,6.880708804862093e-07,6.304917738050479e-07,5.043624384514906e-07,3.934669157860906e-07,3.9541323028096356e-07
-1.0143691552833423e-08,6.086644600504066e-07,-1.5594744392571586e-07,-9.062326726963479e-08,-3.133517198262291e-07,2.1423891868750703e-07,6.543005319979922e-07,2.0582747999275168e-07,5.034587503512626e-07,-2.3421563298125064e-07,6.793787406146577e-08,8.168488759224359e-07,3.439609310615182e-07,7.105197784817987e-07,6.511757235762218e-07,5.211464543857521e-07,4.11997659681434e-07,4.110646661925027e-07
-2.3429617518745085e-08,6.523500780546335e-07,-1.6445102023118268e-07,-6.123490695130564e-08,-2.9895088695583814e-07,2.810882567361095e-07,7.271024936673951e-07,2.1988569903677262e-07,5.540519251131163e-07,-2.6278282075134606e-07,4.981297211403139e-08,8.271260417382907e-07,3.1342901386466874e-07,7.218129945852461e-07,6.438615892549544e-07,5.285524644202111e-07,4.3888361409087563e-07,4.339530114514202e-07
-5.7328273457265476e-08,6.597158343504053e-07,-1.759025143896614e-07,-3.957995927708488e-08,-2.722385919686224e-07,3.331314053366847e-07,7.884152258709724e-07,2.354593390929552e-07,5.84954959909042e-07,-2.8496370351165456e-07,2.9577774556196644e-08,8.146778029312803e-07,2.906178432277432e-07,7.147639403600637e-07,5.993231252003947e-07,5.269384523849103e-07,4.7551751284430824e-07,4.658955903462852e-07
-1.1260576854795811e-07,6.269776270500954e-07,-1.8798883301560402e-07,-2.7058761492497365e-08,-2.308544800008506e-07,3.610998478585896e-07,8.283420977893211e-07,2.546858073787053e-07,5.925438619417029e-07,-2.991719281559691e-07,1.2403652827462745e-08,7.673492200012895e-07,2.825078825127783e-07,6.867244071682316e-07,5.170840828451005e-07,5.18086918525665e-07,5.214646374317225e-07,5.072859215027546e-07
-1.8488626105540787e-07,5.597566806496095e-07,-2.001878168784122e-07,-2.4634487441258347e-08,-1.785068258940284e-07,3.6062207995941424e-07,8.409113784538278e-07,2.782196643541158e-07,5.783918339802487e-07,-3.050573973491291e-07,3.777675751510059e-09,6.823859510198861e-07,2.922225305555449e-07,6.40478461978809e-07,4.065832509204819e-07,5.045037315487884e-07,5.732819757150874e-07,5.558791001470048e-07
-2.6591753226801767e-07,4.7220928491080295e-07,-2.1452276580039485e-07,-3.309250485608407e-08,-1.2620110472587128e-07,3.3264638965008914e-07,8.248191963801951e-07,3.030345468165136e-07,5.482209577116846e-07,-3.045917804341339e-07,6.6238111111539065e-09,5.678358101397674e-07,3.172704886884203e-07,5.829168101722975e-07,2.8447313948966155e-07,4.887613936689949e-07,6.252726668523063e-07,6.067878842519265e-07
-3.4630577809132754e-07,3.8184129641294283e-07,-2.3374701542822802e-07,-5.2942479384631774e-08,-8.81119506983965e-08,2.837127527849079e-07,7.83431844929035e-07,3.234162670922909e-07,5.094760767867392e-07,-3.016372599846559e-07,2.0012990176913365e-08,4.395302066578713e-07,3.513992819337219e-07,5.226988619154202e-07,1.6957712074555961e-07,4.7323075328324145e-07,6.72264010801679e-07,6.54292103321164e-07
-4.177723049264075e-07,3.034050744468585e-07,-2.5959586977494554e-07,-8.378569600883134e-08,-7.478069916725722e-08,2.2301042368535409e-07,7.241928413424599e-07,3.3438766523162086e-07,4.689758962852332e-07,-3.0014010830409246e-07,4.035063807014605e-08,3.16659703503316e-07,3.880899258581185e-07,4.680883927274264e-07,7.735255205635748e-08,4.602142404338691e-07,7.120138323587983e-07,6.940966219230584e-07
-4.746528218826097e-07,2.4532933335443014e-07,-2.915419432660273e-07,-1.2394133072023115e-07,-8.889785750154787e-08,1.600525616798112e-07,6.569571642447213e-07,3.3416905087252226e-07,4.316571012054011e-07,-3.029119389467898e-07,6.324771432664979e-08,2.153004469947457e-07,4.2267762454307177e-07,4.249828084923584e-07,1.6077664868876358e-08,4.51457259259409e-07,7.450983312768588e-07,7.243360169146954e-07
-5.148194303165792e-07,2.091500946951092e-07,-3.2699608153936424e-07,-1.7039498408904297e-07,-1.2595915048607826e-07,1.0306932953003344e-07,5.911705161353338e-07,3.2388449601493384e-07,4.0007077899158105e-07,-3.1106959158416743e-07,8.475046406418448e-08,1.4394119534548494e-07,4.5228832005208514e-07,3.952976852424834e-07,-1.4476150975298212e-08,4.471249981600315e-07,7.728305835162855e-07,7.450861854975377e-07
-5.395438356029959e-07,1.9074834379079537e-07,-3.627500480884948e-07,-2.1950204246737925e-07,-1.7781774923826817e-07,5.58441729669925e-08,5.331331886177728e-07,3.0596071291397466e-07,3.7448095409552654e-07,-3.249872752322507e-07,1.0138274424679157e-07,1.0245286454767349e-07,4.7491014458280054e-07,3.766988097090209e-07,-2.0693795682190076e-08,4.4603566846178314e-07,7.956183216311325e-07,7.573571974671004e-07
-5.528962484265361e-07,1.825988715961584e-07,-3.960278925126744e-07,-2.6789529596746053e-07,-2.3583885849848203e-07,1.8570702264861954e-08,4.850531185818587e-07,2.8347053378148706e-07,3.536290093310791e-07,-3.4392118877994105e-07,1.1053290354122482e-07,8.423752116559343e-08,4.894136367096498e-07,3.6456462869180816e-07,-1.2943694735962167e-08,4.4508249252715524e-07,8.131793438658556e-07,7.628982043064823e-07
-5.601499196462769e-07,1.7658119045844063e-07,-4.248674932746357e-07,-3.1287996536576223e-07,-2.9231559834537237e-07,-1.028493182077207e-08,4.4621027644070486e-07,2.605266503814854e-07,3.3604233800583314e-07,-3.657990162039794e-07,1.1151116538579898e-07,8.101995104397102e-08,4.963504984594015e-07,3.55041469587271e-07,-5.978258947599619e-10,4.4153309925428255e-07,8.256866549940605e-07,7.640427902597133e-07
-5.656972192267482e-07,1.6644511290166246e-07,-4.481080892988124e-07,-3.526045097750438e-07,-3.4120689096178804e-07,-3.2587148528639595e-08,4.1481855413830534e-07,2.4192407784451456e-07,3.211103885839275e-07,-3.8766546659834243e-07,1.0579371656556819e-07,8.469968706764266e-08,4.98051224537697e-07,3.468444965371099e-07,1.079247198520612e-08,4.344594890953486e-07,8.341157457672842e-07,7.636119311870521e-07
-5.722462378140891e-07,1.4889558312060133e-07,-4.6576580281053857e-07,-3.862440210000513e-07,-3.7932953044906636e-07,-5.041304606974498e-08,3.889874324774212e-07,2.3121887319845724e-07,3.0899030433652006e-07,-4.066283957216888e-07,9.609928887991747e-08,8.9779484302634e-08,4.973682862971733e-07,3.4084958354469466e-07,1.973677640442731e-08,4.232798072952763e-07,8.394556703118764e-07,7.633361290550388e-07
-5.813562041982339e-07,1.231856887438553e-07,-4.79125940792943e-07,-4.141761165697852e-07,-4.073385084681037e-07,-6.237693862983307e-08,3.666976987770677e-07,2.2886219289225912e-07,2.997104116916614e-07,-4.213379689702601e-07,8.456766872306029e-08,9.313909762369175e-08,4.960910338003533e-07,3.3839307071482563e-07,2.7545118834186347e-08,4.0756406863404155e-07,8.419952950264748e-07,7.634896410642488e-07
-5.937696608187105e-07,9.022656910263847e-08,-4.903516489490681e-07,-4.3777514890154706e-07,-4.289345414342763e-07,-7.091224251728458e-08,3.4569269531882077e-07,2.3248790045672317e-07,2.9253859822648686e-07,-4.321573184336047e-07,7.223369719497364e-08,9.291673878118586e-08,4.945388526975008e-07,3.403284966681e-07,3.72829525155981e-08,3.8763392542511465e-07,8.417090627184545e-07,7.632997986046627e-07
-6.092896180176027e-07,5.2257212496564334e-08,-5.014454535463288e-07,-4.5860671944718513e-07,-4.4821019455324087e-07,-7.810135785470197e-08,3.2463601892025813e-07,2.3920390036946824e-07,2.86346421391053e-07,-4.407619804617964e-07,5.962772387765307e-08,8.916091914497168e-08,4.924844739719885e-07,3.474003731756375e-07,5.3533256585105726e-08,3.642717736394799e-07,8.392199025136221e-07,7.617556232074083e-07
-6.263136700745793e-07,1.3008691566676991e-08,-5.130949000379618e-07,-4.774321969653089e-07,-4.6714655177197845e-07,-8.229024646428366e-08,3.03768763967586e-07,2.475348930401186e-07,2.794894675149226e-07,-4.4861755571875074e-07,4.758688601102532e-08,8.329847084400996e-08,4.900477296806484e-07,3.6063398138221743e-07,8.021788093581825e-08,3.397475377594914e-07,8.359587628309147e-07,7.585915507015175e-07
-6.418292481931307e-07,-2.2529870070190334e-08,-5.244325984221992e-07,-4.937222573707372e-07,-4.852150488644607e-07,-8.055039317717914e-08,2.8454234168079823e-07,2.5726004791834235e-07,2.729956629363497e-07,-4.56659142215055e-07,3.728446978424439e-08,7.721155483062667e-08,4.874545220960816e-07,3.806525619577734e-07,1.1919245268842465e-07,3.172173327882934e-07,8.331201400892158e-07,7.539703722418529e-07
-6.524930138616189e-07,-4.918771947545098e-08,-5.338076050809526e-07,-5.059425703995239e-07,-5.008312066892883e-07,-6.972830172037284e-08,2.685963277597812e-07,2.679812771264167e-07,2.6781031790325984e-07,-4.6541967792085027e-07,2.931198898289219e-08,7.155620040073035e-08,4.84207349091714e-07,4.0638628477928306e-07,1.680998705050098e-07,2.9893722155791777e-07,8.306399579045621e-07,7.478703834675278e-07
-6.559093492777242e-07,-6.294245406997392e-08,-5.396979970158778e-07,-5.121950666464983e-07,-5.127081277428321e-07,-4.9855125146854756e-08,2.5645053311647267e-07,2.7864368424970265e-07,2.656115148424812e-07,-4.7522515585528003e-07,2.3173925731722182e-08,6.526396192858296e-08,4.791240174553331e-07,4.3468481863522763e-07,2.2036197102005504e-07,2.8555433390823733e-07,8.276031574321894e-07,7.398872374866966e-07
-6.511042248795664e-07,-6.160048309857448e-08,-5.409920903588219e-07,-5.106301033071455e-07,-5.19799493886116e-07,-1.6638050604347886e-08,2.479582156477488e-07,2.8875982119275694e-07,2.6766627537093113e-07,-4.859140421598537e-07,1.7829256559415177e-08,5.604243937020451e-08,4.7162005313340877e-07,4.614820869578193e-07,2.675311044027713e-07,2.761787923812829e-07,8.237984798649701e-07,7.299336768498114e-07
-6.377171797446452e-07,-4.457776765672008e-08,-5.369234173430351e-07,-4.995421282979883e-07,-5.205672582020255e-07,3.7290433385019535e-08,2.437963210648136e-07,2.996612394171814e-07,2.7627871989130884e-07,-4.96213229028633e-07,1.275837270183272e-08,4.1752815402884346e-08,4.6280838864545205e-07,4.835582293050689e-07,3.02764117166638e-07,2.692232107205608e-07,8.2062326023615e-07,7.186156251023249e-07
-6.156579396653275e-07,-1.2283446718355879e-08,-5.270856218533794e-07,-4.775735698201319e-07,-5.131900819728648e-07,9.958641646256875e-08,2.4507729988023835e-07,3.1390914931609355e-07,2.9506530506720505e-07,-5.04257252612881e-07,8.016748928270604e-09,2.2050335040554362e-08,4.5487567951105876e-07,4.99434186934583e-07,3.2371835741303916e-07,2.6242455934690855e-07,8.202048281711084e-07,7.065589522355514e-07
-5.851348115709494e-07,3.423624241118392e-08,-5.118498852090735e-07,-4.442756890152191e-07,-4.969404510434211e-07,1.7501118117276796e-07,2.5275581412705945e-07,3.333441431026873e-07,3.2522085983480554e-07,-5.08532774121214e-07,3.579579614150097e-09,-8.465315422073627e-10,4.49172681756663e-07,5.093902892221356e-07,3.338570451438489e-07,2.5309060194353653e-07,8.236866690043306e-07,6.94365988620882e-07
-5.472188193661021e-07,9.31042987642391e-08,-4.926382357005067e-07,-4.006603869830013e-07,-4.7312384932139636e-07,2.654798152720811e-07,2.670235514426822e-07,3.58048980157662e-07,3.6765348811906947e-07,-5.083158125872412e-07,-1.5212852864577605e-09,-2.1216107709837843e-08,4.4519022375492854e-07,5.155763576257383e-07,3.4203202626551486e-07,2.3896219543418955e-07,8.305723289704346e-07,6.818898586171131e-07
-5.042861682761502e-07,1.610751500808765e-07,-4.7167812183551093e-07,-3.4922159595323803e-07,-4.441946916405755e-07,3.6452664318255894e-07,2.8722454185010033e-07,3.8729916206993227e-07,4.210457270881372e-07,-5.037567910872277e-07,-8.852393078418074e-09,-2.9412607974181305e-08,4.417740843464112e-07,5.224928827063627e-07,3.617186579183137e-07,2.2032557969334085e-07,8.396462625224513e-07,6.688163076355492e-07
-4.596458544460299e-07,2.3312972830345214e-07,-4.5119961726771583e-07,-2.9343417913956193e-07,-4.118893741107412e-07,4.7218063275280376e-07,3.1260903912738206e-07,4.209562367866579e-07,4.822579732506966e-07,-4.953675097637634e-07,-1.9509855169396793e-08,-1.3651711800973181e-08,4.3933396972549214e-07,5.365189841251844e-07,4.0641974485155947e-07,2.012827089621075e-07,8.500986022726149e-07,6.558991035508142e-07
-4.1707980233231124e-07,3.0254335855328035e-07,-4.3247030141267333e-07,-2.3720413440089966e-07,-3.765260828887797e-07,5.771625296230344e-07,3.4247305903462226e-07,4.593281970133968e-07,5.469679723520111e-07,-4.836052237190708e-07,-3.336913014637029e-08,3.594147285053382e-08,4.406275167044098e-07,5.632075668280062e-07,4.834408281613891e-07,1.8848080646088843e-07,8.615833650746992e-07,6.444943067757159e-07
-3.801275031940931e-07,3.61616827729957e-07,-4.175284183366525e-07,-1.8454225902634638e-07,-3.38094255929659e-07,6.932766400205885e-07,3.7527499282407777e-07,5.018364808503054e-07,6.095714358777855e-07,-4.69093626771988e-07,-4.901488223831869e-08,1.2079750993546783e-07,4.494216629581852e-07,6.018040167560877e-07,5.890802569607101e-07,1.8864383343229614e-07,8.73690137622588e-07,6.362775909280226e-07
-3.5215256026101665e-07,4.032137649430428e-07,-4.067393504480256e-07,-1.3920348116099548e-07,-2.9742800242425836e-07,7.804824980786206e-07,4.0788047979441464e-07,5.465811863193011e-07,6.629656354239781e-07,-4.5256058928457373e-07,-6.384537775021075e-08,2.3077719407817677e-07,4.686411296151054e-07,6.487876449027904e-07,7.078588976047914e-07,2.052656917937157e-07,8.860727478406575e-07,6.326681706107482e-07
-3.3592794346748793e-07,4.227723956882807e-07,-3.9951607250292937e-07,-1.0394351233814431e-07,-2.558091646935531e-07,8.386655185054125e-07,4.364949279958611e-07,5.916206125711339e-07,7.037502021013489e-07,-4.341879910117388e-07,-7.380561161359923e-08,3.4608217395371133e-07,4.995537792653989e-07,6.937188833726365e-07,8.163232514775149e-07,2.37485797362568e-07,8.991787981401887e-07,6.34712982917791e-07
-3.302673153389012e-07,4.198308540339896e-07,-3.945688186951794e-07,-7.960046395265182e-08,-2.1310743385715688e-07,8.758300408494422e-07,4.58160591740519e-07,6.362732747175878e-07,7.308984472428429e-07,-4.1295395657928716e-07,-7.476439015637687e-08,4.4385031883780535e-07,5.416305682627811e-07,7.249849126711196e-07,8.937762940239878e-07,2.8103782990222227e-07,9.141743838604599e-07,6.428481110663668e-07
-3.3159393679328855e-07,3.9821107944015396e-07,-3.8952883525464746e-07,-6.471031660921453e-08,-1.7048740708955113e-07,8.898242628552142e-07,4.7182412944722264e-07,6.80558368870612e-07,7.520521299074637e-07,-3.872168711293296e-07,-6.359795646292128e-08,5.075551657414053e-07,5.920297234489099e-07,7.35496121443972e-07,9.289601022371292e-07,3.2919399334907104e-07,9.314634731314026e-07,6.56200396501998e-07
-3.3559274040617177e-07,3.6480390557785494e-07,-3.8439768275059373e-07,-5.6027483205498195e-08,-1.2727506242821353e-07,8.927496352733736e-07,4.782004929858586e-07,7.233592202489113e-07,7.680854837012846e-07,-3.5603538114909567e-07,-3.984116309993499e-08,5.320231712091503e-07,6.451249129184279e-07,7.209370791010212e-07,9.229742992143803e-07,3.7304796857556536e-07,9.492490366416344e-07,6.719820580292895e-07
-3.385773535411553e-07,3.2772171511926864e-07,-3.793040108432639e-07,-4.9444004361565996e-08,-8.3572510588479e-08,8.599732402928662e-07,4.789695842673685e-07,7.616500544179934e-07,7.774983841680075e-07,-3.2015826459916626e-07,-6.309638389922424e-09,5.239545042220411e-07,6.936501962333474e-07,6.873352694169662e-07,8.879814985493672e-07,4.057384005612146e-07,9.639845447261044e-07,6.85759857526675e-07
-3.3927029904930454e-07,2.948416709337779e-07,-3.726940030364081e-07,-4.0500581420666964e-08,-4.025063435194021e-08,8.134586038154307e-07,4.764938566211275e-07,7.917081550028089e-07,7.750972638608775e-07,-2.825549290460904e-07,3.265173686503612e-08,4.988074152030915e-07,7.31740397767669e-07,6.481379269042114e-07,8.432665538149128e-07,4.234772195770308e-07,9.725094854824793e-07,6.929215684193805e-07
-3.3839485020395946e-07,2.7309376805378763e-07,-3.6756283388072966e-07,-2.43968625642014e-08,3.927700094913725e-09,6.938644580816692e-07,4.732595191287324e-07,8.105418807146291e-07,7.62429256667598e-07,-2.4539285371989656e-07,7.320736170759845e-08,4.7579236759749853e-07,7.578031036830709e-07,6.350998840975062e-07,8.080724805545112e-07,4.2643198565627413e-07,9.737230564005978e-07,6.898412200410935e-07
-3.381111079970913e-07,2.6791902372917454e-07,-3.6633081644246044e-07,3.7065366485209085e-09,5.043096890555337e-08,5.213690872326053e-07,4.701860765899829e-07,8.154687907944064e-07,7.554063549529405e-07,-2.104374822690645e-07,1.1270414031772683e-07,4.7233821045551184e-07,7.748779565908434e-07,6.783388877497898e-07,7.948555088123383e-07,4.184278278718012e-07,9.682862888169115e-07,6.742702470311536e-07
-3.390662831242804e-07,2.823097336071744e-07,-3.704953851597221e-07,4.733285387165793e-08,9.964871345191327e-08,4.3470699913394876e-07,4.6455447206148505e-07,8.022963847267889e-07,7.358290592991031e-07,-1.8031242547784412e-07,1.4841018123779586e-07,4.99103797030484e-07,7.884287861686787e-07,7.582505088630595e-07,8.065619420585992e-07,4.036131773552687e-07,9.571678678339282e-07,6.452612929284691e-07
-3.4692398396925205e-07,3.1573662310345155e-07,-3.82652024569077e-07,1.0657511371308633e-07,1.4424693490776045e-07,3.9373557235641453e-07,4.4895740641275993e-07,7.648137959136088e-07,7.135426943238653e-07,-1.5815801937938597e-07,1.76250458491467e-07,5.572556477772087e-07,8.037012780951678e-07,8.468159163926293e-07,8.397643693799826e-07,3.842727822778607e-07,9.410953401022395e-07,6.030608381500194e-07
-3.684536742931087e-07,3.6392038883849297e-07,-4.0407497771508035e-07,1.7659766606777506e-07,1.7280967711524732e-07,3.834489677737744e-07,4.1342728563363794e-07,6.975574947860425e-07,6.526423630480818e-07,-1.478892419101085e-07,1.912802170495822e-07,6.361264732138889e-07,8.244956026082263e-07,9.060056072504619e-07,8.763646832153718e-07,3.6012328335578456e-07,9.217152564767199e-07,5.500674796296114e-07
-4.067725318337224e-07,4.2002773324945334e-07,-4.331555500008067e-07,2.480678627967183e-07,1.728171653593821e-07,3.981077971268464e-07,3.506078789605658e-07,6.005119850054203e-07,5.037580771083596e-07,-1.507985091754356e-07,1.8857390187868375e-07,7.174968492286388e-07,8.522337933433848e-07,1.0395193486694115e-06,8.96764461689059e-07,3.3012065762202685e-07,9.028997028630457e-07,4.915593543252309e-07
-4.6175372626194063e-07,4.76917540388889e-07,-4.6797653999183077e-07,3.096095714444022e-07,1.3595410265286126e-07,3.2927147120575825e-07,2.6096040669160364e-07,4.819644503361317e-07,3.2259165405325253e-07,-1.6690547066567216e-07,1.6862732424180763e-07,7.819425708926766e-07,8.882849215329161e-07,1.188569042399163e-06,8.857484210533599e-07,2.992894879615251e-07,8.90034283302385e-07,4.35095767736205e-07
-5.250021118808552e-07,5.294757040476041e-07,-5.049014239852141e-07,3.5122014796600486e-07,6.336465292598112e-08,1.68564085297282e-07,1.545745443439778e-07,3.5680241430577486e-07,1.535038929379627e-07,-1.9333560465494946e-07,1.3504229043574355e-07,8.157429172956163e-07,9.290691535730927e-07,1.2462051065089187e-06,8.3568765787809e-07,2.678060049584866e-07,8.871774329241285e-07,3.8822821236630385e-07
-5.834901626528932e-07,5.759186596783874e-07,-5.385835015887461e-07,3.67389508445015e-07,-3.491982472759452e-08,5.4129580005632856e-08,4.788891410751592e-08,2.4093943983388055e-07,-1.4154656222787724e-09,-2.2650207181641828e-07,9.618338061262906e-08,8.153271563921024e-07,9.69310704547921e-07,1.3016503206805196e-06,7.511104293042743e-07,2.3678544616628299e-07,8.944477382029072e-07,3.5573400972110134e-07
-6.290896205459027e-07,6.173224657496146e-07,-5.673637840159633e-07,3.5891281913467245e-07,-1.4856802301859072e-07,-5.830317049376335e-08,-4.316924322504828e-08,1.4525933690607564e-07,-1.3446749439536785e-07,-2.644590814197937e-07,5.4994085479169834e-08,7.860643083381733e-07,1.0128226686666824e-06,1.3569663516234142e-06,6.459418650629978e-07,2.0432315809552333e-07,9.081719702941399e-07,3.3810041232539385e-07
-6.571760842397532e-07,6.561121016163897e-07,-5.92949472421861e-07,3.324853377603876e-07,-2.686199612444381e-07,-2.338454513678731e-07,-1.0922658128452241e-07,7.265239610000237e-08,-2.483817896793229e-07,-3.0308311320374065e-07,1.1300423235907941e-08,7.383768051798694e-07,1.016824017856402e-06,1.4026088688270797e-06,5.378227918345611e-07,1.7925875863725452e-07,9.238986926366117e-07,3.323341900873499e-07
-6.680670373274926e-07,6.951369614949956e-07,-6.188621166909626e-07,2.977212795499238e-07,-3.9155827787495903e-07,-3.480627570868735e-07,-1.4884087689309132e-07,1.9292311831938954e-08,-3.378255527963756e-07,-3.411729514387298e-07,-3.536106287084538e-08,6.820674452213997e-07,1.0089673126930544e-06,1.3570153839535786e-06,4.398355179004032e-07,1.6191349488499354e-07,9.397418739917312e-07,3.341171959957594e-07
-6.659917438412084e-07,7.372711922084511e-07,-6.492757293600897e-07,2.6283345921694296e-07,-5.197951852497192e-07,-4.214798030089594e-07,-1.6567144257008114e-07,-2.1876718513466066e-08,-3.8789025515908564e-07,-3.762283430283179e-07,-8.713272140729157e-08,6.297811155425151e-07,9.742022294085683e-07,1.28304864004944e-06,3.612051278095904e-07,1.4844550676350262e-07,9.57245195586087e-07,3.3956960590192805e-07
-6.55889424158388e-07,7.839098962465862e-07,-6.851656149783654e-07,2.3143470074967927e-07,-6.561502661126095e-07,-4.604611439762215e-07,-1.655867539146562e-07,-5.843768841511959e-08,-4.104979722415703e-07,-4.0735752301984247e-07,-1.4422057458451594e-07,5.917992672470791e-07,9.430404026704586e-07,1.2271214313103486e-06,3.035711676008793e-07,1.3707772932418924e-07,9.791888276585564e-07,3.4622292181031555e-07
-6.43975020900766e-07,8.323616887461606e-07,-7.266731332146807e-07,2.0162241394752297e-07,-8.036619831867923e-07,-5.142648314956655e-07,-1.55930753282127e-07,-9.738967357006729e-08,-4.116940109619845e-07,-4.3037644683789536e-07,-2.0643437794417868e-07,5.727697135766191e-07,9.043096816223139e-07,1.1782007373861213e-06,2.6207844312553933e-07,1.1999057478804395e-07,1.006468644028045e-06,3.5312790712303494e-07
-6.384247581948601e-07,8.744619657205181e-07,-7.734063577519008e-07,1.6995440455808973e-07,-9.61272999945321e-07,-5.54329125381717e-07,-1.453191791121063e-07,-1.4394283097837965e-07,-4.094557032376587e-07,-4.460022960813637e-07,-2.7237223604741765e-07,5.724752764014695e-07,8.628518735475944e-07,1.1267647181785974e-06,2.294134853457889e-07,9.52074469393504e-08,1.0368913921715276e-06,3.605774541955959e-07
-6.506273583598534e-07,8.983326579300693e-07,-8.218698159888538e-07,1.3121658124906063e-07,-1.1294771815924911e-06,-5.950777910384374e-07,-1.4216077714894514e-07,-1.9916822187375287e-07,-4.1211156825160243e-07,-4.606206234830333e-07,-3.3908042897722393e-07,5.860550526107449e-07,8.256162142208007e-07,1.0723272855813334e-06,2.0063313959979437e-07,5.980411058600706e-08,1.0665783802637409e-06,3.6983334579940284e-07
-6.837300352790308e-07,8.929420255266616e-07,-8.675280737496335e-07,8.208649974273515e-08,-1.2844093756228252e-06,-6.189369153328844e-07,-1.5198189562900344e-07,-2.583213923512919e-07,-4.254572263919064e-07,-4.767406729145771e-07,-4.0019760654675076e-07,6.07318174448131e-07,7.937657783046366e-07,1.0137833240373165e-06,1.743657501133483e-07,2.211150814996813e-08,1.0920024246177991e-06,3.8265551460340927e-07
-7.387389708733917e-07,8.532652451356937e-07,-9.058667399288913e-07,2.27988223374447e-08,-1.3944151719775038e-06,-6.370927011404143e-07,-1.7516261819077136e-07,-3.1245181026159117e-07,-4.449205428307723e-07,-4.980851641714742e-07,-4.508985734134387e-07,6.302183405258831e-07,7.685327500195586e-07,9.532819648512768e-07,1.5338751041440229e-07,-8.596601575571556e-09,1.1106015145687047e-06,4.002869987355655e-07
-8.115190231758299e-07,7.831436446237775e-07,-9.354476327196246e-07,-4.568141225962139e-08,-1.4731325667382e-06,-6.490777000954064e-07,-2.072035071444601e-07,-3.5307097214351205e-07,-4.647975979880791e-07,-5.251695133409432e-07,-4.848919268941423e-07,6.4930677582372e-07,7.49422509393414e-07,8.943939062649132e-07,1.4253454747890552e-07,-2.7527354388034124e-08,1.1201268992532298e-06,4.220502007576806e-07
-8.919390057829632e-07,6.939581286964909e-07,-9.569385743043945e-07,-1.1973147263727656e-07,-1.4271317968143328e-06,-6.435337407955828e-07,-2.4081906177832057e-07,-3.764452932688818e-07,-4.866011190111643e-07,-5.575991334182199e-07,-5.011375951520196e-07,6.585196611186287e-07,7.33538776921322e-07,8.401475387217503e-07,1.4498966823468667e-07,-2.857246397507562e-08,1.1184437201128463e-06,4.4572311941623234e-07
-9.711820319537395e-07,6.000988205113564e-07,-9.747551100857616e-07,-1.9563184019709135e-07,-1.4164824068390237e-06,-6.223280254899787e-07,-2.680658092602173e-07,-3.842810920519246e-07,-5.055825871319394e-07,-5.947675986390174e-07,-5.043620101559392e-07,6.552587726391878e-07,7.164962357793863e-07,7.929331410812001e-07,1.659806940172234e-07,-1.256527914853849e-08,1.104694499530907e-06,4.675302875923254e-07
-1.0398704906681136e-06,5.143074710993102e-07,-9.937007048812492e-07,-2.711136141141262e-07,-1.4197437639254735e-06,-5.830074108709128e-07,-2.818306348508622e-07,-3.8107261390968905e-07,-5.201060183827194e-07,-6.353492639214222e-07,-5.033904758269405e-07,6.406193955696572e-07,6.945449935951126e-07,7.562308378822035e-07,2.1039181042233896e-07,1.6491152573847518e-08,1.0807125035365225e-06,4.843456370791885e-07
-1.0958133735542842e-06,4.449683055489954e-07,-1.0208464297337173e-06,-3.4402508553046323e-07,-1.4195878257040209e-06,-5.505779005892893e-07,-2.7708131023692563e-07,-3.7125837899957516e-07,-5.282388151886205e-07,-6.765050956749919e-07,-5.06709072535073e-07,6.182567936398325e-07,6.661148995428734e-07,7.334662599754868e-07,2.7793440953945083e-07,5.541306820308907e-08,1.0508209655127028e-06,4.950636401696257e-07
-1.1405608289902422e-06,3.9525286251250046e-07,-1.0481656555232042e-06,-4.118215888850039e-07,-1.444942157746606e-06,-5.039466737695581e-07,-2.523627797665703e-07,-3.5854638264105216e-07,-5.291880676698593e-07,-7.140716977182495e-07,-5.20347455651238e-07,5.943012735015695e-07,6.315615090637474e-07,7.260100498300924e-07,3.6267351211197764e-07,1.0262923103341294e-07,1.0196683317271907e-06,4.993082174648015e-07
-1.176125185102797e-06,3.6343489538075787e-07,-1.0750700858435206e-06,-4.711298263058859e-07,-1.4747157719055754e-06,-4.4657416878594714e-07,-2.109694191027218e-07,-3.4673116861211713e-07,-5.229733008752465e-07,-7.461979034718122e-07,-5.467617484610969e-07,5.701985940168163e-07,5.91876913845704e-07,7.309366190724948e-07,4.5223106732396916e-07,1.5271802118917356e-07,9.899043876691297e-07,4.980814934695115e-07
-1.196885230675211e-06,3.4430442260927337e-07,-1.1014170110289018e-06,-5.220637201355525e-07,-1.5028672988552024e-06,-3.897170169864125e-07,-1.60627565754429e-07,-3.396449066595304e-07,-5.129998762913053e-07,-7.748685675464098e-07,-5.851776788691217e-07,5.436057037859232e-07,5.481395151598027e-07,7.423322246652987e-07,5.41349952252124e-07,2.0023539059569175e-07,9.61852168215033e-07,4.92420607017317e-07
-1.2087261175190285e-06,3.317160140897431e-07,-1.1225118666696891e-06,-5.624745425938917e-07,-1.5367722830731618e-06,-3.3506942983947534e-07,-1.108617352500568e-07,-3.39313048447502e-07,-5.04442960807999e-07,-8.005760011452194e-07,-6.303524709685596e-07,5.115084233621193e-07,5.022395448294085e-07,7.497709687781618e-07,6.161710087287036e-07,2.4100322698561167e-07,9.352916028051765e-07,4.833554486407308e-07
-1.2144150006906524e-06,3.21367929017773e-07,-1.1389955188645749e-06,-5.909400369982589e-07,-1.5511453100753145e-06,-2.8740988436282736e-07,-6.930919935160807e-08,-3.4410803398757407e-07,-4.986883291842591e-07,-8.245714009900768e-07,-6.757962332033377e-07,4.706228627146418e-07,4.575680573592461e-07,7.483798428229317e-07,6.698198892192235e-07,2.6665406278437097e-07,9.113026252886727e-07,4.7264106818435046e-07
-1.2144749987609102e-06,3.119879763867652e-07,-1.1455388130827093e-06,-6.077343190396104e-07,-1.550667775221923e-06,-2.4424499172384436e-07,-3.9148658853801355e-08,-3.4927643261514936e-07,-4.931679895448884e-07,-8.480752676460725e-07,-7.165424644770719e-07,4.2118131163473495e-07,4.1832214771791067e-07,7.378956258136425e-07,7.050481563686112e-07,2.8904624794191943e-07,8.923556500938584e-07,4.626044665789216e-07
-1.2112441199360866e-06,3.0387538143818096e-07,-1.1409012108646077e-06,-6.112840733776987e-07,-1.5348721720666083e-06,-1.989631766587773e-07,-1.9017884863658425e-08,-3.49817422451743e-07,-4.6806804705259306e-07,-8.716270000267846e-07,-7.506016849293307e-07,3.6717486541302093e-07,3.877100150439469e-07,7.18649102048803e-07,7.271013878302275e-07,3.0952430605715475e-07,8.809493649269585e-07,4.566074285047613e-07
-1.2033051604661145e-06,2.9612294758666664e-07,-1.131283027616573e-06,-6.058643227728811e-07,-1.498434191880603e-06,-1.443642405441918e-07,-5.096894720876305e-09,-3.431024016728874e-07,-4.325947934788101e-07,-8.88207486810196e-07,-7.80566752900827e-07,3.1576397537825107e-07,3.6652228265051214e-07,6.933708581215062e-07,7.408005691804783e-07,3.233039273264526e-07,8.784110192557853e-07,4.5497013210293976e-07
-1.1913657060918512e-06,2.852558195780411e-07,-1.1189554853242264e-06,-5.957786128288539e-07,-1.448242284369367e-06,-1.0135067348904389e-07,6.457859553773394e-09,-3.288576185623958e-07,-3.870019629037421e-07,-8.98247704799407e-07,-8.095476433104552e-07,2.69420445740763e-07,3.531147908978559e-07,6.644142919974341e-07,7.513612423159592e-07,3.337336388468539e-07,8.84725198389727e-07,4.593184095563008e-07
-1.1794541945560405e-06,2.665700625512697e-07,-1.1043206095684085e-06,-5.845648122854553e-07,-1.3880227628280796e-06,-7.020824279588107e-08,1.8103598610047434e-08,-3.070134829541015e-07,-3.381050790469472e-07,-9.057578307242509e-07,-8.402510509583211e-07,2.3400860032190586e-07,3.444794824817204e-07,6.350365325488228e-07,7.63216435120341e-07,3.3931592797429916e-07,8.988341740171436e-07,4.7144029075640676e-07
-1.1769923546126322e-06,2.368306542150348e-07,-1.0857695932503867e-06,-5.728028514086921e-07,-1.332470490746191e-06,-4.691683378957616e-08,3.057194984106186e-08,-2.762100867618111e-07,-2.901816445352001e-07,-9.060743704269686e-07,-8.711399135587157e-07,2.075938139561387e-07,3.364272389168388e-07,6.069096976919698e-07,7.755322326728568e-07,3.422486273120685e-07,9.187489890439315e-07,4.913813860620533e-07
-1.1857098638840746e-06,1.9629467753197273e-07,-1.0601849751231233e-06,-5.584496118286368e-07,-1.279272424224721e-06,-4.419055625146077e-08,4.331301777030687e-08,-2.349634992913891e-07,-2.4053407327294875e-07,-8.967817422239084e-07,-8.998934592069057e-07,1.8320391996628166e-07,3.2649619120734347e-07,5.826402410666181e-07,7.796694081421602e-07,3.4807598321428257e-07,9.418529409325692e-07,5.180212556475106e-07
-1.199770474941541e-06,1.4929742849083882e-07,-1.027993391138833e-06,-5.386433045283603e-07,-1.2377225618739682e-06,-4.50948767595509e-08,5.533506700394534e-08,-1.8459589548721275e-07,-1.931294503434781e-07,-8.726869541300588e-07,-9.251203907205476e-07,1.5891725748990964e-07,3.1499270817816747e-07,5.631967734045344e-07,7.724418757975125e-07,3.55319628799653e-07,9.660247953112088e-07,5.490552514399969e-07
-1.212176557711491e-06,1.0354104422663433e-07,-9.984319350387365e-07,-5.108317322583891e-07,-1.2176099189003932e-06,-6.798497862643598e-08,6.615172825850081e-08,-1.309314497213047e-07,-1.523240276990165e-07,-8.415249880103301e-07,-9.416357149418015e-07,1.3505507346315575e-07,3.047561879210535e-07,5.492578117960739e-07,7.771700475550951e-07,3.610889055004693e-07,9.910403672783676e-07,5.805504178509265e-07
-1.2197305098196966e-06,6.81031978901412e-08,-9.685575761090243e-07,-4.769501285597899e-07,-1.21826773899135e-06,-1.0868300290361843e-07,7.639133863818336e-08,-8.26371073972792e-08,-1.2909530040154874e-07,-8.007185559724816e-07,-9.498126320646338e-07,1.1227211196882471e-07,2.984008096999557e-07,5.440515063119087e-07,7.940804695909945e-07,3.5840375091113754e-07,1.0187872775063292e-06,6.086166091069925e-07
-1.2059075912812152e-06,5.0259310628149734e-08,-9.226246851053749e-07,-4.389888227674636e-07,-1.2233117825418076e-06,-1.4888014969048173e-07,8.755112252799085e-08,-4.709379871486658e-08,-1.1110476920132218e-07,-7.534096502057777e-07,-9.524600245822805e-07,1.0191377141603343e-07,3.0182265818921175e-07,5.513712872775999e-07,8.282946766010049e-07,3.620278765536259e-07,1.051611114388261e-06,6.292646385757852e-07
-1.172926267306535e-06,5.2248084332334336e-08,-8.845500435932782e-07,-4.003606795508373e-07,-1.222837917226894e-06,-1.6140183973972558e-07,1.0104407598784685e-07,-2.6700710647376722e-08,-9.924350298819944e-08,-7.053682779591664e-07,-9.58609276524965e-07,1.0878879619257517e-07,3.1887393571089906e-07,5.741926437363928e-07,8.73587357910154e-07,3.6904364633553195e-07,1.090533436862882e-06,6.483861429041028e-07
-1.1273712496586539e-06,7.019053963033342e-08,-8.542665590203197e-07,-3.733852515440576e-07,-1.2054132588911028e-06,-1.4641805245738375e-07,1.1741024842533224e-07,-1.7885876271351854e-08,-9.576700270743815e-08,-6.569809264416066e-07,-9.554194439661358e-07,1.2888253458559804e-07,3.4866101067555574e-07,6.123898861207854e-07,9.293881137270076e-07,3.9611154510268814e-07,1.131377586059237e-06,6.663351788947133e-07
-1.0962462161575387e-06,9.651496451441153e-08,-8.298432705757632e-07,-3.4178499003218956e-07,-1.157357765394812e-06,-5.70682315333684e-08,1.379323232502306e-07,-1.2874989753625675e-08,-9.470143330925345e-08,-6.080541971210139e-07,-9.383793813315663e-07,1.5787451054765368e-07,3.8909983573674184e-07,6.631964785659119e-07,9.769268629488911e-07,4.313732721260533e-07,1.1699156288552618e-06,6.814214359731757e-07
-1.0837805115561869e-06,1.2448205104209139e-07,-8.208415723049938e-07,-3.114875963699807e-07,-1.0723106607267865e-06,9.245373205372428e-08,1.6311397391986766e-07,-2.7321661090656506e-09,-7.990213712220821e-08,-5.66458277223853e-07,-9.130619503274078e-07,1.9043599904217226e-07,4.3260148434136283e-07,7.228360069404442e-07,1.0496037600068827e-06,4.6460452033023766e-07,1.2018879748302813e-06,6.943737460745589e-07
-1.0841971989501534e-06,1.516470310166756e-07,-8.030436353712225e-07,-2.943564180165779e-07,-9.925682174313573e-07,1.8774024543795034e-07,1.954689755666719e-07,1.9606108458298206e-08,-3.609934041521788e-08,-5.353244268984922e-07,-8.811154507620278e-07,2.246121130360306e-07,4.627890980792279e-07,7.8734780038352e-07,1.1576979336004692e-06,5.133266751695085e-07,1.2249837344628292e-06,7.030449057769024e-07
-1.0807844414909093e-06,1.801195180310003e-07,-7.892141839354944e-07,-2.887004586499225e-07,-8.973514497842705e-07,2.4370605085777896e-07,2.3988434946521315e-07,5.710304106955948e-08,5.628678890579282e-08,-5.083374474565777e-07,-8.607361956219349e-07,2.6434458733928663e-07,4.740979800584202e-07,8.530689971521426e-07,1.2898595264603451e-06,5.664443507813808e-07,1.2363600553159617e-06,7.173813417330293e-07
-1.0310770324258177e-06,2.14004417845385e-07,-7.742728746544608e-07,-2.932682886105491e-07,-7.944964554129871e-07,3.034102721003991e-07,3.0029525704888223e-07,1.0830357266698479e-07,2.1171825421398224e-07,-4.933844825968513e-07,-8.389474114584098e-07,3.180196705157494e-07,4.483255053862595e-07,9.157913964636996e-07,1.454989013107963e-06,6.135143748357701e-07,1.2310342974133268e-06,7.319624392641444e-07
-9.476414559380688e-07,2.561595968660217e-07,-7.402686613122194e-07,-2.983637365636617e-07,-7.121908364709184e-07,3.441300484464942e-07,3.8237189324867504e-07,1.695706439623898e-07,3.104098734392796e-07,-4.853352912312562e-07,-8.098116824651036e-07,3.913987864269205e-07,4.138352725379395e-07,9.69689116638868e-07,1.5333417894415613e-06,6.771257463554953e-07,1.208469898244343e-06,7.683954312309471e-07
-8.92040317664482e-07,3.061202026933657e-07,-7.062365733576974e-07,-2.7756301000001606e-07,-5.820835697381213e-07,3.905118941752814e-07,4.916688649413821e-07,2.384725630333944e-07,3.855201702561455e-07,-4.6216114395700807e-07,-7.654056012848285e-07,4.898418251247821e-07,3.862110921655017e-07,1.0087675667131258e-06,1.5284588634082227e-06,7.828980480060009e-07,1.1671267319244237e-06,8.367958081781531e-07
-8.564632478897147e-07,3.595433818874952e-07,-6.691531188633531e-07,-1.5251769178651258e-07,-4.476328702218308e-07,4.4617519904283614e-07,6.273389154039807e-07,3.155802698258829e-07,4.597972193456179e-07,-3.8755879090033574e-07,-6.508944662543363e-07,6.121738754930666e-07,3.766870746310162e-07,1.0286428388518697e-06,1.4761882272478608e-06,8.415188236660211e-07,1.1241737165959986e-06,8.93106438748063e-07
-8.284659884779664e-07,4.088362766419929e-07,-6.486615394228647e-07,-6.981915508020544e-08,-3.226558090867529e-07,4.942635085365956e-07,7.862047068378e-07,4.03319212044217e-07,5.146929186803615e-07,-3.2654139861785077e-07,-5.492588088685819e-07,7.513889668888132e-07,3.1600104181342717e-07,1.0262113060538249e-06,1.4032940185642953e-06,8.58942220872495e-07,1.1003521105492587e-06,9.518742968633045e-07
-7.987633796037893e-07,4.4514281699202807e-07,-6.3469227323202e-07,-9.12881870576281e-09,-2.300457895034964e-07,6.085808488123314e-07,9.606971005465862e-07,5.032071225227713e-07,6.712476077054748e-07,-2.757074443453189e-07,-4.534667815860054e-07,8.977266283839051e-07,2.528144973111699e-07,1.0102713373297095e-06,1.4313245303668047e-06,8.593871986936009e-07,1.1358782056061292e-06,1.0155408572762667e-06
-7.069944766443057e-07,4.618343287571387e-07,-6.108066342186311e-07,5.987821706665511e-08,-1.582737300807794e-07,7.429081422451519e-07,1.1383813334178068e-06,6.139197536510815e-07,8.877969741787858e-07,-2.370636499710099e-07,-3.4644508913534137e-07,1.0409895823416715e-06,2.267677508415191e-07,9.908359967823722e-07,1.5468753327019968e-06,8.39151409599826e-07,1.175615988946454e-06,1.0746236663798167e-06
-5.870386971021378e-07,4.580493231998814e-07,-5.785435154993889e-07,1.0136555502492742e-07,-7.34497418509414e-08,8.792975118904731e-07,1.3061498238039118e-06,7.311902370485064e-07,1.0355033852208316e-06,-1.906550266258061e-07,-2.4229041833672796e-07,1.1747702139870327e-06,2.1959552292181358e-07,9.842484308389624e-07,1.6487339709354845e-06,8.865077115759109e-07,1.2069318701681272e-06,1.1302626680919214e-06
-5.432097244041957e-07,4.3955977396329565e-07,-5.54678574237656e-07,1.6819177663577267e-07,9.6929859891128e-08,9.738769604691806e-07,1.452177264839612e-06,8.486004307951559e-07,1.1182554325662867e-06,-1.4487459700670194e-07,-1.288706378896299e-07,1.2981804617178724e-06,2.513190369836349e-07,1.053502651730702e-06,1.8003210019423153e-06,1.043014316662317e-06,1.2310951337011904e-06,1.214990655831166e-06
-4.862993442841032e-07,4.159057716793151e-07,-5.344452694748686e-07,2.643900239278687e-07,2.0917606871308684e-07,1.0973590320230854e-06,1.5675821999351396e-06,9.584912528606063e-07,1.2100857957677239e-06,-9.02448753458067e-08,1.744998791152137e-08,1.4101846639534336e-06,2.820528398728761e-07,1.131267164687912e-06,1.9288202632790935e-06,1.1874895190630513e-06,1.260680768620861e-06,1.2731887162356061e-06
-4.386718085165703e-07,3.9617760660586656e-07,-5.129726448174087e-07,3.1808169581975066e-07,2.4630824109012485e-07,1.2101073053113882e-06,1.6480903842344886e-06,1.0535701285344592e-06,1.3310440934747554e-06,-2.483612602929313e-08,1.477438521450662e-07,1.4952775489002334e-06,3.030884747105271e-07,1.1824607007587258e-06,1.986966208321017e-06,1.2997191729699846e-06,1.324450387003798e-06,1.3282524297238335e-06
-4.1886657723395623e-07,3.865415200586846e-07,-5.016419068297117e-07,3.1655211555971784e-07,2.694256419029818e-07,1.3473941549784238e-06,1.6949277997308986e-06,1.1292743590339692e-06,1.4559827981117882e-06,1.0716179674072514e-08,2.6318375946958017e-07,1.556470282800312e-06,3.358568550255534e-07,1.2973946069710604e-06,2.0191628495889355e-06,1.3957498585946718e-06,1.4141213318633685e-06,1.3801787725400394e-06
-3.466731131610829e-07,3.896255304410022e-07,-4.907548203306946e-07,3.1680081659339595e-07,2.938289935343502e-07,1.4192602316296508e-06,1.7115774849945746e-06,1.1851645116698404e-06,1.5350482980649507e-06,2.5356328753656066e-08,3.55737952632876e-07,1.5969746509965074e-06,3.5286924766859405e-07,1.4553617967034388e-06,2.0400533258765454e-06,1.423465333181543e-06,1.4865651495714927e-06,1.4249928793619723e-06
-2.6589152310909586e-07,4.0419179969666944e-07,-4.936514339422565e-07,3.2650741008142507e-07,3.061748546196447e-07,1.486520601977469e-06,1.703836245809552e-06,1.2239059016265765e-06,1.5496527144629272e-06,6.117940596103652e-08,4.677177068826324e-07,1.620877900443294e-06,4.1568197028966475e-07,1.6018004930877637e-06,2.0702677272880114e-06,1.5143635353856556e-06,1.5418579128489127e-06,1.4677065717744187e-06
-2.303461692122113e-07,4.2547846151715205e-07,-4.818836950026987e-07,3.4679668680416567e-07,3.712568079892581e-07,1.4997575226644955e-06,1.6793427954103177e-06,1.2488617958971127e-06,1.539048870584952e-06,5.1464628364333876e-08,5.351628242702682e-07,1.6349977640120242e-06,4.871250904367735e-07,1.7162260559819525e-06,2.114264064053907e-06,1.5718338842663063e-06,1.5768585588454334e-06,1.5032699939001906e-06
-2.0417218943604513e-07,4.4758912498519974e-07,-4.734060147071574e-07,3.5634153851233523e-07,3.8274364672140286e-07,1.4771984464223752e-06,1.6472231986806132e-06,1.2626768067619372e-06,1.5137961819271418e-06,4.8059283358417506e-08,5.764267344206557e-07,1.6412668062991792e-06,5.756333875767599e-07,1.8083711277069594e-06,2.147577034958341e-06,1.5797817293875597e-06,1.6036013366500838e-06,1.5208248655862063e-06
-1.8575391284647042e-07,4.669058472703045e-07,-4.7182221389842247e-07,2.7921755519642536e-07,3.810491838025543e-07,1.4419437292310746e-06,1.6185207272391354e-06,1.2676845257961816e-06,1.4676670445354216e-06,4.4760149827224284e-08,6.593787749277871e-07,1.6409543849761324e-06,6.887000829246608e-07,1.8775921246908528e-06,2.104351796487972e-06,1.5874718237295956e-06,1.6266609648585487e-06,1.5275032817771973e-06
-2.1243515751410199e-07,4.837450339481758e-07,-4.6857064661205964e-07,2.0234030110511338e-07,3.611109856499651e-07,1.3928013027138462e-06,1.6027033205392488e-06,1.2666179500314958e-06,1.4231674403761475e-06,4.3140474806291324e-08,7.593083958293537e-07,1.6393174977615078e-06,7.785438121070403e-07,1.9259951579655443e-06,2.0624831013681702e-06,1.5938074509680147e-06,1.636767040121135e-06,1.531411380078897e-06
-2.414018872350777e-07,5.010793639923622e-07,-4.546334280655022e-07,1.5410886483663514e-07,3.510696229623429e-07,1.3961216035311369e-06,1.6043191978387213e-06,1.2620265741667249e-06,1.371984451836014e-06,6.279146999010907e-08,8.137734633437084e-07,1.6368637717118066e-06,8.315178459139232e-07,1.962974329225403e-06,2.020830408988122e-06,1.5851797478339264e-06,1.6500080558920188e-06,1.5334495342101526e-06
-2.65081712399325e-07,5.217494429994071e-07,-4.273850870526286e-07,1.1535188222930752e-07,3.56060561380423e-07,1.420407746595318e-06,1.621790396653891e-06,1.254894991659929e-06,1.3187938542475783e-06,8.166749049639584e-08,8.471066018925337e-07,1.6190775999018045e-06,8.499960842074911e-07,1.985380972796049e-06,1.963348405041268e-06,1.5920354394721024e-06,1.6570917960870056e-06,1.5243698555716848e-06
-2.8466001490963626e-07,5.46253634887532e-07,-4.028353095365731e-07,1.0718193737066704e-07,3.999983039986281e-07,1.4403777532382306e-06,1.6462385226952622e-06,1.2441663140008278e-06,1.2924484589101847e-06,8.429493816673218e-08,8.516795403329584e-07,1.5858826101778593e-06,8.243819317204316e-07,2.000493918881275e-06,1.907768228740106e-06,1.5835838966131955e-06,1.6542100690672766e-06,1.4989816070206895e-06
-3.0738040128566426e-07,5.718666839675494e-07,-3.8203132450276596e-07,1.013993937794923e-07,4.304396518889181e-07,1.4929030760959875e-06,1.6652695335473428e-06,1.2276076204147192e-06,1.283492893800882e-06,9.358034871502526e-08,8.425171219834162e-07,1.5379224966592102e-06,8.015824515109317e-07,2.003958156699573e-06,1.8433750480990234e-06,1.5466700721580697e-06,1.6436908964883344e-06,1.4829897900760695e-06
-3.3178962978605855e-07,5.92608757215533e-07,-3.5491624445644275e-07,4.2468728196447005e-08,3.8006089902001513e-07,1.5488739346542125e-06,1.6679595148641522e-06,1.2027917562248626e-06,1.2866173917308977e-06,1.0182493320951264e-07,8.367126612201075e-07,1.469297109636388e-06,8.12130735655124e-07,1.9924684151985736e-06,1.7838142816067655e-06,1.5188332251674702e-06,1.6243098869700102e-06,1.4771222674685708e-06
-3.619503587137304e-07,5.998731138554631e-07,-3.676722067422071e-07,-6.96667008429412e-08,2.497423998038421e-07,1.5816772270492064e-06,1.6478594676096168e-06,1.1673430628458797e-06,1.3021112504838677e-06,1.0999118649305572e-07,8.048016683924708e-07,1.3852380452332226e-06,8.665269262411631e-07,1.9666654251994665e-06,1.7503305096956686e-06,1.4782345167492357e-06,1.6002191839273386e-06,1.462056302535895e-06
-3.875962753645867e-07,5.843339121289748e-07,-4.0179328557974334e-07,-2.0791813991070274e-07,8.319750000948817e-08,1.6073643577680057e-06,1.6045817367363368e-06,1.1190445026583941e-06,1.30915660293568e-06,1.283818444834142e-07,7.509302177866466e-07,1.3037528741788585e-06,8.739685976017464e-07,1.9252425155956674e-06,1.7694400508546827e-06,1.4405525271975396e-06,1.5730414471647264e-06,1.4517854941245773e-06
-3.8893798947924044e-07,5.394167000921272e-07,-4.4145834698512083e-07,-3.7569717663850665e-07,-1.0936040892293289e-07,1.6163787613809747e-06,1.5423976872307271e-06,1.0564582776681736e-06,1.308785060152201e-06,1.3837495696285773e-07,6.805209465085889e-07,1.2226084722267014e-06,8.37052637350414e-07,1.8736195594208319e-06,1.803652197012378e-06,1.420060356599747e-06,1.5431945353279903e-06,1.4449317991923614e-06
-3.9082663631690143e-07,4.650136556842106e-07,-4.981307098521499e-07,-5.309026347492789e-07,-3.111523783961811e-07,1.6035091708088822e-06,1.4702686918314397e-06,9.795324935825837e-07,1.2972903998815354e-06,1.2979413051614805e-07,5.959015750567234e-07,1.1774271772677924e-06,7.726131097162994e-07,1.817868843035743e-06,1.840702818033314e-06,1.3797600105008204e-06,1.5109032053318231e-06,1.437318611625054e-06
-4.2079610703112504e-07,3.6891798055643334e-07,-5.603124935790335e-07,-6.425575651092638e-07,-4.6167151378487424e-07,1.5759450619035105e-06,1.3982994098795021e-06,8.895537682742912e-07,1.267790702896986e-06,1.1178693917652218e-07,5.071461181095868e-07,1.1665461418563213e-06,7.012145783829962e-07,1.7660118313832737e-06,1.8858796646415516e-06,1.3526766051223356e-06,1.4747623529307817e-06,1.4323625819662475e-06
-4.6988680059157487e-07,2.645154890114153e-07,-6.269764472046909e-07,-7.001648864418899e-07,-5.433097352616094e-07,1.534268206271304e-06,1.3303409902069353e-06,7.890490602908064e-07,1.220067119626897e-06,9.472583197837554e-08,4.157255729778317e-07,1.172936523294861e-06,6.169181692612547e-07,1.722420710036781e-06,1.924690886761018e-06,1.3481715617924376e-06,1.4319842639044154e-06,1.4306384680265559e-06
-5.339592027366369e-07,1.6613139152847294e-07,-7.035055780809592e-07,-7.519890276702526e-07,-6.109452147435949e-07,1.4711535207457582e-06,1.2709756146728426e-06,6.824754151283436e-07,1.1690859306458151e-06,7.520726163352142e-08,3.2196795711513673e-07,1.1924666603995935e-06,5.478102628946432e-07,1.6877065677678944e-06,1.9651264105886247e-06,1.367191931942523e-06,1.37996847113654e-06,1.4128683702070145e-06
-6.089475308418067e-07,8.493952416909546e-08,-7.922312285457071e-07,-7.965349912856262e-07,-5.810636814277915e-07,1.4028413763941842e-06,1.2226444456062146e-06,5.769291822708833e-07,1.0994227255611172e-06,4.7147337197476014e-08,2.218690446818043e-07,1.214120905309929e-06,4.955053785520001e-07,1.6784673433401656e-06,2.0289478927340102e-06,1.3990173768119476e-06,1.3187319242913318e-06,1.3994405527599527e-06
-6.844716196469096e-07,2.7028204954957817e-08,-8.711055143974229e-07,-8.42714987026786e-07,-5.819296316801052e-07,1.3617852891794547e-06,1.1832680339007142e-06,4.810381051391116e-07,1.0520639913900133e-06,-4.393645912052085e-09,1.4249930355900077e-07,1.2341914563207215e-06,4.573791025774399e-07,1.6803124049116132e-06,2.0901421326746385e-06,1.4284348228160456e-06,1.2523665479520328e-06,1.3672863644637663e-06
-7.621566848920522e-07,-6.598513731478686e-09,-9.369794987242698e-07,-8.579134928962277e-07,-5.365374567179868e-07,1.348091558219116e-06,1.15213235308458e-06,4.0162063861941693e-07,1.0278616715019923e-06,-7.654151988119159e-08,7.312364228489944e-08,1.2496279878302234e-06,4.338594992099956e-07,1.680792026036542e-06,2.1427660327066886e-06,1.4535003453971301e-06,1.1881997449364079e-06,1.3355775454226696e-06
-8.422067385143754e-07,-1.881384978781139e-08,-9.560842426615207e-07,-8.405048712866311e-07,-4.646293250662291e-07,1.3635771378590514e-06,1.1305031330672443e-06,3.4023110037933247e-07,1.0252465390173014e-06,-1.6350321482074847e-07,4.332833276891331e-09,1.2409408722940177e-06,4.1992707509164664e-07,1.6544216354031496e-06,2.162026765648111e-06,1.4729740383527737e-06,1.1341761559804312e-06,1.2915224198491966e-06
-9.167058202323153e-07,-1.466003793336976e-08,-9.5124283832374e-07,-7.668051926636694e-07,-4.133259128274953e-07,1.4005517751886904e-06,1.1050318626405807e-06,2.9238974296001857e-07,1.028231228226228e-06,-2.410773473010624e-07,-6.140138266503105e-08,1.190952630826855e-06,4.1875703121790516e-07,1.5725365497121973e-06,2.1287017279569936e-06,1.4870090343205857e-06,1.0961130767318333e-06,1.2464000104705646e-06
-9.708700811530655e-07,1.602737304042599e-10,-9.75633132131921e-07,-7.096726245634622e-07,-3.403802471502471e-07,1.4425329442623992e-06,1.0396820456170937e-06,2.502183925500493e-07,1.0068474333317954e-06,-3.067201628060789e-07,-1.237185355111332e-07,1.1036213132502352e-06,4.28325110160219e-07,1.5223958855596637e-06,2.0430612506069082e-06,1.4749465703651421e-06,1.0759461725287156e-06,1.2094777617017318e-06
-1.0043647674250537e-06,2.0082851404959078e-08,-9.93594514821925e-07,-6.794010185909466e-07,-2.9420623837000077e-07,1.4760809190437235e-06,9.161886272340993e-07,2.0671243570396842e-07,9.51160589472541e-07,-3.3592057598917596e-07,-1.8209325546337704e-07,9.651570427561894e-07,4.4433047185370997e-07,1.4347054331593922e-06,1.908792496526108e-06,1.436352101933574e-06,1.0711746952987352e-06,1.1700304286324419e-06
-1.011699382011879e-06,3.940640519982161e-08,-9.730954465236365e-07,-6.754559725552579e-07,-2.93268114195123e-07,1.4515013027629345e-06,8.139534269497125e-07,1.5950143115438284e-07,8.290234641659584e-07,-3.6083991492466585e-07,-2.3061929596364285e-07,8.10676208053691e-07,4.6162128139547864e-07,1.3005454912744552e-06,1.7488588560947787e-06,1.3576384007553013e-06,1.0757187214796923e-06,1.131724799192451e-06
-9.988902561901723e-07,5.1007226076441376e-08,-9.317307269742003e-07,-7.064189142920391e-07,-3.1625551748843243e-07,1.3789588017281817e-06,5.9315635125445e-07,1.137132494164868e-07,6.860185350655043e-07,-4.1543616533388406e-07,-2.673825380475689e-07,6.685994677296705e-07,4.753671418726762e-07,1.1510938541894345e-06,1.5637926690965975e-06,1.2353655987780495e-06,1.0823954515609125e-06,1.0867403407882481e-06
-9.791503012608469e-07,4.550593088508239e-08,-9.101237764020034e-07,-7.665479284506626e-07,-3.6891538124248507e-07,1.2837230880780865e-06,4.092800584552108e-07,7.817327860728186e-08,5.133197083953408e-07,-4.616427321925951e-07,-3.022598050221267e-07,6.266466515701647e-07,4.834200472453154e-07,1.0594459874963529e-06,1.4569980203073211e-06,1.1012991849208433e-06,1.0860306411207047e-06,1.0326932292719012e-06
-9.74807828424868e-07,1.316495134392221e-08,-9.062109155962184e-07,-8.511749628950976e-07,-4.296578593378319e-07,1.1667593200535734e-06,3.39946587501571e-07,6.248480563535219e-08,3.9945759555520253e-07,-4.7022941024553423e-07,-3.3425561179408316e-07,6.489046174245853e-07,4.869128266896101e-07,1.0114246975778758e-06,1.4076036929828336e-06,1.0358921812394895e-06,1.085133735574462e-06,9.766590988616927e-07
-9.909248686411412e-07,-5.124357331211415e-08,-9.129500559309936e-07,-9.435654367628139e-07,-4.812724948097298e-07,1.0623000471287582e-06,3.64347628830884e-07,1.064206242377306e-07,3.128939164048761e-07,-4.525926196548742e-07,-3.659310055871877e-07,6.440090183429615e-07,4.892600497488198e-07,9.663204953556788e-07,1.376238635593583e-06,9.483777922095126e-07,1.0810211934775945e-06,9.212219659266023e-07
-1.0245614581722395e-06,-1.4371312903246368e-07,-9.310802017982383e-07,-1.0394877483170326e-06,-5.158014456666651e-07,9.86111757758796e-07,4.213868711285447e-07,1.4990771431692608e-07,2.452166257163071e-07,-4.426882708119398e-07,-3.990859254181282e-07,5.97007590928442e-07,4.936083576366318e-07,9.220658462884598e-07,1.3359304134432152e-06,8.6540605636277e-07,1.0755458430953186e-06,8.675518064971092e-07
-1.0587533229243112e-06,-2.502501885531501e-07,-9.581987775833653e-07,-1.1344812925940952e-06,-5.345605209571317e-07,9.395687423277776e-07,4.1164972336146275e-07,2.3611746170970564e-07,2.076620821361088e-07,-4.34821171393227e-07,-4.294289251881931e-07,5.588356779914998e-07,5.008971779445054e-07,9.479907125280896e-07,1.410172258940861e-06,7.598399728145006e-07,1.0695477141293328e-06,8.143395486975762e-07
-1.0895873359490395e-06,-3.5113454421926455e-07,-9.903719572000295e-07,-1.2225286181712014e-06,-5.508148719325975e-07,9.184334011728505e-07,4.128076366835393e-07,3.200611034354701e-07,1.5124620516805804e-07,-4.2685446122593473e-07,-4.5140342964030373e-07,6.366046770095479e-07,5.098355760730304e-07,9.963803093365647e-07,1.512040169998186e-06,6.725680121580398e-07,1.0627775959506574e-06,7.629982932823447e-07
-1.1130509147863858e-06,-4.279155756117356e-07,-1.0236507805074142e-06,-1.3048901447210641e-06,-5.711742489835711e-07,9.186920670899694e-07,4.6090585957695467e-07,3.9006479935323463e-07,1.8474334740427714e-07,-4.294900106768237e-07,-4.6058177953172446e-07,7.380711109002623e-07,5.180262876978961e-07,1.029422534139822e-06,1.5555420553099335e-06,6.341166541530417e-07,1.054385578612909e-06,7.135014747162832e-07
-1.1206924112285213e-06,-4.6974347419650844e-07,-1.0458587206275656e-06,-1.3774551466082832e-06,-6.000102116332472e-07,9.200018292919059e-07,5.00284694918619e-07,4.3660087710208175e-07,2.529016936134699e-07,-4.1859660875786847e-07,-4.536748839711234e-07,7.376840007717664e-07,5.230558412246578e-07,1.0295439440011477e-06,1.5518819804320721e-06,5.961065652445044e-07,1.0432834089988371e-06,6.678654750081376e-07
-1.112486127251925e-06,-4.7651862514372987e-07,-1.0563150551601987e-06,-1.4331970323659846e-06,-6.348801452138773e-07,8.987764542503411e-07,5.141057771535878e-07,4.585301493649572e-07,2.7335962297402607e-07,-3.9161260733975347e-07,-4.3500799686779e-07,7.192128557007625e-07,5.235312251658447e-07,1.0013002178794094e-06,1.4973268990253524e-06,5.420723843515004e-07,1.0288017273487559e-06,6.263598951628045e-07
-1.0837526687926693e-06,-4.5779866054680984e-07,-1.051733180490998e-06,-1.4549459386590783e-06,-6.638206798818042e-07,8.529682673828119e-07,5.318573306038275e-07,4.615176436800006e-07,2.9798169657602553e-07,-3.6244999698111806e-07,-4.0491507317307167e-07,6.488757355874271e-07,5.203736090284217e-07,9.484536104767099e-07,1.3752287734509735e-06,5.249089771707181e-07,1.01181309716534e-06,5.874769895069288e-07
-1.0377894918491956e-06,-4.2799840778188204e-07,-1.0281517518658762e-06,-1.4614848941748979e-06,-6.719848713567301e-07,7.786312627544041e-07,5.675158500534518e-07,4.5523102570695264e-07,2.8144657547762784e-07,-3.246316919064627e-07,-3.641852290740157e-07,5.100033664536756e-07,5.197080602176953e-07,8.768124279136203e-07,1.2019441576552014e-06,4.94421807695626e-07,9.952865038184685e-07,5.623000213905947e-07
-9.78411776846464e-07,-4.0002934789596766e-07,-9.843628719099234e-07,-1.4465576237361743e-06,-6.404390295371085e-07,6.786225244076283e-07,5.314198850581918e-07,4.497590057965318e-07,2.290963700157201e-07,-3.421990719662603e-07,-3.1557478756934644e-07,2.7619126547280444e-07,5.272435092482962e-07,8.061722785160372e-07,1.0200591650728594e-06,4.5395968529458593e-07,9.83324418437484e-07,5.467504643943041e-07
-9.119836856888897e-07,-3.8035734500033845e-07,-9.185228076466171e-07,-1.3702468392904137e-06,-5.612640691565348e-07,5.675547054294271e-07,4.2557301925963276e-07,4.5210518974551113e-07,1.5900515601274011e-07,-3.938514926919529e-07,-2.620712879202137e-07,1.818234889422212e-08,5.479862340696173e-07,7.400400661034784e-07,8.512526021484259e-07,4.199109688843358e-07,9.793927104100172e-07,5.337673046494823e-07
-8.396219052905163e-07,-3.6778923048810877e-07,-8.338482683787209e-07,-1.3129645235124885e-06,-4.41502573443184e-07,4.5920034678335737e-07,3.1851820727001534e-07,4.6472722991771606e-07,6.409661243736413e-08,-4.2782284040770386e-07,-2.059105548985781e-07,-1.2009461763701037e-07,5.834215983908239e-07,6.994855668962972e-07,7.156331039439159e-07,3.839226643230444e-07,9.85398393660604e-07,5.259654984049618e-07
-7.623647500028466e-07,-3.5620217773128927e-07,-7.366740229720752e-07,-1.2436180036513222e-06,-2.9191358081683753e-07,3.9053089379534e-07,2.6808149922055895e-07,4.870589820195599e-07,-2.5018810377038842e-08,-3.9308915037577957e-07,-1.5090200825471968e-07,-1.2662353961639533e-07,6.336715130528831e-07,6.84546226693671e-07,6.275790477738053e-07,3.5225136396208725e-07,1.0020470808115257e-06,5.210141587260882e-07
-6.830424838310494e-07,-3.3910413263162635e-07,-6.379162017909241e-07,-1.1556618736114077e-06,-1.295696652250993e-07,3.634371948129363e-07,3.2342702865477484e-07,5.181118982997425e-07,-9.814317305394041e-08,-3.047823763407057e-07,-9.977040104673348e-08,-1.6616027232741691e-07,6.989778302649774e-07,6.940680496373209e-07,5.748197080450893e-07,3.281838026975321e-07,1.0292507030075412e-06,5.24129856593036e-07
-6.044691459328377e-07,-3.1320766068856173e-07,-5.449918018183402e-07,-1.0657373332007068e-06,2.8304306522111702e-08,3.7967907885403586e-07,3.6849944906586535e-07,5.572992885830564e-07,-1.0943043786957571e-07,-2.0997780759061423e-07,-5.1385243053228306e-08,-1.7884975554916836e-07,7.734342390135571e-07,7.287567478664501e-07,5.573150566212755e-07,3.1028653891131824e-07,1.0656101572072763e-06,5.385824896786211e-07
-5.276624921413143e-07,-2.7949088061278634e-07,-4.6382588120929314e-07,-9.629410811901567e-07,1.6817887623767235e-07,4.4344213232341794e-07,4.08242258907394e-07,6.031315901360686e-07,-8.132033563562987e-08,-1.03469083953052e-07,-6.314464842105679e-09,-1.8978040129696776e-07,8.520206674835039e-07,7.795331456956345e-07,5.733865720866818e-07,2.986459221875921e-07,1.107669650656867e-06,5.634119724243362e-07
-4.584921450975068e-07,-2.4182551770148344e-07,-3.997153242293843e-07,-8.831142406293908e-07,2.782807657706503e-07,5.378027610741312e-07,4.411932925557462e-07,6.520341728711917e-07,-6.084761233339718e-08,-3.783352053288836e-08,3.5876050346890186e-08,-1.4596309536293808e-07,9.04312796939886e-07,8.419162462909316e-07,6.077410450349642e-07,3.067888610971581e-07,1.1502913273696539e-06,5.908986931788452e-07
-4.0207077752391e-07,-2.0415842748478444e-07,-3.5594464135405675e-07,-8.310852866776716e-07,3.504784539907713e-07,6.511928157135686e-07,5.01797161383269e-07,6.988215223556969e-07,-1.4488083292358081e-08,6.463734825291212e-10,7.521796231464373e-08,-4.631149036623169e-08,8.944793060968883e-07,9.088425747540916e-07,6.608229939531255e-07,3.197122908527482e-07,1.1882119583126344e-06,6.20525178846723e-07
-3.6120297796466637e-07,-1.6794536280789254e-07,-3.3417509637330716e-07,-8.002656946216286e-07,3.8412065017044754e-07,7.679141734809437e-07,6.101271904302585e-07,7.378801267129891e-07,8.339830759987405e-08,4.53333171764149e-08,1.1360570964763286e-07,4.929862846425939e-08,8.666222616547906e-07,9.768902415559206e-07,7.049588943992525e-07,3.337708966201291e-07,1.217430124745052e-06,6.527656431896597e-07
-3.323426422978648e-07,-1.31624052092868e-07,-3.325364598650019e-07,-7.94500328945274e-07,3.8534123494687125e-07,8.721525161685454e-07,7.590352700892863e-07,7.635504976887931e-07,2.0062819676359876e-07,1.2579226244304785e-07,1.5167570779893165e-07,1.5769938619892398e-07,8.316187008207319e-07,1.0381888152140654e-06,7.326060379846776e-07,3.4688207597269283e-07,1.2354982093172505e-06,6.841359828124101e-07
-3.1142111920554403e-07,-9.237839555854297e-08,-3.4590764711993965e-07,-7.970430971767369e-07,3.6270191012349145e-07,9.501855323021759e-07,8.961294992502169e-07,7.699783232458834e-07,2.934234835720341e-07,1.8084067454340783e-07,1.875553140120792e-07,2.6586292355459063e-07,8.297361835210312e-07,1.0884966599090157e-06,7.450101582625182e-07,3.5274418097540824e-07,1.2423444716662956e-06,7.136161934870166e-07
-2.9614298203180187e-07,-4.847833574087778e-08,-3.694760233696248e-07,-7.992020114764972e-07,3.269105188609091e-07,9.953477686326886e-07,1.0129955754656407e-06,7.520951602697548e-07,3.1336868211764815e-07,2.1608248256137417e-07,2.1761809142555718e-07,3.150892028467285e-07,8.553925739140102e-07,1.1295106244011052e-06,7.398963130660317e-07,3.542108348005556e-07,1.2386651990653759e-06,7.37439092773273e-07
-2.8451173495744167e-07,-3.336659636470806e-10,-3.936994774583234e-07,-7.954099969218047e-07,2.8893260895285766e-07,9.945848509679086e-07,1.0819057178839615e-06,7.08289065164212e-07,2.6979866571948733e-07,2.2682191327360347e-07,2.387312220889281e-07,3.2141490268421253e-07,8.42439191678806e-07,1.158297155270189e-06,7.231882174588221e-07,3.463567734174305e-07,1.2271358564496958e-06,7.53685402263177e-07
-2.7733094687131473e-07,4.9994132809932646e-08,-4.113480127418867e-07,-7.790678307621747e-07,2.585426463382166e-07,9.515134850524553e-07,1.100050620716096e-06,6.428752731405851e-07,2.513193474887012e-07,2.196854837962844e-07,2.488909811179801e-07,2.973533568664904e-07,7.966092243640951e-07,1.176073916144961e-06,7.036483205538285e-07,3.278579150312055e-07,1.2147319130062732e-06,7.635019227090868e-07
-2.73042569197425e-07,9.986966866136114e-08,-4.1796501605158166e-07,-7.48223434062269e-07,2.430995206418215e-07,8.788912442679921e-07,1.083816356682565e-06,5.658332719554731e-07,2.1923333146329293e-07,2.121861623831519e-07,2.4944747820649494e-07,2.5584364179281635e-07,7.320262153622537e-07,1.1878757760994305e-06,6.839599394239564e-07,2.9777519150039375e-07,1.2085696316333039e-06,7.673017636269035e-07
-2.6813139617175646e-07,1.4699695808673698e-07,-4.119238231562715e-07,-7.051289656659343e-07,2.4422054314279357e-07,7.901959323030067e-07,1.0476836029943133e-06,4.894965157006791e-07,1.4423713452078921e-07,2.0247098333827256e-07,2.4463291154263293e-07,2.2053056279828626e-07,6.687621209101689e-07,1.1968447423807932e-06,6.614337950964912e-07,2.642080924339321e-07,1.2139079188840674e-06,7.683188805645535e-07
-2.6161065193591826e-07,1.8997443687795836e-07,-3.96876749373365e-07,-6.557410737864597e-07,2.5656974089379264e-07,7.029052920996467e-07,1.0091786652795035e-06,4.245601350168664e-07,3.4523554292394975e-08,2.0177565894401215e-07,2.3804039233428203e-07,2.0100688702059175e-07,6.125434280601097e-07,1.2091856395210552e-06,6.44417510566381e-07,2.3150984575872993e-07,1.2305006386123776e-06,7.694793047768343e-07
-2.53615093059381e-07,2.2846227844553295e-07,-3.788468595257902e-07,-6.078813725458419e-07,2.7077652538816014e-07,6.303134845707342e-07,9.772935118358282e-07,3.780962385896457e-07,-4.682457537191662e-08,2.1434896523848452e-07,2.3424289595559436e-07,1.9133730951280454e-07,5.832554454149741e-07,1.2232333534771177e-06,6.31964790083618e-07,2.0186685669360958e-07,1.2535608569168463e-06,7.750960938625036e-07
-2.450893681795636e-07,2.629433490990317e-07,-3.6343408248034985e-07,-5.678843213236901e-07,2.7866708528718446e-07,5.76908213407063e-07,9.591251995099465e-07,3.5404259933992344e-07,-6.501831873438569e-08,2.3571131559937151e-07,2.354365288901462e-07,1.8148879197846504e-07,5.639647104775604e-07,1.2399354757888505e-06,6.209458482087454e-07,1.7870867394238392e-07,1.2669508236147684e-06,7.836371647014619e-07
-2.376052963606745e-07,2.9392551741480387e-07,-3.5416931924744714e-07,-5.382457053111547e-07,2.7687781288293447e-07,5.55830873051517e-07,9.59419379271346e-07,3.54319865673637e-07,-5.071320600122856e-08,2.57704258043149e-07,2.428909828043147e-07,1.6316305386659377e-07,5.354060805694762e-07,1.2575364624330356e-06,6.182022004824291e-07,1.627419875366705e-07,1.2564874208822423e-06,7.927308075440543e-07
-2.3215752928335827e-07,3.206332559401341e-07,-3.528823123896592e-07,-5.172445968947604e-07,2.6657572392328364e-07,5.709568825580654e-07,9.79224094010371e-07,3.7876171743227974e-07,-6.5071760204792944e-09,2.665225282289763e-07,2.563424481374758e-07,1.2467962295328077e-07,4.796169612144441e-07,1.2706458048043678e-06,6.205145687507703e-07,1.5354692010738312e-07,1.2184444154236818e-06,8.01609702977217e-07
-2.29421563265098e-07,3.403347653209684e-07,-3.5872816655852596e-07,-5.002904102648005e-07,2.507365211421171e-07,6.241525718451719e-07,1.0148211398428706e-06,4.2411204639964874e-07,4.130239731132224e-08,2.3745227964085227e-07,2.7459550399795344e-07,5.791533628064044e-08,3.92945751958474e-07,1.2746357561461724e-06,6.245971048373041e-07,1.4869951228430166e-07,1.177680521172597e-06,8.070379650101866e-07
-2.288799890156141e-07,3.4971551232393066e-07,-3.695962005036315e-07,-4.820060443995316e-07,2.3197282295327216e-07,7.030338091800179e-07,1.0578851124780354e-06,4.837360771118695e-07,8.52491779687864e-08,1.9001815566876494e-07,2.956171810151449e-07,-4.4505171681211926e-08,2.9638450957808247e-07,1.2630233958386192e-06,6.312685512415989e-07,1.432526008537754e-07,1.145943421944701e-06,8.109623435201413e-07
-2.281526361786478e-07,3.475652681636623e-07,-3.8269381008831764e-07,-4.5810917420194847e-07,2.1243587340208847e-07,7.882497262123031e-07,1.0983350607204698e-06,5.487076520786224e-07,1.4335284999058236e-07,1.4080105480715834e-07,3.1714895302745437e-07,-1.8219483404547067e-07,2.1693486327204243e-07,1.2324467107907092e-06,6.35022012579306e-07,1.3812371427540132e-07,1.1129445090911725e-06,8.138112085208039e-07
-2.233080596231118e-07,3.3599482086290846e-07,-3.9482953091074993e-07,-4.2679151340510034e-07,1.9485077426134315e-07,8.597707244054492e-07,1.127950061852344e-06,6.093429096937938e-07,2.4907567493434053e-07,9.162035028533747e-08,3.36516578475172e-07,-3.4869845698757324e-07,9.360472830045936e-08,1.182975691667127e-06,6.375693432723308e-07,1.3244466821692062e-07,1.0388200151918635e-06,8.160649908713371e-07
-2.1192628906602082e-07,3.185557747143287e-07,-4.038399152006425e-07,-3.895039498506724e-07,1.8277395960619078e-07,9.007717875369249e-07,1.1386054855898419e-06,6.56437733840859e-07,3.669429014487284e-07,1.9170897034449363e-08,3.497148903221006e-07,-5.289746143287521e-07,-3.0816510128875216e-08,1.120044693614122e-06,6.338616227629095e-07,1.272100527025051e-07,9.534734754094228e-07,8.188629427904077e-07
-1.961857929605992e-07,2.968788746722999e-07,-4.094083382659869e-07,-3.508411987289616e-07,1.793018252155506e-07,9.013088975579774e-07,1.125427650526486e-06,6.826804769901407e-07,4.1828762097591983e-07,-6.514761742609157e-08,3.526687319846109e-07,-6.985363109984201e-07,-1.3379849031786036e-07,1.0473847337796234e-06,6.157148012425086e-07,1.1836517735778968e-07,8.919257510808472e-07,8.227821924072409e-07
-1.8312971603025906e-07,2.6915604140595965e-07,-4.128043005148184e-07,-3.172902473955228e-07,1.8529138993476475e-07,8.561590016886315e-07,1.0877575463828014e-06,6.847526681320417e-07,4.4600133594433726e-07,-1.281392742250166e-07,3.420585057731357e-07,-8.439593399448077e-07,-2.202767462197159e-07,9.694038081897767e-07,5.77091593450873e-07,1.0617672385293294e-07,8.503849183656627e-07,8.273079177729846e-07
-1.8144599914040097e-07,2.3200822557371928e-07,-4.163990623596051e-07,-2.9517536680984343e-07,1.9879034153947938e-07,7.744196647345347e-07,1.0291924279770377e-06,6.652256887474985e-07,4.5744345773472193e-07,-1.7409207871072222e-07,3.1754474751303424e-07,-9.575421903402293e-07,-2.5797648967650336e-07,8.92049898431078e-07,5.162064475323522e-07,8.124959886499162e-08,8.123838424263274e-07,8.303229507664034e-07
-1.967848792157982e-07,1.8383646316590963e-07,-4.227552080732304e-07,-2.8870690211153246e-07,2.1611108223984016e-07,6.66553553687345e-07,9.588631298283855e-07,6.322908863630864e-07,4.6027529147813613e-07,-2.069146459002072e-07,2.820943374500537e-07,-1.0353835126872124e-06,-3.051862269585343e-07,8.19512288953237e-07,4.491028774144474e-07,4.0971431733600656e-08,7.814391308984945e-07,8.300918176830725e-07
-2.2951856754308838e-07,1.265804774394272e-07,-4.3385088562932e-07,-2.9905492630430193e-07,2.332580016151598e-07,5.487811303293829e-07,8.870711895520439e-07,5.963423754941924e-07,4.55854324066904e-07,-2.2699290523676148e-07,2.4028601943271996e-07,-1.0787625526848908e-06,-3.460732737506426e-07,7.556709428949153e-07,3.7979253685041735e-07,-1.0272701518272146e-08,8.056788274647271e-07,8.244761362883614e-07
-2.7600427426123664e-07,6.47868057801756e-08,-4.509073606382226e-07,-3.247314329304931e-07,2.463817328371165e-07,4.3596112343274865e-07,8.214410157990639e-07,5.650747575578248e-07,3.959717555520532e-07,-2.400879143221421e-07,1.9578432779829623e-07,-1.0961202363412064e-06,-3.439567172573205e-07,7.018823997121703e-07,3.0926357142242914e-07,-7.237104426971237e-08,8.4480499305336e-07,8.123690656315394e-07
-3.3038324616294145e-07,3.1445990079579082e-09,-4.74328604657052e-07,-3.6273030353919815e-07,2.5164863301815115e-07,3.3454483949057846e-07,7.662530249778062e-07,5.405610778369854e-07,3.033169317218036e-07,-2.48590905192627e-07,1.4977459063911389e-07,-1.0959086298412403e-06,-3.3419171265968685e-07,6.557551106207351e-07,2.431527778929472e-07,-1.403812379859186e-07,8.586633157885375e-07,7.932714809806367e-07
-3.8792709802651056e-07,-5.5670129397642105e-08,-5.03626111563209e-07,-4.0952259400051575e-07,2.4593550396933475e-07,2.451305390339218e-07,7.205584856820208e-07,5.204497368776175e-07,2.0787949613649666e-07,-2.595683491213927e-07,1.0090113072595457e-07,-1.0883717945147843e-06,-3.2239904565409335e-07,6.135647519655588e-07,1.795975414233275e-07,-2.1146038072973822e-07,8.528601312106124e-07,7.658151921298683e-07
-4.457953893466805e-07,-1.1160223398368025e-07,-5.373914317223311e-07,-4.614841844014567e-07,2.2843090055943077e-07,1.651494976430907e-07,6.815694187118125e-07,5.017516698125168e-07,1.2024444785698517e-07,-2.778500464962589e-07,4.787288818846127e-08,-1.0822557634193475e-06,-3.1389014616338007e-07,5.729547540275746e-07,1.1716521392187385e-07,-2.8334513997031124e-07,8.34692146397861e-07,7.313910328390071e-07
-5.023124425948894e-07,-1.6630972424108386e-07,-5.731225580384483e-07,-5.151164400972062e-07,2.013888885235837e-07,9.205221343105423e-08,6.478051255947142e-07,4.835082728650977e-07,4.498068535016254e-08,-3.0394475354293885e-07,-9.381223549956587e-09,-1.0801267149248922e-06,-3.0906453783058916e-07,5.33296453711648e-07,6.891502775515398e-08,-3.526256436297896e-07,8.050348527777865e-07,6.918855533580888e-07
-5.567228184939209e-07,-2.2174551027096812e-07,-6.082973676984804e-07,-5.675741459131432e-07,1.6867947674329857e-07,2.5522579884483415e-08,6.18961841188754e-07,4.6632537798776777e-07,1.2733299567756852e-08,-3.364706673035467e-07,-6.973851891632581e-08,-1.0822060331963388e-06,-3.174452925993374e-07,4.948729983928122e-07,3.409598757523508e-08,-4.161240497219426e-07,7.732198284581192e-07,6.493584594051137e-07
-6.087299658711119e-07,-2.791157493989392e-07,-6.415037610664352e-07,-6.173999699123311e-07,1.3307934135407697e-07,-3.5415478175211985e-08,5.954244276060051e-07,4.5022772953525483e-07,1.6972548776723552e-08,-3.7323094860913936e-07,-1.3184116889409108e-07,-1.0848634637213658e-06,-3.3708767638466053e-07,4.575377526503866e-07,5.435496791488333e-09,-4.740256173459757e-07,7.414382289958202e-07,6.058770106735299e-07
-6.583108763426839e-07,-3.383228728490694e-07,-6.726374241725662e-07,-6.647939461912438e-07,9.47282431356832e-08,-8.93829736913897e-08,5.777932610424741e-07,4.3370147436065866e-07,3.932262518445117e-08,-4.121920462855834e-07,-1.9468444558498043e-07,-1.0879849639806469e-06,-3.6943627995639126e-07,4.201063372368316e-07,-1.681032917638686e-08,-5.263780956875264e-07,7.085714761098698e-07,5.627343540709369e-07
-7.050192829490586e-07,-3.975564688048384e-07,-7.022524541016423e-07,-7.109486553514183e-07,5.206476475305365e-08,-1.3531588735603678e-07,5.669414562123457e-07,4.1489628125681864e-07,6.828086875076384e-08,-4.516078926940954e-07,-2.5696348059991216e-07,-1.0901371395066319e-06,-4.1075071307209986e-07,3.8161656009740113e-07,-3.8169066342800934e-08,-5.736767207850719e-07,6.750782098161081e-07,5.194511706187764e-07
-7.473776497135731e-07,-4.5301030379422705e-07,-7.305135560705702e-07,-7.567585094456662e-07,4.035478972247455e-09,-1.715157148043354e-07,5.641774182169521e-07,3.932775759374232e-07,8.778706816973955e-08,-4.908842631455911e-07,-3.1673253835330406e-07,-1.089501296712362e-06,-4.532606909284344e-07,3.4263505792880526e-07,-5.6751084344065885e-08,-6.163401442326831e-07,6.405909878939132e-07,4.760462247128356e-07
-7.825845364636622e-07,-4.992161822786401e-07,-7.56830897006342e-07,-8.017038738330078e-07,-4.8588928516926886e-08,-1.9586594570617722e-07,5.712331204791769e-07,3.6981467112376163e-07,9.600560150414454e-08,-5.280897454936776e-07,-3.7136851069606104e-07,-1.0859642735544396e-06,-4.896371376869965e-07,3.030334299367813e-07,-6.79153227217012e-08,-6.538702621352004e-07,6.065127698784481e-07,4.336713535217443e-07
-8.07483533069852e-07,-5.303370226368164e-07,-7.801520232541237e-07,-8.434332706180296e-07,-1.0337684809338164e-07,-2.0771526075306896e-07,5.901343921887942e-07,3.4596641729029486e-07,9.698962829957453e-08,-5.618194174444969e-07,-4.1912907112115106e-07,-1.0851814371692724e-06,-5.208888375269195e-07,2.659595043419069e-07,-7.072910978093076e-08,-6.877681616227195e-07,5.730549258302598e-07,3.9292421374454374e-07
-8.200160926229216e-07,-5.420113776080764e-07,-7.99351718449889e-07,-8.779577759647639e-07,-1.5661512213930671e-07,-2.0514854646556962e-07,6.212892231960041e-07,3.231849704830046e-07,9.383320017257492e-08,-5.920109945529309e-07,-4.5953105954860176e-07,-1.088771274953197e-06,-5.499734484157438e-07,2.3301629541206095e-07,-6.598350020519792e-08,-7.135795871797543e-07,5.391551218608742e-07,3.5477377178641335e-07
-8.200009348995501e-07,-5.329013423315919e-07,-8.130645701025762e-07,-9.001814002733908e-07,-2.0292188336058454e-07,-1.843386870479425e-07,6.631543062812988e-07,3.0352843033482814e-07,9.457807130669113e-08,-6.190432557339442e-07,-4.931304421487318e-07,-1.0983031859207942e-06,-5.775205425122972e-07,2.0524423608406941e-07,-5.180853751752763e-08,-7.293544445801926e-07,5.045831448100088e-07,3.2032934122090487e-07
-8.0926830032814e-07,-5.054302647624095e-07,-8.195353057525879e-07,-9.048122603756257e-07,-2.3496814258616202e-07,-1.4449036029642408e-07,7.13119394986952e-07,2.9002588820619193e-07,1.0412309692926229e-07,-6.437649109812853e-07,-5.206375078086213e-07,-1.1160856305838646e-06,-6.045690471557714e-07,1.8513719631274084e-07,-2.8305048485892936e-08,-7.395145989458846e-07,4.7070443307243946e-07,2.908076743555599e-07
-7.914086227170086e-07,-4.657620702033324e-07,-8.170886579740568e-07,-8.878891934883351e-07,-2.4483806204530803e-07,-8.664095940630802e-08,7.658148372220118e-07,2.8560634360532616e-07,1.240069702339347e-07,-6.668223745633508e-07,-5.42626994832053e-07,-1.1388735962285337e-06,-6.256418886239436e-07,1.7544425024958276e-07,9.005634981527106e-09,-7.337026267884646e-07,4.399958338078075e-07,2.6742156931408386e-07
-7.714445433742116e-07,-4.231796121818534e-07,-8.049533097376093e-07,-8.487232261662914e-07,-2.2682927287272968e-07,-1.4529586800746718e-08,8.13281067553627e-07,2.915807518484129e-07,1.5093340725395325e-07,-6.884225785010351e-07,-5.601457264380065e-07,-1.160672263424763e-06,-6.367715840149969e-07,1.7793581776458714e-07,6.629000405960979e-08,-7.115685239109565e-07,4.1505660881354263e-07,2.512243858393837e-07
-7.550678688266431e-07,-3.8873543195070255e-07,-7.836843206400557e-07,-7.913309209557667e-07,-1.7965598434720468e-07,6.370442720603027e-08,8.478940338175276e-07,3.07667043797466e-07,1.8049429140060508e-07,-7.081108719354979e-07,-5.746616822254938e-07,-1.1734378600693711e-06,-6.347926509006784e-07,1.9265018961638748e-07,1.423636989621076e-07,-6.752172600429341e-07,3.983299063584718e-07,2.425968929598255e-07
-7.470054962197528e-07,-3.728605839620698e-07,-7.547493222220463e-07,-7.242817013609796e-07,-1.066896901897196e-07,1.3958624340932758e-07,8.626346243452876e-07,3.335709467572384e-07,2.0850434871695764e-07,-7.242344147282068e-07,-5.873299503428412e-07,-1.1663805693760059e-06,-6.183368553681383e-07,2.1910015500629618e-07,2.354812137702609e-07,-6.238994294032503e-07,3.9233227733159997e-07,2.402885400424216e-07
-7.48891486071174e-07,-3.8185073111953975e-07,-7.199565231646618e-07,-6.586325382280181e-07,-1.5195750855328198e-08,2.070358149105657e-07,8.547785628618683e-07,3.6974761413359823e-07,2.2704821975545228e-07,-7.339523533001429e-07,-5.979337599615372e-07,-1.1296858772729636e-06,-5.856285539284071e-07,2.559985876977989e-07,3.350876828832165e-07,-5.615872084559662e-07,3.990693576472687e-07,2.442619958045582e-07
-7.578557444596139e-07,-4.1422913333847744e-07,-6.815695078399386e-07,-6.046655002982801e-07,8.399020213655741e-08,2.6305679889407203e-07,8.278922753259097e-07,4.158043965371888e-07,2.355547738215803e-07,-7.343751232505372e-07,-6.049973591198026e-07,-1.0634472902049816e-06,-5.374504108809628e-07,3.007145216002632e-07,4.3275794678008646e-07,-4.98945566452982e-07,4.1837626674780635e-07,2.5363756371776766e-07
-7.670405980185171e-07,-4.593914597209787e-07,-6.428355161636503e-07,-5.687437934347783e-07,1.771356790816299e-07,3.073765577172548e-07,7.898621693499511e-07,4.683065590590057e-07,2.3665950898019078e-07,-7.242859500168439e-07,-6.069040035596625e-07,-9.755051855267758e-07,-4.792854169166076e-07,3.4874507518869186e-07,5.196265201162103e-07,-4.381438923865371e-07,4.468821683753858e-07,2.659644482559079e-07
-7.680300740462491e-07,-5.003368719043263e-07,-6.078172825935464e-07,-5.515294521890703e-07,2.5059719596909216e-07,3.4094314767841316e-07,7.507380503732346e-07,5.210251042921579e-07,2.3559610183822757e-07,-7.05001300354375e-07,-6.029055692221537e-07,-8.813790412976292e-07,-4.187140427155902e-07,3.9574494220453506e-07,5.875630723862247e-07,-3.8477673870112295e-07,4.791636452577711e-07,2.7907504890448933e-07
-7.537654937994109e-07,-5.193393745639983e-07,-5.800906153937328e-07,-5.481418499603619e-07,2.956603169688626e-07,3.702972032833945e-07,7.207776086379435e-07,5.679279687489204e-07,2.4026277946014216e-07,-6.796666585714103e-07,-5.93197419846802e-07,-8.02136693024959e-07,-3.6349434620868856e-07,4.3841649183405493e-07,6.268685205335994e-07,-3.383599997195195e-07,5.102638295217932e-07,2.9027433367942933e-07
-7.205883310666477e-07,-5.036151717772296e-07,-5.611755982218666e-07,-5.500064989434673e-07,3.1197430825482273e-07,4.032963471787174e-07,7.082415160210907e-07,6.059652559456988e-07,2.570169958744846e-07,-6.518173343216714e-07,-5.786281101296487e-07,-7.43014574045335e-07,-3.1836805081475134e-07,4.7600031737888923e-07,6.444251961480223e-07,-3.028636009358963e-07,5.373026421419219e-07,2.985921706750279e-07
-6.692002089143386e-07,-4.490439688023927e-07,-5.498761017644047e-07,-5.476616794871476e-07,3.0768125562621046e-07,4.461369420413686e-07,7.163283775268996e-07,6.351365519617798e-07,2.8799226388895476e-07,-6.244117380237099e-07,-5.608464342291733e-07,-7.132326433889689e-07,-2.847080771705487e-07,5.095295883929157e-07,6.466482070579812e-07,-2.7498954039738675e-07,5.592426664569266e-07,3.0457043585474695e-07
-6.046693333263645e-07,-3.6128428589603253e-07,-5.428044758274412e-07,-5.332530789581525e-07,2.928130767417503e-07,4.981110610020879e-07,7.41605312113872e-07,6.566432588434616e-07,3.2962409749298254e-07,-5.996032467712608e-07,-5.424882381148086e-07,-7.12116764740736e-07,-2.621473383337678e-07,5.415460214257418e-07,6.373969731271679e-07,-2.4899623117604485e-07,5.759999088686259e-07,3.0955394771842083e-07
-5.351552580285951e-07,-2.538663834108396e-07,-5.354506605967522e-07,-5.032501364007238e-07,2.7990876943002296e-07,5.500233777095034e-07,7.736742326761898e-07,6.717631875713293e-07,3.7421132115482607e-07,-5.785832937755234e-07,-5.262288961695652e-07,-7.330682193553897e-07,-2.4947333062942937e-07,5.688265275297138e-07,6.240126371425407e-07,-2.2794604940139805e-07,5.882780533858416e-07,3.150437743739142e-07
-4.6931944589915615e-07,-1.4351872533908818e-07,-5.232278244508068e-07,-4.594122639232569e-07,2.797007608326971e-07,5.881508365777939e-07,7.992512042119782e-07,6.823502455885264e-07,4.107391059630695e-07,-5.611661937852746e-07,-5.132475045213871e-07,-7.660505159624375e-07,-2.4441502437977116e-07,5.912438498443874e-07,6.064754529665352e-07,-2.194327867589647e-07,5.978989590285583e-07,3.2245260548848205e-07
-4.134370274080375e-07,-4.439631009128439e-08,-5.026074516357232e-07,-4.051165836094394e-07,2.982926755834541e-07,6.00040447216234e-07,8.082323079225205e-07,6.912504411577056e-07,4.2951157707719127e-07,-5.457328002487578e-07,-5.024736092763162e-07,-8.02845693597082e-07,-2.4357696737475053e-07,6.123146937323747e-07,5.838443612630602e-07,-2.196275411447422e-07,6.074359033377072e-07,3.327056449544059e-07
-3.6973796248173166e-07,3.6247020532187016e-08,-4.7255137505307396e-07,-3.453608927716992e-07,3.365712207277979e-07,5.831429697181171e-07,7.973902000039796e-07,7.011330140890227e-07,4.279742027820134e-07,-5.301610955576811e-07,-4.918330984571263e-07,-8.370154929773717e-07,-2.4358467779106116e-07,6.318770393787367e-07,5.569701306677543e-07,-2.2350644043663227e-07,6.190075009647307e-07,3.451918781086098e-07
-3.3690034153552215e-07,9.879542399266928e-08,-4.356574481414725e-07,-2.85882340195125e-07,3.87825717615901e-07,5.440125093784583e-07,7.714794875931158e-07,7.128020819881257e-07,4.10664993149511e-07,-5.132490617271219e-07,-4.805107600514356e-07,-8.582763155948698e-07,-2.4242090949347667e-07,6.499480131678781e-07,5.321131219179672e-07,-2.3391244585497466e-07,6.335526031609683e-07,3.5826186888885364e-07
-3.1207678149669387e-07,1.4830144667947842e-07,-3.9786870437819286e-07,-2.3194984527597292e-07,4.4040910215278567e-07,4.964804008838811e-07,7.408134758258063e-07,7.251345870268739e-07,3.8817560331644697e-07,-4.953056533729374e-07,-4.699008515826463e-07,-8.699444179480099e-07,-2.3929491554427125e-07,6.658770815652537e-07,5.117986481505402e-07,-2.4569992943562247e-07,6.514260770876298e-07,3.701519519225956e-07
-2.9262917502416005e-07,1.903387642047311e-07,-3.663478618030243e-07,-1.8828737856098967e-07,4.827900753848466e-07,4.565408906064351e-07,7.165821227454976e-07,7.367271621013762e-07,3.7187971658045087e-07,-4.774286627960258e-07,-4.622315075875494e-07,-8.643910963548935e-07,-2.333049890650434e-07,6.79647725333267e-07,4.920222293789791e-07,-2.5759896804123784e-07,6.732862567740113e-07,3.806190585617676e-07
-2.765729250984238e-07,2.2851693502530245e-07,-3.475535714210793e-07,-1.5642349706963707e-07,5.086673218226717e-07,4.35619174570347e-07,7.068428109401294e-07,7.470610188110597e-07,3.6932780990197016e-07,-4.604544431982405e-07,-4.5828724892488897e-07,-8.400560042312801e-07,-2.2281332309562155e-07,6.934051651260914e-07,4.913199761631304e-07,-2.708504760010108e-07,6.997511918368509e-07,3.9167417177389324e-07
-2.6248635300795064e-07,2.6421476634035275e-07,-3.4327973352046064e-07,-1.369535144151063e-07,5.169908116936926e-07,4.3617275603649596e-07,7.125514289624297e-07,7.557218063894959e-07,3.825694972952642e-07,-4.446935087529782e-07,-4.566849481129071e-07,-8.028211075437714e-07,-2.0652253500199154e-07,7.103507725752168e-07,5.112671143362702e-07,-2.8027981451952896e-07,7.299771177553919e-07,4.053144144429429e-07
-2.4964247620821805e-07,2.974971335274559e-07,-3.515775985508971e-07,-1.2741327720911656e-07,5.118762499262623e-07,4.5032792721710935e-07,7.260846650263362e-07,7.608623573553276e-07,4.046396320456867e-07,-4.3036060100867124e-07,-4.550103248825005e-07,-7.592147019809655e-07,-1.850790377288907e-07,7.305401181262916e-07,5.245514410516037e-07,-2.8130595873012395e-07,7.609655489135672e-07,4.2219791537654756e-07
-2.379271176548155e-07,3.283528065847058e-07,-3.6842463891703006e-07,-1.244955738639875e-07,4.966360609762861e-07,4.6316346060252315e-07,7.34007409490003e-07,7.591671952798111e-07,4.231644939440071e-07,-4.1779902111456183e-07,-4.5068937075896594e-07,-7.210396346863844e-07,-1.613552967523136e-07,7.505158594538689e-07,5.280980347533271e-07,-2.8058116779279847e-07,7.888498607155588e-07,4.410964081722654e-07
-2.271714510223588e-07,3.5760517816568337e-07,-3.8791555465103674e-07,-1.260208091933875e-07,4.7333745945636946e-07,4.593028880087604e-07,7.228107642006627e-07,7.478002991738656e-07,4.254693906334296e-07,-4.0713545223162365e-07,-4.427478786518711e-07,-6.98550081973365e-07,-1.3906788908009234e-07,7.664914829992543e-07,5.153119100666086e-07,-2.8176007120946743e-07,8.111303981673063e-07,4.5942856813303296e-07
-2.1662607617454375e-07,3.8682091368668886e-07,-4.065803989266307e-07,-1.3045204324487098e-07,4.4406213953685387e-07,4.2835912940929365e-07,6.848041233934616e-07,7.264384668220278e-07,4.0346508594673774e-07,-3.9798904552964066e-07,-4.314309809293086e-07,-6.978020128426409e-07,-1.2118520104156502e-07,7.75515787662172e-07,4.817143201676627e-07,-2.832875788672e-07,8.276223284933878e-07,4.7500111413637656e-07
-2.0548718075952045e-07,4.170916214291048e-07,-4.228035135069113e-07,-1.3777994761751603e-07,4.091444311316929e-07,3.692646676670807e-07,6.210253327374445e-07,6.974387607428564e-07,3.5683662918700413e-07,-3.899480503595146e-07,-4.1717301866042287e-07,-7.193502029185132e-07,-1.0950095462773224e-07,7.76991876146842e-07,4.402657642915669e-07,-2.9581732894120274e-07,8.393921057789906e-07,4.865125409703622e-07
-1.9430871838544367e-07,4.473836479358067e-07,-4.368890371521332e-07,-1.4886800837870447e-07,3.6805744740448177e-07,2.89745691783307e-07,5.40477908506873e-07,6.64437351290185e-07,2.9229493494938193e-07,-3.834631158763487e-07,-4.020508388782857e-07,-7.576812922535297e-07,-1.0502838429535446e-07,7.71653183856939e-07,3.9877880773919315e-07,-3.2143536940218033e-07,8.472559491608376e-07,4.936328661410267e-07
-1.859624022020184e-07,4.737099149355626e-07,-4.5116010444139896e-07,-1.6503502712693878e-07,3.211536598357094e-07,2.0389392319166095e-07,4.6008799103532244e-07,6.312051585781672e-07,2.2079408005442947e-07,-3.8005195855274816e-07,-3.8910854053403285e-07,-8.035998055032691e-07,-1.0785535010154512e-07,7.618176990850699e-07,3.394577283537477e-07,-3.571258920185469e-07,8.515945691749937e-07,4.970709811241898e-07
-1.8482251629603778e-07,4.903320904104166e-07,-4.6848690273391563e-07,-1.860617143255816e-07,2.697521384146678e-07,1.2885846162004488e-07,3.900798973075843e-07,6.014158655404054e-07,1.5445539016996153e-07,-3.814425906379962e-07,-3.8050691877980786e-07,-8.433065653775969e-07,-1.1616809295461587e-07,7.503142611775337e-07,2.820179606640902e-07,-4.0117963575287263e-07,8.533200865304203e-07,4.987319739680864e-07
-1.9444873105262854e-07,4.929073666149188e-07,-4.910513221331306e-07,-2.099793938182064e-07,2.1693828126355355e-07,8.103716691319414e-08,3.4702208743642154e-07,5.780924634349073e-07,1.0493848759533875e-07,-3.885962784712743e-07,-3.7675823980456786e-07,-8.663246220453438e-07,-1.2575230752628166e-07,7.402291541739682e-07,2.466329162315201e-07,-4.471752155881579e-07,8.544586620851527e-07,5.012122480927115e-07
-2.1562900245299892e-07,4.816584690828559e-07,-5.212175006655217e-07,-2.3407306441232323e-07,1.667139557177927e-07,7.269105140489276e-08,3.5580275179088003e-07,5.618493586684028e-07,8.0964008335708e-08,-4.016580357335695e-07,-3.772178208011299e-07,-8.629773009455537e-07,-1.3105663391606007e-07,7.356220955016599e-07,2.402694221358246e-07,-4.6802505386490496e-07,8.575789150118177e-07,5.068244982349086e-07
-2.4629255865172947e-07,4.6231347327285214e-07,-5.603113634311671e-07,-2.5556140387594287e-07,1.2012198085854455e-07,1.0863821928584445e-07,3.7810037756520446e-07,5.49167703010366e-07,8.601077131006287e-08,-4.206029716740171e-07,-3.808498094015477e-07,-8.272993102919368e-07,-1.270905165307238e-07,7.399066779908171e-07,2.751822931802113e-07,-4.5582216906806703e-07,8.648951255866385e-07,5.16852272208606e-07
-2.8308548578918526e-07,4.440912672386924e-07,-6.094496784407186e-07,-2.7333241851180384e-07,7.409761922003703e-08,1.852044844707896e-07,4.5734467139213406e-07,5.328917650772912e-07,1.1694265618056073e-07,-4.4545831089482115e-07,-3.8871017720625194e-07,-7.608596762210193e-07,-1.1052112412699055e-07,7.545350206102013e-07,3.511446161678241e-07,-3.8329726182531355e-07,8.781502515949193e-07,5.314607687994329e-07
-3.2330614709583103e-07,4.3575974874897927e-07,-6.699789736937329e-07,-2.8864687991216485e-07,2.3528143895212327e-08,2.8987114613780195e-07,5.491039105215628e-07,5.053976503471956e-07,1.6387219496466133e-07,-4.765581955563185e-07,-4.037321088332524e-07,-6.658058046695975e-07,-7.961522109895197e-08,7.800990941591804e-07,4.5993464512509473e-07,-2.548899797248416e-07,8.990264096905589e-07,5.504634011204701e-07
-3.6602656895990045e-07,4.4170786290111794e-07,-7.427605105101237e-07,-3.047790703303772e-07,-3.6212527496233577e-08,4.061980892090353e-07,6.381728205873375e-07,4.6218712212835485e-07,2.1229905001737499e-07,-5.102220810811672e-07,-4.279156871604286e-07,-5.505002025393481e-07,-3.433775064167679e-08,8.16411582452118e-07,5.973008483719919e-07,-1.6696764603129522e-07,9.286981607968271e-07,5.737593061439591e-07
-4.1191681822705395e-07,4.6006413517756396e-07,-8.148326224227523e-07,-3.265683073509673e-07,-1.0814221139806572e-07,5.165635088241078e-07,6.494547285196816e-07,4.0320362656766685e-07,2.4698163783730087e-07,-5.441576356169168e-07,-4.6104872653139104e-07,-4.2512056853236935e-07,2.252238152504989e-08,8.612448475419881e-07,7.178322068994902e-07,-9.424332146312829e-08,9.660517115621338e-07,6.008475606800586e-07
-4.6204321780357237e-07,4.839534789806869e-07,-8.875247058451222e-07,-3.5799180722434936e-07,-1.937528284764945e-07,6.056914078884442e-07,5.976469009160221e-07,3.3164337599463753e-07,2.5650193789277594e-07,-5.761578735078698e-07,-5.008747598601574e-07,-3.0016125186891863e-07,8.439964542779428e-08,9.093109635420295e-07,8.061817566346599e-07,2.394174139339334e-08,1.0062678953347605e-06,6.298108838036526e-07
-5.164258555916712e-07,5.05076208565881e-07,-9.592769866101975e-07,-4.008144129342673e-07,-2.9369467127998153e-07,6.647937635630426e-07,5.620716547157006e-07,2.5238358010925566e-07,2.3704801747483632e-07,-6.046540128781329e-07,-5.429886610380762e-07,-1.9011965644467835e-07,1.4212670077924764e-07,9.529324225311084e-07,8.594760850401343e-07,1.847656757139698e-07,1.0420003216928604e-06,6.596507612139548e-07
-5.731559365474016e-07,5.173369997009361e-07,-1.014247528195864e-06,-4.5299848961499284e-07,-4.055735014485949e-07,6.931162031884092e-07,4.987224923986566e-07,1.7151384541961668e-07,1.9377916903617803e-07,-6.301354044071956e-07,-5.869406076998208e-07,-1.1132069347955034e-07,1.872890779643089e-07,9.844648243948429e-07,8.694445905001582e-07,3.547145250917322e-07,1.0670091111721993e-06,6.884070177563411e-07
-6.284732936225082e-07,5.186364120696987e-07,-1.0666260731485824e-06,-5.090602310733653e-07,-5.231760377697047e-07,6.989164454587707e-07,4.618725987986055e-07,9.61456644832239e-08,1.390411140058185e-07,-6.535272911513128e-07,-6.324653590240604e-07,-6.456906612102264e-08,2.1543564109526176e-07,9.992691724433346e-07,8.510088277494833e-07,5.191739999037717e-07,1.0782042569141233e-06,7.154470735813375e-07
-6.776168857417855e-07,5.106014021498006e-07,-1.079681464239398e-06,-5.627912038444329e-07,-6.382850475675561e-07,6.945063429071352e-07,3.33787009955418e-07,3.3175778927742555e-08,8.824869826572186e-08,-6.713980367691361e-07,-6.695813032465949e-07,-3.924221025460005e-08,2.2687178996565345e-07,9.984629475221772e-07,8.336263822038179e-07,6.638734767036668e-07,1.0805857803472411e-06,7.420453719914381e-07
-7.158226933961106e-07,4.972079172241341e-07,-1.0463413972203685e-06,-6.099697383288332e-07,-7.453478830146472e-07,6.935147760237849e-07,1.911094151655039e-07,-1.2471682094856115e-08,5.540046591571559e-08,-6.724310226003918e-07,-6.919390247464032e-07,-2.2306533487415967e-08,2.251811576079504e-07,9.878634489384114e-07,8.306429673550352e-07,7.67884578833355e-07,1.0810317894192893e-06,7.69618523297746e-07
-7.389425513473065e-07,4.83302062429266e-07,-1.0102771685395042e-06,-6.502068195744298e-07,-8.458500273616759e-07,7.074922686441103e-07,8.81577029359651e-08,-3.8443240940745674e-08,5.002453760355567e-08,-6.696203063738133e-07,-7.028127989005107e-07,9.325458673281535e-09,2.1548751339042796e-07,9.784337472440534e-07,8.555642033833072e-07,8.344549960707398e-07,1.0862949631672006e-06,7.992832240223818e-07
-7.436759712025014e-07,4.7365766822829293e-07,-1.000434887655137e-06,-6.913485993416599e-07,-9.229518451368408e-07,7.440142452021473e-07,3.737097460613001e-08,-4.429571362116426e-08,7.593481800024651e-08,-6.394415036529647e-07,-6.936682013083699e-07,6.905965293123392e-08,2.0364303984438846e-07,9.782929093227064e-07,9.498401475403946e-07,8.658391516396403e-07,1.117231787721475e-06,8.34130349808475e-07
-7.278978761278091e-07,4.7265982648184264e-07,-1.0108739046497168e-06,-7.375064510048896e-07,-9.803904105449324e-07,8.063125874222614e-07,8.892629755493438e-09,-3.145033551129416e-08,1.3096170487458856e-07,-5.827954223688994e-07,-6.671895227400665e-07,1.5834016691604744e-07,1.9550567455111758e-07,9.98245194051217e-07,1.1207652466326452e-06,8.772359835053246e-07,1.1744765205594152e-06,8.765513634330499e-07
-6.915978639737396e-07,4.840007562784448e-07,-1.044548195775221e-06,-7.819360449695181e-07,-1.0244056606824346e-06,8.918778034756483e-07,-3.441264141809594e-08,-4.543838572510534e-09,2.0741374447440902e-07,-5.718536370148256e-07,-6.375986280984014e-07,2.7543597974648395e-07,1.9525989042357792e-07,1.0445684420336753e-06,1.3117130164842835e-06,8.959594887512816e-07,1.2074422372273577e-06,9.267769054515262e-07
-6.381733009797169e-07,5.098138138914972e-07,-1.043569955128985e-06,-8.286354543393714e-07,-1.0568670892457924e-06,9.92079112648544e-07,-8.786163930889016e-09,2.7947136840538715e-08,2.942977189982015e-07,-5.124120745338945e-07,-5.906309949476771e-07,4.178765449463124e-07,2.0350256208184863e-07,1.1145156331257712e-06,1.542223782714891e-06,9.211478778506528e-07,1.2739358199989149e-06,9.836244460675186e-07
-5.748405317980788e-07,5.496506799706459e-07,-9.70477423265202e-07,-8.773827844074879e-07,-1.0869004004469423e-06,1.0989446000360827e-06,7.930176386548722e-08,5.6127695824955315e-08,3.8155217871441245e-07,-4.3111762815409883e-07,-5.367050893139337e-07,5.709281433115014e-07,2.1685429872568983e-07,1.2045243769930025e-06,1.7749487057194998e-06,9.510475560172463e-07,1.357716412666166e-06,1.04358638897447e-06
-5.111677164994095e-07,6.002103950623791e-07,-8.841482136314897e-07,-9.235319499448853e-07,-1.1208181189993161e-06,1.209704446672646e-06,1.5647025729846466e-07,7.314962570323238e-08,4.642169414815835e-07,-3.6392281499705533e-07,-4.880268663936309e-07,7.219603820996212e-07,2.2956635423787805e-07,1.3017834805958625e-06,1.995606061517298e-06,9.952183003979061e-07,1.4247406598986887e-06,1.1037401925557786e-06
-4.563039327904969e-07,6.55903614730675e-07,-8.104490892357068e-07,-9.62617629934952e-07,-1.161206682668452e-06,1.333199504592473e-06,2.1405489988287205e-07,7.823125048194916e-08,5.437718820050725e-07,-3.006119768933759e-07,-4.3106752395312363e-07,8.632020135399481e-07,2.357220895604674e-07,1.3954748945878076e-06,2.1469289969383527e-06,1.0492839455330401e-06,1.4492738592468885e-06,1.1614692927192237e-06
-4.1660650543910844e-07,7.093542627024621e-07,-7.390048367018858e-07,-9.878865029262255e-07,-1.205813142443977e-06,1.4711385344828672e-06,2.6599484046092123e-07,7.623647176633692e-08,6.257134925097734e-07,-2.538993531515838e-07,-3.6535708424973797e-07,9.614987908333232e-07,2.3072002021692552e-07,1.4659293958612896e-06,2.2277495457432802e-06,1.1106218283394893e-06,1.4852484257439113e-06,1.216362493877243e-06
-3.947104806788187e-07,7.515117282916964e-07,-6.991938538961277e-07,-1.0028472242575621e-06,-1.2531161714465818e-06,1.6205099478584928e-06,3.0510605847103894e-07,7.500210359276226e-08,7.148816736498746e-07,-2.2913748182340096e-07,-2.931931031434322e-07,1.0198738684468144e-06,2.1225857911984865e-07,1.4994910824357572e-06,2.2407937295796266e-06,1.1796856533114517e-06,1.517251701571574e-06,1.2702985488332413e-06
-3.8955496317786225e-07,7.726963211434892e-07,-6.781133759913797e-07,-9.96578488816696e-07,-1.292542726146239e-06,1.7765628856406335e-06,3.2781429059545253e-07,8.248714398810121e-08,8.113743210449503e-07,-2.235691358753224e-07,-2.1359193634951772e-07,1.0311479493350908e-06,1.8140062866312867e-07,1.486604302843978e-06,2.140734441963978e-06,1.2463491213437082e-06,1.5128602329469736e-06,1.3301207723735391e-06
-3.965299107774952e-07,7.657943375824308e-07,-6.576912883282981e-07,-9.67461747218429e-07,-1.3196260884582281e-06,1.923331239777084e-06,3.306693279522486e-07,1.0415787788157969e-07,9.093168859312808e-07,-2.1949753295954404e-07,-1.31803589305125e-07,9.473482265411188e-07,1.4300858220736134e-07,1.503216298956473e-06,2.156211829606014e-06,1.2971018039100112e-06,1.4988208779930241e-06,1.3884269445242368e-06
-4.08107325438303e-07,7.300153410472208e-07,-6.303957427210527e-07,-9.180438632872006e-07,-1.3209845384445972e-06,2.0599734059952025e-06,3.1164476522456165e-07,1.402242458091699e-07,9.98665689756425e-07,-2.0428618107285526e-07,-5.7152297264739724e-08,9.506509805984823e-07,1.0430165988036319e-07,1.5402506092882885e-06,2.2131468858687464e-06,1.3367411745466737e-06,1.4985056824800777e-06,1.4491474667687614e-06
-4.1594600007426897e-07,6.718104264920352e-07,-6.012266959555582e-07,-8.509925271907072e-07,-1.2882789046218354e-06,2.1843840763889533e-06,2.7395316883072544e-07,1.8397433949181532e-07,1.0685575220633802e-06,-1.822908176234628e-07,1.7108469675724826e-08,9.765446469678188e-07,7.187390043038723e-08,1.475138218206591e-06,2.1476062097118032e-06,1.3710467265183278e-06,1.5133288810873605e-06,1.5139483201319292e-06
-4.140408343077451e-07,6.019588497386165e-07,-5.706661807555983e-07,-7.812553085242011e-07,-1.235763617923695e-06,2.2346549114605644e-06,2.24131571279686e-07,2.2345533655862404e-07,1.1108186745478277e-06,-1.5509245654495618e-07,7.537920027006445e-08,9.012702754219638e-07,4.9230291684012e-08,1.401192235792604e-06,2.044496169662571e-06,1.407743302067259e-06,1.53902996070478e-06,1.5675301957002728e-06
-4.0093705907358664e-07,5.314537366214243e-07,-5.404041049311481e-07,-7.222805520656902e-07,-1.159331382684418e-06,2.213690563791597e-06,1.7200536291928568e-07,2.4645546218482243e-07,1.122823237763559e-06,-1.2570989362434244e-07,1.1298974205865608e-07,8.097077549047566e-07,3.636703594416494e-08,1.4050152638305527e-06,1.9375430311261507e-06,1.4544931923941016e-06,1.5703132900146528e-06,1.5983879069812747e-06
-3.797869715290641e-07,4.6877457671430454e-07,-5.399708633290841e-07,-6.84891524870833e-07,-1.0649851873412964e-06,2.122522411850402e-06,1.2961612563299518e-07,2.4556028869285487e-07,1.1084945971395002e-06,-1.0057753176176241e-07,1.1687922202524146e-07,7.984331541125778e-07,3.0956012531098075e-08,1.4303479888095006e-06,1.8576065550022404e-06,1.5149478141623187e-06,1.5991984650327358e-06,1.5997571782309747e-06
-3.569713234680087e-07,4.1850365385350334e-07,-5.856608102766351e-07,-6.52848676205093e-07,-9.965967261195906e-07,2.0019906789620735e-06,1.0698650901928447e-07,2.201066179739458e-07,1.0762321253300933e-06,-9.97722194373705e-08,7.600014915124189e-08,8.394460199974541e-07,2.9868944886787244e-08,1.4796424636514524e-06,1.8097302992024162e-06,1.5893056290018437e-06,1.6209975265411786e-06,1.5900859182421146e-06
-3.4039735661209035e-07,3.805045563900504e-07,-6.155230806609848e-07,-6.293820964113905e-07,-9.508081304074275e-07,1.8703544144445046e-06,1.0874019174024434e-07,1.7511461507519513e-07,1.0345903383471161e-06,-1.3928010562525656e-07,4.988491911961598e-08,9.057922198939209e-07,3.052875833308426e-08,1.5098100241577064e-06,1.8234164257065618e-06,1.665135709773266e-06,1.6201701759269874e-06,1.5693781045650908e-06
-3.3749883441092877e-07,3.502930245950267e-07,-6.311912325935488e-07,-6.302193822543735e-07,-9.130665042936707e-07,1.7301469946840572e-06,1.3204907266739567e-07,1.1955227691138827e-07,9.888260592222656e-07,-1.6141823065747927e-07,3.462559009218535e-08,9.021274662614819e-07,3.2000284819976194e-08,1.5494095461126902e-06,1.8683325646665429e-06,1.7414180962738444e-06,1.6086456868980917e-06,1.5570946057784475e-06
-3.526680214450316e-07,3.214840808585684e-07,-7.154100032279585e-07,-6.446715849154406e-07,-8.75955061445223e-07,1.6040748421773446e-06,1.6888765222097097e-07,6.492624081719833e-08,9.406892695407218e-07,-1.79998548860386e-07,7.502855625595838e-10,1.0404093250467605e-06,3.5193243392450545e-08,1.6605729507868713e-06,1.9130068000217207e-06,1.8045599363631967e-06,1.583241127889184e-06,1.568440300904578e-06
-3.850222396223114e-07,2.892654380010457e-07,-7.880191632174078e-07,-6.642330209700228e-07,-8.310684053181351e-07,1.5048616553912802e-06,2.1014168756420222e-07,2.2957283276075863e-08,8.905065704529762e-07,-2.459973314640601e-07,-5.736401074346109e-08,1.2146513405680413e-06,4.17407809138934e-08,1.7296267501923235e-06,1.8505043568844648e-06,1.8330362742614708e-06,1.5509140128532451e-06,1.5811309269713356e-06
-4.281972922624858e-07,2.523752911089639e-07,-7.890461348958179e-07,-6.59405887605026e-07,-7.335906612176637e-07,1.4045644975570164e-06,2.4976903002090066e-07,1.946445996584935e-09,8.387893725946795e-07,-3.231378007724799e-07,-1.3889802384455856e-07,1.2824943857815053e-06,5.25357751025897e-08,1.7599425048264883e-06,1.7523781204040828e-06,1.8339691007538897e-06,1.5162894416913778e-06,1.5825737740203653e-06
-4.726975135778451e-07,2.1236308104008137e-07,-7.638157572010372e-07,-6.297459111933718e-07,-6.288369274726964e-07,1.3204964573955623e-06,2.879950923632449e-07,4.071163122270575e-09,7.861937160175381e-07,-3.7983266968503925e-07,-2.0822132263974037e-07,1.409216236985333e-06,6.750572153687144e-08,1.795521834286046e-06,1.7115994372382958e-06,1.80744291687304e-06,1.4815913445959828e-06,1.5517266875962522e-06
-5.094559725864852e-07,1.713701083759526e-07,-7.160255865933949e-07,-5.381499499350456e-07,-5.234943073014917e-07,1.253640652715568e-06,3.263930481529579e-07,2.5873939601264803e-08,7.328916828266567e-07,-3.9206133132712935e-07,-2.4483706134620253e-07,1.4275885774087295e-06,8.685986585905564e-08,1.8281307903165282e-06,1.6600384446031733e-06,1.7529514302625804e-06,1.446926184055306e-06,1.5008606873401656e-06
-5.32799624748538e-07,1.3029000763408909e-07,-7.209018817397479e-07,-3.980199738662202e-07,-4.281288757818296e-07,1.1989691841626169e-06,3.6960215916946824e-07,6.133617763533919e-08,6.785451680382428e-07,-4.009942365857077e-07,-2.331872251492434e-07,1.398071398677973e-06,1.1238103289181152e-07,1.7807334546404774e-06,1.534656967620976e-06,1.6818139937592608e-06,1.4113950936703597e-06,1.4488447389504335e-06
-5.423457795246438e-07,8.812851714590103e-08,-7.251689319510142e-07,-2.7977330688874175e-07,-3.599951847527755e-07,1.1680190803800157e-06,4.246984264983701e-07,1.0511899845262248e-07,6.229869473262853e-07,-4.2143536724562555e-07,-2.0210588309512066e-07,1.353885576281655e-06,1.4728232849513455e-07,1.766330044159918e-06,1.3961836762846515e-06,1.6076070913515001e-06,1.3741328048713194e-06,1.4123291189832218e-06
-5.410636544274494e-07,4.2636251188318224e-08,-6.783362444559467e-07,-1.9932491916429662e-07,-2.6599974341254554e-07,1.1588092794767075e-06,4.964582635497868e-07,1.5462840610681265e-07,5.673181551690641e-07,-4.115557450805218e-07,-1.6245832691840154e-07,1.3161619604875865e-06,1.94564121946691e-07,1.788582275649989e-06,1.4017963743244067e-06,1.5353494052212932e-06,1.335243419102776e-06,1.380942040650849e-06
-5.333412165465783e-07,-7.877611275046836e-09,-6.025085465820917e-07,-1.1519069989575249e-07,-2.242327699312318e-07,1.17179210488392e-06,5.946340707274483e-07,2.1097025587795978e-07,5.152406073135023e-07,-3.83789491194421e-07,-1.1547920978298041e-07,1.3743896758764e-06,2.5501058819290113e-07,1.8116336037898531e-06,1.463056410517998e-06,1.4861141425296382e-06,1.2966195006042975e-06,1.3716914259020978e-06
-5.218776646372051e-07,-6.205924552678638e-08,-5.152936229196228e-07,-3.890646533107303e-08,-8.318956318911019e-08,1.1975527298870647e-06,7.155712895954829e-07,2.7838393802121704e-07,4.7385271372354557e-07,-3.6696514611546566e-07,-7.029763642193974e-08,1.4352190519212252e-06,3.259179915491856e-07,1.8206748326330957e-06,1.52830001522127e-06,1.4749756083529183e-06,1.2619812140668207e-06,1.3500403537747632e-06
-5.049158068932121e-07,-1.1388736514310485e-07,-4.1851097995312103e-07,2.9777469941856562e-08,1.340557145874947e-07,1.2413154442908321e-06,8.521358456716402e-07,3.612941626385496e-07,4.5221088821994633e-07,-3.6170536163344944e-07,-3.5805457245007257e-08,1.567603186071405e-06,4.011045552640323e-07,1.887811539128896e-06,1.6687689833726103e-06,1.5004951642238616e-06,1.2357241267436807e-06,1.3101141187695114e-06
-4.795336870726295e-07,-1.5401235491483127e-07,-3.4239924683502584e-07,1.7897864892610638e-07,2.7205253921262565e-07,1.3000658673504972e-06,9.719319377202477e-07,4.6015406111075566e-07,4.5672391484118587e-07,-3.730097414080872e-07,3.514673565555965e-08,1.6293000612168177e-06,4.725412943925232e-07,1.9007291855586656e-06,1.851993533898951e-06,1.5397021512207284e-06,1.2213290528267876e-06,1.3210899932174231e-06
-4.4435848313349323e-07,-1.7395593087779958e-07,-2.8092530110814913e-07,2.9515859034267694e-07,3.0561454997566134e-07,1.3632621682248349e-06,1.0670761716803299e-06,5.694110112555738e-07,4.856829676534662e-07,-3.745915353607428e-07,1.413883915793566e-07,1.5491954232866569e-06,5.33228657824654e-07,1.79547000949317e-06,1.95055189678174e-06,1.569768184664115e-06,1.220448630819371e-06,1.3541238673851638e-06
-4.0068058719054697e-07,-1.6941686314423372e-07,-2.311439277420567e-07,3.5572015849617925e-07,3.2391769245950807e-07,1.4190605968414539e-06,1.0797220275302392e-06,6.793404200235507e-07,5.27767356960992e-07,-3.5778913787748095e-07,2.5717301364575515e-07,1.4330317093288665e-06,5.794963869905963e-07,1.7024964308205365e-06,1.9787094098810116e-06,1.5876636416764403e-06,1.2327876786261643e-06,1.3740260552797422e-06
-3.499855624541244e-07,-1.3978425217006486e-07,-1.869280768106515e-07,4.103248976006231e-07,3.6121447929002507e-07,1.4498832328776994e-06,1.0122598748774016e-06,7.799305459788682e-07,5.669490367354569e-07,-3.064962377771106e-07,3.527713115955197e-07,1.3226038131767205e-06,6.109212466192357e-07,1.6609129623485226e-06,1.950433284009508e-06,1.579282949160269e-06,1.256036661285046e-06,1.4013988471903118e-06
-2.911359360095926e-07,-8.639551951244886e-08,-1.3217850304758407e-07,4.3930780379390085e-07,3.9560386341953204e-07,1.4463960431350174e-06,9.714316001904363e-07,8.641563060582991e-07,5.905128791379194e-07,-2.558452325052663e-07,4.316151286628931e-07,1.2303529866381608e-06,6.284432716179997e-07,1.5922140131308497e-06,1.9330171363079103e-06,1.551826775553691e-06,1.2856557432442956e-06,1.4228627357945317e-06
-2.2204307799385143e-07,-1.3427486923920386e-08,-6.636165314780877e-08,4.5568615443704936e-07,4.946890103146106e-07,1.4108499714213078e-06,9.606292399212517e-07,9.298945114290761e-07,5.947068387265235e-07,-2.0683232217847449e-07,4.810099310391014e-07,1.1471736168812804e-06,6.330518733155341e-07,1.5382251449294601e-06,1.8379673381190855e-06,1.5156022251859363e-06,1.3153510301957796e-06,1.4381874444830943e-06
-1.4372383474958758e-07,6.98094020299821e-08,3.6405912501522e-09,5.506208358528535e-07,5.787612024772548e-07,1.3599246437067093e-06,9.335967442451845e-07,9.807636316041322e-07,5.85555470390334e-07,-1.6359260091064227e-07,5.251686074547384e-07,1.0859522061920583e-06,6.261646032241381e-07,1.448777297940134e-06,1.6943677012687882e-06,1.481183795846114e-06,1.338740048979627e-06,1.4517276529918387e-06
-6.204095012762462e-08,1.4941182439992087e-07,7.281065230312806e-08,6.438954065017164e-07,6.285385502757671e-07,1.3126449475904383e-06,8.438245224746821e-07,1.0251770141879314e-06,5.755529973344117e-07,-9.820165639952076e-08,5.723391536478317e-07,9.53897756636028e-07,6.104042741468783e-07,1.3433872840686888e-06,1.5418628560401578e-06,1.4590408005555567e-06,1.3511818290217284e-06,1.4578806960182497e-06
1.4945996700396555e-08,2.1115085998224728e-07,1.3315552050605047e-07,6.956877798703863e-07,6.732974740698025e-07,1.2866025069319824e-06,7.379349334454188e-07,1.07273266116315e-06,5.780034810732527e-07,-9.889413506061931e-09,6.18346805044743e-07,8.340911852521979e-07,5.890810825181992e-07,1.2155765202835568e-06,1.4366008154641593e-06,1.4575775374505849e-06,1.3504576388926998e-06,1.4602358979896425e-06
