0,1,2,3,4,5,6,7,8,9,10,11,12,13,14,15,16,17
3.840511549587781e-08,-3.049981083269529e-07,4.984014331591996e-09,-4.2862464684776484e-07,1.9336881734394587e-07,2.1803881377760117e-08,5.537848103932129e-08,-5.8194412632856415e-08,1.1898979851834149e-07,1.4414162718121173e-07,-1.8440779818926591e-07,4.7092783970236236e-07,-1.3684826051685013e-07,-1.8623040385298047e-07,5.00368607177099e-09,-1.6965165718877655e-07,1.0671674642513001e-07,1.3852806414896046e-07
-2.237552469523123e-08,-1.9719671522092508e-07,3.4907085670133134e-08,-3.340843984518847e-07,1.991788770758309e-07,4.697311880467456e-08,1.171394731364073e-07,-1.1688204703447751e-08,1.570760290491977e-07,1.2848808522235356e-07,-1.3119693438250029e-07,4.4213882674025353e-07,-9.418582884218774e-08,-1.0336325583515982e-07,7.536263785108626e-08,-2.2739116348625235e-08,1.4147498237789605e-07,1.701658735108721e-07
-7.801531086715219e-08,-9.26677394904352e-08,6.18851471923614e-08,-2.3598251929441823e-07,1.9245105381301744e-07,7.398130770890295e-08,1.6627782696609235e-07,3.7564053637261226e-08,1.7809931310539587e-07,1.1639546670982888e-07,-7.878994229495205e-08,4.217592104909354e-07,-5.0191770610636815e-08,-1.3881724184030795e-08,1.3768923677132418e-07,1.0926031428592443e-07,1.762715027133475e-07,1.8760699215635685e-07
-1.1271173213333706e-07,-7.416528060866889e-09,8.209768177972705e-08,-1.4136788927037495e-07,1.7333085481659345e-07,9.91249147372526e-08,1.981206769145708e-07,8.443851784913428e-08,1.8186926596649393e-07,1.0643398247431291e-07,-3.0500543735516215e-08,4.042426540547763e-07,-9.59156795455064e-09,6.704166194102543e-08,1.8313349213302625e-07,2.0914810128137157e-07,2.0261944392674985e-07,1.8741262896329241e-07
-1.2373205144296402e-07,4.889830889147324e-08,9.276502069584492e-08,-5.653479987714151e-08,1.4474359578000154e-07,1.1885462587081433e-07,2.103400650984249e-07,1.235171971210198e-07,1.706432694602678e-07,9.672326689686916e-08,1.1467017558745722e-08,3.740890236989311e-07,2.4696357085036572e-08,1.263875573701331e-07,2.0675580669163211e-07,2.66878469949963e-07,2.1489491200867702e-07,1.7104055706616533e-07
-1.1351783963821748e-07,7.371803806519637e-08,9.389564529413753e-08,1.470020548879841e-08,1.1188189748831335e-07,1.3171241284089987e-07,2.0415371485495642e-07,1.51091773765757e-07,1.489197850736809e-07,8.584213353614193e-08,4.646624741037397e-08,3.1771674908314055e-07,4.895892542298565e-08,1.5684831609862413e-07,2.0882281605360277e-07,2.818420433826674e-07,2.1145663031003038e-07,1.4326841298067987e-07
-8.308816620921052e-08,7.186353612795086e-08,8.771523684520232e-08,7.144427061408125e-08,8.005476206077641e-08,1.3661626871055077e-07,1.833589789737229e-07,1.6567489642934634e-07,1.2142268083716323e-07,7.256863322153203e-08,7.462395439779808e-08,2.3492150430808154e-07,6.18854478746147e-08,1.5759333104324975e-07,1.9164807862010828e-07,2.602305065034516e-07,1.9316580380651348e-07,1.0930956364206328e-07
-4.029705822504795e-08,5.3697403160832936e-08,7.714700760624945e-08,1.1430192340659e-07,5.1384068853261565e-08,1.3173703360318119e-07,1.5111805098053377e-07,1.6524075603800124e-07,8.978808795828867e-08,5.491370853394729e-08,9.531518215339605e-08,1.2666089140370713e-07,6.463351729784454e-08,1.324930832292948e-07,1.573733696724561e-07,2.107694206009686e-07,1.6068233846126756e-07,7.212432477925152e-08
7.598307243695126e-09,3.096340534215104e-08,6.181104501661553e-08,1.4387154792717564e-07,2.3495305425360445e-08,1.1371947426765604e-07,1.0772021662657579e-07,1.4679379876954697e-07,5.206298502266256e-08,3.0264560036370144e-08,1.0641934265974435e-07,-3.8072994559402347e-10,5.84349688901907e-08,8.83532901631803e-08,1.0796901102383571e-07,1.4173711367626105e-07,1.1391556918901151e-07,3.209267736397354e-08
5.402936950698003e-08,1.3393647953455316e-08,3.991379211376974e-08,1.6049165539653413e-07,-8.463725947882937e-09,7.90960363931995e-08,5.180514340122087e-08,1.0818629616778106e-07,5.445088860114162e-09,-2.9128587726822567e-09,1.0538088116031282e-07,-1.3651023010395004e-07,4.5466236924677335e-08,3.414040664011641e-08,4.5848821114564186e-08,6.129737470793738e-08,5.2868845705301586e-08,-1.1585893902305014e-08
9.201930235287452e-08,6.812763915550829e-09,9.906881573526408e-09,1.6468271075931596e-07,-4.86816708577394e-08,2.750920092492342e-08,-1.7897994837861484e-08,4.985491372800954e-08,-5.080852436332039e-08,-4.355972629955258e-08,9.113691075659103e-08,-2.660626213904332e-07,2.78075031785145e-08,-2.002602337728592e-08,-2.5635647167122825e-08,-2.3476659637108325e-08,-2.1775086140128885e-08,-5.961350845668153e-08
1.1257555941391562e-07,1.3219700236800798e-08,-2.885733757839389e-08,1.574565880664428e-07,-9.87049034992139e-08,-3.878025502006558e-08,-1.0046307465351177e-07,-2.387492787048527e-08,-1.14157030338124e-07,-8.805076636726467e-08,6.45916693684634e-08,-3.75172779166254e-07,9.148430487594696e-09,-6.535523351498456e-08,-1.026309620328155e-07,-1.072926218692695e-07,-1.0856759532269222e-07,-1.1194357720235102e-07
1.1315923008805104e-07,3.1977943340827213e-08,-7.498862969515429e-08,1.4018569115774276e-07,-1.5692176737255496e-07,-1.1470530879485161e-07,-1.918342225408649e-07,-1.0592611652521696e-07,-1.791444658849969e-07,-1.3112493133335428e-07,2.8276552340975626e-08,-4.602447990373724e-07,-5.682912354263758e-09,-9.489712069941296e-08,-1.8190475240071285e-07,-1.8767738233817455e-07,-2.04944406933787e-07,-1.6791165902475555e-07
9.342549580992954e-08,5.893606071047697e-08,-1.260035036126774e-07,1.142095661710569e-07,-2.1990000475022462e-07,-1.9373232141422704e-07,-2.865410251527882e-07,-1.8996889140104088e-07,-2.400727395800174e-07,-1.675583822613479e-07,-1.5085116938079013e-08,-5.090348248068216e-07,-1.4905727688059134e-08,-1.0552064745990747e-07,-2.6079472302951066e-07,-2.649754585634291e-07,-3.0763084014996833e-07,-2.2664354409691366e-07
5.565365986185315e-08,8.615065981995687e-08,-1.8012736881920246e-07,7.975311677949418e-08,-2.850584035300186e-07,-2.743109769106042e-07,-3.794722182696728e-07,-2.7521885050894854e-07,-2.9477518376934435e-07,-1.9386350975585317e-07,-6.425743356369484e-08,-5.269453309900931e-07,-1.733948122917566e-08,-9.824288857929971e-08,-3.377017760794081e-07,-3.423965370732018e-07,-4.1324171748584343e-07,-2.8707722022511714e-07
6.871643437984153e-09,1.1264762353450728e-07,-2.3705171841372933e-07,3.54969779743571e-08,-3.52158756699466e-07,-3.595994131000691e-07,-4.6920409253713145e-07,-3.6749079986386164e-07,-3.4535835991580307e-07,-2.0870128902251003e-07,-1.1943998870239188e-07,-5.181053840416698e-07,-1.2285837965734397e-08,-7.53403489825637e-08,-4.1093909529383806e-07,-4.229539113699602e-07,-5.179071288915013e-07,-3.467736917034925e-07
-4.469437744605243e-08,1.327441112210534e-07,-2.9732078854981853e-07,-2.010354862503258e-08,-4.2235423835161877e-07,-4.552704123716984e-07,-5.559049971668372e-07,-4.7548483084684445e-07,-3.954675985968635e-07,-2.122452292318739e-07,-1.807941087427644e-07,-4.857906951986801e-07,-1.4164232663330627e-09,-4.041927524572172e-08,-4.779390300752489e-07,-5.06563970610545e-07,-6.171141890079279e-07,-4.014188745884241e-07
-9.223190745602714e-08,1.3849165401015533e-07,-3.610048616617631e-07,-8.72124660077189e-08,-4.968767669042183e-07,-5.669765364812781e-07,-6.395906276743568e-07,-6.060956119838233e-07,-4.481841573275432e-07,-2.0586018547384548e-07,-2.4750633267910735e-07,-4.3588596233438006e-07,1.371107755808981e-08,5.0410079974341796e-09,-5.361483585918407e-07,-5.906391552292564e-07,-7.06795210940442e-07,-4.4650629894177386e-07
-1.3235313146301173e-07,1.2990507102211422e-07,-4.2752534280538525e-07,-1.6389103077208038e-07,-5.767209772301546e-07,-6.973151999907311e-07,-7.196418440631023e-07,-7.608541082710473e-07,-5.053049477746179e-07,-1.9228694058142205e-07,-3.179971205823182e-07,-3.7183595037252726e-07,3.2212788796731575e-08,5.864572461828684e-08,-5.861229372281629e-07,-6.735555424168826e-07,-7.841737737030421e-07,-4.796373220084844e-07
-1.6553149776712402e-07,1.0627932675034044e-07,-4.956565796664165e-07,-2.457947210102985e-07,-6.618445099026887e-07,-8.436653533266009e-07,-7.945816722222085e-07,-9.337040330068402e-07,-5.663766487308143e-07,-1.7523775582275527e-07,-3.898564129328174e-07,-3.062917232394442e-07,5.21555362767215e-08,1.1646812949919482e-07,-6.252476668531848e-07,-7.499717902403709e-07,-8.472627266211058e-07,-5.016481978883701e-07
-1.948787358262031e-07,7.0149224426353e-08,-5.62934043649268e-07,-3.262812554321628e-07,-7.50034285577708e-07,-9.976039181801817e-07,-8.615287612579084e-07,-1.111086208471482e-06,-6.284662960696684e-07,-1.5863462376215164e-07,-4.5978874832715036e-07,-2.376919227110832e-07,7.148026630985287e-08,1.734578736022961e-07,-6.567305267385345e-07,-8.144505375934629e-07,-8.954188073258268e-07,-5.169079936332357e-07
-2.2376800048417626e-07,2.7986296801696394e-08,-6.266795133439754e-07,-3.982742335847226e-07,-8.377381999874922e-07,-1.1478404479021853e-06,-9.175431876961016e-07,-1.2770921381667063e-06,-6.885682796073471e-07,-1.4638211397644572e-07,-5.239542945234542e-07,-1.7415292728301402e-07,8.804725511568066e-08,2.2247615638827492e-07,-6.882943418124004e-07,-8.661117184660792e-07,-9.298960376645808e-07,-5.328961353808746e-07
-2.5468640282786606e-07,-1.2083170541372847e-08,-6.857684504697606e-07,-4.5710808736698956e-07,-9.225371240750357e-07,-1.2837831466987202e-06,-9.626551299887529e-07,-1.4197218575145807e-06,-7.462239811527031e-07,-1.422210793807267e-07,-5.800326937759731e-07,-1.1949400643288375e-07,9.866149926084919e-08,2.560840856825558e-07,-7.263099604930809e-07,-9.097881483572503e-07,-9.537297153541188e-07,-5.581080673765431e-07
-2.8834772690902016e-07,-4.349158116109523e-08,-7.410822853698588e-07,-5.016730283523244e-07,-1.0041994775342446e-06,-1.3986462679804303e-06,-9.996517843151292e-07,-1.5314567381693942e-06,-8.029556697280786e-07,-1.4883261473834485e-07,-6.262958637917532e-07,-7.460972247779419e-08,9.968435803932402e-08,2.6872712010080516e-07,-7.815788993826756e-07,-9.539739902221382e-07,-9.703134721373373e-07,-5.986136605399669e-07
-3.2431917401097226e-07,-6.108143977782998e-08,-7.932545114268983e-07,-5.333892033049668e-07,-1.083781578298978e-06,-1.4897486620757108e-06,-1.0328790129019302e-06,-1.6116355411074762e-06,-8.60652726405341e-07,-1.671168471760852e-07,-6.616737600522301e-07,-4.627223752965057e-08,8.89507990654488e-08,2.5853537998654907e-07,-8.545368464415312e-07,-1.0071740817625344e-06,-9.827900254289314e-07,-6.56351412713223e-07
-3.6261868768212003e-07,-6.266349368778893e-08,-8.429204206321551e-07,-5.551715175789164e-07,-1.1631009628095179e-06,-1.5585969651787825e-06,-1.0676085244434122e-06,-1.6654010416597455e-06,-9.219664459213107e-07,-1.968247355896153e-07,-6.865805791773474e-07,-3.094771559360526e-08,6.5097703836972e-08,2.2771621997473272e-07,-9.464262157099808e-07,-1.086967934797395e-06,-9.956081167979254e-07,-7.30572400930419e-07
-4.038281546974746e-07,-5.113585391270231e-08,-8.911805829360727e-07,-5.712001533631454e-07,-1.2447689540337388e-06,-1.6110511805701902e-06,-1.1095806308573402e-06,-1.7028455151748442e-06,-9.905664390461254e-07,-2.3746557893747406e-07,-7.031787905416246e-07,-3.2155271562186715e-08,2.7041675552633938e-08,1.7647236270651022e-07,-1.0588257633551267e-06,-1.2010285357367729e-06,-1.0148388095841483e-06,-8.191513277136773e-07
-4.467040022989411e-07,-3.1437906577608386e-08,-9.391311304906151e-07,-5.860046943887558e-07,-1.3305460303478325e-06,-1.654916191918683e-06,-1.1628111112546497e-06,-1.7362167847994114e-06,-1.0685307926028087e-06,-2.881171012686722e-07,-7.153010576748551e-07,-4.4437781082467965e-08,-2.4854531148949036e-08,1.0694323803409808e-07,-1.1769888455401974e-06,-1.3299506014214927e-06,-1.0461104346601199e-06,-9.183652585490115e-07
-4.867497388823354e-07,-1.0803437441147509e-08,-9.872240974282608e-07,-6.032040510226344e-07,-1.4193910583962266e-06,-1.6968770205976138e-06,-1.2280937323300526e-06,-1.7749897129060698e-06,-1.154072313778842e-06,-3.465109455568942e-07,-7.27444548124171e-07,-6.559723277925027e-08,-8.840913300048483e-08,2.450090769141388e-08,-1.3005325863284774e-06,-1.473422618690236e-06,-1.0927742234430085e-06,-1.0230867429959979e-06
-5.175621498448716e-07,2.5912105362477385e-09,-1.035362073580972e-06,-6.253047319920336e-07,-1.508166800936582e-06,-1.7420663641652385e-06,-1.3031645880334957e-06,-1.825672057994804e-06,-1.2433248774458224e-06,-4.092900314532004e-07,-7.445187842444986e-07,-9.363904152891506e-08,-1.602282859054279e-07,-6.780965346958615e-08,-1.428164345017885e-06,-1.6258211306590466e-06,-1.1560966948095156e-06,-1.1291318968734845e-06
-5.358443417389762e-07,5.984827431103498e-09,-1.0847701932721902e-06,-6.547009162083189e-07,-1.5945325420321638e-06,-1.7944773155904238e-06,-1.3862487338743515e-06,-1.8927979629178436e-06,-1.333396066880327e-06,-4.731754056857241e-07,-7.710798410921662e-07,-1.2529956345831936e-07,-2.377526289832337e-07,-1.6438084228883932e-07,-1.5662528795570252e-06,-1.7894043390150166e-06,-1.2351668348778533e-06,-1.2335416992979357e-06
-5.404658005531782e-07,-7.44874383107487e-09,-1.1379720938663572e-06,-6.935782950538903e-07,-1.6780280525964725e-06,-1.8566467668113464e-06,-1.4770585689807795e-06,-1.9779230333384174e-06,-1.422410638517528e-06,-5.354960417494305e-07,-8.100744334896522e-07,-1.6065574497963593e-07,-3.1962875575330716e-07,-2.6122217626307203e-07,-1.710785276619158e-06,-1.9574291916729997e-06,-1.3261984851523059e-06,-1.3347150918622515e-06
-5.352280236390035e-07,-3.933807456531533e-08,-1.1969590573149368e-06,-7.423748192335877e-07,-1.7586004962130475e-06,-1.9283403624066376e-06,-1.5756499307936805e-06,-2.0774940405002276e-06,-1.5081621534296056e-06,-5.94252858623763e-07,-8.616416700115223e-07,-1.9534114095810375e-07,-4.0478135099450427e-07,-3.5546389606187653e-07,-1.8557573421086236e-06,-2.1196910273166908e-06,-1.4239155180618959e-06,-1.4319953368262263e-06
-5.246303973319863e-07,-8.540559143891544e-08,-1.262059413299323e-06,-7.994205035960917e-07,-1.8357994543544627e-06,-2.007071276198021e-06,-1.6819984057573156e-06,-2.1853810702730153e-06,-1.5892402574811892e-06,-6.486713781371128e-07,-9.23741202637674e-07,-2.2791284902909462e-07,-4.929352373280898e-07,-4.4487139284318525e-07,-1.99656328321405e-06,-2.2682354671508665e-06,-1.524774536778504e-06,-1.5250592906867929e-06
-5.120254599375409e-07,-1.4276303098728008e-07,-1.3329886908729761e-06,-8.624412515060084e-07,-1.9096969483431174e-06,-2.0905161147110837e-06,-1.7968089214364659e-06,-2.296861666738779e-06,-1.6666335514340524e-06,-6.997823938004267e-07,-9.940652613403374e-07,-2.575305654336693e-07,-5.836393155116802e-07,-5.276824504824106e-07,-2.1116108680806886e-06,-2.3805444520076184e-06,-1.6282637184093988e-06,-1.6152427517311417e-06
-5.027660574641442e-07,-2.0764174001328395e-07,-1.4099056789244764e-06,-9.298800942833073e-07,-1.9810308260226158e-06,-2.177492558065403e-06,-1.9210867622175767e-06,-2.409559486075215e-06,-1.742608828268716e-06,-7.497988925886481e-07,-1.0708895815881773e-06,-2.85826065059066e-07,-6.751929569000687e-07,-6.011922652943878e-07,-2.2110342540676797e-06,-2.468110874771754e-06,-1.7354499685105512e-06,-1.7033552026936768e-06
-5.018199114551767e-07,-2.7338434812081504e-07,-1.4912724501534343e-06,-1.0009119338640867e-06,-2.049855795448733e-06,-2.2676065616735073e-06,-2.05400707113214e-06,-2.523180923787849e-06,-1.8186377128932204e-06,-8.009637744371704e-07,-1.1531255576161647e-06,-3.128559965766891e-07,-7.637251406577239e-07,-6.607512579890609e-07,-2.2935496958932607e-06,-2.5319137448554357e-06,-1.847040684589149e-06,-1.7885663240178888e-06
-5.129559820364183e-07,-3.384071943188994e-07,-1.5760927763030697e-06,-1.075540565399545e-06,-2.1155900992713185e-06,-2.361721164066598e-06,-2.192728150479194e-06,-2.6396057422582417e-06,-1.8957409486656608e-06,-8.552095212739156e-07,-1.240631327116867e-06,-3.373587026333232e-07,-8.439598353027623e-07,-6.995635431854975e-07,-2.3461630169950394e-06,-2.563999137889512e-06,-1.9636934420592204e-06,-1.8691078724380014e-06
-5.373137881926217e-07,-4.0093179247622084e-07,-1.6644021980657395e-06,-1.1550320153986206e-06,-2.1783842097430177e-06,-2.4624448560931986e-06,-2.3338174295589075e-06,-2.7634120576995117e-06,-1.9757072699435235e-06,-9.135681605744071e-07,-1.33392986730607e-06,-3.596567983742669e-07,-9.106052844840558e-07,-7.118887287633506e-07,-2.351852240667997e-06,-2.5545803724432168e-06,-2.0859846932472505e-06,-1.94297021320654e-06
-5.723082366695005e-07,-4.5909972411272074e-07,-1.7569480456976385e-06,-1.241184290693371e-06,-2.2382044005082573e-06,-2.573035521315064e-06,-2.4739018179476218e-06,-2.89937538063551e-06,-2.059930859826958e-06,-9.770227876972448e-07,-1.4334848930587342e-06,-3.7710821144273246e-07,-9.599007434227768e-07,-6.935867763338524e-07,-2.310160039612297e-06,-2.5023519281763557e-06,-2.2119556124043215e-06,-2.0076519758470857e-06
-6.104818519537436e-07,-5.145298388417477e-07,-1.853824677742154e-06,-1.334263104928287e-06,-2.2956393528147124e-06,-2.694478923757633e-06,-2.6086978194377957e-06,-3.0485594729359548e-06,-2.1478463062464777e-06,-1.0449935882047092e-06,-1.538213791117202e-06,-3.8350136957063636e-07,-9.90265818405879e-07,-6.41054966429559e-07,-2.251566864946019e-06,-2.427103958021415e-06,-2.3379748907576317e-06,-2.060341272702727e-06
-6.420088737716531e-07,-5.676379483959816e-07,-1.953392717417912e-06,-1.4327987234231683e-06,-2.3503593913312887e-06,-2.8246427647806465e-06,-2.7335890963474866e-06,-3.2086435249364805e-06,-2.2380614978427764e-06,-1.1156712783245356e-06,-1.6455029844100164e-06,-3.7870280552252677e-07,-1.0031011411010663e-06,-5.539812485341558e-07,-2.1914174424688288e-06,-2.31112084822828e-06,-2.4590092993095745e-06,-2.1005076263201496e-06
-6.5927624392102e-07,-6.162637032962717e-07,-2.0535112944473105e-06,-1.5341319515221787e-06,-2.4017816338946733e-06,-2.9590702415560925e-06,-2.8456990185837863e-06,-3.3751985426122133e-06,-2.3298947240327012e-06,-1.1874881931417496e-06,-1.7522427700768118e-06,-3.6299399098212196e-07,-1.003220615064451e-06,-4.331378460240928e-07,-2.1338256913437238e-06,-2.1936914385437404e-06,-2.5696293995767155e-06,-2.128183921594053e-06
-6.601881256058585e-07,-6.588955216352936e-07,-2.151532406887166e-06,-1.6349969398701726e-06,-2.4491393739254893e-06,-3.0914077453484382e-06,-2.944883790540725e-06,-3.540820385485507e-06,-2.421735678636746e-06,-1.258490865807569e-06,-1.8547181422447745e-06,-3.3742128210180527e-07,-9.96832532481275e-07,-2.7833726675363e-07,-2.116783212318375e-06,-2.1139720182577084e-06,-2.664662361485457e-06,-2.141274678993729e-06
-6.515008235790282e-07,-7.022189085244553e-07,-2.2438450047248364e-06,-1.7315049264748593e-06,-2.488860853051754e-06,-3.2130321389042347e-06,-3.0326761941787473e-06,-3.695020570755671e-06,-2.5089718121417186e-06,-1.3258217143344036e-06,-1.948525390284007e-06,-3.045195367544019e-07,-9.891883155488954e-07,-9.744564426087121e-08,-2.1329703395030387e-06,-2.042063706232262e-06,-2.7395567727589524e-06,-2.1402769157005368e-06
-6.420773608218961e-07,-7.402170021845564e-07,-2.326073509829837e-06,-1.8197550992530058e-06,-2.5155075073618666e-06,-3.3156071268458427e-06,-3.113239353851978e-06,-3.827711059331334e-06,-2.5860743069541287e-06,-1.3869717838779668e-06,-2.0294594385636918e-06,-2.6432654099446844e-07,-9.83807246293871e-07,1.0018329397921685e-07,-2.1459864752053136e-06,-1.9624166552071313e-06,-2.793185576744837e-06,-2.121347457887948e-06
-6.407610088504886e-07,-7.625624623625577e-07,-2.3955996638696688e-06,-1.8978431217185663e-06,-2.5256636616626314e-06,-3.3944321473248006e-06,-3.195035525938338e-06,-3.934139429134313e-06,-2.6490988405515627e-06,-1.439447093067997e-06,-2.0947934204807108e-06,-2.1696492881357942e-07,-9.820273690680694e-07,3.0210395642881105e-07,-2.0957646026897983e-06,-1.8581749687376976e-06,-2.8253162827191694e-06,-2.0848784768903743e-06
-6.505431770276326e-07,-7.675827488439977e-07,-2.452555514995668e-06,-1.9666184505382223e-06,-2.5196264630678934e-06,-3.449113510305257e-06,-3.288209803896721e-06,-4.015162945567497e-06,-2.697812908747175e-06,-1.4813073446544156e-06,-2.143162045333301e-06,-1.6490451625533572e-07,-9.831501962803844e-07,4.886699465977244e-07,-2.0061641221792945e-06,-1.7180705319818317e-06,-2.8344167660486904e-06,-2.033792038921029e-06
-6.670426238032606e-07,-7.393694925058086e-07,-2.497818875659914e-06,-2.02829014550802e-06,-2.498769657995302e-06,-3.4806194706869656e-06,-3.3987153195582086e-06,-4.073135772797246e-06,-2.7337842758005607e-06,-1.510004361290254e-06,-2.1735153311126993e-06,-1.0721463679068964e-07,-9.83672204780258e-07,6.582446612440046e-07,-1.8616845418983232e-06,-1.4956354967802994e-06,-2.8187216239060004e-06,-1.9660684606647405e-06
-6.797575054314536e-07,-6.728739480062371e-07,-2.5312939049787975e-06,-2.084729278371554e-06,-2.463876725882066e-06,-3.488590779607596e-06,-3.5237561673195254e-06,-4.1093433802000065e-06,-2.7547862610601634e-06,-1.523522272906668e-06,-2.184760419063069e-06,-4.062475605999285e-08,-9.783422709469992e-07,8.02630222462446e-07,-1.6938722904411954e-06,-1.258227827954689e-06,-2.776392905980821e-06,-1.8827364580691832e-06
-6.755842623677477e-07,-5.798603951549096e-07,-2.552122225988463e-06,-2.1375259494759655e-06,-2.4160418412246127e-06,-3.472127174716007e-06,-3.6525880819326606e-06,-4.124791245791523e-06,-2.7598756219153737e-06,-1.5206035242949817e-06,-2.176459959120909e-06,3.4373236990659925e-08,-9.621479505148348e-07,9.229663436907099e-07,-1.5161055760602531e-06,-1.024317563965822e-06,-2.70970570815602e-06,-1.790214927407627e-06
-6.394936358308923e-07,-4.702572927968303e-07,-2.5561835891011923e-06,-2.1883227231956276e-06,-2.357327987062164e-06,-3.4306528963798624e-06,-3.7703258082861122e-06,-4.120843487880846e-06,-2.7487082366064606e-06,-1.4999931180717702e-06,-2.149814288092386e-06,1.1631549563603878e-07,-9.315343424908112e-07,1.0262621516311391e-06,-1.3214159244646822e-06,-8.188121674228602e-07,-2.6235749779958337e-06,-1.7064754938595608e-06
-5.613906370324896e-07,-3.7430513261634706e-07,-2.5481042501404514e-06,-2.2383896005674418e-06,-2.290214708365708e-06,-3.364383430260895e-06,-3.86224886360396e-06,-4.098436969763651e-06,-2.7245297090206104e-06,-1.4648987665612192e-06,-2.1085729650260976e-06,2.029638333004044e-07,-8.86102906791699e-07,1.1158847276457016e-06,-1.1313402222293093e-06,-7.75772468069175e-07,-2.5252568750726633e-06,-1.687359850032099e-06
-4.471696452222222e-07,-2.8454624533652357e-07,-2.5297825225768195e-06,-2.288576643880656e-06,-2.2178601227296235e-06,-3.2762729624628123e-06,-3.918265517004724e-06,-4.060115470771271e-06,-2.6961431656248783e-06,-1.4170351040547484e-06,-2.060254174416319e-06,2.8974375164722894e-07,-8.300889636806982e-07,1.1953960683564833e-06,-9.674612488480416e-07,-7.647546496220525e-07,-2.4162844965553056e-06,-1.7264842029629632e-06
-3.1473156870868397e-07,-2.0931103248891064e-07,-2.505234155487229e-06,-2.339853956124599e-06,-2.146832782272686e-06,-3.1750554299698768e-06,-3.9375819625594735e-06,-4.012849918533826e-06,-2.685326201291969e-06,-1.366502962140657e-06,-2.0156633014859904e-06,3.703617750016378e-07,-7.724839807509081e-07,1.2611431502411614e-06,-9.066761220481694e-07,-6.976807263407142e-07,-2.303076246083162e-06,-1.7874840577419224e-06
-2.1055812808571654e-07,-1.587685713301962e-07,-2.483387465822587e-06,-2.393057104557945e-06,-2.085256409251428e-06,-3.0745440746344674e-06,-3.929951383779523e-06,-3.968398085835991e-06,-2.7268251408099736e-06,-1.3318014239122901e-06,-1.986079569012138e-06,4.3819631824833797e-07,-7.239794217288342e-07,1.3063892344975478e-06,-9.008959300429782e-07,-6.039406644390684e-07,-2.20296393768823e-06,-1.8047291834367157e-06
-1.881104902626145e-07,-1.4487142320383305e-07,-2.470161701766633e-06,-2.447808537434395e-06,-2.0405372803492367e-06,-2.989392936537214e-06,-3.912113387487133e-06,-3.938604982239269e-06,-2.8168647123675623e-06,-1.3548341302943118e-06,-1.9792953779903017e-06,4.856672678267288e-07,-6.936426564804147e-07,1.3193103124875527e-06,-9.183206223123798e-07,-5.6326193505902e-07,-2.1569925352408555e-06,-1.870886468616474e-06
-2.2663065429033981e-07,-1.8440708480196545e-07,-2.4694645868649815e-06,-2.502451114987019e-06,-2.0178211268079794e-06,-2.9313722166382745e-06,-3.90327655808848e-06,-3.933324579580631e-06,-2.8574013183098377e-06,-1.375896487308028e-06,-1.997434672651082e-06,5.092957447925872e-07,-6.865671993742418e-07,1.2917134173165736e-06,-9.152721701370423e-07,-5.135916019335039e-07,-2.1834982518079056e-06,-1.9576435861295783e-06
-2.8249311773540805e-07,-2.848058335597851e-07,-2.4825230491707623e-06,-2.55596166173379e-06,-2.01868075923766e-06,-2.9082003491057447e-06,-3.921398892965815e-06,-3.960693220864557e-06,-2.8967254818351446e-06,-1.41453713978088e-06,-2.0376985144915534e-06,5.09349919699701e-07,-7.036498765788125e-07,1.223838685538488e-06,-8.548301381281573e-07,-5.777569900885742e-07,-2.2408789858697507e-06,-2.020080626551551e-06
-2.857452133427811e-07,-4.4240756490906647e-07,-2.5154308703021282e-06,-2.60919112619839e-06,-2.044408408629243e-06,-2.9234604653155343e-06,-3.979320832147215e-06,-4.026087738720664e-06,-2.958387780889351e-06,-1.5103619381832606e-06,-2.0938292194009176e-06,4.908796542697547e-07,-7.419826066072622e-07,1.1137581916695784e-06,-8.934951400943372e-07,-6.39232208438336e-07,-2.2914827375144323e-06,-2.095248935097447e-06
-2.95896624425811e-07,-5.833387823897426e-07,-2.556161155851859e-06,-2.6644376771952306e-06,-2.0944219019273375e-06,-2.976226542146545e-06,-4.081189383848077e-06,-4.1307967362268e-06,-3.072625501852688e-06,-1.6145969855528518e-06,-2.1574941326069258e-06,4.583711913630191e-07,-7.944491333310263e-07,9.792114667889747e-07,-1.0039782780750446e-06,-6.672562255792329e-07,-2.3401053480930654e-06,-2.1573554689688885e-06
-3.1643773884861504e-07,-7.333308618537258e-07,-2.6010502972551856e-06,-2.724221439160945e-06,-2.165368671770067e-06,-3.061296068424058e-06,-4.2218716961304854e-06,-4.27044464172328e-06,-3.182195790402528e-06,-1.691898772426996e-06,-2.219930511789265e-06,4.165295707676266e-07,-8.533192820809597e-07,8.451445006471208e-07,-1.0984275386937055e-06,-6.789287724487226e-07,-2.3827975621824777e-06,-2.1944231320222145e-06
-3.536776862528554e-07,-8.804631488178747e-07,-2.6484906913171778e-06,-2.7902763274880566e-06,-2.2518324623545714e-06,-3.168547969928633e-06,-4.388362771077984e-06,-4.4332305378209844e-06,-3.2790241763452154e-06,-1.7458527671157322e-06,-2.2733232515225436e-06,3.700491688473452e-07,-9.118098034932257e-07,7.216503890208042e-07,-1.1847497669237855e-06,-6.923201720706176e-07,-2.4101323081799033e-06,-2.2073045615242015e-06
-3.988192096625873e-07,-9.911666647276967e-07,-2.6909736947250134e-06,-2.8626601455829898e-06,-2.343478813749615e-06,-3.2827521529602095e-06,-4.562444778090638e-06,-4.599202062902297e-06,-3.371642685239571e-06,-1.779170545590842e-06,-2.3114269513274287e-06,3.244546554968267e-07,-9.646161165926754e-07,6.258168322789066e-07,-1.2675209703387342e-06,-7.147334976760517e-07,-2.430953879054842e-06,-2.200620345097949e-06
-4.450634632077454e-07,-1.0861422579596506e-06,-2.724806565962523e-06,-2.9393218437967917e-06,-2.427747004199565e-06,-3.3864577263793453e-06,-4.724353382680047e-06,-4.74487893679027e-06,-3.381795634191338e-06,-1.7990014117337073e-06,-2.3301991068590414e-06,2.846816499635724e-07,-1.0092055375844765e-06,5.388073826834304e-07,-1.2970626162474975e-06,-7.285955926242701e-07,-2.4353252321426275e-06,-2.1804653585802477e-06
-4.905079435267692e-07,-1.1513777565977612e-06,-2.744164902088222e-06,-3.01693048338627e-06,-2.4936268467396913e-06,-3.464843399650937e-06,-4.857335709092087e-06,-4.850895229118265e-06,-3.383039963264949e-06,-1.8032007994719697e-06,-2.3285848181629905e-06,2.5229864674330356e-07,-1.045646347447744e-06,4.576913045188646e-07,-1.3045531897235928e-06,-7.927634059759111e-07,-2.4186362615458926e-06,-2.166545866571429e-06
-5.131814138354673e-07,-1.1973970039228744e-06,-2.744496984084881e-06,-3.091837447497214e-06,-2.5340929196875352e-06,-3.5088202274775876e-06,-4.950233153909581e-06,-4.906496810656592e-06,-3.433958257093788e-06,-1.790971704060284e-06,-2.308268313740236e-06,2.2701458323965116e-07,-1.0747348380005608e-06,3.6782314196221903e-07,-1.3465983810402344e-06,-8.921195616042421e-07,-2.3786330458861276e-06,-2.154192524631534e-06
-5.112342899717344e-07,-1.2407811163613222e-06,-2.7189051946887758e-06,-3.160476275147962e-06,-2.5460457691995167e-06,-3.514886373992684e-06,-4.996916736658827e-06,-4.909052215071657e-06,-3.4517526329065784e-06,-1.7662899890440037e-06,-2.2725141538235268e-06,2.057788925975893e-07,-1.0950869112434796e-06,2.506702380828103e-07,-1.3849269415855703e-06,-1.0211788941450478e-06,-2.3106730524716896e-06,-2.136781999264421e-06
-4.92421987302476e-07,-1.3275624903104572e-06,-2.6760794476590786e-06,-3.21950512687502e-06,-2.530157299597142e-06,-3.4840756070096498e-06,-4.9968393870918124e-06,-4.862062789284523e-06,-3.4458051950741793e-06,-1.728752840092094e-06,-2.2252942649243027e-06,1.8722283324482393e-07,-1.105059374874487e-06,1.043180279653073e-07,-1.4265611352580145e-06,-1.1783401032110286e-06,-2.220431405468428e-06,-2.1123360915852513e-06
-4.607924972163661e-07,-1.4380686498778155e-06,-2.620005908397484e-06,-3.2665823061247055e-06,-2.491100742990623e-06,-3.42193014017994e-06,-4.951573768041778e-06,-4.77313984007636e-06,-3.4165363739443765e-06,-1.6825793735901615e-06,-2.1706604436501634e-06,1.7122317414467423e-07,-1.1049897479741537e-06,-7.191922413001147e-08,-1.4807942653675307e-06,-1.3498945975151483e-06,-2.1166568005892736e-06,-2.0800711582569068e-06
-4.270293601065848e-07,-1.580255832962252e-06,-2.5545679356425383e-06,-3.300311792508047e-06,-2.4346699924482432e-06,-3.333957956571677e-06,-4.865452130259097e-06,-4.650957831276393e-06,-3.349035007697049e-06,-1.631432117596124e-06,-2.1121796259517317e-06,1.5929181766699585e-07,-1.0946596257364581e-06,-2.690146332251724e-07,-1.524288390799467e-06,-1.481606263189169e-06,-2.00799500326444e-06,-2.041253895472291e-06
-3.928004498911657e-07,-1.7521614095926181e-06,-2.487015397732094e-06,-3.319152076771407e-06,-2.3681550309325013e-06,-3.2250363480973145e-06,-4.744722882636294e-06,-4.50276735599476e-06,-3.2500673590868297e-06,-1.5775735949126218e-06,-2.0520831538939217e-06,1.5485958265152093e-07,-1.0771776257575016e-06,-4.6610637691861625e-07,-1.557453172655766e-06,-1.5546252583059981e-06,-1.9036663092645976e-06,-1.9985522311246535e-06
-3.5910906224360353e-07,-1.9172473158527566e-06,-2.4179058012140405e-06,-3.3209223364836062e-06,-2.295556303483734e-06,-3.0997397491218315e-06,-4.596092285048563e-06,-4.335354176999933e-06,-3.1282957632362885e-06,-1.52357390972238e-06,-1.9912314557983526e-06,1.6189364714439982e-07,-1.058130656687404e-06,-6.364422033073578e-07,-1.5740319668377003e-06,-1.5655218880635223e-06,-1.8088852580300047e-06,-1.9550661671152963e-06
-3.271756072736708e-07,-2.0561533882176165e-06,-2.3470254817466525e-06,-3.3030236906644242e-06,-2.2178400335572486e-06,-2.9608944303353728e-06,-4.427643905737319e-06,-4.155413866477174e-06,-3.012474515719254e-06,-1.4721267352712648e-06,-1.9293761627892626e-06,1.8563398746878113e-07,-1.0433814927739503e-06,-7.63048799813994e-07,-1.5634471685675143e-06,-1.497502748239691e-06,-1.7247911016621278e-06,-1.9108349474865813e-06
-2.9629494512609177e-07,-2.105099958261361e-06,-2.2723068415731236e-06,-3.2635100140688975e-06,-2.1344275408914346e-06,-2.809265341549116e-06,-4.247429853394741e-06,-3.968908435417391e-06,-2.9050693042344773e-06,-1.4241070824890532e-06,-1.8652981148609225e-06,2.2734490384566167e-07,-1.0382756871001789e-06,-8.481188382717804e-07,-1.5112141466978788e-06,-1.3719362102351524e-06,-1.6486780116311225e-06,-1.8675423847129645e-06
-2.695304986785562e-07,-2.0589085340933533e-06,-2.191642370662032e-06,-3.2025652019146596e-06,-2.042892647308091e-06,-2.6479798029806627e-06,-4.062885792806862e-06,-3.7777896979217174e-06,-2.800795037302109e-06,-1.3788156206291445e-06,-1.7971446759934897e-06,2.8645644677587637e-07,-1.0453669144362277e-06,-8.813941426487473e-07,-1.4355053583175353e-06,-1.2165324184736536e-06,-1.5749712307333425e-06,-1.825736647616621e-06
-2.460058228342385e-07,-2.0570364762566206e-06,-2.101059812496363e-06,-3.1240389951275337e-06,-1.9426633141697888e-06,-2.48117540901059e-06,-3.880984445100551e-06,-3.5898757033055754e-06,-2.7032063385365942e-06,-1.332016498723257e-06,-1.7229885075169791e-06,3.6129181090256864e-07,-1.0608585224794143e-06,-8.73040583259942e-07,-1.3438474617021802e-06,-1.0536241093937213e-06,-1.4982716947206714e-06,-1.7841877758284065e-06
-2.2599132400794232e-07,-1.9651628587614686e-06,-2.001842789255831e-06,-3.0376470624746326e-06,-1.8365300106643558e-06,-2.316555190691525e-06,-3.7064762224457675e-06,-3.416254653715379e-06,-2.607561199913456e-06,-1.2806571730218804e-06,-1.6413623203549195e-06,4.4785139792891765e-07,-1.076949799703043e-06,-8.437450646513229e-07,-1.2387925477510544e-06,-9.023749058709976e-07,-1.4134675215513104e-06,-1.7410844993580497e-06
-2.1543811674333269e-07,-1.8280633834168098e-06,-1.8982565304456856e-06,-2.9541927021238316e-06,-1.729962162529558e-06,-2.16101215657376e-06,-3.549013968409914e-06,-3.2635602524631646e-06,-2.5172718233581543e-06,-1.2205094535039085e-06,-1.5519001122414504e-06,5.420936592439315e-07,-1.0828367320572589e-06,-8.012293723273195e-07,-1.1257080918836122e-06,-8.078185916666822e-07,-1.3188024262137573e-06,-1.6930813186136874e-06
-2.0326336761596185e-07,-1.7235651449181827e-06,-1.7959743829240887e-06,-2.884643468113245e-06,-1.6298226761533732e-06,-2.021371517462445e-06,-3.4139919360525417e-06,-3.1392110120518597e-06,-2.4361452780696053e-06,-1.1481142551166938e-06,-1.4563525303514138e-06,6.397854485434836e-07,-1.0672575028620438e-06,-7.708352235411296e-07,-1.0132440564541162e-06,-8.063184080231304e-07,-1.215270918545277e-06,-1.6373848997356855e-06
-1.8136534516656854e-07,-1.6525592557646837e-06,-1.7024209129243345e-06,-2.8368926007684755e-06,-1.5425043212785467e-06,-1.9041160791898145e-06,-3.3025672266217652e-06,-3.0479270036217983e-06,-2.366423368252564e-06,-1.0636639410401117e-06,-1.3588174952933572e-06,7.353148854897353e-07,-1.0269492961498261e-06,-7.506287653501434e-07,-9.087014200555693e-07,-7.703495293082586e-07,-1.1068846353628018e-06,-1.573421028741506e-06
-1.4685221835001225e-07,-1.614667004670398e-06,-1.62125156765475e-06,-2.8160380642380085e-06,-1.4716898022913017e-06,-1.8127419259369507e-06,-3.214545175033028e-06,-2.9953269682695982e-06,-2.3109167905371784e-06,-9.835000351874111e-07,-1.264479900058481e-06,8.155692233706183e-07,-9.65162411504023e-07,-7.525634664691335e-07,-8.174888696122885e-07,-7.554162458336106e-07,-1.0010408117953779e-06,-1.5033809292181513e-06
-8.880352713642269e-08,-1.60718843508546e-06,-1.5532878328003554e-06,-2.8233587574197088e-06,-1.418581125600862e-06,-1.7486961364284829e-06,-3.1459469755302067e-06,-2.9866147361934018e-06,-2.271410200873001e-06,-9.012180380207666e-07,-1.178214585020107e-06,8.764866676488692e-07,-8.921224984863666e-07,-7.888069494122178e-07,-7.456660499681127e-07,-8.278295169269799e-07,-9.045147937009505e-07,-1.4321374017897564e-06
-1.7872999851431762e-08,-1.6077022033533558e-06,-1.497593533875531e-06,-2.8531842883104564e-06,-1.3821999294530897e-06,-1.7096666757242939e-06,-3.0924016840802005e-06,-3.0151420516358222e-06,-2.2482198498882396e-06,-8.105207913968529e-07,-1.1031059469426679e-06,9.188696566958475e-07,-8.262837406886634e-07,-8.544584608320275e-07,-6.89949769731332e-07,-9.796444106896244e-07,-8.23619516698838e-07,-1.365184589393331e-06
5.782068084515651e-08,-1.6067884690867692e-06,-1.4518342620221724e-06,-2.896373762277132e-06,-1.3612003890636135e-06,-1.6894993396542998e-06,-3.0493913394392984e-06,-3.078928913570789e-06,-2.238990384237447e-06,-7.40394021688852e-07,-1.0403709955357282e-06,9.447727163234589e-07,-7.760696365667285e-07,-9.469546318025028e-07,-6.533614411070986e-07,-1.1273195581862212e-06,-7.619655112226643e-07,-1.3074822836728302e-06
1.3447590166948582e-07,-1.5993286472732953e-06,-1.4130943795291175e-06,-2.9255370189779046e-06,-1.353652901779263e-06,-1.674238213986826e-06,-3.011975331153037e-06,-3.1132909778102786e-06,-2.238230464300117e-06,-6.86593011452211e-07,-9.878989789412334e-07,9.62905909053293e-07,-7.383709466621705e-07,-1.062533328875802e-06,-6.292289862608362e-07,-1.24334013704772e-06,-7.187533138200551e-07,-1.2608183978477783e-06
2.0654717441165772e-07,-1.5993811429118342e-06,-1.3811364773310864e-06,-2.9157220381378012e-06,-1.3602499405732986e-06,-1.6520157842439814e-06,-2.9713680357727564e-06,-3.0666763841311763e-06,-2.2384365226626535e-06,-6.68008588375577e-07,-9.421328547328883e-07,9.796541386244547e-07,-7.200954354590371e-07,-1.1687293511363359e-06,-6.110933599085389e-07,-1.23524035058023e-06,-6.895034049181593e-07,-1.2252994433413894e-06
2.7068334070838014e-07,-1.6199814319553103e-06,-1.350426942026024e-06,-2.8467086957304953e-06,-1.3700220129065167e-06,-1.6071662438612204e-06,-2.9138488850771653e-06,-2.9053324169938473e-06,-2.2320989018528062e-06,-7.022876091776796e-07,-8.98644565637709e-07,1.0029038765516233e-06,-7.13152785004217e-07,-1.22974096362138e-06,-5.921376701098769e-07,-1.124255526006527e-06,-6.671565986829423e-07,-1.2004312219429578e-06
3.2598891296777013e-07,-1.6776452573403815e-06,-1.3082216553313878e-06,-2.7727296897078665e-06,-1.3757986654724262e-06,-1.4908858343084734e-06,-2.8301654333522453e-06,-2.707526652596832e-06,-2.2126431507173334e-06,-7.079180364156535e-07,-8.523769736383191e-07,1.0338899525506459e-06,-7.147151027803094e-07,-1.2531133683995094e-06,-5.632049672545286e-07,-9.646586285058941e-07,-6.444110177788138e-07,-1.184263020874008e-06
3.7407648343194654e-07,-1.7346714784250112e-06,-1.2515182793828542e-06,-2.7195602786574995e-06,-1.3708047937624067e-06,-1.3490137241329017e-06,-2.712468654274592e-06,-2.5288023392135518e-06,-2.175976565446253e-06,-6.812037965229957e-07,-7.991445457463695e-07,1.068256946211626e-06,-7.245048928916465e-07,-1.1703349654771078e-06,-5.194866159110853e-07,-8.449432227907606e-07,-6.158084893033513e-07,-1.1738964007813834e-06
4.1512911893378385e-07,-1.7732007265280015e-06,-1.1698453678017024e-06,-2.667839011539522e-06,-1.3475229808436157e-06,-1.230573591052745e-06,-2.5611863094906323e-06,-2.3665461997051936e-06,-2.123652257260793e-06,-6.450409167463475e-07,-7.375277256861683e-07,1.1464640737717994e-06,-6.917639374561619e-07,-9.741601401936368e-07,-4.607188053229182e-07,-7.277334815404015e-07,-5.817648556130358e-07,-1.1663385767394523e-06
4.545959158249534e-07,-1.7929948096845449e-06,-1.0653778632945719e-06,-2.557515583619744e-06,-1.306328747192428e-06,-1.0648822715498052e-06,-2.381735944220046e-06,-2.1977595204428357e-06,-2.063566127772123e-06,-6.401899930535217e-07,-6.704780549154704e-07,1.224702090538031e-06,-5.578510471590364e-07,-7.901650381809003e-07,-4.090794701352704e-07,-5.729074466048714e-07,-5.490922751963478e-07,-1.1593506181641657e-06
4.957448994122823e-07,-1.7066862566726075e-06,-9.55834490877428e-07,-2.414018681467468e-06,-1.2502225014858836e-06,-8.988479066429272e-07,-2.1856404722065246e-06,-2.0453540547578e-06,-2.005690030624406e-06,-6.901902771185869e-07,-6.045890472991773e-07,1.2915813366390066e-06,-4.509651191495806e-07,-6.726398742345582e-07,-3.679595702196263e-07,-3.4701970934736593e-07,-5.278383153755562e-07,-1.1511241532784283e-06
5.327920550988932e-07,-1.675031062837305e-06,-8.431754445767977e-07,-2.2666376723286483e-06,-1.1826258286583964e-06,-8.195409749456032e-07,-2.007051330939659e-06,-1.935335449508209e-06,-1.9568510841360617e-06,-7.741495533169561e-07,-5.478369733091281e-07,1.3253076659008502e-06,-2.934576462754869e-07,-5.711520903201492e-07,-3.4204392682928693e-07,-7.129780289931492e-08,-5.277408816651314e-07,-1.140748947183204e-06
5.81372765502851e-07,-1.665161133074148e-06,-7.535161141913476e-07,-2.1780248646057193e-06,-1.0965274797889882e-06,-7.974850432101463e-07,-1.833355931672199e-06,-1.8481633889766238e-06,-1.918524162868105e-06,-8.198936440692855e-07,-5.063018627796076e-07,1.3029460615252074e-06,-1.0986802092382086e-07,-3.3900791250725305e-07,-3.3603122796778536e-07,1.287449790770111e-07,-5.548840170975929e-07,-1.128717554915819e-06
6.356281844853599e-07,-1.6537663116676195e-06,-6.883484002548574e-07,-2.102009018633869e-06,-1.0095748408625775e-06,-8.372602524533695e-07,-1.7138148311378245e-06,-1.7822456818311317e-06,-1.8873852300570355e-06,-8.398639606152583e-07,-4.825577096764682e-07,1.2054198824953271e-06,3.648293731783104e-08,-9.898492545436613e-08,-3.3054355987530393e-07,2.298278562688969e-07,-6.094799378619815e-07,-1.1181269908429536e-06
6.855169784798995e-07,-1.6682526763195288e-06,-6.674556309100694e-07,-1.9992958435726404e-06,-9.308089393687559e-07,-8.504311624162499e-07,-1.6556517055418945e-06,-1.7664810730941695e-06,-1.8602758076621564e-06,-8.341648303769957e-07,-4.759425266215071e-07,1.0965691137435595e-06,8.249560648364297e-08,1.6836541404899202e-08,-3.3823953922077634e-07,1.8768434780349311e-07,-6.870670584726578e-07,-1.1158683095551902e-06
7.250022291137158e-07,-1.7010504737422407e-06,-6.763455602169238e-07,-1.9769358261041522e-06,-8.672985297157847e-07,-8.660499971514182e-07,-1.6838920832697428e-06,-1.7808625876922185e-06,-1.8388951228130497e-06,-8.783940606352922e-07,-4.840083319870576e-07,1.0339141686676133e-06,3.7317781796043645e-08,5.348242321621477e-08,-3.7101620489374834e-07,1.2464878978795102e-07,-7.798928346977934e-07,-1.1315650888097096e-06
7.391390001734078e-07,-1.7099392588266972e-06,-6.734960264173116e-07,-2.0046879674058293e-06,-8.718479550947392e-07,-8.316375260414532e-07,-1.7971005425513881e-06,-1.7739581834187666e-06,-1.8287949280618152e-06,-8.964741834814244e-07,-5.033217515394061e-07,9.732637950721148e-07,-4.1947967765216776e-08,-3.575548654658997e-08,-4.331945035874272e-07,1.454869250008083e-07,-8.78767481287834e-07,-1.1736175542832902e-06
7.388379989114106e-07,-1.6739740230278978e-06,-6.259414303384459e-07,-2.0270207398387115e-06,-9.12795188271522e-07,-8.133499955591504e-07,-1.7691619951944633e-06,-1.8434587451580673e-06,-1.8346229830669133e-06,-8.638331301444649e-07,-5.293856796284686e-07,9.393963143614051e-07,-1.1405668129652335e-07,-1.57645899102568e-07,-4.980699503116692e-07,9.675031969178595e-08,-9.749553279794346e-07,-1.2451946066033707e-06
7.263336357691204e-07,-1.6096741543340417e-06,-5.962506835537679e-07,-2.0283288392349816e-06,-9.292398561144184e-07,-8.644808197881781e-07,-1.7321293488311657e-06,-2.016013749366336e-06,-1.8563175891674725e-06,-8.430322429463447e-07,-5.57529027171269e-07,9.378999882240355e-07,-1.5541847620515914e-07,-2.7232807836081964e-07,-5.681760702284775e-07,7.134073382444206e-09,-1.063152988911861e-06,-1.3429643553296975e-06
7.16666287765429e-07,-1.5735794787931908e-06,-5.905612940605183e-07,-2.0215076594765996e-06,-9.649972678321197e-07,-9.669228911077213e-07,-1.715321674082696e-06,-2.208690329212076e-06,-1.8892332296642807e-06,-8.339326215696117e-07,-5.836725018074783e-07,9.470933473569634e-07,-1.4940747776300412e-07,-4.006032296349651e-07,-6.48630917632775e-07,-5.398943108163314e-08,-1.143521211593555e-06,-1.459276236906767e-06
6.940577382237718e-07,-1.5207198072696928e-06,-6.443512629393838e-07,-2.0081896166782817e-06,-1.0618925581498855e-06,-1.0907171176272443e-06,-1.8062227910265815e-06,-2.387550641335714e-06,-1.926600482144742e-06,-8.318556229026438e-07,-6.057617776694164e-07,9.243891801074482e-07,-1.878623408523467e-07,-4.356193841613201e-07,-7.355005801474896e-07,-2.0911078182121123e-07,-1.220108824816832e-06,-1.5842163308455398e-06
6.634486928757985e-07,-1.5009380417766142e-06,-7.063011917086649e-07,-1.9938386163431853e-06,-1.1865403860932543e-06,-1.2424687759935827e-06,-1.959535711533457e-06,-2.5665964097751225e-06,-1.9615749842453163e-06,-8.721051448280309e-07,-6.237568663347265e-07,8.84058803635013e-07,-2.1634637434962442e-07,-5.070668870189323e-07,-8.727459852243555e-07,-4.284107698790857e-07,-1.2970753316099281e-06,-1.7074544409468885e-06
6.407702481649419e-07,-1.4055391208033427e-06,-7.760099047618426e-07,-1.9838938975558183e-06,-1.2888501874076874e-06,-1.3539542222446185e-06,-2.1327925736207208e-06,-2.6706783968727667e-06,-1.9883848630027365e-06,-9.225936828376059e-07,-6.382393962497454e-07,8.298085375285712e-07,-3.1305317725380855e-07,-6.539336552660228e-07,-1.0382663978806697e-06,-6.60512710958616e-07,-1.3747170513157416e-06,-1.8197025374387249e-06
6.332957802385723e-07,-1.3405014708595643e-06,-8.575093698193499e-07,-1.9811494050921546e-06,-1.3756145413173791e-06,-1.426504924748581e-06,-2.3298676602175497e-06,-2.7212687377239943e-06,-2.0024181017396732e-06,-9.736409748045575e-07,-6.494977257561821e-07,7.620573572546047e-07,-4.452372047621733e-07,-8.984336851976256e-07,-1.2069756362168283e-06,-8.960137775043648e-07,-1.4484504496212423e-06,-1.9133091520904997e-06
6.534227084555287e-07,-1.319254691459317e-06,-9.146894205806445e-07,-1.984771230360222e-06,-1.4493756236000896e-06,-1.513883835343375e-06,-2.474387922660237e-06,-2.7414463310162293e-06,-2.0004828988344526e-06,-1.0252561926497597e-06,-6.571503889556467e-07,6.53559548634683e-07,-5.735138583675071e-07,-1.188443410843776e-06,-1.37341562647129e-06,-1.0647493872135157e-06,-1.5115441848055123e-06,-1.9835031912028e-06
6.935595680553268e-07,-1.3713880172048767e-06,-9.55989642648508e-07,-1.991545834799047e-06,-1.5098787534971724e-06,-1.6064897516732175e-06,-2.5648613941802454e-06,-2.7748088725818084e-06,-1.9818777115939825e-06,-1.0640371077307048e-06,-6.60868514150312e-07,5.27750450433956e-07,-6.905836867934717e-07,-1.4590816524618518e-06,-1.5448778783002503e-06,-1.1862024368398015e-06,-1.5594651201721418e-06,-2.029746251369305e-06
7.370834230838448e-07,-1.4142816500059516e-06,-9.867790951120287e-07,-1.9988189952592156e-06,-1.560237735057486e-06,-1.7111083749647617e-06,-2.6223990922826474e-06,-2.786555900214554e-06,-1.9482828283146257e-06,-1.0894446136967615e-06,-6.609318593165224e-07,4.146783875959637e-07,-7.586758483391672e-07,-1.7510353053436617e-06,-1.7169023227619787e-06,-1.2869034546139421e-06,-1.5920121218918249e-06,-2.0557123142100685e-06
7.58809456830973e-07,-1.4194393114348694e-06,-1.0076985644841303e-06,-2.0051642107566057e-06,-1.6040923011857727e-06,-1.7973021157587508e-06,-2.689463308203879e-06,-2.779483861613551e-06,-1.9023687222978621e-06,-1.1017916555440786e-06,-6.582973730288495e-07,3.1479165058732484e-07,-7.929494923069134e-07,-1.991949027453733e-06,-1.886190545842097e-06,-1.37656536075286e-06,-1.6128888904316497e-06,-2.0675624010152608e-06
7.608528596445025e-07,-1.4347771978826032e-06,-1.0282315339359825e-06,-2.010814498895387e-06,-1.6430401492334698e-06,-1.8638634273174913e-06,-2.744646773811395e-06,-2.769170979984876e-06,-1.8471635859257441e-06,-1.1012280972073303e-06,-6.541975842742348e-07,2.627826918341603e-07,-8.085117887471142e-07,-2.174879414050772e-06,-2.0539818858995536e-06,-1.4794854698077811e-06,-1.6273272094644017e-06,-2.072176755731111e-06
7.35274732447705e-07,-1.4031934452901384e-06,-1.0492048367986492e-06,-2.0175149794061e-06,-1.6819199348497143e-06,-1.9228019318477906e-06,-2.7899541752579625e-06,-2.7468552821657357e-06,-1.787598219965223e-06,-1.0923904816674446e-06,-6.498993109179644e-07,2.4508274884112477e-07,-8.161128387258786e-07,-2.327181791309533e-06,-2.18434055791136e-06,-1.5926147203926223e-06,-1.6407178652680081e-06,-2.075316023089466e-06
6.727953465895529e-07,-1.3945092238200086e-06,-1.0713561481979992e-06,-2.027845392465226e-06,-1.7228204627609716e-06,-1.9774734029083547e-06,-2.838418434954946e-06,-2.731608952624888e-06,-1.7307448685052083e-06,-1.0832472045274446e-06,-6.464855933638079e-07,2.1403192746316034e-07,-7.905221447912936e-07,-2.4370721271432385e-06,-2.2894354685445896e-06,-1.7086685694838105e-06,-1.6563050558022424e-06,-2.079832657411996e-06
5.892578723013457e-07,-1.4347903810865413e-06,-1.096785584641617e-06,-2.0439574008406187e-06,-1.7670786844125222e-06,-2.03862505041415e-06,-2.8800276412718317e-06,-2.7264770025770686e-06,-1.6836025137015093e-06,-1.0811133555413351e-06,-6.446090140528884e-07,1.5443141014096933e-07,-7.436506454770656e-07,-2.529945477928922e-06,-2.3819986642261197e-06,-1.8228390431502594e-06,-1.6740047098627376e-06,-2.0854694287891487e-06
4.999223779077288e-07,-1.5083401861218276e-06,-1.126098355218198e-06,-2.0665692210445496e-06,-1.8165770093290198e-06,-2.0972455107089582e-06,-2.9261873978264284e-06,-2.728677224123596e-06,-1.651256980143367e-06,-1.0911645977780491e-06,-6.445200204088453e-07,9.549575270924813e-08,-6.896029062853211e-07,-2.5751404321944816e-06,-2.4613334264715513e-06,-1.9285833265309045e-06,-1.692775555670475e-06,-2.09088249935582e-06
4.137422599255744e-07,-1.6258850249819681e-06,-1.1591415441745146e-06,-2.0950432850904475e-06,-1.8716043137937498e-06,-2.155304592364076e-06,-2.9765941392846933e-06,-2.728844412875959e-06,-1.6367285675656555e-06,-1.1161847524427684e-06,-6.477945071265616e-07,2.437523816160467e-08,-6.293330115928034e-07,-2.594836563009751e-06,-2.532356105261518e-06,-2.0221264949844876e-06,-1.711971418466142e-06,-2.095239216856383e-06
3.472414816100608e-07,-1.7574228509648332e-06,-1.1937465008667373e-06,-2.1276404929305827e-06,-1.9327134420784297e-06,-2.2163480718092378e-06,-3.0288003201468747e-06,-2.740400568801877e-06,-1.639427284552344e-06,-1.1559765467039662e-06,-6.561348714794252e-07,-7.467943807165544e-08,-5.701776380082234e-07,-2.597009880499908e-06,-2.598080934164717e-06,-2.100220457052188e-06,-1.731338919204456e-06,-2.0990312837864877e-06
3.089273574603742e-07,-1.8892298058999702e-06,-1.2299356889806525e-06,-2.1609769573848446e-06,-1.9994714692140387e-06,-2.2863139880027867e-06,-3.0743790049688746e-06,-2.7611427871349357e-06,-1.6551610956191399e-06,-1.2079537966445347e-06,-6.710413328516959e-07,-1.8599771925120221e-07,-5.146882587523071e-07,-2.589358419294267e-06,-2.661637400661473e-06,-2.1654307008319325e-06,-1.7522645511121353e-06,-2.104516029447808e-06
2.9234076846055814e-07,-1.996075533259489e-06,-1.2675915642937932e-06,-2.192202663482342e-06,-2.070774926192339e-06,-2.363660313433826e-06,-3.12541644487996e-06,-2.7850569343759137e-06,-1.6804101889961725e-06,-1.2679074202748266e-06,-6.933773415290258e-07,-3.0823134902595327e-07,-4.6488352603999525e-07,-2.5845671061622056e-06,-2.726656131425274e-06,-2.2244452772252685e-06,-1.7767695348882008e-06,-2.1149655037207352e-06
2.9658034867949615e-07,-2.0737884417178785e-06,-1.3062123126771428e-06,-2.2194026074646498e-06,-2.1459129383486856e-06,-2.443366396325988e-06,-3.1833303355684422e-06,-2.8152138248269815e-06,-1.7129886807256863e-06,-1.3333807995815675e-06,-7.216663132276515e-07,-4.4025526469940514e-07,-4.211974396383488e-07,-2.5786726718580046e-06,-2.804750779691816e-06,-2.281213479778357e-06,-1.8068042207101154e-06,-2.133674039789306e-06
3.201037184029726e-07,-2.1181105089178742e-06,-1.3454927365161941e-06,-2.242081129792837e-06,-2.2238151209300693e-06,-2.5235846695707952e-06,-3.245309435843742e-06,-2.8492127100310212e-06,-1.7516367578780463e-06,-1.4029713729459976e-06,-7.577386569913597e-07,-5.764067354086938e-07,-3.9961599136758005e-07,-2.565085363446288e-06,-2.893791286403798e-06,-2.3377345521595095e-06,-1.8444492512364428e-06,-2.160119735594213e-06
3.550066692903176e-07,-2.1144235352316093e-06,-1.3850811465365273e-06,-2.261396952152985e-06,-2.3026597816595825e-06,-2.6021200647935563e-06,-3.3136619143292864e-06,-2.8891205150010478e-06,-1.7958450582153742e-06,-1.4758410181367186e-06,-8.040367540469539e-07,-7.113476768075352e-07,-3.9933130254927045e-07,-2.5626432811647187e-06,-2.9903315912068623e-06,-2.3924768470044367e-06,-1.8919293688342655e-06,-2.1942456443142036e-06
3.9459550487257215e-07,-2.0817918592213504e-06,-1.4253180221250346e-06,-2.2799547616748793e-06,-2.381052011497947e-06,-2.679995466148955e-06,-3.3833019195193313e-06,-2.938251133180501e-06,-1.8448648472074961e-06,-1.5491622672463269e-06,-8.617445968210765e-07,-8.511407926017218e-07,-4.1588778466238713e-07,-2.571375559352018e-06,-3.0926718198685844e-06,-2.4416046437553015e-06,-1.95102908567181e-06,-2.2333339901177047e-06
4.314196389489559e-07,-2.0505141423214235e-06,-1.4673945118114237e-06,-2.299173139878689e-06,-2.4577835823803444e-06,-2.757925880689248e-06,-3.4521701213088707e-06,-2.997026107207448e-06,-1.8966737355909282e-06,-1.6208085351026303e-06,-9.299707974637696e-07,-9.905520109106702e-07,-4.444775011478305e-07,-2.5925716229644513e-06,-3.19261991406566e-06,-2.4816805932821692e-06,-2.0216469457965292e-06,-2.2720958834147753e-06
4.5638211786802726e-07,-2.025722152579339e-06,-1.5124973772731847e-06,-2.322515668953209e-06,-2.5318869976409723e-06,-2.8342514180961106e-06,-3.5202878608057697e-06,-3.0616860302723653e-06,-1.948040345871293e-06,-1.687798543399262e-06,-1.0038164049776465e-06,-1.1223855963857143e-06,-4.817706324919478e-07,-2.6232886781607437e-06,-3.2871461911544774e-06,-2.5097864184926765e-06,-2.1013305912666407e-06,-2.306456792665938e-06
4.600501285974128e-07,-2.0111141126379285e-06,-1.5604172510829278e-06,-2.3518160782835334e-06,-2.6027598380247487e-06,-2.9052727578581843e-06,-3.585941217270353e-06,-3.1267689300356872e-06,-1.996397712819029e-06,-1.7471775633654244e-06,-1.0779755924077306e-06,-1.245539943358488e-06,-5.256794896927233e-07,-2.6562417137690704e-06,-3.372506369067837e-06,-2.521772581464006e-06,-2.1859721890900563e-06,-2.334479022078574e-06
4.403194131406811e-07,-2.004483136341501e-06,-1.6100280369461363e-06,-2.38555602551991e-06,-2.6690586466612474e-06,-2.966921056127788e-06,-3.6488020400117194e-06,-3.1880246478613545e-06,-2.040371265076427e-06,-1.7986507390393281e-06,-1.148590626353145e-06,-1.3412542485449675e-06,-5.738769792577331e-07,-2.6894397185293e-06,-3.4454368943183924e-06,-2.516326988392306e-06,-2.2711322453754513e-06,-2.3581738616644775e-06
4.006062007182539e-07,-2.004425258410092e-06,-1.65953213773442e-06,-2.421202350928882e-06,-2.7289890754305307e-06,-3.0155274230808135e-06,-3.7097974460999193e-06,-3.2409957701769703e-06,-2.082512758373272e-06,-1.8427640554420721e-06,-1.213969257933113e-06,-1.413656742146416e-06,-6.258205017666212e-07,-2.716834757714263e-06,-3.505079895642904e-06,-2.4949483201286825e-06,-2.3526664876172173e-06,-2.3825398164892895e-06
3.569608367659825e-07,-2.0139558019779645e-06,-1.7068468726365644e-06,-2.4552297847111467e-06,-2.7800165592577154e-06,-3.0471086095226077e-06,-3.769711709511558e-06,-3.281734065169591e-06,-2.121888795294404e-06,-1.8815357369943923e-06,-1.2727299413870837e-06,-1.4655995183569714e-06,-6.778127566207137e-07,-2.7348986959407757e-06,-3.551897047165372e-06,-2.462004051998558e-06,-2.4273380696181163e-06,-2.4143679575398664e-06
3.22586108528848e-07,-2.048290159523441e-06,-1.7510189831377324e-06,-2.4856577166224004e-06,-2.8207479350487792e-06,-3.0602559414513274e-06,-3.830952165483186e-06,-3.308369403677471e-06,-2.1635379679456194e-06,-1.918032492659391e-06,-1.324225537654261e-06,-1.4914865461606336e-06,-7.280881073907491e-07,-2.7309474480335e-06,-3.5888417310957987e-06,-2.426398991467029e-06,-2.494571754119871e-06,-2.459708930594906e-06
3.1066115051745237e-07,-2.1183287034172753e-06,-1.7927313249159197e-06,-2.5136530845052626e-06,-2.8522506675326534e-06,-3.0568489332388494e-06,-3.896745314232694e-06,-3.3215560548647814e-06,-2.2089414753782328e-06,-1.9559457943726675e-06,-1.3683955342759523e-06,-1.4971224978277568e-06,-7.729162083801976e-07,-2.6986032655647323e-06,-3.6201590546431483e-06,-2.399773245160043e-06,-2.554330075371956e-06,-2.5229474670811114e-06
3.391361697630818e-07,-2.1830646200666474e-06,-1.834006939050972e-06,-2.5435524314647873e-06,-2.8769261704386023e-06,-3.04125335361593e-06,-3.969421513540613e-06,-3.324292850629392e-06,-2.2565937481261193e-06,-1.99789419215649e-06,-1.405325640096553e-06,-1.4851741074073155e-06,-8.121605267891481e-07,-2.6373218615162976e-06,-3.6502719744992495e-06,-2.393450789192128e-06,-2.6125107774422533e-06,-2.605019673050597e-06
3.757452734081953e-07,-2.241443627568549e-06,-1.8767658136433805e-06,-2.5803253743681023e-06,-2.896670199920483e-06,-3.0192487144082624e-06,-4.047865340754342e-06,-3.32226873817648e-06,-2.304197074807028e-06,-2.0450611346344132e-06,-1.4367345033430963e-06,-1.4607961949546383e-06,-8.435816990890055e-07,-2.557589689931427e-06,-3.6809241554042603e-06,-2.4157056910234272e-06,-2.6758029634797177e-06,-2.7033760247474757e-06
4.4477409906270217e-07,-2.2785220983791508e-06,-1.922144595201854e-06,-2.628344244510534e-06,-2.911008866747421e-06,-2.9994214882975487e-06,-4.127892152397232e-06,-3.321389848098591e-06,-2.348095609662051e-06,-2.0969190868976264e-06,-1.4658555471727448e-06,-1.4310597211364187e-06,-8.675004234064227e-07,-2.4697240557529733e-06,-3.7117721632610264e-06,-2.466831605953483e-06,-2.7480106276367455e-06,-2.807448227340843e-06
5.183544519329727e-07,-2.281054380180628e-06,-1.969162586173477e-06,-2.689783874416831e-06,-2.9177044561894615e-06,-2.9847189534818974e-06,-4.202454498354921e-06,-3.329706264104137e-06,-2.3855354941458354e-06,-2.1505340004196016e-06,-1.496537607370303e-06,-1.4078801935419558e-06,-8.870283399066643e-07,-2.3888101438600205e-06,-3.740145960377658e-06,-2.540558637409774e-06,-2.830349546211955e-06,-2.9035520222143013e-06
5.894574913794804e-07,-2.248381645893653e-06,-2.0163621223607517e-06,-2.763689426045438e-06,-2.9138768028634566e-06,-2.974289360322159e-06,-4.2638508433709204e-06,-3.3487952665698867e-06,-2.4147502093988537e-06,-2.2019232981254613e-06,-1.5320851228379415e-06,-1.3958358050643502e-06,-9.077424350443623e-07,-2.327833437033713e-06,-3.7649773212247405e-06,-2.6233324461700017e-06,-2.919042475861666e-06,-2.9801575465920276e-06
6.507796745661713e-07,-2.1854142855452697e-06,-2.0607765887003514e-06,-2.8472909206442273e-06,-2.8985656938529055e-06,-2.9666204763089636e-06,-4.307981024944112e-06,-3.377714623100314e-06,-2.4388368558054883e-06,-2.247647966343551e-06,-1.5732252957294194e-06,-1.3932230266450602e-06,-9.348462130030975e-07,-2.302631830083847e-06,-3.7819820340323908e-06,-2.7009734901383538e-06,-3.0080092786050304e-06,-3.031472123881971e-06
7.005359320496856e-07,-2.1146188122058562e-06,-2.1002788103270005e-06,-2.937047118199651e-06,-2.8740578360161564e-06,-2.9592320954613624e-06,-4.339623343872693e-06,-3.415435863921879e-06,-2.4629187130529364e-06,-2.2854555831330544e-06,-1.6180123472709472e-06,-1.3957596644641538e-06,-9.6965592872082e-07,-2.31039337774222e-06,-3.788671771395158e-06,-2.7650169832303304e-06,-3.090298148979118e-06,-3.0584287482415585e-06
7.403525727025336e-07,-2.044593611043842e-06,-2.1348097894274286e-06,-3.029684542338372e-06,-2.8448695022054302e-06,-2.9507242754673903e-06,-4.363665949694278e-06,-3.4582329013111177e-06,-2.4948981908021623e-06,-2.315059251246442e-06,-1.6636890823163277e-06,-1.3975280038368457e-06,-1.0111379095492387e-06,-2.3456478661812386e-06,-3.784928126385504e-06,-2.8128686819974787e-06,-3.160038902626446e-06,-3.0667057678028137e-06
7.731255590136012e-07,-2.0182443004355433e-06,-2.165069101764628e-06,-3.123158494149666e-06,-2.816131036908773e-06,-2.940329228134098e-06,-4.386232006836047e-06,-3.5028849900124085e-06,-2.5418974771047464e-06,-2.3370959021226468e-06,-1.7073683484268024e-06,-1.3916554651078608e-06,-1.0555915284196691e-06,-2.399619600766401e-06,-3.7737966263813304e-06,-2.848428928247944e-06,-3.2129340786791027e-06,-3.0639482357686707e-06
8.079150489687638e-07,-2.0292565850912692e-06,-2.1930267490268657e-06,-3.2148082930040167e-06,-2.7917726008268276e-06,-2.9273120467766955e-06,-4.413817453500988e-06,-3.5445662342961575e-06,-2.603810596803626e-06,-2.35353326465977e-06,-1.7481915440435992e-06,-1.3746672836747837e-06,-1.1003531277990451e-06,-2.4607456375501863e-06,-3.7606083242921452e-06,-2.879507446238463e-06,-3.2481336810765633e-06,-3.0569039738841807e-06
8.456456981455431e-07,-2.1104092407621965e-06,-2.2209022585181768e-06,-3.3016150850798043e-06,-2.7739640608030496e-06,-2.912666671007054e-06,-4.4474652330934275e-06,-3.5787110997538494e-06,-2.6797433268296427e-06,-2.3670739869710987e-06,-1.7868031402617966e-06,-1.3479309167672619e-06,-1.1419236524706296e-06,-2.5137547172895188e-06,-3.7509149035355174e-06,-2.9149223326314723e-06,-3.268601856073798e-06,-3.0517511966534026e-06
8.820715434699015e-07,-2.2532918707906456e-06,-2.2511665837281647e-06,-3.38017884013795e-06,-2.763669371605546e-06,-2.8956372403802317e-06,-4.4862619090314185e-06,-3.600580575095001e-06,-2.7650063205712033e-06,-2.379923815305161e-06,-1.8234599307455132e-06,-1.3189043981418478e-06,-1.1631801458927833e-06,-2.560209372765442e-06,-3.7506599773229172e-06,-2.963149058827024e-06,-3.2787361982328446e-06,-3.052606262852517e-06
9.174739925049417e-07,-2.3984789952948853e-06,-2.2862367872739075e-06,-3.4471581624053864e-06,-2.761288933865617e-06,-2.8762507640127135e-06,-4.5278868248787035e-06,-3.6079405499824627e-06,-2.848076518802399e-06,-2.393505954438075e-06,-1.8572598996086896e-06,-1.2912373593852851e-06,-1.169280365882058e-06,-2.6077421580382997e-06,-3.7610767958158817e-06,-3.0298945127858805e-06,-3.2838437779302206e-06,-3.0614184371954722e-06
9.466419995397609e-07,-2.4846166933028975e-06,-2.3279028849105825e-06,-3.5011208166736236e-06,-2.7670270488779694e-06,-2.8553904065630287e-06,-4.571650133539138e-06,-3.6015069406019502e-06,-2.9205680639730824e-06,-2.4080670215108947e-06,-1.8865612866630492e-06,-1.269183945537245e-06,-1.163990355229468e-06,-2.6560081831832948e-06,-3.7825831695505895e-06,-3.1173814281997973e-06,-3.2889832895877655e-06,-3.078393059845118e-06
9.659246170255598e-07,-2.4707878905058803e-06,-2.3762394180236685e-06,-3.543598791149198e-06,-2.780286488411659e-06,-2.8352465361535487e-06,-4.616529405117972e-06,-3.585063080795989e-06,-2.975485445495859e-06,-2.423281745050661e-06,-1.9113875187030495e-06,-1.2569889483345225e-06,-1.1503664160733376e-06,-2.708422626486073e-06,-3.8143753745867534e-06,-3.2252655516248472e-06,-3.298013772419059e-06,-3.1035106494653904e-06
9.734914110269504e-07,-2.3640303757199017e-06,-2.4293782627435053e-06,-3.5796214240176964e-06,-2.7981079995239753e-06,-2.8213343125861154e-06,-4.6648870060670525e-06,-3.570621164408609e-06,-3.012264323143309e-06,-2.438871921220592e-06,-1.9325865076184973e-06,-1.2554865296385752e-06,-1.1385100388330848e-06,-2.7614600865022236e-06,-3.8546872235225326e-06,-3.3537103358098377e-06,-3.3146924999679298e-06,-3.13521338278732e-06
9.643253263661473e-07,-2.282500907562051e-06,-2.4838964490965924e-06,-3.617042098508258e-06,-2.81846739083689e-06,-2.8206706505942648e-06,-4.715951045549797e-06,-3.575587781383485e-06,-3.034683408021684e-06,-2.4547833058608393e-06,-1.9541107293051224e-06,-1.2673274635741474e-06,-1.1275431313980556e-06,-2.8061523941647337e-06,-3.904208090325793e-06,-3.5028456505501004e-06,-3.3427213792270065e-06,-3.1700292777933653e-06
9.410328830401861e-07,-2.334529335914142e-06,-2.5364328767003944e-06,-3.6647429980045754e-06,-2.8384932507267804e-06,-2.8392535115805764e-06,-4.766823167765183e-06,-3.61878520090117e-06,-3.0518000681087594e-06,-2.4702071528462988e-06,-1.9820778228258743e-06,-1.2938371864949408e-06,-1.116921383414734e-06,-2.8356260307424627e-06,-3.960741562636043e-06,-3.6682809861478474e-06,-3.380093034741576e-06,-3.2030271137923655e-06
9.114562504228344e-07,-2.3611777209174714e-06,-2.5826027353032047e-06,-3.7296679574111733e-06,-2.8546115553205455e-06,-2.879551961904206e-06,-4.8158031434505705e-06,-3.7194979451927375e-06,-3.075583144204489e-06,-2.4828003499913984e-06,-2.023113318458041e-06,-1.3341214661121565e-06,-1.1056838538935046e-06,-2.847576719446185e-06,-4.01894629164455e-06,-3.841179427888183e-06,-3.4228215571533763e-06,-3.229237634120344e-06
8.869803062902634e-07,-2.3750514232295417e-06,-2.6190741514264074e-06,-3.8138309098417487e-06,-2.8641423709277797e-06,-2.940080628098955e-06,-4.859328038579594e-06,-3.8669815089327855e-06,-3.1030989072804657e-06,-2.4892652022482347e-06,-2.0760998945024546e-06,-1.3834789008404958e-06,-1.0938419551257821e-06,-2.8350600934233803e-06,-4.071436010321838e-06,-4.010381162357646e-06,-3.4661061481521415e-06,-3.2435843610557526e-06
8.78739255191156e-07,-2.4002745617498927e-06,-2.6426588120550175e-06,-3.912897612255374e-06,-2.8651558280851657e-06,-3.01180713829677e-06,-4.893733846958619e-06,-4.040335721221047e-06,-3.1280108432782317e-06,-2.485972133514514e-06,-2.1425342396627398e-06,-1.4354434652161144e-06,-1.075862824041076e-06,-2.7926863640885036e-06,-4.1093175869535285e-06,-4.158430214116721e-06,-3.504147159550485e-06,-3.242749813203512e-06
8.928367898383479e-07,-2.389942732739257e-06,-2.654750324140346e-06,-4.016100514663999e-06,-2.856328407992571e-06,-3.0822603682540408e-06,-4.914354745948454e-06,-4.218638473646274e-06,-3.1436009225287387e-06,-2.471181608090078e-06,-2.216728993417611e-06,-1.4812057919009649e-06,-1.0475655184575405e-06,-2.7498875351999353e-06,-4.127069000006352e-06,-4.269783685797477e-06,-3.533590946284601e-06,-3.227593775158088e-06
9.288768964211807e-07,-2.371996044120405e-06,-2.655525318756414e-06,-4.109273219458782e-06,-2.838346116720103e-06,-3.1378078364202316e-06,-4.9160370558252704e-06,-4.322819633335792e-06,-3.142299359838622e-06,-2.4468209588267753e-06,-2.2897458532178366e-06,-1.516029685194854e-06,-1.0084407762855374e-06,-2.642021795377293e-06,-4.12533086006348e-06,-4.337051018154192e-06,-3.555182968132776e-06,-3.2017002476077495e-06
9.770516821951458e-07,-2.3597940457325134e-06,-2.647093234595781e-06,-4.18014811097782e-06,-2.8136040110925937e-06,-3.1683194826152347e-06,-4.898044027388782e-06,-4.321959243365173e-06,-3.1264020708212136e-06,-2.4192676808838348e-06,-2.3562134841157057e-06,-1.5379353368168659e-06,-9.685137353863945e-07,-2.4972485910988337e-06,-4.116484437170459e-06,-4.3624278398964605e-06,-3.5735832828590643e-06,-3.173169884416077e-06
1.029728786915358e-06,-2.4185890768290333e-06,-2.6338248212670757e-06,-4.223085966319905e-06,-2.7863203253843533e-06,-3.171919380572959e-06,-4.865873022678257e-06,-4.370207976663182e-06,-3.1063760601065826e-06,-2.3968739166267295e-06,-2.4146704909240183e-06,-1.5503309645776444e-06,-9.389099524839138e-07,-2.3260718395843457e-06,-4.112292938066179e-06,-4.3579011201469976e-06,-3.595423992614249e-06,-3.151692940828506e-06
1.0690581444123651e-06,-2.4847756516205162e-06,-2.6198429332538093e-06,-4.234878770383932e-06,-2.761062155052047e-06,-3.1536606476147376e-06,-4.826454766620104e-06,-4.402550227674251e-06,-3.0943975766274787e-06,-2.3879122508610876e-06,-2.4669839921883117e-06,-1.5602016188412717e-06,-8.925456880451818e-07,-2.135663954588444e-06,-4.124975075942589e-06,-4.3418134224957195e-06,-3.6282614072667577e-06,-3.14458837510014e-06
1.0969919724293698e-06,-2.548731225325442e-06,-2.6084215749769614e-06,-4.222652102693551e-06,-2.7417337219879087e-06,-3.1219393285404283e-06,-4.788433204436301e-06,-4.2948745061668255e-06,-3.095090438028094e-06,-2.3989765115375663e-06,-2.513923534582209e-06,-1.5756215545599498e-06,-8.340851954601046e-07,-1.969620021276531e-06,-4.1694417574511035e-06,-4.329960411301513e-06,-3.6771311799399665e-06,-3.1545274058511515e-06
1.11145191965959e-06,-2.6173596253253073e-06,-2.6013787689355346e-06,-4.196435580899195e-06,-2.72708508296251e-06,-3.0847202469445928e-06,-4.758044361719308e-06,-4.152634097413225e-06,-3.1098967115473833e-06,-2.4302418981531645e-06,-2.5558550428858823e-06,-1.6032806098467793e-06,-8.08905618826213e-07,-1.8396142447614042e-06,-4.2416229155466645e-06,-4.3298383061578085e-06,-3.736868891375437e-06,-3.1771205050633824e-06
1.109323796354778e-06,-2.6812969875174163e-06,-2.5963411193552577e-06,-4.164692487369687e-06,-2.7115500666960107e-06,-3.0458488175683118e-06,-4.735973261538142e-06,-4.035952493180318e-06,-3.13498767613368e-06,-2.471653036761149e-06,-2.587780100092182e-06,-1.6445862770857356e-06,-7.956494741473177e-07,-1.7263529964144867e-06,-4.328966479725956e-06,-4.340859231346977e-06,-3.8035254572432797e-06,-3.2038517596547234e-06
1.0972912007471783e-06,-2.7685489576809487e-06,-2.5830015918359707e-06,-4.135363404458248e-06,-2.6874506437576107e-06,-3.0045021283735965e-06,-4.719993836343446e-06,-3.9295935381131734e-06,-3.1624805298890155e-06,-2.511752638470287e-06,-2.608543392289135e-06,-1.6914638747263994e-06,-7.838609271335381e-07,-1.6044220296999268e-06,-4.419688913061989e-06,-4.356655946711618e-06,-3.86697862961363e-06,-3.222281672495965e-06
1.0807134835010784e-06,-2.856897374403702e-06,-2.5570941700320613e-06,-4.117065418546624e-06,-2.648644387285494e-06,-2.9588403318581543e-06,-4.70465299435632e-06,-3.8249601376411035e-06,-3.179557089825197e-06,-2.5391875871018516e-06,-2.6160123949996042e-06,-1.7209395973853696e-06,-7.680767577114851e-07,-1.531261234764872e-06,-4.493170393625303e-06,-4.3882110154221955e-06,-3.9145304097401315e-06,-3.2213897391618116e-06
1.0670242526838736e-06,-2.9233014721181898e-06,-2.5162672176182734e-06,-4.115524973294676e-06,-2.5945278813340907e-06,-2.9086892855887038e-06,-4.684651494939421e-06,-3.722379242437973e-06,-3.185575599598707e-06,-2.52485575631862e-06,-2.611440126001204e-06,-1.7263169407411595e-06,-7.21108383646494e-07,-1.4837951000483282e-06,-4.51437607464185e-06,-4.438133739279231e-06,-3.940579563249602e-06,-3.195107764463027e-06
1.0615079983733335e-06,-2.9065960724970923e-06,-2.4611610488501314e-06,-4.133028561331598e-06,-2.5285273843361487e-06,-2.856192735072441e-06,-4.657705160441388e-06,-3.62688719059406e-06,-3.1890646909846166e-06,-2.4491468955760145e-06,-2.5975454740209362e-06,-1.6670297175018634e-06,-6.479743819105884e-07,-1.4479072564758563e-06,-4.487935238650994e-06,-4.491539949647951e-06,-3.937860079173113e-06,-3.1445337491915367e-06
1.0640507737028567e-06,-2.866564359895655e-06,-2.3931292002409957e-06,-4.172766501640273e-06,-2.459242808473525e-06,-2.8050139627655677e-06,-4.623028608575622e-06,-3.5469767086019036e-06,-3.194834275134278e-06,-2.4149947505588583e-06,-2.576360956635379e-06,-1.5864995820899813e-06,-6.027939095814358e-07,-1.4027454846233974e-06,-4.3957202261858445e-06,-4.547349603384834e-06,-3.902633180065402e-06,-3.072294679624281e-06
1.0632165594354362e-06,-2.7919795436504295e-06,-2.314672343723674e-06,-4.231675517895567e-06,-2.3907479268885226e-06,-2.75998917140671e-06,-4.579631470312006e-06,-3.4824437055164232e-06,-3.20900003017566e-06,-2.3546943108387413e-06,-2.5523804514380272e-06,-1.5133624975225854e-06,-5.77679294346145e-07,-1.337126110030745e-06,-4.350876800105826e-06,-4.568987081849496e-06,-3.841543693252887e-06,-2.985540611572432e-06
1.0668835873690956e-06,-2.745940414190195e-06,-2.2274307406140787e-06,-4.3023637147303855e-06,-2.323758904361059e-06,-2.7290386097819734e-06,-4.5275299856086034e-06,-3.432859917515399e-06,-3.236968376676864e-06,-2.267859637371806e-06,-2.530271543707943e-06,-1.4753145641333249e-06,-5.205764297454276e-07,-1.2190755167284812e-06,-4.324440079434836e-06,-4.521381156867166e-06,-3.7661600735250935e-06,-2.8945383998183842e-06
1.0829683315708283e-06,-2.9039280248397276e-06,-2.1429827749254293e-06,-4.375225331817682e-06,-2.261588501059559e-06,-2.7110764953798317e-06,-4.468600170457264e-06,-3.399567134249701e-06,-3.2844031839327794e-06,-2.205510666050695e-06,-2.5114172981924633e-06,-1.38619696235961e-06,-4.529841836177791e-07,-1.0698954035973796e-06,-4.213813014347862e-06,-4.3880276770351e-06,-3.6946009928710327e-06,-2.8076718208039114e-06
1.1134160712002083e-06,-3.0270157081367956e-06,-2.0643475988371074e-06,-4.4416143733697836e-06,-2.2022335543672326e-06,-2.7027504851331833e-06,-4.404701561299802e-06,-3.38058959146855e-06,-3.363524026085801e-06,-2.2253663175836714e-06,-2.5011877117908584e-06,-1.29372289131798e-06,-3.874531383622754e-07,-8.868416220428054e-07,-4.040415822050067e-06,-4.267877888364548e-06,-3.6709769179745606e-06,-2.7338423940106364e-06
1.1577630663208665e-06,-3.1184909545023057e-06,-1.9920413925348987e-06,-4.491748453990236e-06,-2.1422070483978765e-06,-2.703455055528206e-06,-4.339888085175112e-06,-3.377524371739309e-06,-3.403840776676006e-06,-2.2585539495470533e-06,-2.5034722978788526e-06,-1.2388809134564618e-06,-3.2748126607970406e-07,-6.639623669896851e-07,-3.930263526502617e-06,-4.141523158952427e-06,-3.7302217647947452e-06,-2.6783456765087427e-06
1.2059646050898594e-06,-3.210526163970732e-06,-1.926315697016991e-06,-4.520677346658831e-06,-2.082120213615496e-06,-2.7092240916009932e-06,-4.2769922913132234e-06,-3.391984885477797e-06,-3.430960501522031e-06,-2.281058868328967e-06,-2.5237524994455953e-06,-1.2141602511982666e-06,-2.759457413647416e-07,-4.2067643823633143e-07,-3.8875098310637556e-06,-4.0277885139772e-06,-3.7782373405173927e-06,-2.6480930641827503e-06
1.2452144047536534e-06,-3.2678905270869324e-06,-1.8718725228673485e-06,-4.5294083589493455e-06,-2.0230655249840977e-06,-2.7157751222780196e-06,-4.215802474623408e-06,-3.4284409394718376e-06,-3.452358511722543e-06,-2.317026206261217e-06,-2.564837535998084e-06,-1.205194812441614e-06,-2.418662925259343e-07,-1.7491879553524595e-07,-3.903528740864712e-06,-3.8859447838646596e-06,-3.8107352328891306e-06,-2.647642068329108e-06
1.2875933844886841e-06,-3.303862347576233e-06,-1.8515156328555345e-06,-4.523007487378458e-06,-1.968019126466699e-06,-2.7201140320024882e-06,-4.163498073546035e-06,-3.483341839137271e-06,-3.451838224402724e-06,-2.345527797369297e-06,-2.627531551962192e-06,-1.1578148401505626e-06,-2.0234171413653819e-07,3.307574816537393e-08,-3.939209751691936e-06,-3.701615036875179e-06,-3.909526969823124e-06,-2.6761627306857227e-06
1.33321829517442e-06,-3.334127789218864e-06,-1.8766591711161464e-06,-4.509751013210483e-06,-1.9242640815609408e-06,-2.7201248374533217e-06,-4.118127405784914e-06,-3.5544355744588766e-06,-3.4772300813890275e-06,-2.390341487591089e-06,-2.710496764373119e-06,-1.1400870460650211e-06,-1.6883470843196175e-07,1.7054153129048792e-07,-3.9268329134167255e-06,-3.5969322092615465e-06,-4.066780934947925e-06,-2.72846311501508e-06
1.3724295898103431e-06,-3.3776625968593176e-06,-1.948635670131928e-06,-4.500205791550077e-06,-1.896766182974631e-06,-2.715505281795654e-06,-4.079904156756803e-06,-3.6406251353187518e-06,-3.5059176533568276e-06,-2.501204496216274e-06,-2.8051050566704204e-06,-1.1879132802469264e-06,-1.6769721837978445e-07,2.562508440268758e-07,-3.932910571572634e-06,-3.6157981270830023e-06,-4.23841731425808e-06,-2.792736752280537e-06
1.392098838565971e-06,-3.4115326341758134e-06,-1.980054610181244e-06,-4.505103737291206e-06,-1.8903700723222376e-06,-2.714911714325459e-06,-4.051736439556257e-06,-3.7389179400110523e-06,-3.59362109005586e-06,-2.614142288144073e-06,-2.9083984123015587e-06,-1.2523958775610795e-06,-1.7691493874435946e-07,2.8108854778216347e-07,-3.982156512264732e-06,-3.6060009864446964e-06,-4.365131356689544e-06,-2.855555368092913e-06
1.3871858512010994e-06,-3.439176602059474e-06,-1.9477163307909557e-06,-4.5309400505496e-06,-1.9079157355224266e-06,-2.7226139627275314e-06,-4.0353140129297065e-06,-3.842618426215266e-06,-3.6604841715325887e-06,-2.665816348688596e-06,-2.979586175828898e-06,-1.31712072828418e-06,-1.8161473985161813e-07,3.0111803624538826e-07,-4.052893199467653e-06,-3.6003168408042774e-06,-4.446116171133375e-06,-2.902483683760899e-06
1.3598289509491176e-06,-3.4542564121258953e-06,-1.9229059031317096e-06,-4.577356973993168e-06,-1.9482467907194676e-06,-2.7409094590863957e-06,-4.0354691314373795e-06,-3.9433727084150715e-06,-3.6878577894253537e-06,-2.7055525524120424e-06,-3.0082513992568975e-06,-1.3884205734094387e-06,-1.606649782140211e-07,4.6094744488711545e-07,-4.136200562796713e-06,-3.6099279303441557e-06,-4.489754224683577e-06,-2.9249450990018655e-06
1.3278543022853797e-06,-3.4573465758945955e-06,-1.918332788727269e-06,-4.636256395862743e-06,-2.0071168415876107e-06,-2.7696440297710745e-06,-4.0524093658647354e-06,-4.033875126693421e-06,-3.7393822293106306e-06,-2.7590380235308044e-06,-2.9663558015485396e-06,-1.4392311754789302e-06,-1.2051083880877383e-07,6.769499109897129e-07,-4.2095804812521e-06,-3.6823781237343827e-06,-4.483304731556086e-06,-2.92610697649651e-06
1.3461645704653514e-06,-3.4472390538733696e-06,-1.9040981744571662e-06,-4.69588053863331e-06,-2.078292894338328e-06,-2.8053812169286585e-06,-4.087004476170034e-06,-4.105233535964244e-06,-3.7452510550831697e-06,-2.7553534875997314e-06,-2.9099287005983117e-06,-1.4921818480208394e-06,-7.364745893253321e-08,8.85471771339705e-07,-4.259880535049229e-06,-3.8062127543597624e-06,-4.4447318703164614e-06,-2.8979980083959663e-06
1.3833029479106737e-06,-3.438199079529815e-06,-1.8929749400098483e-06,-4.73855593366904e-06,-2.14272130602327e-06,-2.8465157241434887e-06,-4.138886317125673e-06,-4.152250569234828e-06,-3.7052424504091556e-06,-2.731946031445989e-06,-2.886329676678659e-06,-1.5594005703063187e-06,-3.982758731207398e-08,1.052684325363507e-06,-4.2567473591516475e-06,-3.991444662805788e-06,-4.398532598027309e-06,-2.859486792728111e-06
1.419773547501897e-06,-3.4593483579048667e-06,-1.9048564479369074e-06,-4.732133735110589e-06,-2.19545898206691e-06,-2.8724037004872723e-06,-4.2094108903332255e-06,-4.170546779008849e-06,-3.6441375753977006e-06,-2.6928641439665185e-06,-2.8308500866676664e-06,-1.6410697876286003e-06,-3.285715611587098e-08,1.0748547934086782e-06,-4.223526035879263e-06,-4.165946695570553e-06,-4.353675623771056e-06,-2.8305358674151326e-06
1.4542473955362776e-06,-3.4830488641891227e-06,-1.9326069691739705e-06,-4.714550469826972e-06,-2.2315595957390053e-06,-2.882290858636763e-06,-4.2922676587925465e-06,-4.176128112491659e-06,-3.6270804974886786e-06,-2.655483150431704e-06,-2.751839909059593e-06,-1.74156986452023e-06,-4.766022891118735e-08,9.669714474655192e-07,-4.185953594670969e-06,-4.288952059484419e-06,-4.335891285827259e-06,-2.8470369219217044e-06
1.4358628018082619e-06,-3.423364000857121e-06,-1.9565798930558883e-06,-4.6716223400015675e-06,-2.244929199087527e-06,-2.8764029845248444e-06,-4.3782925476501616e-06,-4.174272138311921e-06,-3.663713000509621e-06,-2.621171441072624e-06,-2.6626144933937065e-06,-1.8385196928919688e-06,-8.213574625051957e-08,8.540821900472524e-07,-4.139214087253577e-06,-4.322376656524922e-06,-4.332555210679083e-06,-2.8516756980787553e-06
1.4055135910140258e-06,-3.3683539588262653e-06,-1.9430678039282573e-06,-4.583782977325206e-06,-2.234570728491912e-06,-2.8697118751749528e-06,-4.4593830797569215e-06,-4.148457245378444e-06,-3.6591691171313076e-06,-2.5932586582160633e-06,-2.577242612175233e-06,-1.861223896967336e-06,-1.1447643553653861e-07,7.307741047221839e-07,-4.094071641334079e-06,-4.279144467989359e-06,-4.325015783531563e-06,-2.805903362414613e-06
1.4271697787431788e-06,-3.3083815364872984e-06,-1.9173307343749312e-06,-4.502273120618966e-06,-2.2086298459166693e-06,-2.851597419067219e-06,-4.522051561445947e-06,-4.102797762087742e-06,-3.6471390250117253e-06,-2.569006551524165e-06,-2.484637766770533e-06,-1.8358904255435967e-06,-1.3394683933738611e-07,7.70915790235414e-07,-3.975379456005554e-06,-4.252655117996266e-06,-4.299265483438739e-06,-2.7008888898581266e-06
1.472645304874241e-06,-3.20301701958673e-06,-1.8869549310192488e-06,-4.426318593084248e-06,-2.1576655545472785e-06,-2.803794927061174e-06,-4.5551177936763044e-06,-4.0324184281952725e-06,-3.665317270498555e-06,-2.563942177415775e-06,-2.3961258856416834e-06,-1.8190427407049052e-06,-1.457696169421891e-07,9.482910474487876e-07,-3.806339221656953e-06,-4.296417585781583e-06,-4.27079510424953e-06,-2.585691691230526e-06
1.5076667979017243e-06,-3.172201630439457e-06,-1.8551690061897676e-06,-4.3768116038384585e-06,-2.077065837266855e-06,-2.723420394223914e-06,-4.550243167286019e-06,-3.9366660953798946e-06,-3.6642101915691873e-06,-2.5577463334817978e-06,-2.360427939651422e-06,-1.8147051343576607e-06,-1.2901401645536605e-07,1.1057158184564066e-06,-3.6670298621814496e-06,-4.273690174812249e-06,-4.229427831133544e-06,-2.4977877596854244e-06
1.5101554258828577e-06,-3.15175367044264e-06,-1.8099842482974429e-06,-4.4008406659663e-06,-1.9999024980582522e-06,-2.6096482150388395e-06,-4.505659000742667e-06,-3.827163201241408e-06,-3.5953285046636344e-06,-2.5393080433435198e-06,-2.3663334078597734e-06,-1.7181168416357913e-06,-8.725145511187254e-08,1.149772111594885e-06,-3.5957122344570415e-06,-4.1346638139600605e-06,-4.170729275221606e-06,-2.4302304625265434e-06
1.4874401787805728e-06,-3.1086805019602045e-06,-1.828176155691382e-06,-4.427461004897058e-06,-1.9242676689993773e-06,-2.513001919942023e-06,-4.427384290048252e-06,-3.7098672976351588e-06,-3.5069949765783397e-06,-2.505484451579e-06,-2.3713487596897974e-06,-1.6010480924510524e-06,-3.1028852080896304e-08,1.1507040628093414e-06,-3.5681299906735855e-06,-4.013280666874651e-06,-4.101564829700681e-06,-2.4009960163065187e-06
1.41984370562691e-06,-3.0606366044627385e-06,-1.828424073663883e-06,-4.448311505877189e-06,-1.867178672745293e-06,-2.4487699162659733e-06,-4.3234326510322744e-06,-3.605724323021797e-06,-3.439685700224593e-06,-2.472821071834523e-06,-2.381982523528694e-06,-1.5387075146614767e-06,3.305839981776205e-08,1.2591280982165455e-06,-3.531916260352304e-06,-3.84973692793461e-06,-4.020475909149559e-06,-2.38610673954641e-06
1.3841291405307452e-06,-2.9842074128960943e-06,-1.789176207364887e-06,-4.463205773190814e-06,-1.8276706196017628e-06,-2.4042465693174244e-06,-4.2202527442349235e-06,-3.50762421248283e-06,-3.352488739629855e-06,-2.4504626148277212e-06,-2.4002431771617534e-06,-1.5052703001520808e-06,1.007494135268899e-07,1.4454939836003103e-06,-3.4769269790060896e-06,-3.6542382630487443e-06,-3.937132622684441e-06,-2.33897807131946e-06
1.384172452082552e-06,-2.926910160482837e-06,-1.7583043558176322e-06,-4.478378199893161e-06,-1.7813425954510267e-06,-2.331264110057734e-06,-4.107387506589297e-06,-3.3870672062258605e-06,-3.2801202189422373e-06,-2.419414518960776e-06,-2.4155859295231647e-06,-1.4744600035522025e-06,1.6718924416946828e-07,1.6855547357206603e-06,-3.373286003714709e-06,-3.514065175061673e-06,-3.867979663192307e-06,-2.2748398420381886e-06
1.4263635364265479e-06,-2.8926446517646407e-06,-1.7249425508432746e-06,-4.460428611752953e-06,-1.7020781789932097e-06,-2.230885160661663e-06,-3.985936539665998e-06,-3.254236267495559e-06,-3.2273423612608614e-06,-2.389749937411866e-06,-2.4236193909948938e-06,-1.4427980876563075e-06,2.1489571348461917e-07,1.949385679672214e-06,-3.3046747663485846e-06,-3.437432563156246e-06,-3.810005790028598e-06,-2.219108215289925e-06
1.4268628930037551e-06,-2.864808450079975e-06,-1.7133733904704552e-06,-4.417008674269083e-06,-1.6211413323796656e-06,-2.1437755281094327e-06,-3.8672004288306686e-06,-3.148949313162051e-06,-3.1860747831872404e-06,-2.3447484945418535e-06,-2.409716008919951e-06,-1.3982976865580646e-06,2.6585495279047585e-07,2.16059811139783e-06,-3.3280097141513466e-06,-3.4124436649240076e-06,-3.7568192640946006e-06,-2.19973934661206e-06
1.3992793246858166e-06,-2.8306111933430372e-06,-1.736805990221281e-06,-4.3745403015575296e-06,-1.5519852476475043e-06,-2.090219128380702e-06,-3.777481432048736e-06,-3.047922555780348e-06,-3.1683939177689317e-06,-2.300159583088159e-06,-2.388283761609273e-06,-1.3524512727055063e-06,3.414636143639934e-07,2.260593913520636e-06,-3.3615585910924998e-06,-3.42942333249132e-06,-3.7038884803370356e-06,-2.226116486335112e-06
1.4024361735669693e-06,-2.795606988052946e-06,-1.714121683475733e-06,-4.330704327221223e-06,-1.5117778875494879e-06,-2.1470591386649234e-06,-3.7318297999081597e-06,-3.068140985272798e-06,-3.158803672200235e-06,-2.2840044850663673e-06,-2.3714042603381348e-06,-1.3236337779009332e-06,3.911471460848263e-07,2.205014797956624e-06,-3.393870858580756e-06,-3.5459462056991715e-06,-3.6526807954480115e-06,-2.2248674487762533e-06
1.4077885399449185e-06,-2.7609479447249293e-06,-1.69021768347088e-06,-4.30324880327352e-06,-1.515011512411429e-06,-2.254137178877767e-06,-3.7624127877824463e-06,-3.1957236543883377e-06,-3.127734021513505e-06,-2.326823144964016e-06,-2.381852315403028e-06,-1.3670118165818105e-06,4.0333192534006636e-07,2.162412070288102e-06,-3.4248789124909926e-06,-3.599831101061519e-06,-3.6768771163485535e-06,-2.209804705126109e-06
1.4109439769925826e-06,-2.727902741501831e-06,-1.6827304305363045e-06,-4.303767019386052e-06,-1.4926521931264165e-06,-2.30897559815786e-06,-3.860400476381566e-06,-3.2763376931101894e-06,-3.0925543702231747e-06,-2.372898760108246e-06,-2.428055959346768e-06,-1.422478454807671e-06,3.38506502136599e-07,2.189572989712245e-06,-3.4542897823056727e-06,-3.6380947066591094e-06,-3.7352035637692835e-06,-2.203875845674086e-06
1.4380255455336403e-06,-2.721089699060984e-06,-1.669308667108331e-06,-4.336505983061768e-06,-1.4359338170487364e-06,-2.320211486122474e-06,-3.920770145572935e-06,-3.2970633074496234e-06,-3.093937511540429e-06,-2.3884978474714873e-06,-2.528751255895186e-06,-1.439239804553444e-06,1.6159964765083943e-07,2.2027679010382874e-06,-3.4259265042175554e-06,-3.6143914413399934e-06,-3.812529192554411e-06,-2.188470480880392e-06
1.4584837771393545e-06,-2.715133502067546e-06,-1.6518475924650057e-06,-4.396578312413248e-06,-1.3882896479213153e-06,-2.3338758454521955e-06,-3.9370379406935766e-06,-3.302593979402243e-06,-3.144872586336226e-06,-2.3817012000760772e-06,-2.6074966728971407e-06,-1.4157420282186756e-06,6.697351272557182e-08,2.1667198372900565e-06,-3.420963344270417e-06,-3.5365710427489007e-06,-3.834343088497163e-06,-2.1662581868049427e-06
1.4291438986772407e-06,-2.7374187926525476e-06,-1.6240283414425525e-06,-4.478569926407412e-06,-1.3343053384361324e-06,-2.333351463251513e-06,-3.9421031668767695e-06,-3.2325940684133905e-06,-3.211115296619576e-06,-2.3572520135411217e-06,-2.633977368671423e-06,-1.3920891569255597e-06,7.978506755601784e-08,2.192337444272817e-06,-3.3865947041518867e-06,-3.4928875964154455e-06,-3.795307893125452e-06,-2.1565341231879835e-06
1.3915143995601352e-06,-2.752712644803624e-06,-1.6233501792871704e-06,-4.569596604755562e-06,-1.2827151890604338e-06,-2.328300809065757e-06,-3.902748190748676e-06,-3.1980267806894152e-06,-3.2681490804985367e-06,-2.3528223163115614e-06,-2.7368979734294992e-06,-1.3386388422029132e-06,1.598463423744016e-07,2.1829063708147944e-06,-3.3636532204563447e-06,-3.481893160551871e-06,-3.8027484952345674e-06,-2.1356183251401016e-06
1.3460464390298896e-06,-2.7573283767146526e-06,-1.612760660631024e-06,-4.654331470489489e-06,-1.2458191707250459e-06,-2.3100180377321304e-06,-3.832279042691905e-06,-3.2350314200470785e-06,-3.2546310327921847e-06,-2.383075692910582e-06,-2.8506819662105483e-06,-1.3037594977837723e-06,1.6070745533246715e-07,2.1888735826995632e-06,-3.3559100212123293e-06,-3.5367069662583828e-06,-3.850270690385179e-06,-2.1261743471392394e-06
1.3338798855365893e-06,-2.757558396381533e-06,-1.5723890479722434e-06,-4.73611034209659e-06,-1.2087887796820765e-06,-2.2621404565370114e-06,-3.7499741827200757e-06,-3.1938060553208953e-06,-3.1919604108320814e-06,-2.3953287900882475e-06,-2.89856702825909e-06,-1.2848472493468875e-06,8.732242980236799e-08,2.241631955476018e-06,-3.349789741687869e-06,-3.5109089764417015e-06,-3.922107119957153e-06,-2.108773886118855e-06
1.3340100177557796e-06,-2.7701922494304633e-06,-1.5185859496146318e-06,-4.8008248293772134e-06,-1.1290813342150796e-06,-2.1972993513290553e-06,-3.7201486457059345e-06,-3.029972823482774e-06,-3.142695607400845e-06,-2.3417898946792753e-06,-2.900700398004686e-06,-1.2092303704127268e-06,1.9576803414005475e-08,2.207449799516731e-06,-3.2753090096084e-06,-3.3517805616899743e-06,-3.900118354079083e-06,-2.0662707067084307e-06
1.3376395302038924e-06,-2.7914597288626055e-06,-1.4852586711715819e-06,-4.835261471584025e-06,-1.0057808303340718e-06,-2.108625308911628e-06,-3.687510286324801e-06,-2.8285481966256575e-06,-3.138757548722504e-06,-2.292073810319329e-06,-2.8824042600961356e-06,-1.096381912354166e-06,5.663885473773026e-08,2.1585182633834133e-06,-3.15478313816388e-06,-3.1838576086822246e-06,-3.845127956453396e-06,-1.97896074965552e-06
1.4106791354480407e-06,-2.826395332905125e-06,-1.4860107329454101e-06,-4.838023354272236e-06,-8.922861279236019e-07,-2.0027816072042264e-06,-3.5009025585138796e-06,-2.6602213335381553e-06,-3.141363709118126e-06,-2.2831292666786566e-06,-2.8593542377964884e-06,-1.0078514566758654e-06,1.4351842641220261e-07,2.225747737655389e-06,-3.0760701393988613e-06,-3.0229570804687564e-06,-3.787430396579272e-06,-1.9059342213052836e-06
1.506424951448482e-06,-2.8570223161513834e-06,-1.4710040537393259e-06,-4.79032839035026e-06,-8.063129696115393e-07,-1.88056012807641e-06,-3.3690433695535482e-06,-2.504433041036034e-06,-3.1283661280427696e-06,-2.26262893583148e-06,-2.8407212308555116e-06,-9.154561692182422e-07,2.7331374124678386e-07,2.342407948877183e-06,-2.9714001066359864e-06,-2.8542252157790478e-06,-3.7228245581627033e-06,-1.8426082297415753e-06
1.5513644536472558e-06,-2.87209664940834e-06,-1.4674983040026382e-06,-4.7091006465865936e-06,-7.145409563414483e-07,-1.741027929664581e-06,-3.2578629827685295e-06,-2.38461630353885e-06,-3.1049023929731023e-06,-2.2594985622473825e-06,-2.858822671935663e-06,-8.293867036838844e-07,3.64022826925723e-07,2.4626937055017557e-06,-2.849202065952303e-06,-2.72203281199739e-06,-3.6746133015074102e-06,-1.7576167246473263e-06
1.5612597822919458e-06,-2.8841376181506168e-06,-1.4665034047725287e-06,-4.6154297677450095e-06,-6.541844551600235e-07,-1.594583334898575e-06,-3.122446713102199e-06,-2.3379765954113465e-06,-3.105604497801144e-06,-2.291864380713598e-06,-2.8786414088251767e-06,-8.119569420486266e-07,3.654117123747931e-07,2.633867991599175e-06,-2.762888053931473e-06,-2.6160012479516517e-06,-3.7122167685733105e-06,-1.699402738768541e-06
1.539899744246885e-06,-2.90075428531865e-06,-1.4896506413774134e-06,-4.520795173589145e-06,-6.164138469311084e-07,-1.4455560474087469e-06,-2.9909751380016077e-06,-2.182671153708469e-06,-3.107358830083746e-06,-2.297284536259216e-06,-2.85072595802436e-06,-7.886384495638472e-07,3.4859860391322174e-07,2.7989431455284394e-06,-2.6683530161931205e-06,-2.5062042956713285e-06,-3.7360262909226317e-06,-1.6425311067144885e-06
1.5128647590038008e-06,-2.9183560569052984e-06,-1.4765059071791018e-06,-4.435590843740042e-06,-4.965958118246881e-07,-1.3037329908791553e-06,-2.8585635327272814e-06,-1.9495815486018588e-06,-3.1171464803521495e-06,-2.2452274069076574e-06,-2.7678927921477906e-06,-6.649453189290921e-07,4.410884300313334e-07,2.9847508382879026e-06,-2.6108405338870883e-06,-2.4328263078246565e-06,-3.666168547742667e-06,-1.5956055396084105e-06
1.5132153171397835e-06,-2.927171742848949e-06,-1.4492422985571899e-06,-4.352322405381575e-06,-3.916169866587212e-07,-1.1056162278021581e-06,-2.706184453182777e-06,-1.6469973300283253e-06,-3.1174333536554343e-06,-2.206796584514544e-06,-2.66261627802038e-06,-5.438942682147858e-07,6.210109505098013e-07,3.0335669609402926e-06,-2.51391588321728e-06,-2.2670718461953224e-06,-3.5782501633612556e-06,-1.5268349334312392e-06
1.5428409758888153e-06,-2.9184950493008087e-06,-1.4070642297301003e-06,-4.272762504449764e-06,-2.5745655080935566e-07,-8.966934264357915e-07,-2.504572058219102e-06,-1.4110008885879658e-06,-3.099811885113521e-06,-2.172642010960579e-06,-2.5440651078082266e-06,-4.364266484804598e-07,7.997852276535189e-07,3.1574558588245963e-06,-2.3998406125281714e-06,-2.069102186301987e-06,-3.510393409042125e-06,-1.4476054103078436e-06
1.5301015048875592e-06,-2.8956383488017443e-06,-1.3473838325564594e-06,-4.196232832774663e-06,-1.0740488179385446e-07,-7.093093133270191e-07,-2.340920490938861e-06,-1.2166255676848624e-06,-3.059072096537967e-06,-2.1302705723212306e-06,-2.424447859487694e-06,-3.424602005618115e-07,9.977615902198273e-07,3.332818123935428e-06,-2.266645189973929e-06,-1.9305348291630636e-06,-3.460786120283018e-06,-1.3438643241717395e-06
1.5227455573892572e-06,-2.865488717397065e-06,-1.33216054761111e-06,-4.123581027472511e-06,9.091245339358743e-08,-5.29769907236302e-07,-2.147814479716593e-06,-9.732394996434482e-07,-3.0512591678268855e-06,-2.072882710496584e-06,-2.3294957435762744e-06,-1.9494254658955462e-07,1.2000358041431043e-06,3.522210307027754e-06,-2.0892153084452203e-06,-1.8501628491554304e-06,-3.37301731263283e-06,-1.2318157646752557e-06
1.5535090094083974e-06,-2.8441309887800765e-06,-1.2811480995614221e-06,-4.051695023581126e-06,2.549516132899467e-07,-3.3017004723333736e-07,-1.9357629892646665e-06,-7.69431618896521e-07,-3.0179759738146193e-06,-2.0059146521062013e-06,-2.2408545191815987e-06,-1.211987000303432e-08,1.3318702723402892e-06,3.7916449757909242e-06,-1.934171538687956e-06,-1.66934231079177e-06,-3.228852173672955e-06,-1.1052034753808697e-06
1.5916122359743367e-06,-2.8168281345727803e-06,-1.2402483442631732e-06,-3.994225247590055e-06,3.850816453834004e-07,-1.6258787632858631e-07,-1.7365735420529124e-06,-6.170218393626164e-07,-2.974916094319543e-06,-1.9523865606777717e-06,-2.142931428407119e-06,1.459020034259228e-07,1.4593556299535895e-06,4.011366746977741e-06,-1.7638604076812438e-06,-1.492954171180647e-06,-3.0887218126175074e-06,-9.961653695577783e-07
1.6380856361902076e-06,-2.806677112045096e-06,-1.241923357524461e-06,-3.945750461791531e-06,4.941779163199594e-07,-5.343410650456232e-08,-1.5161347161181672e-06,-5.054627111340512e-07,-2.9476636888029374e-06,-1.904531522868191e-06,-2.0401361485803772e-06,2.684348091044916e-07,1.5767703585042905e-06,4.247563211647558e-06,-1.5752017915539604e-06,-1.3551932102139994e-06,-2.9862178825555322e-06,-9.363371830836146e-07
1.6937190097380653e-06,-2.799027462718342e-06,-1.2561996932373098e-06,-3.882214030337969e-06,5.775906687351591e-07,-2.1645321424028617e-08,-1.3783299679889023e-06,-4.5192744782615443e-07,-2.9209012074931376e-06,-1.8868843097929535e-06,-1.9235566190644473e-06,3.5385668538142657e-07,1.681343042489267e-06,4.422500202465616e-06,-1.4985213810393498e-06,-1.2663257682451457e-06,-2.922662002047271e-06,-8.448839288893803e-07
1.7022505042557796e-06,-2.7899728155850445e-06,-1.2236713443959524e-06,-3.8036743169892423e-06,6.077820458485758e-07,5.446595910239733e-09,-1.2868332484947318e-06,-4.159870875403477e-07,-2.881210958246206e-06,-1.848175829101975e-06,-1.8402923379755203e-06,4.064792577821427e-07,1.7948557770812766e-06,4.401626347051864e-06,-1.4271954723777978e-06,-1.1844584829611634e-06,-2.928026534613535e-06,-7.709652904651283e-07
1.6821041407939373e-06,-2.786038249368215e-06,-1.1895104294485e-06,-3.7236013851823082e-06,5.746346221451163e-07,1.0367198504160592e-07,-1.1740467826799923e-06,-4.0824721990263986e-07,-2.874138973318842e-06,-1.8131184023468351e-06,-1.7809322281982436e-06,4.298652588766149e-07,1.8929556025251283e-06,4.463520417759402e-06,-1.3327835520130124e-06,-1.0740162636673237e-06,-2.9852859405298516e-06,-7.204689260891871e-07
1.697379066506572e-06,-2.728003522760059e-06,-1.147106377455436e-06,-3.6538392942691274e-06,6.110293595688385e-07,2.2020339174537115e-07,-1.1118015571686255e-06,-3.5529794915034526e-07,-2.9142347596396754e-06,-1.8117939269435387e-06,-1.746314010967051e-06,4.4380209592275586e-07,1.9274617435491764e-06,4.5862118931763905e-06,-1.2484008092744517e-06,-9.997901961461627e-07,-2.9095948836036556e-06,-6.69003477569515e-07
1.7203903487832745e-06,-2.6986650807736478e-06,-1.1019431948209873e-06,-3.6208581067547493e-06,7.013975626254372e-07,3.2091424918324953e-07,-1.0474699125405638e-06,-2.797428665313949e-07,-2.9807754123938513e-06,-1.8244908301160431e-06,-1.780226043336857e-06,5.059945113176364e-07,1.9039570007569571e-06,4.643482967029873e-06,-1.1157567996776565e-06,-8.51082207374459e-07,-2.7898843735089145e-06,-6.110553621754679e-07
1.7455375910363806e-06,-2.6841375142914087e-06,-1.0933758062563019e-06,-3.6271695344559807e-06,7.648414462396309e-07,3.2584708305341636e-07,-9.185113415373908e-07,-2.389866827591602e-07,-2.95873801541722e-06,-1.7951498931982633e-06,-1.767238310993591e-06,5.783069639248155e-07,1.8965683037763113e-06,4.681651778191945e-06,-1.0056547485527406e-06,-7.131831578609124e-07,-2.6870083659202386e-06,-5.533264802681319e-07
1.7584914734511624e-06,-2.6704774477271152e-06,-1.0593267564284547e-06,-3.6256933117358284e-06,8.043987053169505e-07,3.0400671891036516e-07,-8.298503270278621e-07,-2.3072078855316862e-07,-2.8644205758014277e-06,-1.7381380792843558e-06,-1.6695229741932586e-06,7.008064785640633e-07,1.8793169889887078e-06,4.676148089144741e-06,-9.287203668390602e-07,-6.258222843516173e-07,-2.526227777889506e-06,-5.111430947986076e-07
1.7049135338259057e-06,-2.645435286945849e-06,-1.0055006363393033e-06,-3.616418234653789e-06,8.402143880394967e-07,3.223023120107857e-07,-7.85949076306521e-07,-1.7496939512293737e-07,-2.7964100117377327e-06,-1.6934059032547114e-06,-1.5570952208394998e-06,7.928367667320486e-07,1.8975531826211878e-06,4.591831850917911e-06,-8.134156028806166e-07,-5.456098517568263e-07,-2.4128038880235244e-06,-4.6894826449926634e-07
1.668380741077899e-06,-2.6373509443341997e-06,-9.540509847493575e-07,-3.607993110588575e-06,8.856631948115675e-07,3.189556298842621e-07,-7.539241142361891e-07,-1.5862274819002527e-07,-2.754989181538312e-06,-1.6613193307387966e-06,-1.4636413363066046e-06,8.466581374372174e-07,1.9479778229990686e-06,4.547078418396551e-06,-7.050031896447918e-07,-4.064784473667277e-07,-2.3482325068090666e-06,-4.214992405337988e-07
1.6450484508684156e-06,-2.5460692726989517e-06,-9.140814059694699e-07,-3.6246308539525275e-06,9.204941700639743e-07,3.131294626731379e-07,-6.664831666900297e-07,-2.1162987956210174e-07,-2.7478007917185874e-06,-1.7109302337996943e-06,-1.4293352519827235e-06,8.937585889761528e-07,1.9464069729822537e-06,4.580150485400545e-06,-5.927012010829185e-07,-3.418808569225292e-07,-2.314739104387569e-06,-3.80382423335655e-07
1.6417933185316095e-06,-2.4475594290183944e-06,-8.844375482907866e-07,-3.655370418097827e-06,9.414061026347777e-07,2.6907527579102595e-07,-6.453319971122826e-07,-2.733948173573441e-07,-2.717682316824989e-06,-1.8000354310095105e-06,-1.4264002639793145e-06,9.045142518902786e-07,1.9209057286608163e-06,4.527282594420086e-06,-5.075477100403727e-07,-3.5851014369977774e-07,-2.2969118587970855e-06,-3.012094128648846e-07
1.6492456172916953e-06,-2.3943759063917197e-06,-8.580967143002139e-07,-3.6813190048772006e-06,9.450038451911334e-07,2.29426685075441e-07,-6.455026056775626e-07,-2.683650897163948e-07,-2.6865836156930362e-06,-1.8681507459978486e-06,-1.4299022401444658e-06,9.060938454291109e-07,1.8284510571523602e-06,4.453840748396161e-06,-4.7521526678047386e-07,-3.7063398602517767e-07,-2.3064937521947423e-06,-2.2349939361922077e-07
1.6487549556944581e-06,-2.3545687062561737e-06,-8.275281465194351e-07,-3.6887033928717464e-06,9.799129531477221e-07,2.527397687504828e-07,-6.872966677162479e-07,-2.5701939008497717e-07,-2.665133223643815e-06,-1.9088063524031496e-06,-1.4323294559862183e-06,9.038474347292499e-07,1.7222928519510541e-06,4.3499926985603405e-06,-4.769070086050517e-07,-4.7386578997675225e-07,-2.3077579925230024e-06,-2.384748450804868e-07
1.6682401862141459e-06,-2.333669917575693e-06,-7.875272308988513e-07,-3.6668310909033667e-06,1.0023036507685287e-06,2.5708587347477864e-07,-7.039775060386968e-07,-2.535724567701027e-07,-2.6492403695308616e-06,-1.9282779577897847e-06,-1.4171295646087038e-06,9.468714895936835e-07,1.6526234105272239e-06,4.255528037040025e-06,-4.410635476030895e-07,-4.5706704014645466e-07,-2.1926334836348647e-06,-2.67240471415081e-07
1.7053575742968447e-06,-2.3475193180846876e-06,-7.250721317246783e-07,-3.6478974349546676e-06,1.020349872588462e-06,2.7224307097626654e-07,-6.379604981700733e-07,-2.3207425545297794e-07,-2.641511886363224e-06,-1.9270959396640695e-06,-1.3858164748039352e-06,1.0140658850071979e-06,1.5954450380884414e-06,4.2260134301743055e-06,-4.2207805297275694e-07,-3.4276455009853573e-07,-2.0172729222318397e-06,-2.226361826557557e-07
1.69400411829974e-06,-2.4018028253730727e-06,-6.723285188076087e-07,-3.6269117056742555e-06,1.0619161090980672e-06,2.9525859080529675e-07,-5.738999412755487e-07,-2.1925023915993377e-07,-2.6983379709318616e-06,-1.9135507638346294e-06,-1.3432562130037043e-06,1.0727651688704077e-06,1.5671555391155736e-06,4.211660736968774e-06,-3.44063132173439e-07,-2.7717497277625013e-07,-1.909178764981521e-06,-1.662614195197534e-07
1.6532369865812207e-06,-2.478382848737014e-06,-6.256439770198553e-07,-3.5965803053681997e-06,1.1215340643567555e-06,3.112777484425161e-07,-5.261429603525374e-07,-2.238491621736929e-07,-2.7283508885847498e-06,-1.8915280875808003e-06,-1.298361620178148e-06,1.1303229277890907e-06,1.564610832036833e-06,4.18803586611908e-06,-2.659851825640491e-07,-2.6097986369459076e-07,-1.8612467136037384e-06,-1.4868048932817318e-07
1.5906718319252186e-06,-2.5512955253652417e-06,-5.767368871438907e-07,-3.5290785532165146e-06,1.1622549458998914e-06,3.2499337769028873e-07,-5.064243086610311e-07,-1.573399687760809e-07,-2.699610351389781e-06,-1.8428741328672139e-06,-1.2587935131010663e-06,1.1426760585691463e-06,1.5688066489934274e-06,4.178272066497848e-06,-2.1125328921151118e-07,-2.477032561465795e-07,-1.7997510503222927e-06,-1.2038487950579094e-07
1.5450533772035331e-06,-2.5379943387524567e-06,-5.211260548885622e-07,-3.424170840676765e-06,1.241372007472834e-06,3.137416506617076e-07,-5.336618117910127e-07,-1.4295512865507518e-07,-2.631036881149424e-06,-1.7852909187974383e-06,-1.2070151548297013e-06,1.1547660081387612e-06,1.5769725168400934e-06,4.156398742300925e-06,-1.762794494407844e-07,-2.658696450152003e-07,-1.7716061207696902e-06,-9.540039244734617e-08
1.4938964753986796e-06,-2.3920944334659096e-06,-4.845245954706028e-07,-3.2927654267144907e-06,1.3181076606367405e-06,3.6129784829238716e-07,-5.536135651426131e-07,-8.557547783339207e-08,-2.579335683231067e-06,-1.729216577299179e-06,-1.1477770029569533e-06,1.163433188169296e-06,1.6197570697070253e-06,4.142510763513806e-06,-1.3997542365630085e-07,-2.9106934448513476e-07,-1.723897158989551e-06,-7.280564322521251e-08
1.428025002094547e-06,-2.3305050802315506e-06,-4.2904922695991247e-07,-3.13735728301768e-06,1.3647818712392398e-06,4.674131958569543e-07,-4.3760029980242245e-07,2.6164806196021087e-09,-2.5376824461004335e-06,-1.6924131832563898e-06,-1.0803695591804045e-06,1.1781060626437776e-06,1.6401432796973857e-06,4.096262120783129e-06,-9.395890861613546e-08,-2.701027677740229e-07,-1.6633383940918685e-06,-3.9890532063647954e-08
1.4032424559816666e-06,-2.3109033287575752e-06,-3.565510522368065e-07,-2.9730713088647453e-06,1.432845452326968e-06,6.001964825050903e-07,-2.457226775591487e-07,9.83856451470122e-08,-2.4961438698270742e-06,-1.637545628757308e-06,-1.0033229427884884e-06,1.1947381869701087e-06,1.6508312313661205e-06,4.1622506767070076e-06,8.826780290299128e-09,-1.9320951910686392e-07,-1.5371264196695644e-06,3.782646046959415e-08
1.3999355061649992e-06,-2.312356279717305e-06,-2.9440277207676055e-07,-2.7981802728243377e-06,1.477825097525633e-06,6.611959589393463e-07,-1.6482175163002746e-07,2.1530766788774352e-07,-2.4792278232069345e-06,-1.5760062987901085e-06,-9.206627637468313e-07,1.2459125568282153e-06,1.7181819856833257e-06,4.303177057727373e-06,1.4038688899709843e-07,-5.446045818274862e-08,-1.3761447862244261e-06,7.160441062603632e-08
1.4250420810391172e-06,-2.3907882521704546e-06,-2.6639390951413284e-07,-2.638875265719826e-06,1.5598703073297817e-06,7.097608634769882e-07,-1.8801143023783108e-07,3.7515726619294417e-07,-2.474147890962515e-06,-1.4915638618953633e-06,-8.00159984960379e-07,1.3500329989495185e-06,1.8153894105007349e-06,4.460207561943415e-06,2.260973576474905e-07,4.247878290840548e-08,-1.1883116352339864e-06,9.002345042839721e-08
1.410124442910351e-06,-2.3899576551404523e-06,-2.446960901289046e-07,-2.5012176196396805e-06,1.5855490580559611e-06,7.391672827343275e-07,-1.0449923444306895e-07,4.7400326560264967e-07,-2.458839211503472e-06,-1.3954725147410018e-06,-6.612979911298776e-07,1.4338521400328566e-06,1.9112848628012366e-06,4.507946987991839e-06,3.044022827384876e-07,5.267094328284451e-08,-1.0279604899611159e-06,9.611410359972753e-08
1.4037713375755831e-06,-2.3076596462869107e-06,-2.1048994622096982e-07,-2.3992259267630387e-06,1.588577824005778e-06,7.75568776359617e-07,-7.576785842572475e-08,5.507286277012332e-07,-2.4521005884887768e-06,-1.3071412670480073e-06,-5.060244803337998e-07,1.5125666457493304e-06,2.0053129514761652e-06,4.52364495942098e-06,3.429737762311103e-07,3.066942666362324e-08,-9.213021770129485e-07,9.262596889731869e-08
1.4162039443950185e-06,-2.326896577612168e-06,-2.1436529800235647e-07,-2.3325150586045493e-06,1.629490041348039e-06,7.857732286594251e-07,-5.797980032389323e-08,6.130934527547198e-07,-2.4555052126160525e-06,-1.2570708985020882e-06,-3.8472084417913244e-07,1.543551497247931e-06,2.069578669726045e-06,4.556583574261601e-06,3.995120792289954e-07,1.6697878311263554e-08,-9.113984835097991e-07,7.395187691497894e-08
1.4188258346648944e-06,-2.380307436283432e-06,-2.3445977610098266e-07,-2.276153161357477e-06,1.6426434707297905e-06,7.803947236413153e-07,-5.0736662525859234e-08,6.851754544837106e-07,-2.469220404479855e-06,-1.2852609105313678e-06,-2.893323222773573e-07,1.5063595213936144e-06,2.0996170540427637e-06,4.5749629874372315e-06,4.229991671698526e-07,2.9592433582027334e-08,-9.382222340061623e-07,3.477745097405508e-08
1.4200137357619586e-06,-2.3801617239993352e-06,-2.0537485195987712e-07,-2.237468491530711e-06,1.6469314667571685e-06,8.547294296425606e-07,-9.855726639269124e-10,7.403514567661803e-07,-2.4845455347309237e-06,-1.3410296625274794e-06,-2.3225515969437257e-07,1.4969751531486217e-06,2.1274246527128665e-06,4.53085006646728e-06,4.485226690792147e-07,5.118758394327748e-09,-8.774555676214695e-07,2.714236779318746e-08
1.4289836865258225e-06,-2.3984689418830796e-06,-1.7132214339613128e-07,-2.219044538897905e-06,1.6856609042662126e-06,9.40944991678081e-07,8.660596660874965e-08,8.10096997675377e-07,-2.5026362068903314e-06,-1.3778001571684753e-06,-2.386909247576254e-07,1.5070664379500079e-06,2.144147616486914e-06,4.4900518046276435e-06,4.839473686005487e-07,-2.1130520591100524e-11,-7.937328253035945e-07,4.6717771795400464e-08
1.4263032108379009e-06,-2.415481092956154e-06,-1.4924569167422714e-07,-2.219992396968479e-06,1.7132154003539462e-06,1.011424482165839e-06,1.4818927109724664e-07,9.264547168598983e-07,-2.5172833561834637e-06,-1.3697857551561193e-06,-2.797740829978308e-07,1.5179342313239311e-06,2.0851694394309324e-06,4.491101785259957e-06,5.261092474040799e-07,9.817306027261043e-08,-7.2546347393463e-07,5.868994494004046e-08
1.436597549220132e-06,-2.386736068848669e-06,-1.1098041697047167e-07,-2.2056909321591592e-06,1.7420270958016732e-06,1.0712907030963515e-06,1.5428285284922951e-07,9.884617849781477e-07,-2.5190150057116966e-06,-1.3665266729415175e-06,-3.293335105197793e-07,1.5612118913363598e-06,1.9929804113649103e-06,4.5009817322632485e-06,5.588950114267927e-07,1.6307244637036618e-07,-7.305639699652844e-07,5.4885234725072174e-08
1.4191986822918469e-06,-2.350029250868581e-06,-7.511286241977745e-08,-2.184471357064953e-06,1.7495436509002724e-06,1.1683414390576429e-06,1.2022791644978166e-07,1.0309175288132876e-06,-2.5120118207116313e-06,-1.3816219414479306e-06,-3.3126002458036987e-07,1.6020043697818135e-06,1.9303005756998784e-06,4.439772814543637e-06,5.843992113434658e-07,1.8762161948606655e-07,-7.722744965820213e-07,2.567741060382102e-08
1.3706714425427298e-06,-2.3785430996566656e-06,-7.312203030725555e-08,-2.164405710612173e-06,1.754079491465964e-06,1.2449620825019132e-06,8.393461994656214e-08,1.0355093978197491e-06,-2.4991460329882046e-06,-1.3579295330598342e-06,-3.320609593952388e-07,1.6091611128291302e-06,1.8706033483971253e-06,4.396209725031584e-06,5.641443533989062e-07,1.947123148324498e-07,-8.469186876468733e-07,7.677795012255688e-10
1.3290546011046777e-06,-2.4409357848491742e-06,-7.089772671323884e-08,-2.131074339408125e-06,1.738546797793499e-06,1.306650975075784e-06,3.8759853813294044e-08,1.0957448782342649e-06,-2.4785515457325414e-06,-1.3242851416975075e-06,-3.369367171105705e-07,1.5875462756043706e-06,1.8615969246492532e-06,4.27987841279877e-06,5.703919054111202e-07,2.2112838139523619e-07,-9.277559721940272e-07,-2.489840289235439e-08
1.3010918381974717e-06,-2.492358071510556e-06,-6.786536426508505e-08,-2.1353144776653033e-06,1.736598372973565e-06,1.3200555758428304e-06,-2.391279571403547e-09,1.1528692597936756e-06,-2.45729877788071e-06,-1.2959224303212699e-06,-3.148867291120687e-07,1.5799915088666265e-06,1.8410262111261716e-06,4.185952929673131e-06,5.969156966351429e-07,2.8547133473318393e-07,-9.629377335622136e-07,-4.565035002456368e-08
1.286970107831992e-06,-2.4704691308305454e-06,-5.743570964673032e-08,-2.1585197479586926e-06,1.7447957631049205e-06,1.2800371671094105e-06,2.2632654468021785e-08,1.119737308178525e-06,-2.4588127115142745e-06,-1.2620328305408437e-06,-2.947059289645611e-07,1.604053924081789e-06,1.885156658625526e-06,4.123334285474399e-06,6.008003568147039e-07,3.630881859573524e-07,-9.623182166735857e-07,-5.862485568914687e-08
1.2863415781862618e-06,-2.4371458837688328e-06,-3.805855939953975e-08,-2.1687040130060374e-06,1.7336638943239818e-06,1.2351809222063968e-06,8.386552239580625e-08,1.0200278603721842e-06,-2.473404103623559e-06,-1.2402345712567977e-06,-2.9472173511577943e-07,1.6301614187435629e-06,2.0125436131382975e-06,4.092871121208461e-06,6.131177555045589e-07,3.8931038286547136e-07,-8.986410131586276e-07,-8.063803031277095e-08
1.2839381397122307e-06,-2.4458875793172034e-06,-4.511553085732949e-08,-2.171576116570035e-06,1.6841441838662597e-06,1.1744454548355733e-06,1.5598240674423871e-07,8.173658785380949e-07,-2.463411464010776e-06,-1.2638942581748534e-06,-3.4695068124012786e-07,1.611395265936679e-06,2.078457106510286e-06,4.048439474719802e-06,5.759817055023963e-07,3.273285899010248e-07,-1.0128376069858554e-06,-1.107608160147998e-07
1.2860508730053806e-06,-2.391009528950908e-06,-8.60413537830362e-08,-2.127120548999256e-06,1.596649091607276e-06,1.1165941990700984e-06,1.7029976964311526e-07,6.240265061790114e-07,-2.3991206699509405e-06,-1.25915458944586e-06,-3.7584007608567417e-07,1.5246365425685338e-06,2.0901848484111926e-06,3.93897295727641e-06,5.24032883074502e-07,2.3168037627932606e-07,-1.1378121687458778e-06,-1.5768240177912049e-07
1.283123367003427e-06,-2.3410575289121296e-06,-9.015127050490326e-08,-2.054303727896676e-06,1.5409999126826377e-06,1.1137975833652193e-06,1.5236362867766448e-07,5.619383040162667e-07,-2.3673921648277176e-06,-1.2049230021210335e-06,-3.5376949869543237e-07,1.4963192570796563e-06,2.0011060327950197e-06,3.7958998009799227e-06,5.170094813597756e-07,1.051460201969228e-07,-1.1419777349739652e-06,-1.9161222205726024e-07
1.2634607978480905e-06,-2.3002760768265914e-06,-8.755754163259369e-08,-1.9651417160366255e-06,1.4949705752864807e-06,1.1633580249678314e-06,1.9425435777749695e-08,6.133517251404781e-07,-2.3343212860870396e-06,-1.1474895165379404e-06,-3.619570271623426e-07,1.5015509937823954e-06,1.8886251554905912e-06,3.5876716652538867e-06,5.0816652063893e-07,-1.3064772419385532e-08,-1.108287603569784e-06,-1.9088686203223017e-07
1.207140429020363e-06,-2.257944161588191e-06,-1.1097153804246638e-07,-1.9296775327892494e-06,1.4749226638034355e-06,1.1585606963168832e-06,-2.818378062189141e-08,6.060780774955822e-07,-2.2993377799773592e-06,-1.105594275318316e-06,-3.415619256731757e-07,1.5095987966076513e-06,1.7705786692108842e-06,3.455379866729892e-06,4.812347229907434e-07,2.5032087667123156e-08,-1.0777076781063723e-06,-2.0446577206076704e-07
1.1022567864858227e-06,-2.179444171644076e-06,-1.1119800392522992e-07,-1.851610555625329e-06,1.4372505310958312e-06,1.1202232714926156e-06,2.743663395119995e-09,4.846356632896515e-07,-2.275141500695794e-06,-1.0584091082219774e-06,-3.0031033803597924e-07,1.527827703422999e-06,1.6463008059329556e-06,3.3873282059602528e-06,4.713992570826158e-07,1.5638642909830442e-07,-1.0309871071495245e-06,-2.3398206920657373e-07
9.90198608947302e-07,-2.1498041797278497e-06,-1.2813258483060488e-07,-1.8049660788218617e-06,1.334985085843162e-06,1.026242572847515e-06,-2.5893230813948945e-10,3.857078681613042e-07,-2.2249194348529495e-06,-1.038367606893658e-06,-2.8905498193235254e-07,1.5311760580856317e-06,1.6131437998168909e-06,3.3976778331693177e-06,4.807902080100934e-07,2.4121164530737673e-07,-1.0050325419340005e-06,-2.766874155938603e-07
8.991567187166496e-07,-2.0710890825127518e-06,-2.137435467087554e-07,-1.7267178465016693e-06,1.2280192522300405e-06,9.6036942953375e-07,-1.4556741005319925e-08,3.3178898452427867e-07,-2.1765556225398368e-06,-1.0014086380269317e-06,-3.101990758482344e-07,1.5001672862591666e-06,1.5919517838968828e-06,3.3697253154041352e-06,4.656689010011149e-07,2.7535168572791207e-07,-1.0167608950771993e-06,-3.3071429656775056e-07
8.805927640896104e-07,-1.9851742910985824e-06,-2.7887746795357645e-07,-1.553146141964821e-06,1.131703605275597e-06,9.643580898321706e-07,-3.6599959185235895e-08,3.9838397225365075e-07,-2.1022510027786673e-06,-9.441943221091186e-07,-2.199750005927173e-07,1.4700532459056525e-06,1.5383324184296518e-06,3.277280475445467e-06,3.9383976397934444e-07,2.2412129768424313e-07,-9.839106741837418e-07,-4.1609535513694417e-07
9.176269021403475e-07,-1.912835805294397e-06,-3.0204585751188884e-07,-1.3963182335455405e-06,1.0841133760077103e-06,1.0442863370004142e-06,-1.1671419864984402e-07,5.221835274117767e-07,-2.0390113596656714e-06,-8.455819445054727e-07,-8.927588847969903e-08,1.4780293156825739e-06,1.4576788004781982e-06,3.259834093290398e-06,3.342888969055215e-07,5.659349025144693e-08,-8.470684015907831e-07,-4.867092476419582e-07
9.297204163825666e-07,-1.8362387435492345e-06,-2.7159070936081035e-07,-1.2493136446859163e-06,1.0782822225835888e-06,1.1235704427930385e-06,-2.1142531508142213e-07,6.361627589622561e-07,-1.9769410713858444e-06,-7.732644140121924e-07,3.878670621979786e-09,1.5197352421174767e-06,1.376902111197075e-06,3.2213918246597677e-06,3.00726681787952e-07,-4.172990926022835e-08,-6.780393496627272e-07,-5.104233932587566e-07
8.927991876666283e-07,-1.714361687841322e-06,-2.3669546966902577e-07,-1.150683371890987e-06,1.0911490405039885e-06,1.1973535030132598e-06,-2.508683125686844e-07,7.443529259482428e-07,-1.9128406366053547e-06,-6.95797108073356e-07,1.1509027505417924e-07,1.6016450112424286e-06,1.3216250052407002e-06,3.1121241271811246e-06,2.953260839830404e-07,-7.723264363792552e-08,-5.781945303840541e-07,-4.984772536774888e-07
8.199457917698367e-07,-1.6063369375467858e-06,-1.8513990441097281e-07,-1.0581385664279676e-06,1.1129932486891636e-06,1.226985105472069e-06,-2.546438321766695e-07,7.654143683787746e-07,-1.8626225449312505e-06,-6.256036437375101e-07,1.950462597366524e-07,1.645230352631379e-06,1.2772293465589369e-06,2.936280045853686e-06,2.8941422693401463e-07,1.8408655548110635e-09,-4.3440464802137884e-07,-4.745843318406475e-07
7.557555455814642e-07,-1.6287338704999229e-06,-1.1094233154749203e-07,-9.666150333591907e-07,1.1080875094287155e-06,1.2041798160118116e-06,-1.9523612509287496e-07,7.023801625056146e-07,-1.7907565422513727e-06,-5.281283955159621e-07,2.6206120692806074e-07,1.6754788926023984e-06,1.290394816054345e-06,2.849205044541497e-06,2.6581225284578213e-07,9.443732557766554e-08,-2.7852977043428073e-07,-4.6506771012515947e-07
7.148994752541391e-07,-1.6200878347711332e-06,-5.413228372938975e-08,-8.935647588842603e-07,1.081195367436984e-06,1.1612347363822473e-06,-1.674940471909642e-07,6.037363782013673e-07,-1.7356224096999019e-06,-4.6032523689727526e-07,3.489956487819437e-07,1.72495347458036e-06,1.3275036885922296e-06,2.782640508083929e-06,2.6503641146710675e-07,1.637342228774487e-07,-1.1981480391359525e-07,-4.635387001101639e-07
7.079031577961421e-07,-1.6140486995812603e-06,-4.631499359272354e-09,-8.127570435779799e-07,1.0509364614349904e-06,1.0984123304643788e-06,-1.581410845736577e-07,4.895598812291188e-07,-1.6861997364272154e-06,-3.968453269642592e-07,4.181543843603095e-07,1.7609903251754856e-06,1.3234167372432284e-06,2.7021513641867863e-06,2.861356622236816e-07,2.788056709874651e-07,7.133648302972763e-08,-4.075236314113499e-07
6.980818381303609e-07,-1.692500195527388e-06,4.515013060853785e-08,-8.004802265719419e-07,1.0225954396066279e-06,1.042884831008418e-06,-1.1644380671076265e-07,3.850387711008673e-07,-1.6170424455827138e-06,-2.8951882754842296e-07,4.672694225019565e-07,1.8151859669908476e-06,1.2909308618326302e-06,2.662626553187848e-06,3.114976306989218e-07,4.04267145693561e-07,2.0722304989569665e-07,-3.655198815011651e-07
7.012646042850359e-07,-1.8148846132519065e-06,9.790946093244368e-08,-7.914556812581604e-07,1.0085340666316476e-06,9.958756196591577e-07,-1.0133070810777054e-07,3.0043567022733255e-07,-1.559090416980281e-06,-2.301102947214315e-07,5.122420154657155e-07,1.8851737612411337e-06,1.2422882649090808e-06,2.6025841591781565e-06,3.549368903263736e-07,5.33842392599742e-07,3.045931061176931e-07,-3.100365287398518e-07
7.247507399877222e-07,-1.8171430101867385e-06,1.623211432498805e-07,-7.757907881575904e-07,9.976373398657786e-07,9.461674315307397e-07,-1.1496911442394925e-07,2.340924935433259e-07,-1.5226218277989682e-06,-1.562130286119159e-07,5.573693452488559e-07,1.9656724415829297e-06,1.1921676557510047e-06,2.5728354143645936e-06,4.052614849317011e-07,6.573220491400422e-07,3.959137910414763e-07,-3.162309087686048e-07
7.359111426197552e-07,-1.7617300099832984e-06,2.35434145631815e-07,-7.744532633719067e-07,9.924868067122988e-07,9.201201769423936e-07,-1.2350273457887368e-07,1.987151256466599e-07,-1.463027976238702e-06,-8.193254772955469e-08,6.043064520160939e-07,2.0663835900577573e-06,1.1631924532928817e-06,2.5812153234752056e-06,4.587856551326571e-07,7.555843534039393e-07,4.870638604618008e-07,-3.2986212678631207e-07
7.410249219699174e-07,-1.7410878063630495e-06,2.969027930277934e-07,-7.564919666549301e-07,9.949131456755674e-07,9.072060282474887e-07,-1.2895516451841798e-07,1.80778872296714e-07,-1.4106513352365626e-06,-3.8090716236707694e-08,6.692498068636365e-07,2.182168154224421e-06,1.1472984562839944e-06,2.609894913246449e-06,5.437310009627506e-07,8.178688891949122e-07,5.294183267546053e-07,-3.1763922628420446e-07
7.397724027575216e-07,-1.761118958474913e-06,3.434463744303002e-07,-7.324393051144572e-07,9.974119048238606e-07,8.900634834577838e-07,-1.1364403917174487e-07,1.4392004543257844e-07,-1.3744606430271243e-06,9.135153821400759e-09,7.405707605391793e-07,2.2928412454115046e-06,1.1546948276521583e-06,2.6759984272529797e-06,6.467716886206709e-07,8.582786440632947e-07,5.840329598451026e-07,-3.305906896309547e-07
7.335491093936039e-07,-1.8018599800847937e-06,3.748108340168277e-07,-7.195554123386699e-07,9.98097963115724e-07,8.731112694321093e-07,-7.707675401897717e-08,7.746331986091892e-08,-1.3649543317877748e-06,6.014905218060957e-08,7.996478371934043e-07,2.3734643145528094e-06,1.167273757431674e-06,2.773346628144587e-06,7.303157937048106e-07,8.830981721631131e-07,6.496359009926687e-07,-3.505651932066081e-07
7.387976515305441e-07,-1.8672808685517108e-06,3.853602691536153e-07,-7.162711511774236e-07,9.888274419972687e-07,8.459218451692935e-07,-7.712098020154995e-08,-1.4951404712815464e-08,-1.3464401193251146e-06,1.3112720828524292e-07,8.433299401857578e-07,2.4218161366314575e-06,1.1613219216063812e-06,2.84834314483497e-06,7.868997231239499e-07,8.56188898988528e-07,7.002436629666877e-07,-3.754316034955758e-07
7.570968018348971e-07,-1.916040528814044e-06,3.7573893213940896e-07,-7.135639110131293e-07,9.644482286428422e-07,8.078972950706203e-07,-1.3078000018945984e-07,-1.2909463147216525e-07,-1.3043613628621323e-06,1.8537267088119487e-07,8.739608799946257e-07,2.43876818171012e-06,1.1248663152540886e-06,2.8471245753667713e-06,7.842915069585283e-07,7.928937934285878e-07,7.408598761636528e-07,-4.1198494455138653e-07
7.705874910232373e-07,-1.9585827290940754e-06,3.4418826452486716e-07,-7.180493903444584e-07,9.283593890784269e-07,7.656884933447157e-07,-2.234686733565196e-07,-2.454555727111786e-07,-1.3091507487344756e-06,2.022948090982666e-07,8.962213531832716e-07,2.4298712281483193e-06,1.0537186549424108e-06,2.7676030694067554e-06,7.32327758390082e-07,7.104744957153597e-07,7.507013681235835e-07,-4.482305927844039e-07
7.765920490684463e-07,-1.990220493596111e-06,2.9943350795657267e-07,-7.191167069472641e-07,8.860079060751696e-07,7.216591103441966e-07,-3.5021891844480544e-07,-3.448571367285839e-07,-1.3578298122047546e-06,1.892750083077725e-07,9.173858026673683e-07,2.4035376418750507e-06,9.509096140268612e-07,2.736957671894806e-06,6.474666604503697e-07,6.108679498605997e-07,7.290949033938591e-07,-4.912814373925948e-07
7.731422080806207e-07,-2.003619114356637e-06,2.4841155032924784e-07,-7.106688411551197e-07,8.430703172219471e-07,6.718664939457817e-07,-5.027369737195158e-07,-4.295964882848041e-07,-1.4397115277067488e-06,1.3551081322779878e-07,9.374980368411748e-07,2.363117921431119e-06,8.248485123776766e-07,2.777083524257328e-06,5.304525033803606e-07,5.048345331110342e-07,6.846366986897268e-07,-5.462159650615094e-07
