0,1,2,3,4,5,6,7,8,9,10,11,12,13,14,15,16,17
5.616719154674937e-08,-2.736855389594111e-08,8.413836803741535e-06,1.0867056509036636e-05,-1.0570547908748988e-06,-1.4635578631208527e-07,-2.0578567217085027e-07,-1.1625576848613176e-06,-8.930603707221132e-06,-2.6806780250259643e-07,-3.254459143805932e-07,2.3949192409927144e-07,-1.7650892431777627e-07,-5.380410034119415e-08,3.042157894466536e-07,-1.345837385131039e-07,-7.473236486551672e-08,-1.2699005690219188e-08
5.519241115889122e-08,8.710095240392772e-09,1.073049272468482e-05,1.2095943491163786e-05,-9.390542066543567e-07,-9.575618755419925e-08,-1.4616635732519163e-07,-1.0243193276313076e-06,-7.238980747156233e-06,-2.3646215457824135e-07,-2.60989574325548e-07,2.0899685458792136e-07,-1.996894948619045e-07,-6.235201217168523e-08,2.361970742695903e-07,-9.453776867295689e-08,-2.8951574022628138e-08,-2.3416384974345248e-08
4.311521124672325e-08,4.696084671430303e-08,1.1406735902566726e-05,1.1924514834274221e-05,-8.090367439016097e-07,-6.617410725009229e-08,-8.997041138554538e-08,-8.578077306657117e-07,-4.796321694861878e-06,-2.1739276110747294e-07,-2.0618087225299714e-07,1.584170032643989e-07,-2.264899158780907e-07,-8.164107378369596e-08,1.5744767576416396e-07,-7.051508093372961e-08,6.283507250169213e-10,-5.264239926321233e-08
2.4899423413695222e-08,9.291700702344837e-08,9.677462493460564e-06,9.416034641078291e-06,-6.832989617354644e-07,-5.6224244201612846e-08,-4.994255612705276e-08,-6.91480201571156e-07,-1.7183412638879262e-06,-2.0237179251001836e-07,-1.6377986510622385e-07,9.872067224300953e-08,-2.570496683889429e-07,-1.056506482537876e-07,7.26557591554281e-08,-5.654162072551529e-08,2.0709868994172128e-08,-8.951579133697766e-08
5.427210469424343e-09,1.42797888194457e-07,5.872773636767762e-06,4.556583755261103e-06,-5.729200373289416e-07,-5.841708862416766e-08,-3.3487773074271434e-08,-5.314052148571406e-07,1.4718504718321472e-06,-1.8412945560637424e-07,-1.2483998560971586e-07,3.813110419364103e-08,-2.6371048054727563e-07,-1.2843839465697257e-07,-7.730809603205037e-09,-4.6833880931752556e-08,3.122034299813982e-08,-1.221089043725186e-07
-1.2209094605984467e-08,1.764771385768494e-07,9.093191655681277e-07,-1.664386618878078e-06,-4.3923430267885867e-07,-4.77823358860085e-08,-4.5043224969537715e-08,-3.3986663441486086e-07,4.045812251556823e-06,-1.5886405169379983e-07,-8.551890518223198e-08,-1.816018627300393e-08,-2.3379743142187756e-07,-1.413345570461826e-07,-6.765975687472497e-08,-3.763990887889378e-08,4.119187003775747e-08,-1.2512093731198533e-07
-2.660892432745882e-08,1.8154659292996378e-07,-3.932912174220207e-06,-7.329785382076722e-06,-2.840639118608074e-07,-1.9477338088367286e-08,-2.9916060675004097e-08,-1.3194953802065117e-07,5.481186877035759e-06,-1.2502910841632347e-07,-4.3791203983161485e-08,-6.715941557399824e-08,-1.459428587465185e-07,-1.3419792449992913e-07,-1.090259840422336e-07,-2.7399136848903298e-08,5.111076474692446e-08,-1.0026803523089523e-07
-3.720192743889186e-08,1.2598021207384682e-07,-7.141709014641357e-06,-9.864846378908664e-06,-1.2048140231218207e-07,-1.2388299099700427e-08,-2.5356074162551455e-08,7.801234737314632e-08,5.7213864937888714e-06,-8.126036812323502e-08,-3.6799050345766426e-09,-1.0593582309232192e-07,-5.354643397401518e-08,-1.210952716693232e-07,-1.3223356698054057e-07,-1.609307244439628e-08,5.598951280943256e-08,-5.303503421713207e-08
-4.397258790842717e-08,1.585498438396406e-08,-9.23076066203195e-06,-1.1373978833062555e-05,5.346362123077885e-08,-8.284065079512353e-10,-3.83134232923943e-11,2.6774067455567897e-07,5.078843128413545e-06,-2.609636691024257e-08,4.107352586640704e-08,-1.3139064764967512e-07,2.1904332663821834e-08,-1.0240513800023269e-07,-1.3901158441990838e-07,-4.476595891101895e-09,5.2898266855227263e-08,-3.2251796166713175e-09
-4.755600345645816e-08,-1.2102747879503341e-08,-9.008480801508125e-06,-8.773650385816935e-06,2.2728047491467237e-07,2.451141431735195e-08,3.4288001257379245e-08,4.4479668577544776e-07,3.96109634400018e-06,4.271673858088077e-08,9.692671698254933e-08,-1.416181053041295e-07,5.603822346362415e-08,-6.673660426941941e-08,-1.288987092594605e-07,6.980535761525337e-09,3.8546232923807935e-08,7.54333516780681e-09
-4.8337001164634904e-08,8.250887601863627e-09,-7.619230141795271e-06,-5.2856661980306665e-06,4.0090372094890707e-07,1.1662393388443048e-08,6.180220662603712e-08,6.166737756310686e-07,2.643921171641103e-06,1.2185639599234543e-07,1.520093881070411e-07,-1.3591489578828645e-07,9.368071110486928e-08,-9.5759004916731e-09,-1.1149133271554296e-07,1.8911448814316723e-08,1.2853762415083203e-08,2.3515415266911575e-08
-4.4717750033626503e-08,-1.7117658232710138e-08,-5.331084940920456e-06,-2.071389200278972e-06,5.748828616976597e-07,4.991048068068335e-08,9.060943017884395e-08,7.378507955650863e-07,1.2494169261110132e-06,2.0175698832043442e-07,1.9902792527501338e-07,-1.1474796206561424e-07,1.2364759168055092e-07,5.637103075266199e-08,-6.855192889516996e-08,3.345679575139847e-08,-1.4111379565826888e-08,3.6914511658295726e-08
-3.257370173646305e-08,-7.121611351411931e-08,-3.0800730355971236e-06,-1.9537112963424435e-07,7.460630888173549e-07,1.0268998541107967e-07,1.1940816077258302e-07,8.290249443414723e-07,-8.421840462612848e-08,2.75106691260377e-07,2.0924509045601578e-07,-7.978325500726133e-08,1.8014278844387642e-07,9.490328665498378e-08,-3.571218023768667e-08,5.352878994946127e-08,-3.376088098397993e-08,5.700155178824641e-08
-7.372650085951077e-09,-1.4863951687623034e-07,-1.3513524688350714e-06,1.1238297649702374e-07,8.531587782596087e-07,1.0620917372212583e-07,9.926635201783827e-08,7.636006053189805e-07,-1.3490482165158148e-06,3.0986375863370137e-07,1.920554441196349e-07,-3.43741332197923e-08,2.5550249737714384e-07,2.0432461489341465e-07,-3.8693708109509596e-08,8.181987841331232e-08,-4.209632901462345e-08,9.833510257529275e-08
3.238451499619888e-08,-2.2565560048865203e-07,-2.900656363595454e-07,-6.447211661415365e-07,9.686748437739595e-07,1.0242382594491109e-07,9.792303444159201e-08,5.596860430845892e-07,-2.484375959099793e-06,2.778627378900713e-07,1.6755503475631914e-07,1.6652521405017628e-08,3.571819868668905e-07,3.081774365283216e-07,1.1126662960654882e-08,1.2078542754300365e-07,-5.543366904558682e-08,1.45874172788967e-07
8.336367792621372e-08,-2.973954618519333e-07,-2.495185088041135e-08,-1.768720914482674e-06,1.0807169677041816e-06,1.059965200595912e-07,1.2240925801902076e-07,4.420004603766753e-07,-3.0516236710105317e-06,2.7051055077049604e-07,1.5633310031206694e-07,6.867434418082326e-08,4.686370765356241e-07,3.434552563547123e-07,5.736659954149105e-08,1.7313792760733572e-07,-5.606277500739957e-08,2.1284758276843689e-07
1.391124086565816e-07,-3.479017224885602e-07,-5.424104687563737e-07,-2.7832377795406508e-06,1.1621285785726133e-06,9.213613060254961e-08,1.3850781225340684e-07,4.935972750601434e-07,-2.4581832785561527e-06,2.667798845038639e-07,1.521506914836312e-07,1.194635643376133e-07,5.640035873182348e-07,2.9374286871701954e-07,1.4924925552313564e-07,2.41521206309509e-07,-9.753785085829859e-09,2.7561989512493547e-07
1.9333239334748605e-07,-3.9923437790759755e-07,-1.562291239676279e-06,-3.609219670731014e-06,1.2280390986676924e-06,8.319793748339338e-08,1.5192672335361194e-07,6.324338119453726e-07,-8.045515260354153e-08,1.7506340814609906e-07,1.6353658454939768e-07,1.6980436011800732e-07,6.698614086939831e-07,2.3775866278537228e-07,2.502865541221259e-07,3.267685242540105e-07,3.484125777697593e-09,3.2599873980421994e-07
2.417555042187377e-07,-4.599739354457163e-07,-3.061587823802206e-06,-4.321214834390925e-06,1.2577897080094364e-06,1.0013811754490074e-07,1.7759655545685495e-07,6.312152471887506e-07,4.138062497435877e-06,5.642969111642873e-08,1.659075810084599e-07,2.2154744975274072e-07,7.822535883194448e-07,2.9672942411003716e-07,3.1916202173587663e-07,4.2593695134991367e-07,1.9889113972813224e-09,3.794998526364988e-07
2.8188528772434996e-07,-5.235249474041727e-07,-5.178916153201136e-06,-5.050295109609261e-06,1.2540868535112035e-06,1.3028546863814145e-07,2.1565265956255102e-07,5.545654883305266e-07,9.572625548069123e-06,-3.897232931596771e-08,1.744103882375802e-07,2.750304769090677e-07,9.03759304412596e-07,4.4152171778230447e-07,4.3611926316710366e-07,5.320507755650102e-07,-3.375545518793465e-08,4.2840331591322577e-07
3.12048512887475e-07,-5.89376281626503e-07,-7.64648824358703e-06,-5.87750675652979e-06,1.225515989498018e-06,1.479904804477201e-07,2.409982239676438e-07,4.862340094970232e-07,1.4230192504181442e-05,-1.1306037585980659e-07,1.6077719564412025e-07,3.286174067991013e-07,1.0166965567863582e-06,6.048126969530243e-07,5.360776678799445e-07,6.363837169351123e-07,-9.788302273820041e-08,4.766334933037969e-07
3.3145866478631424e-07,-6.2914228813643e-07,-1.0288781822486005e-05,-6.678021367630308e-06,1.2259595403445709e-06,1.5933231032901873e-07,2.65629187814049e-07,4.6652473649626353e-07,1.4950895701745727e-05,-1.7299103612695495e-07,1.5877409626292318e-07,3.804650463251519e-07,1.1167732609755207e-06,8.214022653737933e-07,6.187346301554015e-07,7.318054829090983e-07,-1.4574880220672534e-07,5.135837164781614e-07
3.4105858767211325e-07,-6.399118774144553e-07,-1.2934379577220902e-05,-7.193685673337462e-06,1.1671150776190987e-06,1.841286234408055e-07,2.834356434534298e-07,4.070552229743806e-07,1.3444636832190972e-05,-2.1868265778389744e-07,1.6587902638144955e-07,4.298411867328078e-07,1.176131366193537e-06,1.0701837288341578e-06,7.160474896950138e-07,8.146987617367707e-07,-1.7711402361324747e-07,5.396886932539519e-07
3.436391146218595e-07,-6.19708669556194e-07,-1.5353188649517493e-05,-6.993699339278727e-06,1.0687872321469383e-06,2.054875368648439e-07,2.7872782547700873e-07,4.093650178202469e-07,1.174026638816762e-05,-2.5527992878638554e-07,1.5477971168744302e-07,4.760255098716992e-07,1.2063913015958725e-06,1.2290935079857681e-06,7.971774967061171e-07,8.844536288984773e-07,-2.0587446928362966e-07,5.506429085007253e-07
3.425381445790475e-07,-5.737879176668513e-07,-1.7467599736249202e-05,-5.6883065223589505e-06,9.674416263956934e-07,1.9573679592420956e-07,2.747218687383745e-07,4.4148867888564255e-07,1.1669540009383892e-05,-2.8999135776420654e-07,1.5097448737669737e-07,5.163164617226765e-07,1.2381484371866203e-06,1.3204837589700552e-06,8.752315671063954e-07,9.416640792604396e-07,-2.3498533318164757e-07,5.559055828646457e-07
3.4014823408857284e-07,-5.088051399040441e-07,-1.9269529107994768e-05,-3.5971597150254035e-06,8.374889247115361e-07,1.821562691712381e-07,2.637470567944872e-07,4.6765685945202705e-07,8.536395592380074e-06,-3.2999002206348367e-07,1.376005653448091e-07,5.460748477328675e-07,1.259051068218478e-06,1.3650072985695929e-06,9.480857200532039e-07,9.86880742966708e-07,-2.690310083037648e-07,5.639646364031553e-07
3.3779680250612666e-07,-4.344470263078609e-07,-2.0579108206359333e-05,-6.990123404390416e-07,7.116742879776707e-07,1.71511287189319e-07,2.3444372851570208e-07,4.997615613549304e-07,3.866641561828351e-06,-3.7896791955529795e-07,1.1083028770906169e-07,5.61431118176152e-07,1.2675738121593996e-06,1.3810251396777359e-06,1.0080596758291376e-06,1.0208484324795862e-06,-3.0796499644762444e-07,5.678474738995558e-07
3.3670679094009207e-07,-3.6128495012577727e-07,-2.1121393242758008e-05,2.2310021091131478e-06,5.90035163117009e-07,1.821517302397736e-07,1.8074545995711893e-07,4.734496699127041e-07,8.76453722133449e-07,-4.3508031340978197e-07,7.9056753511355e-08,5.620038560549228e-07,1.2629174179847768e-06,1.4123877394440588e-06,1.0436513056923195e-06,1.0451420072922105e-06,-3.363967565722328e-07,5.663297315856775e-07
3.3858019854597794e-07,-2.929024882658299e-07,-2.075860517875391e-05,4.293895486984736e-06,4.6432823525927973e-07,1.8711461200407956e-07,1.3887944169744642e-07,3.647561624722309e-07,-1.6788320693074294e-06,-4.926226044402377e-07,3.929714654621461e-08,5.509161138482843e-07,1.2808677304219375e-06,1.397252721444854e-06,1.0625156719539626e-06,1.061981343965454e-06,-3.614363419498663e-07,5.354849673465297e-07
3.4504219297692654e-07,-2.4359092711490764e-07,-1.943830803157067e-05,5.201123675045053e-06,2.966191001339272e-07,1.7969488005820991e-07,1.2308644367978056e-07,1.7908953057341424e-07,-3.990383463329276e-06,-5.457187858399638e-07,-1.2479277798733846e-09,5.325344077469896e-07,1.2787642462338896e-06,1.3739756491979609e-06,1.0642480406270446e-06,1.0731368313173193e-06,-3.8334735744755225e-07,5.170598652235691e-07
3.5661447752262346e-07,-2.1400038553815045e-07,-1.7274109554837923e-05,4.840236573975363e-06,1.5531697906997645e-07,1.6806446913221707e-07,1.3767626811621235e-07,-1.0789003134739638e-09,-4.6556238531742e-06,-5.910742144088494e-07,-2.890599840891405e-08,5.105410865935169e-07,1.2716204781757985e-06,1.3649634668564345e-06,1.0431348704173699e-06,1.0790645906222326e-06,-3.9743444155144587e-07,5.065362825348731e-07
3.7235890210040635e-07,-2.0731945905561722e-07,-1.4599328134134719e-05,3.601277280076256e-06,4.246622829416047e-08,1.4989209017350002e-07,1.5619695806897565e-07,-1.6671632400114472e-07,-4.620897518104463e-06,-6.281205478063437e-07,-4.295845533720415e-08,4.878899255481829e-07,1.271891823659251e-06,1.3417131011751912e-06,1.0055146431178738e-06,1.079203262569298e-06,-4.069828313360542e-07,4.946939653130126e-07
3.901746046750902e-07,-2.2050704590874722e-07,-1.186601612202633e-05,1.8688665132984681e-06,-6.019341281521934e-08,1.2811928925234146e-07,1.433337549837591e-07,-2.8101189122385554e-07,-4.3878510007846906e-06,-6.577576286632391e-07,-4.6289602305694255e-08,4.675767472166333e-07,1.2654091348561937e-06,1.3219086560514315e-06,9.520429462647989e-07,1.0731137604085162e-06,-4.120465114373449e-07,5.04759798358645e-07
4.071073623717995e-07,-2.4391166166394493e-07,-9.55137716876937e-06,6.60111060667233e-07,-1.3385993263084327e-07,1.0673595869699214e-07,1.1078546740452914e-07,-3.5346883040650074e-07,-4.446920814184832e-06,-6.817866642183061e-07,-3.17332093070068e-08,4.521529756983889e-07,1.2727567941170448e-06,1.3016750290893187e-06,8.850849329730042e-07,1.0612801597033302e-06,-4.150256964621396e-07,4.95591996079052e-07
4.194983586296202e-07,-2.703256531588047e-07,-8.013970130574875e-06,-1.2127951991690454e-06,-2.0648836742142673e-07,9.101074014410005e-08,7.37375563422588e-08,-4.0720235215194665e-07,-5.366726886888998e-06,-7.031519495130017e-07,-7.540556127034698e-09,4.421731764635989e-07,1.2881517597883787e-06,1.2749165971980598e-06,8.10100458562791e-07,1.044968769063241e-06,-4.2079055980882833e-07,4.7351731212536015e-07
4.2365172864829433e-07,-2.931339744578017e-07,-7.419862768538359e-06,-3.89102397968235e-06,-2.8695586461492925e-07,6.705009682988719e-08,1.15327714420091e-09,-4.5975691487861924e-07,-6.742882641596564e-06,-7.257989956702015e-07,3.8963429343886665e-09,4.353011625067181e-07,1.3076609392258817e-06,1.2417625213280224e-06,7.339656589892514e-07,1.0257372708309061e-06,-4.299066841780799e-07,4.5082241845616535e-07
4.173729841043146e-07,-3.1081316452479033e-07,-7.53775655034608e-06,-6.872729901201133e-06,-3.787614379624888e-07,5.301832430410806e-08,-7.87382477903149e-08,-5.059374565639684e-07,-8.004667471922876e-06,-7.533975387419608e-07,8.11899079557298e-09,4.274587114177542e-07,1.3029984304402349e-06,1.2079458160402155e-06,6.567404285541383e-07,1.0052767116983832e-06,-4.442846985686447e-07,4.2267722958301794e-07
4.0141536445137954e-07,-3.1860920512549004e-07,-7.487769841944026e-06,-1.0283815924575006e-05,-4.6387133957304216e-07,4.7158337315130465e-08,-1.6451107967145755e-07,-5.307070607111189e-07,-8.775623422708759e-06,-7.879720881196076e-07,1.8903577097085748e-09,4.1512942152066586e-07,1.300128532435362e-06,1.1420097630562055e-06,5.771304596269035e-07,9.856605965323095e-07,-4.6572116741763125e-07,3.9224014173108595e-07
3.7946001555109037e-07,-3.221537971312675e-07,-7.85333914844201e-06,-1.2101238901099181e-05,-5.456268501428224e-07,3.7013110891064834e-08,-2.62684175888273e-07,-5.596933704192896e-07,-8.892903299419935e-06,-8.297154445022436e-07,-2.1299119335341395e-08,3.9668801320591115e-07,1.3017137237564416e-06,1.054082821313035e-06,4.997830842068606e-07,9.693405191710057e-07,-4.928337058864042e-07,3.630276727850342e-07
3.563556768757275e-07,-3.252322244727419e-07,-6.734460151873395e-06,-1.1924887117987906e-05,-6.522872230180377e-07,1.612695360357671e-08,-3.387537495230638e-07,-5.842812597725284e-07,-8.361462770454034e-06,-8.777788415733095e-07,-5.5438238718355023e-08,3.7257238544433086e-07,1.3027135041171575e-06,1.0129582853706267e-06,4.361500568092889e-07,9.586039367752631e-07,-5.242599435555946e-07,3.286666213336259e-07
3.359257005142844e-07,-3.3191367485319575e-07,-4.917270407731002e-06,-1.0779218039468726e-05,-7.569088378532967e-07,-1.817770092324949e-08,-3.802157621486672e-07,-6.586432638668148e-07,-7.207324023856664e-06,-9.307822843902706e-07,-9.910335449891037e-08,3.451693313965126e-07,1.294252483102159e-06,1.0006213462327872e-06,3.866571367272088e-07,9.54868462557155e-07,-5.577061745583702e-07,2.9487908624502844e-07
3.1991989947682224e-07,-3.447861955011652e-07,-2.6630717664856157e-06,-9.486377724208733e-06,-8.492161694940581e-07,-6.722687638619837e-08,-4.090597336439396e-07,-7.652424427575525e-07,-5.4760482680072116e-06,-9.854418834984686e-07,-1.3984494488695186e-07,3.1886624370177487e-07,1.2788081763655607e-06,9.912509779699244e-07,3.429469986191424e-07,9.580470241480392e-07,-5.903448461985209e-07,2.621875788687106e-07
3.0832621905440345e-07,-3.629126939048106e-07,-6.106153034121288e-07,-8.9849442288007e-06,-9.17897443297599e-07,-1.3186575509776214e-07,-4.3631867879824327e-07,-8.853922583486099e-07,-3.3545415990533483e-06,-1.036806182838191e-06,-1.7587546302433887e-07,2.98721419231623e-07,1.264765434658923e-06,1.0120189043639463e-06,3.039191424286711e-07,9.629204306241664e-07,-6.194978857681013e-07,2.3316886239282738e-07
2.998763259527441e-07,-3.85382715886424e-07,6.337383289231241e-07,-8.737552241566808e-06,-9.294874932756815e-07,-1.9705777202882698e-07,-4.6587853656255473e-07,-9.611681092999994e-07,-1.2878208721282758e-06,-1.079504895674966e-06,-2.076705634983821e-07,2.8700350137699945e-07,1.2552103378280708e-06,1.0513850815074625e-06,2.6544921735826757e-07,9.681146106045543e-07,-6.450300805092115e-07,2.0940739429983922e-07
2.918132315911406e-07,-4.1125580690205734e-07,6.446428303843288e-07,-6.6692702270804846e-06,-8.73780196413918e-07,-2.616974226582161e-07,-5.057504023110849e-07,-9.515510762195535e-07,1.0096815095925597e-07,-1.112414764898363e-06,-2.3624279466408217e-07,2.803735609991617e-07,1.257677640632235e-06,1.1170130050400775e-06,2.2922168698679392e-07,9.656312608447318e-07,-6.650723394450208e-07,1.877835873548932e-07
2.7959644723176914e-07,-4.431757075467192e-07,-7.592252431788218e-07,-2.8910829721986523e-06,-8.120903595721309e-07,-3.2076368267118143e-07,-5.477959598463352e-07,-8.694644472938014e-07,2.607439021537749e-07,-1.1392056884632753e-06,-2.6454426032524075e-07,2.692402531715332e-07,1.2591174977544918e-06,1.2024936900006502e-06,2.033027467580272e-07,9.452355229177678e-07,-6.817451679209832e-07,1.6765009224657808e-07
2.5795611322369436e-07,-4.803053124066972e-07,-3.4436224649932047e-06,2.2477518405065567e-06,-7.468159491028001e-07,-3.717946275552432e-07,-5.863882858859004e-07,-7.917316418145891e-07,-1.043113890798208e-06,-1.1628036510854524e-06,-2.904046345422928e-07,2.425227071198045e-07,1.2515968299640756e-06,1.2727448071386099e-06,1.7787766516240348e-07,8.986709164119265e-07,-6.982834019224661e-07,1.396947072079067e-07
2.234704028553309e-07,-5.209638211776934e-07,-6.899051100743813e-06,7.3965163255276415e-06,-7.110315068796062e-07,-4.206188221711348e-07,-6.352527923529459e-07,-8.014991481650367e-07,-3.624345625727419e-06,-1.1840388572688508e-06,-3.1431483600851536e-07,1.9295044122925437e-07,1.190276576367437e-06,1.3046853084976082e-06,1.4606901466272128e-07,8.247948374754959e-07,-7.157041934328959e-07,1.0505118517991945e-07
1.7687860034754613e-07,-5.607547483295294e-07,-1.0360204363155582e-05,1.021885981097445e-05,-8.225596526340572e-07,-4.666653563534819e-07,-6.958699726874534e-07,-9.79432247793915e-07,-6.948352495242288e-06,-1.1997566622891909e-06,-3.3955329707346803e-07,1.1941752681554245e-07,1.117375874462258e-06,1.29490871819866e-06,1.0861213983427149e-07,7.302067762278665e-07,-7.348563735876541e-07,6.183983376930085e-08
1.2339633710573645e-07,-5.93748433545295e-07,-1.3137500757430955e-05,1.1619610356051506e-05,-8.948765513662995e-07,-5.162838094755692e-07,-7.633326621229526e-07,-1.184977007523121e-06,-1.024447429260694e-05,-1.2045931896644927e-06,-3.683622421004655e-07,2.6798023193480795e-08,1.021492948202602e-06,1.2521400744469458e-06,6.685081488716617e-08,6.275915298782989e-07,-7.561171456217875e-07,2.372428218190575e-08
7.093274318362119e-08,-6.169897774372207e-07,-1.4946203793080375e-05,1.1500702822004454e-05,-9.513680816628391e-07,-5.715644162692953e-07,-8.320884154155957e-07,-1.36621399439426e-06,-1.2683680516749982e-05,-1.1946108825887631e-06,-3.997884640371435e-07,-7.606866332451649e-08,9.848212986634566e-07,1.1772338406593273e-06,3.005809783444479e-08,5.811761109373312e-07,-7.798859792700047e-07,-9.432118788114188e-09
2.7477799073317784e-08,-6.307675388017115e-07,-1.5941753520107275e-05,1.0076191579584633e-05,-1.0251025616221406e-06,-6.326877068507903e-07,-8.874319741421543e-07,-1.5663290406939004e-06,-1.361974722527036e-05,-1.168218249058082e-06,-4.3122447392761685e-07,-1.7845927606193877e-07,1.0110684534880697e-06,1.085458679049175e-06,1.4997794237354997e-08,5.931415154689079e-07,-8.0708858544559e-07,-1.0704776979896335e-08
-1.0948222438941246e-09,-6.369754404695816e-07,-1.6439555047376445e-05,8.399549402783915e-06,-1.0589120134384264e-06,-6.916179004375376e-07,-9.245567512200635e-07,-1.7138824581533493e-06,-1.2809563260539414e-05,-1.125918082101178e-06,-4.6495207273983065e-07,-2.702561116098039e-07,1.0321232102204759e-06,9.67864062358627e-07,-9.622380599070253e-09,6.128285769991528e-07,-8.348994927446234e-07,-6.743033596526669e-09
-1.2477371039932742e-08,-6.36099823220123e-07,-1.6609175201745306e-05,6.176452189198247e-06,-1.1060312081207094e-06,-7.435691481936362e-07,-9.428557545471089e-07,-1.7742453259478958e-06,-1.055868210191951e-05,-1.0713621769817754e-06,-4.996859973928937e-07,-3.4490874362337033e-07,1.03404309408896e-06,8.446906509149223e-07,-5.810588693567991e-08,6.595653695877094e-07,-8.586725492956208e-07,-1.7490716014032116e-08
-8.631947611551131e-09,-6.275640284152826e-07,-1.6393824939737638e-05,4.075337909181336e-06,-1.1819008719127527e-06,-7.37260692618395e-07,-9.432424083866676e-07,-1.8268947605550089e-06,-7.681233160297503e-06,-1.0134424962494373e-06,-5.3288672606199e-07,-4.005037477928177e-07,1.0315113595927202e-06,7.421502589435611e-07,-1.4723805325171698e-07,6.646304163612752e-07,-8.747780430584516e-07,6.606893417721878e-09
4.6439873027562876e-09,-6.114718106402657e-07,-1.5648629586727e-05,2.545238907803036e-06,-1.268809022302471e-06,-7.406385852761588e-07,-9.334480884216466e-07,-1.925720522008421e-06,-5.182324497333993e-06,-9.649088239460191e-07,-5.612347626000008e-07,-4.3978829602455856e-07,1.0181271937762647e-06,6.06365066903112e-07,-2.6439333329865357e-07,7.478987489182365e-07,-8.811694639125014e-07,4.5689506308153804e-08
1.97318243164247e-08,-5.898023734151645e-07,-1.4326575068592478e-05,1.4315754614696415e-06,-1.3507736224009194e-06,-7.752795822081154e-07,-9.158482605409408e-07,-1.9358987320450846e-06,-3.762845078947487e-06,-9.381000972204324e-07,-5.804506278600015e-07,-4.6741127871155204e-07,1.0625410712046097e-06,4.6076637647451606e-07,-3.514664504078702e-07,7.914229568107695e-07,-8.78641594335023e-07,4.6583791901031217e-08
3.0231658926961735e-08,-5.659838596161976e-07,-1.2582104618467454e-05,4.7051115177377676e-07,-1.4256426426185554e-06,-7.780564834661639e-07,-8.92296580132159e-07,-1.9892145277724574e-06,-3.5290813526104396e-06,-9.396755993343517e-07,-5.92149881191317e-07,-4.869234557354432e-07,1.1140964048109459e-06,3.355378600160417e-07,-3.6188012880148745e-07,7.758348173004681e-07,-8.699895173480244e-07,3.2942549122054124e-08
3.2717308186827536e-08,-5.41738157853006e-07,-1.0716361687012558e-05,-6.087822372920475e-07,-1.5549437966824868e-06,-7.383010911400445e-07,-8.641957893701642e-07,-2.0515400082248348e-06,-4.073181689261141e-06,-9.675206496738307e-07,-5.950344561367201e-07,-5.004888031112688e-07,1.1361573028731486e-06,2.2598633591677147e-07,-3.693946003457184e-07,7.683277929892046e-07,-8.590400852931528e-07,-5.84447329471506e-09
2.623206555905955e-08,-5.177971621912934e-07,-9.020280161895856e-06,-1.8191578654156817e-06,-1.6881941647258225e-06,-7.128193949379197e-07,-8.322683893249896e-07,-2.1266017689977486e-06,-4.806133487576413e-06,-1.0122694543263317e-06,-5.891603713991705e-07,-5.10319325786142e-07,1.1560452343030299e-06,1.4355099008670227e-07,-3.432945447603611e-07,7.643702363772338e-07,-8.495888469780074e-07,-1.9856579833153755e-08
1.0727110662014312e-08,-4.959377374584697e-07,-7.623461365855411e-06,-3.001311664665717e-06,-1.7726661517204042e-06,-6.803030214146599e-07,-7.983309102224946e-07,-2.2153811488278004e-06,-5.263586472879732e-06,-1.0598602140192434e-06,-5.772387929681175e-07,-5.198714051812575e-07,1.193349818309659e-06,8.829402766849725e-08,-3.3429790098676567e-07,7.621645283887459e-07,-8.449825829643492e-07,-5.131149239905322e-08
-1.3461830071765644e-08,-4.792192447221631e-07,-6.4890779150195104e-06,-3.8768064482663304e-06,-1.8598550686521284e-06,-6.539627081055389e-07,-7.674995612327296e-07,-2.3247857589067458e-06,-5.259266025683022e-06,-1.0950066663417644e-06,-5.617264381652884e-07,-5.322351333128493e-07,1.2116386282732815e-06,4.0030717125080484e-08,-3.932928820285518e-07,6.659865507662981e-07,-8.457809805504311e-07,-1.0658091944020176e-07
-4.456009180809954e-08,-4.7083779070790824e-07,-5.507674043271491e-06,-4.617580618894503e-06,-1.8979303334902253e-06,-6.40036276033893e-07,-7.447249407246982e-07,-2.406595162420872e-06,-4.942822157649366e-06,-1.1060258486789304e-06,-5.455937548230555e-07,-5.481239010952387e-07,1.198577902303768e-06,1.566332766709093e-09,-4.900115523127476e-07,5.577858177985998e-07,-8.489949785901302e-07,-1.2977237456799442e-07
-7.894086155784631e-08,-4.721157197448174e-07,-4.592645389053999e-06,-5.599229499072354e-06,-1.9596518198984613e-06,-6.294368006708971e-07,-7.295911887612752e-07,-2.4632733644457783e-06,-4.753143118707703e-06,-1.08787187988161e-06,-5.310339348921358e-07,-5.663706115932167e-07,1.2073656705140851e-06,-2.0923779290037688e-08,-5.698645641012076e-07,4.836355506612283e-07,-8.50218799433272e-07,-1.4484893484119364e-07
-1.1100197214508143e-07,-4.815312509746678e-07,-3.721423110953868e-06,-7.150497748043468e-06,-1.9474336487192977e-06,-6.256714580254583e-07,-7.243972132853394e-07,-2.4881007403842502e-06,-5.232878455030123e-06,-1.0486189256849311e-06,-5.157783053587685e-07,-5.80165173220699e-07,1.2076836371798193e-06,-9.886589562395419e-09,-5.923579848435056e-07,4.204555302996104e-07,-8.463722862140955e-07,-1.510717402706935e-07
-1.353516519022667e-07,-4.947000213336743e-07,-2.9358849009273164e-06,-9.414173621968314e-06,-1.949501700422589e-06,-6.002961965025751e-07,-7.226789003450221e-07,-2.5204560138480323e-06,-6.6983602975751874e-06,-9.991920016408077e-07,-4.984135709506112e-07,-5.894189436917918e-07,1.2044042525430273e-06,6.672740340347612e-08,-5.964635131411332e-07,4.283601276120803e-07,-8.377351349341907e-07,-1.5007326996322373e-07
-1.476293122357812e-07,-5.057460218380995e-07,-2.2669816329978403e-06,-1.2061860954031699e-05,-1.9473497447302568e-06,-5.319220945819177e-07,-7.123055825369971e-07,-2.5588507487808617e-06,-9.018011263641721e-06,-9.559178224520866e-07,-4.799212744571273e-07,-5.904016374524632e-07,1.2403479706715556e-06,7.284585419247973e-08,-6.071910531058177e-07,4.4341935284731656e-07,-8.263797996520179e-07,-1.1426965838862051e-07
-1.4530090437182098e-07,-5.088329363160817e-07,-1.6482109294100858e-06,-1.4399217992629843e-05,-1.9362813656181994e-06,-4.934397826757861e-07,-6.91665301231837e-07,-2.537230771993618e-06,-1.1665900986518128e-05,-9.318712578399653e-07,-4.579457693260841e-07,-5.803239618722406e-07,1.300962335104378e-06,4.2963360852328195e-08,-6.299712489655956e-07,4.640844997122263e-07,-8.139078941919963e-07,-6.452041703317476e-08
-1.2778125821811724e-07,-5.001396682013714e-07,-9.344231829741391e-07,-1.55737241160584e-05,-1.9628950673274094e-06,-4.617894813104611e-07,-6.573375594580496e-07,-2.475909118414198e-06,-1.3969255513442206e-05,-9.316798132557607e-07,-4.360517468068659e-07,-5.595180364418234e-07,1.3351340448252006e-06,1.386022846477791e-08,-6.754035992312208e-07,5.223501914884961e-07,-8.01033241931825e-07,-1.59095518720642e-08
-9.717560268815477e-08,-4.799821772415582e-07,-1.1071485120288412e-09,-1.4876312686828634e-05,-2.091121550700942e-06,-3.823045728338279e-07,-6.155756741650427e-07,-2.4293226040947203e-06,-1.5394839510429207e-05,-9.591593512100243e-07,-4.1743856479063447e-07,-5.267569707621729e-07,1.3428025621973289e-06,-5.9330215964728415e-08,-7.041722015785711e-07,5.741367563516204e-07,-7.886413291244684e-07,1.5257719512021388e-08
-5.89281428022717e-08,-4.537736461807653e-07,1.1200615362555497e-06,-1.2079461657878735e-05,-2.1244001076916363e-06,-3.451889099787076e-07,-5.803643652301294e-07,-2.4860325899879813e-06,-1.5716437352009056e-05,-1.0089681714745716e-06,-4.046951246055756e-07,-4.883059730554279e-07,1.3343203416908584e-06,-1.2655043680334317e-07,-7.242404720749418e-07,6.119706750731634e-07,-7.7848417394774e-07,3.213775986875764e-08
-1.9985762709436536e-08,-4.3013604834114837e-07,2.17339419929069e-06,-7.612748822606978e-06,-2.1503857232591787e-06,-3.262126095607544e-07,-5.538701465338354e-07,-2.6703739119658926e-06,-1.5053965091235817e-05,-1.0761869156927688e-06,-4.0067937170748676e-07,-4.414378964670335e-07,1.3222869636048093e-06,-7.794187901917503e-08,-7.248977545416088e-07,6.477963547127768e-07,-7.72161226329717e-07,4.0326730800629876e-08
1.3614357354059405e-08,-4.1495829026877694e-07,2.7292673537851613e-06,-2.4095723699212557e-06,-2.143335917087994e-06,-3.069241631749104e-07,-5.440918468060107e-07,-2.623015022922662e-06,-1.382001707890813e-05,-1.1253319624001646e-06,-4.0578331832676577e-07,-4.145566036961342e-07,1.3372235098941158e-06,-4.6776503893592674e-08,-7.210957295811825e-07,6.848738116082236e-07,-7.698037981967544e-07,5.2811917062707914e-08
3.873491409808389e-08,-4.1093265694681363e-07,2.343391158626632e-06,2.0345836560494616e-06,-2.2149665034988542e-06,-2.8984827074404966e-07,-5.504653242511122e-07,-2.6303528672533396e-06,-1.2561794956880106e-05,-1.1280133922093085e-06,-4.176326787554107e-07,-3.9359314969811784e-07,1.3897466948904266e-06,-6.511720752490883e-08,-7.12683314098427e-07,7.292593107676931e-07,-7.701710575188168e-07,7.163664954172936e-08
5.517844048324299e-08,-4.148345344445221e-07,7.382534762062267e-07,3.614061097746057e-06,-2.3049284208336277e-06,-2.6593429210894025e-07,-5.62832649264166e-07,-2.7152176773771676e-06,-1.1718041387081669e-05,-1.0802129583073512e-06,-4.3182249186556666e-07,-4.3926949426347553e-07,1.4499970888155387e-06,-1.11389579321728e-07,-7.09769477687367e-07,7.83761714014581e-07,-7.71225162619793e-07,9.656312776517031e-08
6.536636006386024e-08,-4.2087467630337576e-07,-2.0953051122431984e-06,4.486656874276119e-06,-2.250598268767179e-06,-2.6137209218980106e-07,-5.699854107721141e-07,-2.600817475692439e-06,-1.141573862961811e-05,-1.0062903698105442e-06,-4.439365485273055e-07,-5.040961692699078e-07,1.4918925763681517e-06,-1.6313704895667173e-07,-7.100105348770486e-07,8.451447578638678e-07,-7.711277719699916e-07,1.248251369624111e-07
7.406852785327042e-08,-4.2495731424455145e-07,-5.884529623338573e-06,1.4334634447026323e-06,-2.1433217429829815e-06,-2.6786542981113613e-07,-5.597236951699478e-07,-2.5492000431484962e-06,-1.1444259911953441e-05,-9.829491079651672e-07,-4.484002670759533e-07,-5.372462671080116e-07,1.5242411278111632e-06,-2.1346028922173427e-07,-7.284373629363631e-07,9.044138367383821e-07,-7.679635828431365e-07,1.4951146115191983e-07
8.559504840918474e-08,-4.2134499268333127e-07,-1.0113083214749735e-05,-3.0295876280793367e-06,-2.020393132555647e-06,-2.806877436022146e-07,-5.275051494461397e-07,-2.4848278696784536e-06,-1.1395245669855886e-05,-8.926216763168672e-07,-4.3803350373760133e-07,-6.588132001980525e-07,1.615723723695856e-06,-2.6148336819038333e-07,-7.533374748487524e-07,9.502346432731743e-07,-7.5894746598084e-07,1.6830691582815188e-07
1.0294942488969777e-07,-4.0830134457333847e-07,-1.4081656402567108e-05,-8.223779023757404e-06,-1.9460436801765485e-06,-2.8837571313567806e-07,-4.906960237913294e-07,-2.457714466275836e-06,-1.0884370616234817e-05,-7.617230508819485e-07,-4.116221616100282e-07,-7.69398264015163e-07,1.6606012150424348e-06,-2.996323789220825e-07,-7.616544334954181e-07,9.735443705366251e-07,-7.419050740364299e-07,1.8090626270350204e-07
1.327218673142591e-07,-3.8379299028279435e-07,-1.7008135596319895e-05,-1.3077054126429986e-05,-1.9037888222292247e-06,-2.803619581450914e-07,-4.56398967481132e-07,-2.523845738297683e-06,-9.766490419483124e-06,-6.730506362773507e-07,-3.707207223163952e-07,-8.028535536390433e-07,1.6405685884882577e-06,-3.7683544493718867e-07,-7.653871631085588e-07,9.709138318228838e-07,-7.167779440578403e-07,1.8753756877579887e-07
1.7156160136247226e-07,-3.4795693532836296e-07,-1.8213136545042644e-05,-1.6832250213805368e-05,-1.884370863191626e-06,-2.8945804795783503e-07,-4.273128580649617e-07,-2.5052781451378455e-06,-8.233046540964268e-06,-6.028208695685077e-07,-3.1998625190646014e-07,-8.290046544783938e-07,1.5940854784245687e-06,-4.734550450229656e-07,-7.553689579653794e-07,9.453056752034679e-07,-6.866326455249591e-07,1.876086147217515e-07
2.1237999165947806e-07,-3.0631484690471663e-07,-1.7355482260620316e-05,-1.924096274547707e-05,-1.8541869964617598e-06,-3.0541662812499394e-07,-4.1165298537234556e-07,-2.3502765108096567e-06,-6.734047964347464e-06,-5.538326353627955e-07,-2.681041960328829e-07,-8.110646159022446e-07,1.5495312490146748e-06,-4.756529563415606e-07,-7.55495790990725e-07,9.044600984154829e-07,-6.567337349396383e-07,1.8095008071996171e-07
2.460309528208587e-07,-2.645058803195501e-07,-1.4601954268883609e-05,-2.0533185153516022e-05,-1.7974352312555206e-06,-3.056657167783325e-07,-4.132326227177327e-07,-2.217116993292653e-06,-5.736884353912471e-06,-5.235856020462307e-07,-2.2101228933708543e-07,-8.334588466852184e-07,1.5094613589049602e-06,-4.411728637708933e-07,-7.518200914495343e-07,8.57873703888209e-07,-6.335576833231304e-07,1.684309252537599e-07
2.6795537538216933e-07,-2.264128450301345e-07,-1.061137198114837e-05,-2.117664588099449e-05,-1.7710876562447626e-06,-3.073537607880894e-07,-4.3393333970101083e-07,-2.149720921080866e-06,-5.431135830714503e-06,-5.703676331853567e-07,-1.8177208953268872e-07,-8.248676436641208e-07,1.4294556988599367e-06,-4.219344260998588e-07,-7.495806898858303e-07,8.135605333270477e-07,-6.211280948744225e-07,1.5137962990155725e-07
2.669259849101217e-07,-1.9498745007483921e-07,-6.330460200455221e-06,-2.158908921677124e-05,-1.7529762017997636e-06,-3.115985398567243e-07,-4.961398322857509e-07,-2.089298541844028e-06,-5.544775511373399e-06,-6.43082674710442e-07,-1.4899303873295912e-07,-7.492670768564008e-07,1.3629986043184653e-06,-4.3448665460512543e-07,-7.496324871688712e-07,7.758561113319745e-07,-6.215248735753651e-07,1.3129303772427771e-07
2.445534589212851e-07,-1.7856552379406263e-07,-2.685084681991793e-06,-2.192677846793226e-05,-1.7930617243575062e-06,-3.096423516218217e-07,-5.912176603799173e-07,-2.040569011115133e-06,-5.416560590994802e-06,-6.831553545921138e-07,-1.2758772495444413e-07,-6.94406809247679e-07,1.290509243796194e-06,-4.3661363243413677e-07,-7.559285666116565e-07,7.449127112476219e-07,-6.351755906661034e-07,1.0934486781878003e-07
2.175614130227244e-07,-1.5507686529933077e-07,-2.7125777439922334e-07,-2.197628468317957e-05,-1.8408750146663344e-06,-3.0193425537665626e-07,-6.866893893237034e-07,-2.0554230459217767e-06,-4.354333334393009e-06,-7.028312225036178e-07,-1.136865174679338e-07,-7.186323235775934e-07,1.227229426970598e-06,-4.659937284963093e-07,-7.625018635533801e-07,7.174121857466887e-07,-6.571414688095554e-07,8.693972927758133e-08
1.6748607771601192e-07,-1.1204090755290284e-07,8.020323553849967e-07,-2.1200185386109025e-05,-1.875079719687185e-06,-2.8321204224945766e-07,-7.83412275003844e-07,-2.055042016165005e-06,-2.0469804245662705e-06,-7.176012421423427e-07,-1.0203053294412785e-07,-7.740478597233376e-07,1.1769542383057121e-06,-4.77931506877892e-07,-7.715817222738729e-07,6.876456144979174e-07,-6.812838215097269e-07,6.606431182700961e-08
1.1163327708854441e-07,-5.346138097953863e-08,8.267165313058399e-07,-1.896802109777776e-05,-1.9632722195284215e-06,-2.864013639455172e-07,-8.367218946279162e-07,-2.061371591685162e-06,1.2784496780146017e-06,-7.331285500885881e-07,-8.733265098745773e-08,-8.707734086401774e-07,1.1022302617879602e-06,-3.8665845197384933e-07,-7.806847003501682e-07,6.455386310762145e-07,-7.006811763109577e-07,4.836040534070442e-08
4.956528559643733e-08,2.964914659592233e-08,2.395536965780635e-07,-1.4938636998409854e-05,-2.034874987323464e-06,-3.1956694515172216e-07,-8.678101069688532e-07,-2.0849597673197602e-06,5.039771201155404e-06,-7.620391772600512e-07,-6.344890595606763e-08,-9.402851603649265e-07,1.004361972016243e-06,-2.3493108277344787e-07,-7.482704986209653e-07,5.862295570835875e-07,-7.065893762873734e-07,3.354406952328511e-08
-4.392707383985018e-08,1.0554661397442992e-07,-5.795913682572231e-07,-9.221484982208739e-06,-2.1380943866374424e-06,-4.135828377066135e-07,-8.935242062910417e-07,-2.1164808375535617e-06,8.616705692258234e-06,-8.106406111219007e-07,-4.144938365070556e-08,-9.907476156840682e-07,9.466993882107596e-07,-9.190593636102784e-08,-7.090536677530906e-07,5.069216833022474e-07,-6.973225826021403e-07,1.870401800183567e-08
-1.462399084453254e-07,1.5808349078205377e-07,-1.289997696180909e-06,-2.6289456718880786e-06,-2.2002213836185986e-06,-5.284641265959104e-07,-9.283914620036532e-07,-1.995950518798521e-06,1.1512856153520472e-05,-8.662940979518153e-07,-3.172696402947466e-08,-1.060560525380419e-06,9.203153354287963e-07,1.1513472145484497e-07,-6.550467103214447e-07,4.0439162402053515e-07,-6.722153576623436e-07,-1.7862100592326775e-10
-2.486109972779637e-07,2.2426237606610453e-07,-1.506708577779555e-06,3.5517794537763272e-06,-2.1132544819563113e-06,-5.939180174308739e-07,-1.0382413886811279e-06,-1.8940384064170544e-06,1.3352624470538715e-05,-9.332843815562908e-07,-6.524308753107605e-08,-1.117180315683669e-06,8.931100543529552e-07,3.0738711698537817e-07,-6.067153457206318e-07,2.808140299716508e-07,-6.326677709903781e-07,-2.7851610169793463e-08
-3.2190381606609045e-07,2.3232582718823255e-07,-8.515236549366082e-07,8.041138220966092e-06,-1.9097081391752538e-06,-6.121715059166863e-07,-1.1709065317054497e-06,-1.8943968039675416e-06,1.381739065135298e-05,-1.0265548677772594e-06,-1.2081196306802157e-07,-1.14017768475613e-06,8.675428391105823e-07,4.531301445120158e-07,-5.900967083728643e-07,1.3803036482117835e-07,-5.808582491676857e-07,-6.699804563969808e-08
-3.514455282701423e-07,2.356917276016198e-07,9.077913129895664e-07,1.0026064128157944e-05,-1.6790146596757665e-06,-6.138306402544232e-07,-1.3234642606358192e-06,-1.8843527248988791e-06,1.2790915604755049e-05,-1.1283408338388918e-06,-1.768557884144588e-07,-1.1440540978297586e-06,7.681015809241503e-07,5.702631672537814e-07,-5.447347547782324e-07,-1.4850216782762635e-08,-5.327395723389598e-07,-1.1820928143179845e-07
-3.6594002246088506e-07,2.3037163355795247e-07,3.7851327188375816e-06,9.53822177461064e-06,-1.5216358237654546e-06,-6.713173822499262e-07,-1.436446759436167e-06,-1.807844107077512e-06,1.0588362025236211e-05,-1.2338463599759373e-06,-2.2015047780428834e-07,-1.1340500638910572e-06,6.653545830527832e-07,6.550931516619915e-07,-4.883674265359154e-07,-1.6668480885215636e-07,-5.02819166164624e-07,-1.8026511137406707e-07
-3.9738365441406067e-07,2.1843574878592388e-07,7.563148840451063e-06,7.415839712879924e-06,-1.4896228307909135e-06,-7.826166001559631e-07,-1.491661763252717e-06,-1.7458077691028611e-06,7.86226318194482e-06,-1.3405243401665708e-06,-2.6677025170483873e-07,-1.0776268375772863e-06,6.162591392905353e-07,8.177424704863207e-07,-4.361340233360418e-07,-2.779494910959958e-07,-5.012341355426529e-07,-2.482502602746182e-07
-4.104845875693654e-07,2.1469929454127435e-07,1.1807094517947531e-05,4.956646317008393e-06,-1.5125313447428755e-06,-8.772711342217066e-07,-1.553624826030622e-06,-1.6667659744207434e-06,5.296868291425492e-06,-1.443816915907689e-06,-3.0565018067966687e-07,-9.958600299712425e-07,5.688876042467297e-07,8.216790362134739e-07,-3.612998442340031e-07,-3.253979885180963e-07,-5.244065045463253e-07,-3.15674471972755e-07
-4.1503964756289853e-07,1.9243513260728786e-07,1.5938495801846595e-05,3.3466957646042047e-06,-1.4855938857880735e-06,-9.521176857065022e-07,-1.6334057995327228e-06,-1.511471138801708e-06,3.3226579126374077e-06,-1.5492339187908924e-06,-3.7002308241647857e-07,-9.217779689297379e-07,4.950173983370403e-07,7.978554378837887e-07,-2.9136254906628347e-07,-3.201555579354878e-07,-5.5024692565063e-07,-3.7567474698865213e-07
-3.9507103330285286e-07,1.5120483614060985e-07,1.9370279739865365e-05,3.1944479494547326e-06,-1.4379989904027235e-06,-1.0522197453399484e-06,-1.7187578162928797e-06,-1.388242643810688e-06,2.0184899632480607e-06,-1.6627974396518932e-06,-4.496750988694722e-07,-8.317052211010197e-07,4.327791468588898e-07,8.485343127742426e-07,-2.2913914365396128e-07,-3.3536827002867936e-07,-5.762737991791859e-07,-4.299487588403241e-07
-3.5768458218321414e-07,1.3787317784849793e-07,2.1624812990175467e-05,4.333871772589593e-06,-1.369816256367614e-06,-1.1363319197696706e-06,-1.7838844379031927e-06,-1.3106804674072685e-06,1.1788415255907784e-06,-1.7805498439434422e-06,-5.346333599882188e-07,-6.980067932462104e-07,3.667323311625546e-07,8.873587365785752e-07,-2.1044198754016432e-07,-3.8915600520999867e-07,-5.947793786242291e-07,-4.6860625219487843e-07
-3.191102299599622e-07,1.2805483651809512e-07,2.233563332335545e-05,6.0156870072852644e-06,-1.3536984844903023e-06,-1.2002408941701321e-06,-1.808985108325877e-06,-1.2787115673554492e-06,4.6293215656154326e-07,-1.8900664670612597e-06,-6.15581253724206e-07,-6.048275211068694e-07,3.0107826976807996e-07,9.486757398524687e-07,-1.5913926679324775e-07,-4.2026516619703255e-07,-6.263846154201222e-07,-4.883145097172059e-07
-2.7648866861047665e-07,1.2360702050568335e-07,2.1182098932943646e-05,7.29514257401719e-06,-1.3535243417729603e-06,-1.26906876188946e-06,-1.7772072434477114e-06,-1.2071200667564728e-06,-4.13363404743845e-07,-1.9843003493432395e-06,-6.904411164382695e-07,-5.120258042199112e-07,2.9264580544156806e-07,1.0460386441965383e-06,-8.858995602910699e-08,-3.7706602055691076e-07,-6.761730868568325e-07,-4.909834810373889e-07
-2.444136982478614e-07,8.537101295215555e-08,1.793957760849913e-05,7.341276797579062e-06,-1.2479619692520268e-06,-1.3151615612454957e-06,-1.737037098213556e-06,-1.08606134166682e-06,-1.5619264038430148e-06,-2.0543733557144564e-06,-7.856542579379885e-07,-4.305873958179346e-07,2.6399811120901566e-07,1.0971581363882331e-06,-2.581962108957755e-08,-3.349234886448531e-07,-7.067968931706814e-07,-4.77045701092854e-07
-2.196217991455636e-07,5.437524109579221e-08,1.2724454650048973e-05,5.623243291076741e-06,-1.196063579268966e-06,-1.3418810790625533e-06,-1.6964646351938017e-06,-9.706623138828373e-07,-2.779626734442942e-06,-2.093974719659982e-06,-8.709108027837461e-07,-3.8474486227006835e-07,2.3645528471638823e-07,1.1041230076671903e-06,8.376782101139762e-08,-2.859994790833828e-07,-7.33180012396008e-07,-4.67512587717007e-07
-1.924974945087652e-07,6.770217219667612e-08,6.209365851911011e-06,2.25744744591153e-06,-1.1399995678631286e-06,-1.3531976367996994e-06,-1.668870345029554e-06,-8.27057124501277e-07,-3.6340981536096927e-06,-2.1110185733793163e-06,-9.480256152546811e-07,-3.0479923055626373e-07,2.0905070243792036e-07,1.0591765248399057e-06,1.9127718782683753e-07,-2.569183137475323e-07,-7.621444259820224e-07,-4.586910243576859e-07
-1.618096402795584e-07,9.563741961414683e-08,-4.6415582157493407e-07,-2.1137509305663174e-06,-1.020608861373073e-06,-1.347427474880959e-06,-1.671427845227907e-06,-6.220572602558147e-07,-3.7237795397189957e-06,-2.114639404031276e-06,-1.005019748129758e-06,-2.1563509328807527e-07,1.8700096146765233e-07,9.769010828544655e-07,2.5849980712426474e-07,-2.766852310982925e-07,-7.461195076381354e-07,-4.510326689759866e-07
-1.3111941966604894e-07,9.048229909371427e-08,-6.053184986333315e-06,-6.528051329475647e-06,-8.282043913074864e-07,-1.3334361578701457e-06,-1.6910428248827044e-06,-4.487952178628039e-07,-2.6800937226433154e-06,-2.1246482698758994e-06,-1.0237142792797346e-06,-1.9016779328138202e-07,1.902897058253337e-07,8.63552968313712e-07,2.9592851632093167e-07,-3.2619156058268347e-07,-7.100986433583812e-07,-4.550476802296008e-07
-1.0344565487874369e-07,9.578239809632463e-08,-9.622590415417982e-06,-9.362038269819601e-06,-6.057019964823621e-07,-1.3175193858565316e-06,-1.7146928916394642e-06,-2.9185407994839366e-07,-7.016364549634291e-07,-2.1418775448351686e-06,-1.0323983576654843e-06,-1.307082440582814e-07,1.7304466872811787e-07,7.233694950691398e-07,3.0789244729297474e-07,-3.985134601969052e-07,-6.712462752003598e-07,-4.606978101291278e-07
-7.689693929446449e-08,7.95708456030061e-08,-1.0791618935455616e-05,-1.0010473393987092e-05,-3.839287550353658e-07,-1.3037269731625084e-06,-1.736994756709266e-06,-1.5704845571176226e-07,1.6284489716728144e-06,-2.148825700052463e-06,-1.0297990437016201e-06,-5.376309138695663e-08,1.1370014605281776e-07,5.752631080971798e-07,2.7953081586955445e-07,-4.723803808575283e-07,-6.48921346969592e-07,-4.6639801146094874e-07
-5.75686965803012e-08,4.223347008524319e-08,-9.76706238401431e-06,-1.0315708969104136e-05,-4.0989489303534085e-07,-1.2944380769479227e-06,-1.74356167095188e-06,-9.14750463661609e-08,3.6176525681606178e-06,-2.1510336321535216e-06,-1.012172116911946e-06,-2.963064385305516e-08,7.321285934054631e-08,4.3408910130850476e-07,2.5346766086758587e-07,-5.239768772690344e-07,-6.424732449124708e-07,-4.7385190287902654e-07
-4.927628273415486e-08,3.626812141188391e-09,-7.250164749683729e-06,-8.420112620371432e-06,-5.69673824656236e-07,-1.2933800118269856e-06,-1.7302522674651906e-06,-1.0307094854604146e-07,4.800372458736523e-06,-2.1454448091225395e-06,-1.009856679174554e-06,-4.1086018089919324e-08,5.363029627329804e-08,3.229452040339886e-07,2.4391281809886433e-07,-5.477855292928705e-07,-6.469324995773232e-07,-4.803924238957317e-07
-5.3740908727752036e-08,-3.1217611392864046e-08,-4.281673289260659e-06,-5.691220286077329e-06,-6.845119300438589e-07,-1.294206934290647e-06,-1.6990198801221014e-06,-2.0581173673427255e-07,5.4045402153360234e-06,-2.131244899120828e-06,-1.0040723871323973e-06,-9.220676317285947e-08,4.6775086286666245e-08,2.513350716212328e-07,2.424594004944352e-07,-5.430433111683635e-07,-6.552165753265913e-07,-4.87100665951497e-07
-7.19266558650968e-08,-4.654558001446119e-08,-1.969440069938795e-06,-3.664741503168137e-06,-9.042514717122916e-07,-1.292204400260237e-06,-1.654194533952631e-06,-3.6617982832246023e-07,5.682345812112172e-06,-2.113303844707193e-06,-9.886847851555194e-07,-1.5927410196985584e-07,6.961484953675828e-08,2.2716571328254282e-07,2.559658189626947e-07,-5.133766880250337e-07,-6.657710452524776e-07,-4.923121511630344e-07
-1.0051383467359769e-07,-4.1457751080428316e-08,-1.125566415868909e-06,-2.5107365535060097e-06,-1.0436791550917607e-06,-1.2863075967027107e-06,-1.6067133461963606e-06,-5.278331452066263e-07,4.206770114965245e-06,-2.091855280968393e-06,-9.765647352798406e-07,-2.0612096218933216e-07,1.0017778167442011e-07,2.3402053279252124e-07,2.7221585421269424e-07,-4.673979016054073e-07,-6.78179954114667e-07,-4.942112631664787e-07
-1.3389760189983214e-07,-2.5384746438565222e-08,-2.0537387771338523e-06,-1.5466077881935123e-06,-9.937024571016705e-07,-1.2759581134141247e-06,-1.569829859337188e-06,-6.436602971274947e-07,1.1432684512124214e-06,-2.0668680401441546e-06,-9.597681842966304e-07,-2.4165887281461196e-07,1.329140142547855e-07,2.70284645454873e-07,2.902927080792429e-07,-4.154772615069206e-07,-6.907407240544874e-07,-4.927379725775002e-07
-1.6783995238731498e-07,-1.3195667646458501e-08,-4.6160537290113e-06,9.291232614595523e-08,-9.269265282775658e-07,-1.2629480609078557e-06,-1.5538222665405027e-06,-5.659725987259641e-07,-1.034640940019923e-06,-2.0422282561053727e-06,-9.457564598868266e-07,-2.7842857019722335e-07,1.6704023431338747e-07,3.276447174546904e-07,3.0730111274364216e-07,-3.6692659964718925e-07,-7.028616385872666e-07,-4.875854767334588e-07
-1.9857819861330566e-07,-1.1288209246824453e-08,-8.39166202965427e-06,2.8809967411102887e-06,-8.928940008139979e-07,-1.248192082716553e-06,-1.5623031234937682e-06,-4.4017106550433104e-07,-2.0041832762780895e-06,-2.022103963691736e-06,-9.363725023300007e-07,-3.085481577469931e-07,1.9303534893731297e-07,3.89721243090434e-07,3.4075339002693066e-07,-3.2789519273640504e-07,-7.109401147163358e-07,-4.775825041493541e-07
-2.200104083324083e-07,-1.9381511950285397e-08,-1.2720980226208874e-05,6.564567546070353e-06,-7.723899813949565e-07,-1.2320313784334663e-06,-1.5912482738051728e-06,-2.2537508690713484e-07,-2.475623881335792e-06,-2.001948570737843e-06,-9.254613103337521e-07,-3.345574387319199e-07,2.122285940342551e-07,4.4107893326337655e-07,3.7805013467785234e-07,-3.0086790435127784e-07,-7.142958235462626e-07,-4.614110193815593e-07
-2.281410657281198e-07,-3.242627568929976e-08,-1.6683281558632426e-05,9.643542740939033e-06,-5.634365232724802e-07,-1.219133467365035e-06,-1.631532173024126e-06,-5.64679282888263e-08,-1.5347229547975888e-06,-1.979619073236771e-06,-9.08474962153107e-07,-3.6120920770884706e-07,2.2744226781051862e-07,4.784271451661718e-07,4.1007187690857227e-07,-2.856080479300088e-07,-7.141864552695453e-07,-4.3894072053472497e-07
-2.2219478679478854e-07,-4.260290032268256e-08,-1.9217721107176483e-05,1.101865663029702e-05,-3.384037309934572e-07,-1.2139261027772626e-06,-1.673497844159468e-06,1.0899803531258936e-07,5.533746654490975e-07,-1.955200610884719e-06,-8.865724285410286e-07,-3.7339918922927484e-07,2.4095320386578755e-07,4.955799848301582e-07,4.3795245553469065e-07,-2.8020781023322876e-07,-7.112059643238452e-07,-4.117220942626927e-07
-2.0410591332258743e-07,-4.4933025598233835e-08,-1.9480575338216718e-05,8.65383415523609e-06,-9.564130265209772e-08,-1.220480821658179e-06,-1.7094557266174083e-06,2.3751573315889349e-07,2.5851130543430375e-06,-1.926864524914558e-06,-8.618065220707754e-07,-3.782820638903922e-07,2.555975699857633e-07,4.856709938226665e-07,4.5899554701287026e-07,-2.81405528067361e-07,-7.049595544742445e-07,-3.8188037928601187e-07
-1.7815312194671298e-07,-3.6994835745414595e-08,-1.7252466933001402e-05,7.357019683574138e-06,3.388398478595651e-08,-1.2392702327391425e-06,-1.7348872378690053e-06,3.059737603335942e-07,4.4033733340072016e-06,-1.8945361434663204e-06,-8.332609916412558e-07,-3.7846138562443535e-07,2.7519084554916276e-07,4.669430314625845e-07,4.859994699797865e-07,-2.8465962309938504e-07,-6.93302100576079e-07,-3.5130886844398583e-07
-1.487950236096883e-07,-1.7873702253430957e-08,-1.3073962852963501e-05,8.165732998366562e-06,1.6875688871812287e-07,-1.2637338297070782e-06,-1.7488214776603835e-06,3.144934243346102e-07,5.974001600022549e-06,-1.8548825364516316e-06,-8.038719393076759e-07,-3.675179332578852e-07,2.965513618965542e-07,4.5427052392802586e-07,5.238646395085723e-07,-2.8492363719567806e-07,-6.744498437131676e-07,-3.208561825921621e-07
-1.1970877478872066e-07,1.2419321405723514e-08,-7.98670596356072e-06,3.7939047897743183e-06,2.0479649159581739e-07,-1.2832946277454006e-06,-1.753017268931097e-06,2.4568126841364796e-07,7.3033415168212385e-06,-1.8100479601054297e-06,-7.75151713254569e-07,-3.413321768168145e-07,3.234526739614884e-07,4.5223082566627325e-07,5.660085977594151e-07,-2.780441167747061e-07,-6.488322494814987e-07,-2.899166482999226e-07
-9.338068397329329e-08,5.361423809235977e-08,-3.08128547971928e-06,-2.1000845572813045e-06,1.1639518997880425e-08,-1.2878134578154236e-06,-1.7502834760726187e-06,1.3205487733382445e-07,8.664730318116514e-06,-1.7677449816241274e-06,-7.487626676297573e-07,-3.021321660564398e-07,3.555846520300008e-07,4.654601933734183e-07,6.13994709453373e-07,-2.6177159108110605e-07,-6.182831839736321e-07,-2.5829782875213787e-07
-7.041841508530584e-08,1.0503584571276034e-07,8.722506098566459e-07,-5.472448242871251e-06,-2.5266550141856677e-07,-1.2709742287234876e-06,-1.7427505398042755e-06,2.201936808792659e-08,1.0146017386504868e-05,-1.7288561116084422e-06,-7.252321965677668e-07,-2.5293589628404745e-07,3.840053161117545e-07,4.915072421672084e-07,6.584457268291228e-07,-2.3582617217848085e-07,-5.841805219676999e-07,-2.2451848477490431e-07
-4.9305089335924144e-08,1.6393696194092243e-07,3.603089093393083e-06,-7.769296115339375e-06,-4.152029451806764e-07,-1.233739681385258e-06,-1.731330733638112e-06,-4.8787822287208057e-08,1.1434237818682445e-05,-1.6946312924057096e-06,-7.038711887899406e-07,-1.974719439755332e-07,4.1703494923247817e-07,5.247348021516833e-07,6.983550804425648e-07,-2.0163100923177478e-07,-5.465688891148461e-07,-1.8672077338596043e-07
-2.7301384480620924e-08,2.2334051034279877e-07,5.330178628584841e-06,-7.892877861677473e-06,-4.0035254143264e-07,-1.1831805440144393e-06,-1.7160697215487958e-06,-1.1100008761690159e-08,1.231911747237083e-05,-1.6646467311094965e-06,-6.840460316441509e-07,-1.455035965774384e-07,4.54573680262948e-07,5.624477580381446e-07,7.35261974888195e-07,-1.6224250913814546e-07,-5.05306127711083e-07,-1.455720283745468e-07
-2.1653900854581914e-09,2.724114067901788e-07,6.552009931404704e-06,-6.5655614203679694e-06,-3.7998554276266977e-07,-1.1289991636813899e-06,-1.6965389437226857e-06,5.691015189733243e-08,1.2422682950630448e-05,-1.6372891001744727e-06,-6.656164502810205e-07,-9.908992043809052e-08,4.915109781040926e-07,6.004049190807534e-07,7.655620067016989e-07,-1.220714028126253e-07,-4.6076141094969597e-07,-1.0467177525847587e-07
2.6588536372403076e-08,3.0091595397116166e-07,7.701323742005451e-06,-5.4571078769703525e-06,-2.5129119993271645e-07,-1.080533687720449e-06,-1.6717548827295269e-06,9.672711321208355e-08,1.1389951577374256e-05,-1.6126921136721267e-06,-6.483313767952368e-07,-5.900804168631763e-08,5.228724019590603e-07,6.309940672018168e-07,7.916458132949351e-07,-8.549326793267628e-08,-4.1424862697867456e-07,-6.519025841813231e-08
5.771046927084494e-08,3.050494739381744e-07,8.907979358223363e-06,-5.082394416938483e-06,-2.0172165186776132e-07,-1.0428640915078357e-06,-1.6406036827989876e-06,-3.6791201619442146e-08,9.1484640172523e-06,-1.5901210008876005e-06,-6.31788068249697e-07,-2.517993347721636e-08,5.460360887136869e-07,6.50178272795024e-07,8.140087554635444e-07,-5.4508902305281134e-08,-3.6749013554989197e-07,-3.5405604810460936e-08
8.898233366599118e-08,2.8969844029344203e-07,1.0069668900114429e-05,-6.315731111858229e-06,-3.5967582764569894e-07,-1.0154839281239933e-06,-1.6028499377383272e-06,-3.15663500701325e-07,5.861803838523689e-06,-1.5659333851161538e-06,-6.143059682976355e-07,5.071961939468265e-09,5.57703826486963e-07,6.625431370740683e-07,8.382755565541297e-07,-2.7089311775497748e-08,-3.227363741730101e-07,-1.537890617685357e-08
1.17839583918944e-07,2.651444521995642e-07,1.1103693466687343e-05,-8.939159465295856e-06,-5.587123040005348e-07,-9.947543813069806e-07,-1.5595139656916337e-06,-4.963347687007989e-07,1.8840125572135345e-06,-1.5355553120314587e-06,-5.932601344011373e-07,3.168585709965182e-08,5.682009283255901e-07,6.786639693322324e-07,8.693523669947881e-07,2.466313722451713e-09,-2.82998315949547e-07,-2.0920598735232066e-09
1.4191704830979958e-07,2.41376686333683e-07,1.2063999005433636e-05,-1.2295088314171736e-05,-6.96394927978105e-07,-9.780360726139288e-07,-1.512187353236405e-06,-6.042792377195859e-07,-2.240259307399128e-06,-1.4977086473604746e-06,-5.671295994932335e-07,5.595778253535941e-08,5.912975723320605e-07,7.138373475844146e-07,9.137366966613089e-07,4.12259800949314e-08,-2.504605707173079e-07,5.332927338873701e-09
1.6011012026004698e-07,2.2466702277179346e-07,1.3012850632568075e-05,-1.5685393807520458e-05,-8.581086479606482e-07,-9.645362034312842e-07,-1.4623197861159247e-06,-6.591819963626523e-07,-5.739756635469082e-06,-1.451926141964335e-06,-5.35266747814669e-07,8.016848543434032e-08,6.337763160830486e-07,7.822293518499603e-07,9.739916493471188e-07,9.474183629906467e-08,-2.243621018941893e-07,1.0580394475835137e-08
1.7374507127819563e-07,2.177532728748996e-07,1.3827747778393778e-05,-1.8409462459225292e-05,-9.922913860488352e-07,-9.537710829946534e-07,-1.4115483748259788e-06,-7.352054093745639e-07,-7.913216717266657e-06,-1.3982133999105266e-06,-4.968368377394813e-07,1.081411361205656e-07,6.994223261617632e-07,8.91830951080551e-07,1.0486799834858972e-06,1.649759533943631e-07,-2.0060258482670255e-07,1.607749894641241e-08
1.8640812982727514e-07,2.21520926127615e-07,1.417675384650656e-05,-1.998306216319862e-05,-1.010605535958521e-06,-9.43044895592688e-07,-1.3623963674747197e-06,-9.66773396859978e-07,-8.273968009678173e-06,-1.3377687898695537e-06,-4.5227566284836587e-07,1.4435037773601502e-07,7.867542175308063e-07,1.040301155399111e-06,1.1348630737882276e-06,2.4958701062942336e-07,-1.770607316383156e-07,2.4889071121746082e-08
2.019799888121018e-07,2.3595247611107553e-07,1.3728877184905343e-05,-2.0174381423481656e-05,-1.001355687666414e-06,-9.272203353125994e-07,-1.3181454122510946e-06,-1.0286693224571838e-06,-6.7247485190127035e-06,-1.2737071022654215e-06,-4.040491752715552e-07,1.9011415884575247e-07,8.830876290471611e-07,1.2149825498359393e-06,1.216548969153004e-06,3.425886368529107e-07,-1.5035486074506518e-07,3.691749781386596e-08
2.2257848002051584e-07,2.602089555319877e-07,1.241576377126658e-05,-1.9239172480825036e-05,-9.502828668208344e-07,-9.01354306165136e-07,-1.281350261049541e-06,-9.880819602745769e-07,-3.6461238068934206e-06,-1.2115644004411932e-06,-3.541459957026633e-07,2.4286797910456143e-07,9.720706573460114e-07,1.397093672437905e-06,1.2932107671911185e-06,4.358833483192001e-07,-1.2023488898201618e-07,5.626566924649413e-08
2.4841339433564974e-07,2.9294733212305535e-07,1.0460752979839626e-05,-1.758501721814931e-05,-8.443737710114006e-07,-8.627243221467631e-07,-1.2518217085894369e-06,-9.790038497927548e-07,2.5672312657781797e-07,-1.1569979340479506e-06,-3.076580572726214e-07,2.9840627537039054e-07,1.0541093347513157e-06,1.566211464121248e-06,1.3624293905475077e-06,5.211691766720731e-07,-8.910885311104909e-08,7.162915252849076e-08
2.7941673886104634e-07,3.3299160403537465e-07,8.125487332287213e-06,-1.5667717499832562e-05,-8.478239884121053e-07,-8.1170867015623e-07,-1.2260852436356528e-06,-9.478297672368597e-07,4.092861218840413e-06,-1.112721607251246e-06,-2.642122573958497e-07,3.534318745575832e-07,1.1002772786936165e-06,1.705475747182865e-06,1.4150900542800976e-06,5.913494464042077e-07,-5.8189431495503283e-08,8.57481618770162e-08
3.164195664745517e-07,3.790870176567166e-07,5.447988810574127e-06,-1.4131177795567234e-05,-8.64487878109673e-07,-7.511228356748741e-07,-1.1990200523293694e-06,-9.547510439807008e-07,6.982685562189602e-06,-1.0776947897868668e-06,-2.1951457737675953e-07,4.0521872648687344e-07,1.1244689673855708e-06,1.8027824483739873e-06,1.4493535303431816e-06,6.408753479335672e-07,-2.8876583845957663e-08,1.0012869153891238e-07
3.601103773821927e-07,4.280978271609034e-07,2.263999651482344e-06,-1.3284365293301841e-05,-8.576001278940397e-07,-6.852841336547751e-07,-1.1670751886868194e-06,-8.904526564943374e-07,8.267285455671344e-06,-1.0500441365067708e-06,-1.7234821490139956e-07,4.5107858384061014e-07,1.1120639935035908e-06,1.8516677026263533e-06,1.4598589390682226e-06,6.654605136256604e-07,-2.665299355853368e-09,1.0576872464298981e-07
4.079633691710589e-07,4.732972035097017e-07,-1.5124152610351725e-06,-1.284845179161679e-05,-8.030680832839669e-07,-6.198288531862561e-07,-1.1307824241647649e-06,-7.466002861285639e-07,7.712428447094079e-06,-1.0297901007280366e-06,-1.2272968642995595e-07,4.874656617460583e-07,1.0486087527434815e-06,1.8517250539606354e-06,1.4435900670372153e-06,6.622532258562254e-07,2.1657433734441148e-08,1.031184748351341e-07
4.549883285355427e-07,5.053902365162327e-07,-5.6617722581781654e-06,-1.1927807214353556e-05,-6.228544568852392e-07,-5.610920314776456e-07,-1.0946045533347154e-06,-5.212001848676429e-07,5.629768473774915e-06,-1.0191625416397702e-06,-7.499257439240938e-08,5.10671282631306e-07,1.0533291491127794e-06,1.8093964516009588e-06,1.4031793711712165e-06,6.320621268467929e-07,4.275111525140992e-08,8.45205998974885e-08
4.927927042264538e-07,5.166500727644843e-07,-9.708110772543311e-06,-1.0982130745125573e-05,-4.4493215311824604e-07,-5.151737855145999e-07,-1.0644560140765837e-06,-3.223817273281634e-07,2.680157786245993e-06,-1.0218824832792655e-06,-3.44193003421063e-08,5.192872322066523e-07,1.060453067819951e-06,1.7380459408221343e-06,1.3462585174146064e-06,5.790887568045438e-07,6.077988383275906e-08,4.2907513608625396e-08
5.147556356620175e-07,5.052930114056653e-07,-1.3143313162310958e-05,-8.421648933133472e-06,-2.6704534348395407e-07,-4.868730801112566e-07,-1.045637025814932e-06,-1.3221046941059726e-07,-4.626854654362276e-07,-1.037391486864487e-06,-1.7149924820512406e-08,5.139975045561569e-07,1.0542434675314558e-06,1.6548706359288008e-06,1.2790701194058955e-06,5.092310402946765e-07,7.692021843097923e-08,-8.674246819686893e-09
5.263531716565319e-07,4.7680128606998524e-07,-1.559776407362833e-05,-5.200887884115656e-06,-3.122984473994306e-08,-4.786395154197329e-07,-1.0417534956000825e-06,9.28033623423524e-08,-3.3407149624223873e-06,-1.0632852847316146e-06,-6.191272067377381e-09,4.953710546409871e-07,1.0227627196420435e-06,1.575830684041065e-06,1.2089835475989227e-06,4.371654640821317e-07,9.041131078067804e-08,-4.4478234607095974e-08
5.071286420698318e-07,4.414450002736563e-07,-1.6866199423294322e-05,-1.915459437073817e-06,2.0730483895165558e-07,-4.89525467492933e-07,-1.0539798311976937e-06,3.08150350957594e-07,-5.7599804881338755e-06,-1.0996041015045114e-06,7.308874077944523e-10,4.624096946184259e-07,1.0032665509468833e-06,1.5104255144666385e-06,1.1459033285287537e-06,3.7249111958287567e-07,9.860315019222305e-08,-5.894967198324551e-08
4.6626807435960954e-07,4.098621827371286e-07,-1.6864884543187024e-05,6.080997918019614e-07,3.916340060711481e-07,-5.162146551773548e-07,-1.0810411531420233e-06,4.5209487761929123e-07,-7.686185338667091e-06,-1.1466433846342663e-06,-3.378518869427908e-09,4.13608343354338e-07,9.773126056422767e-07,1.459741163024468e-06,1.0908882513864751e-06,3.1836010249254013e-07,9.812450005047967e-08,-6.138444839610082e-08
4.1496135447416507e-07,3.893349884003255e-07,-1.5628749221221034e-05,1.771298705555901e-06,4.941006512717227e-07,-5.532882998801049e-07,-1.1191597231528618e-06,6.012704047179547e-07,-9.094214478674682e-06,-1.206721765569731e-06,-1.3130674508329481e-08,3.5009780227401395e-07,9.469252704453182e-07,1.4178131582896377e-06,1.0432209498936677e-06,2.731548734801693e-07,8.727093562639877e-08,-5.034493830799662e-08
3.696960096009875e-07,3.8225791469700476e-07,-1.3375063301096613e-05,1.440809489038035e-06,4.535572510652074e-07,-5.941369062897033e-07,-1.1628237349508756e-06,7.169645535431977e-07,-9.927388153152533e-06,-1.2791372624437413e-06,-5.855510299024963e-08,2.773373796939848e-07,9.355352906982698e-07,1.3750880873377619e-06,1.00001672291594e-06,2.2881833659315955e-07,6.708255898716571e-08,-4.849817503231779e-08
3.297883402370617e-07,3.862539345462107e-07,-1.0565141869903488e-05,-5.3577374175154645e-08,4.173573232100552e-07,-6.328853792149836e-07,-1.206505988046012e-06,7.721014878699754e-07,-1.0195638874781313e-05,-1.3586052414989793e-06,-1.0551410589981656e-07,2.0257549597730544e-07,9.345532241938571e-07,1.3211568883708605e-06,9.581002656482667e-07,1.766013799459655e-07,4.829835073529482e-08,-7.62746518509839e-08
3.0155956969772145e-07,3.945951144503075e-07,-7.863072089961456e-06,-2.0469089679272303e-06,4.199957147810526e-07,-6.654578493455239e-07,-1.2468948397794426e-06,9.003955689311021e-07,-1.0043263740098946e-05,-1.4386493415947313e-06,-1.3963215407179945e-07,1.3099681604445733e-07,9.398850133911448e-07,1.24914159288816e-06,9.179601626192554e-07,1.1015320986402797e-07,3.385226030486256e-08,-1.1101143667105945e-07
2.884297748319375e-07,3.9711798321254104e-07,-5.954586645699542e-06,-3.696063766991949e-06,5.021672688658747e-07,-6.926446059482388e-07,-1.2845418262641117e-06,9.710946426935185e-07,-9.704265468477947e-06,-1.5150553674507421e-06,-1.929273189448432e-07,6.366439533505673e-08,9.290365381397515e-07,1.1559348075593039e-06,8.772411791383333e-07,2.7491876324636447e-08,2.5005486884392732e-08,-1.5538629745100092e-07
2.838725610009449e-07,3.8308580776596926e-07,-5.283398319134184e-06,-4.284712721764439e-06,5.961857058924411e-07,-7.196171222734468e-07,-1.3231094888673069e-06,8.985313859045513e-07,-9.373959648083742e-06,-1.5855929021387798e-06,-2.3352365718653843e-07,-1.2333433204017717e-09,8.802534051341489e-07,1.0434264125268637e-06,8.36541294092117e-07,-6.929067829179114e-08,2.1800239024471328e-08,-2.0457734356675164e-07
2.7877007794768245e-07,3.457234575349579e-07,-5.83462463288872e-06,-3.4221450152317043e-06,6.786449457727584e-07,-7.529182563741164e-07,-1.3664075235929983e-06,7.559730284031589e-07,-8.920658638048663e-06,-1.650469559081915e-06,-2.628060643205515e-07,-6.486271351394502e-08,8.016532496272746e-07,9.190083554225679e-07,7.939773650843278e-07,-1.7619978993950282e-07,2.1177624278457785e-08,-2.4642339973426814e-07
2.6539325120245973e-07,2.8639115280580686e-07,-7.143947489178793e-06,-1.0469965468247643e-06,5.874687035134027e-07,-7.9633099274516e-07,-1.4151997930023929e-06,4.90519620783753e-07,-8.181198989870615e-06,-1.7100223563881843e-06,-2.9810428837553634e-07,-1.2613919614180214e-07,7.229555510864475e-07,7.927094352724194e-07,7.522461706080598e-07,-2.846616023719471e-07,2.218407971686376e-08,-2.931668024616556e-07
2.399788622831432e-07,2.126858412817358e-07,-8.590047344696957e-06,2.52275073322564e-06,3.989211335417784e-07,-8.48381025553465e-07,-1.4662769182223103e-06,2.4778689178259573e-07,-7.029121631062188e-06,-1.7654974488099646e-06,-3.282668894159393e-07,-1.83221568073067e-07,6.483724899085606e-07,6.728519394674125e-07,7.128451702516185e-07,-3.902289628478063e-07,2.327933880088597e-08,-3.407315648728479e-07
2.0310054433156112e-07,1.3559208199765048e-07,-9.74935755102199e-06,6.61174382442757e-06,2.07031996745679e-07,-9.032403812997126e-07,-1.5141391316717075e-06,7.26118069873664e-08,-5.309656348661122e-06,-1.816154944368066e-06,-3.575604334066393e-07,-2.3556620392466548e-07,5.824924009877037e-07,5.6230060350613e-07,6.737198768539131e-07,-4.899736866971559e-07,1.5776898874630204e-08,-3.9248536915543555e-07
1.5870004641248442e-07,6.539378392217567e-08,-1.0520011724360158e-05,1.0281319639280032e-05,-1.1283042191438237e-08,-9.531868914932982e-07,-1.5536048746893314e-06,-6.3568062356443e-08,-3.2556879245501833e-06,-1.8635784978469392e-06,-3.8558175934644253e-07,-2.8342490798766307e-07,5.261578459872025e-07,4.5857338272597833e-07,6.329901662556089e-07,-5.901859083992355e-07,-1.8207041532230838e-09,-4.4101961488053267e-07
1.1251343134758288e-07,7.243535314638451e-09,-1.0974951858901046e-05,1.2522227389535081e-05,-1.3406165008966175e-07,-9.906046971041752e-07,-1.581586194760827e-06,-1.3490048269178242e-07,-1.377682702591618e-06,-1.8937126177177976e-06,-4.101369807520885e-07,-3.263483827646937e-07,4.7285656436870147e-07,3.574398678615931e-07,5.882486948714521e-07,-6.891491165880997e-07,-2.5821435316153267e-08,-4.836314877194953e-07
7.019036409432577e-08,-3.5995012258606586e-08,-1.11517699136349e-05,1.2598825784807244e-05,-2.0778157469492512e-07,-1.0117354300957655e-06,-1.597808468453112e-06,-2.4197501324247786e-07,-1.8049949280192873e-07,-1.908246234455812e-06,-4.328815496720132e-07,-3.6287396425217653e-07,4.229672761189719e-07,2.5744293104949595e-07,5.410731276675358e-07,-7.54614682495285e-07,-5.3848046424596945e-08,-5.208516275142396e-07
3.4392921154530296e-08,-6.570492093095397e-08,-1.0981277355001117e-05,1.0371729800249656e-05,-2.774326905580687e-07,-1.0182679478064613e-06,-1.6055095916353167e-06,-3.071348668136076e-07,-8.073907455996395e-08,-1.917888135226919e-06,-4.56769296494784e-07,-3.922555178573963e-07,3.8743101401895516e-07,1.620380275928523e-07,4.957836303631856e-07,-8.141164230873898e-07,-8.248461118258238e-08,-5.431124268130304e-07
5.276105670217371e-09,-8.816336020262828e-08,-1.0387456341497187e-05,6.31122170382451e-06,-3.061837644514205e-07,-1.0194275152481257e-06,-1.6113309252390585e-06,-3.3260860551835916e-07,-1.501754700055182e-06,-1.924853461932573e-06,-4.837989790665123e-07,-4.1578239552546614e-07,3.650365117901171e-07,7.918757850021643e-08,4.595501733959675e-07,-8.63518179765765e-07,-1.0799361001223684e-07,-5.480109191488194e-07
-1.9041597197793085e-08,-1.101940687999277e-07,-9.438566843985728e-06,1.3088699027643462e-06,-3.6081820937993365e-07,-1.0221847257665025e-06,-1.6229328866322714e-06,-3.5378548589013917e-07,-4.0842173966485805e-06,-1.944147931384412e-06,-5.166511529471313e-07,-4.3526982672143867e-07,3.4839023362307755e-07,1.9366843059872395e-08,4.3838595934982763e-07,-9.034218274510497e-07,-1.325201493254084e-07,-5.194005218156988e-07
-4.430326573284007e-08,-1.3574407825211326e-07,-8.406250043244277e-06,-3.4542399154548147e-06,-3.6983237485220827e-07,-1.0323328355291335e-06,-1.64565591091522e-06,-3.5804696678871146e-07,-6.8937382396978875e-06,-1.9457658199852067e-06,-5.610727272308716e-07,-4.504736936044806e-07,3.310495121328257e-07,-7.538709988994771e-09,4.37195476117559e-07,-9.465958563453967e-07,-1.601420389125593e-07,-5.199623121910138e-07
-7.673957524557664e-08,-1.6487852477556218e-07,-7.698711170363872e-06,-6.8128003389109394e-06,-3.448922900512226e-07,-1.0511992554694406e-06,-1.6808745060942768e-06,-3.6776559710997085e-07,-9.346832261171983e-06,-1.9220414956556177e-06,-6.124885864505154e-07,-4.5787599892932194e-07,3.1666895128279587e-07,3.4148899899818824e-09,4.5916486291844396e-07,-9.487736247390241e-07,-1.882362491914775e-07,-5.405440158605658e-07
-1.144745521143623e-07,-1.9353684238206777e-07,-7.716396597240221e-06,-8.067297917575947e-06,-3.2512182113636143e-07,-1.072815939951408e-06,-1.7269035797636429e-06,-3.944453599652047e-07,-1.0878724194326499e-05,-1.8449033181777986e-06,-6.607087690824296e-07,-4.523869740234325e-07,3.100261992604318e-07,4.82773231924095e-08,5.028300404806977e-07,-8.817030654534301e-07,-2.1066106677368253e-07,-5.724135929622034e-07
-1.5340692930459175e-07,-2.1527326165123852e-07,-8.658989162616407e-06,-7.315159256508509e-06,-3.068740402675445e-07,-1.1031266035944195e-06,-1.7804535429855298e-06,-4.2496376737972966e-07,-1.1228041498067242e-05,-1.733308913663783e-06,-6.697911251916808e-07,-4.3003598764728014e-07,3.1006939988181065e-07,1.1385128474578231e-07,5.656252961943462e-07,-7.74922376861529e-07,-2.2688727845788755e-07,-5.839022442983266e-07
-1.8775829093526924e-07,-2.2832889389655048e-07,-1.0332598154136569e-05,-5.394238496077107e-06,-3.001934883442128e-07,-1.1384625622693977e-06,-1.8369841443885827e-06,-4.3125790662475794e-07,-1.05923759589859e-05,-1.7063838475377078e-06,-6.426097109824338e-07,-3.8910495152948805e-07,3.271525042003164e-07,1.8405472269322604e-07,6.397824960686844e-07,-7.209147664537323e-07,-2.2720514364552796e-07,-5.64013205341299e-07
-2.0541768555264984e-07,-2.294498868292902e-07,-1.2083333429372079e-05,-3.4178232205416688e-06,-2.989459833058287e-07,-1.1662031711930063e-06,-1.8908496993262588e-06,-4.3067248658788565e-07,-9.361318415054688e-06,-1.693089529817643e-06,-6.078909673614379e-07,-3.2966989234876496e-07,3.4413318083372277e-07,2.477917840093666e-07,7.183142382540289e-07,-6.486055199460147e-07,-2.022914371258299e-07,-5.376210938950685e-07
-2.0804335001175087e-07,-2.175166512490124e-07,-1.2963115343842626e-05,-2.2396153210620842e-06,-2.603186162221249e-07,-1.1781969406269275e-06,-1.9366440295817636e-06,-4.1399567734342555e-07,-7.884450061490608e-06,-1.6786203956128534e-06,-5.908207751544769e-07,-2.504198630019026e-07,3.586510490720446e-07,3.029102552313622e-07,7.964990837944838e-07,-5.528170199717721e-07,-2.0928340029382623e-07,-5.018250338605933e-07
-1.8572422977868479e-07,-1.9995549040556692e-07,-1.209918294818049e-05,-2.1789855101199974e-06,-1.7720542459324023e-07,-1.1605765505471981e-06,-1.971083866780826e-06,-3.7325406917272995e-07,-6.794617753730469e-06,-1.6208763934968723e-06,-5.509440622136297e-07,-1.5857225925911973e-07,3.8226298481068285e-07,3.549064956698406e-07,8.680705793707015e-07,-4.758556745052886e-07,-2.1561800978179659e-07,-4.6019378951812844e-07
-1.604870885348086e-07,-1.7909211137615384e-07,-9.108529964172629e-06,-3.1358122659137707e-06,-9.221733387012606e-08,-1.117819516976912e-06,-1.993575442488683e-06,-3.1646662127219107e-07,-6.666375053008373e-06,-1.482065133366757e-06,-5.002518684090242e-07,-6.02449546738726e-08,4.3115068461057993e-07,4.115372598993058e-07,9.281379424917643e-07,-3.793940007960447e-07,-2.3358676995869753e-07,-4.2287676703325124e-07
-1.2462370257547196e-07,-1.5522735890030133e-07,-4.370573786249808e-06,-4.8742783424952556e-06,-1.5757455967716358e-08,-1.0711223797469587e-06,-2.0053224244009004e-06,-2.437529813754428e-07,-7.362996153762217e-06,-1.343377483878007e-06,-4.526156893351001e-07,3.8859161220826366e-08,4.974092303662468e-07,4.785265111602663e-07,9.72950331623328e-07,-2.837309116610761e-07,-2.501958416780287e-07,-3.862379366745032e-07
-8.4323770410965e-08,-1.3001411755145963e-07,9.702524041419564e-07,-7.169232499007033e-06,5.9134481806680115e-08,-1.027266499645579e-06,-2.0081993099042234e-06,-1.503329566846603e-07,-8.587211811270862e-06,-1.2897492430805259e-06,-3.981714147627096e-07,1.3346875657942134e-07,5.772495564577162e-07,5.586507277820693e-07,1.001079078061375e-06,-2.1367876653890932e-07,-2.534792707327385e-07,-3.535947541614097e-07
-5.038677044810679e-09,-1.1352462109899849e-07,5.351415923858963e-06,-9.83212393070046e-06,1.4267815250641884e-07,-9.908922144869017e-07,-2.0043370127610155e-06,-4.5105992379580376e-08,-9.959847164325963e-06,-1.2497814565631456e-06,-3.636055793153804e-07,2.2325584971796562e-07,6.692036727131959e-07,6.532671853562437e-07,1.014631633659824e-06,-1.59902402780462e-07,-2.3074591423873986e-07,-3.233797201002833e-07
5.265774707992992e-08,-1.0774549957344705e-07,7.4482459079431075e-06,-1.247081403332877e-05,2.46437883441882e-07,-9.591107191138322e-07,-1.9964018359971183e-06,6.74341160717696e-08,-1.10525789657741e-05,-1.241821996323447e-06,-3.307413771208496e-07,3.1017794464315767e-07,7.590654574542355e-07,7.635116927207398e-07,1.0199392373117133e-06,-8.422480050959922e-08,-1.9281114199791143e-07,-2.9305628133708567e-07
9.532830957514686e-08,-1.2575658933333507e-07,6.8093696743109995e-06,-1.469673968566199e-05,4.154053358636232e-07,-9.211324972394686e-07,-1.988553890960854e-06,1.913172653760401e-07,-1.1600964705342295e-05,-1.1598916786520254e-06,-2.9806333420680816e-07,3.863483286152989e-07,8.459488043564236e-07,8.896893795955548e-07,1.024771792011695e-06,-2.868476575573852e-08,-1.4930938534598855e-07,-2.628290346903676e-07
1.0428892019679782e-07,-2.056679032680381e-07,4.01307118314575e-06,-1.6150136346218102e-05,5.375833945255685e-07,-8.900307611080556e-07,-1.982813009593579e-06,3.406347558784146e-07,-1.1546748696336086e-05,-1.084240392842012e-06,-2.8475088251034786e-07,4.2075763057585143e-07,9.335726110440059e-07,1.0298952855919678e-06,1.0356711565475662e-06,1.1238169178602775e-08,-1.086786061770253e-07,-2.422768292148497e-07
6.751905291969817e-08,-2.72959203874095e-07,2.4191839851790665e-07,-1.6293055918061632e-05,6.248666218212585e-07,-8.700988701926073e-07,-1.9812494783115793e-06,5.569081298366613e-07,-1.0951648664906281e-05,-1.058487534414935e-06,-2.8112025590209564e-07,4.3300142807769343e-07,9.695160777446012e-07,1.1793301638710295e-06,1.060224897085067e-06,5.0499656021084124e-08,-8.996097366108553e-08,-2.2752898756905813e-07
4.275566603500273e-08,-2.983090644480832e-07,-3.345033189921178e-06,-1.4903710586400452e-05,8.19298778377113e-07,-8.598152888755148e-07,-1.9831370446533756e-06,8.319726093124542e-07,-9.995033713712017e-06,-1.0454441778828538e-06,-2.887766785429546e-07,3.706917079016053e-07,9.74665053391617e-07,1.3304672485144116e-06,1.1018219856803426e-06,7.970412435952374e-08,-9.25658965415669e-08,-2.1931793151119422e-07
2.9408672143852238e-08,-2.989762640805583e-07,-6.012095690014129e-06,-1.218334402191526e-05,9.407739696516189e-07,-8.597498350149445e-07,-1.985136688963085e-06,1.164049915436928e-06,-8.985967988711135e-06,-1.078799008109825e-06,-3.1328812312053595e-07,3.176019717355448e-07,1.0207229176105717e-06,1.4732913610109617e-06,1.1624773683595176e-06,1.145055584935813e-07,-1.0290777561630106e-07,-2.1753227776113242e-07
2.230065951657595e-09,-3.1228656831812884e-07,-7.5325172524080655e-06,-8.676993358187949e-06,1.2285666596450739e-06,-8.546590593117495e-07,-1.9858645367628243e-06,1.479424394882458e-06,-8.093608784941876e-06,-1.1490107990292042e-06,-3.510282717742434e-07,3.0329504128427027e-07,1.008142750512533e-06,1.5970933906962449e-06,1.2360273368256426e-06,1.6229654419456598e-07,-1.0330356067786001e-07,-2.1933441523950947e-07
-5.125618926583448e-08,-3.661094385069864e-07,-8.12669777238177e-06,-5.193484324652082e-06,1.513826609554689e-06,-8.424160594358557e-07,-1.9832964273586744e-06,1.716088865824748e-06,-7.2870360394608865e-06,-1.2380442461628275e-06,-3.9483894620745197e-07,2.50680797171848e-07,9.646407425815424e-07,1.6940256479183698e-06,1.3118761132761312e-06,2.2232161865827985e-07,-9.168190569942397e-08,-2.2228764068482098e-07
-1.3644860592267453e-07,-4.842506394222179e-07,-8.331133352600894e-06,-2.7911755674732975e-06,1.6418623207402136e-06,-8.239742559563338e-07,-1.975905044259758e-06,1.7430347059835595e-06,-6.384020609550892e-06,-1.3377151304092886e-06,-4.349772408617679e-07,1.453737689918827e-07,9.91100130500838e-07,1.7637669835693867e-06,1.3813412296784075e-06,2.8609884390460455e-07,-8.596301553124084e-08,-2.237700577317524e-07
-2.0752088766769117e-07,-5.464336518808565e-07,-8.74765211002513e-06,-2.0467616260778334e-06,1.6930670137293733e-06,-8.019802528170567e-07,-1.9626561710855294e-06,1.6913198670000068e-06,-5.172694931028552e-06,-1.405026414492676e-06,-4.625720607717674e-07,7.516403142649032e-08,1.028593194925724e-06,1.813740628465407e-06,1.4396424641517468e-06,3.562583567879918e-07,-9.674234063831002e-08,-2.1703208888339547e-07
-2.2488784807646926e-07,-5.620200061398247e-07,-9.740070994509667e-06,-2.6157070179633866e-06,1.640956250729378e-06,-7.791090896243693e-07,-1.9442047479720325e-06,1.6676997010788128e-06,-3.6787952051107298e-06,-1.4374360682185182e-06,-4.591232101189931e-07,1.2761989853507977e-08,1.0804749110489104e-06,1.8553019212266354e-06,1.4874004848474167e-06,4.444255745940019e-07,-1.2426992249714113e-07,-1.9837591602146576e-07
-2.3690718951032366e-07,-5.956442113500798e-07,-1.1260928939464438e-05,-4.122378644210125e-06,1.6595160549820042e-06,-7.554010620492745e-07,-1.9240796848239855e-06,1.770284602122083e-06,-2.30293000508441e-06,-1.4360588404148154e-06,-4.602226363224725e-07,-8.454331763611975e-10,1.1212046931390658e-06,1.8958014353852026e-06,1.5253355055183515e-06,5.406638674781255e-07,-1.46222978226158e-07,-1.6908040039824948e-07
-2.56888507172215e-07,-6.12665337591524e-07,-1.2879343898870306e-05,-5.861491405091015e-06,1.6809119219315141e-06,-7.296920311221527e-07,-1.9074950747133196e-06,1.737340414581052e-06,-1.7183276981561766e-06,-1.4059832393777806e-06,-4.3242684630262985e-07,3.226094486119283e-08,1.1611054281507786e-06,1.936748345728184e-06,1.5553320412655641e-06,6.351552917816491e-07,-1.451527393218394e-07,-1.3502228375748735e-07
-2.834746613711849e-07,-6.277712753083414e-07,-1.3959225868266017e-05,-6.982470664935408e-06,1.6837953626521343e-06,-6.985279513950913e-07,-1.8969183648146722e-06,1.5395283513457706e-06,-2.415320061076992e-06,-1.364286510096057e-06,-4.0307883879497436e-07,8.786362770111001e-08,1.2755482457734604e-06,1.97776478758944e-06,1.5747855778879652e-06,7.195492452747818e-07,-1.1269588502618189e-07,-9.969860570652182e-08
-2.879400178411634e-07,-6.736854296507682e-07,-1.3947712691344968e-05,-7.313984381108457e-06,1.6423159172811611e-06,-6.621259042216428e-07,-1.8878316650791838e-06,1.2203252718796995e-06,-4.393650628611704e-06,-1.3197849838519012e-06,-3.7639919456135854e-07,1.6529287627171178e-07,1.3941216525569395e-06,2.015418852160481e-06,1.583259210758813e-06,7.8484110005006e-07,-1.0456011988536864e-07,-6.319974143722999e-08
-2.487034331338328e-07,-6.541793237786894e-07,-1.2696638377121098e-05,-6.965762753601705e-06,1.487491966383343e-06,-6.208143455772624e-07,-1.8710918313214963e-06,9.062030067505868e-07,-7.064053755445629e-06,-1.2828594074038122e-06,-3.602325179350977e-07,2.3654723256658153e-07,1.5018213930924813e-06,2.044204198374977e-06,1.5808297344026098e-06,8.304830739924982e-07,-1.0423038958088692e-07,-2.981075420227915e-08
-2.1357117457790728e-07,-6.196189224136372e-07,-1.0607575040006116e-05,-6.176916372068076e-06,1.2984812160211953e-06,-5.791182376923733e-07,-1.8370741772030346e-06,6.467494277469648e-07,-9.594803759041411e-06,-1.2607300813232396e-06,-3.584585465800083e-07,2.898080570456462e-07,1.5767281530911323e-06,2.0586744608727315e-06,1.566126873411421e-06,8.576198995460564e-07,-7.567444385320254e-08,1.0361265148858554e-09
-1.641781643784028e-07,-5.516901171429975e-07,-8.426017545176226e-06,-5.3875679251274525e-06,1.1215354073706845e-06,-5.417997004642092e-07,-1.778615865702741e-06,4.850230149192218e-07,-1.1316967038774382e-05,-1.254199301945884e-06,-3.696604513959307e-07,3.225566651827442e-07,1.6029731455186472e-06,2.0502710004013805e-06,1.5412816832723839e-06,8.691612334795438e-07,-2.286515404918248e-08,2.6778754239503978e-08
-9.929375116168486e-08,-5.152607906724582e-07,-6.802087074867061e-06,-5.500004772882591e-06,8.986182003912887e-07,-5.116729133246398e-07,-1.7161818209145227e-06,3.89254897068749e-07,-1.1985936919216316e-05,-1.2645151235306283e-06,-3.926166050511512e-07,3.35041003158479e-07,1.61498236656738e-06,2.013851653537653e-06,1.5079246924417309e-06,8.612367209641396e-07,9.154747562345346e-09,4.529588408319834e-08
-5.1342239348273244e-08,-4.979609643334167e-07,-5.937308184026109e-06,-6.8002847827103066e-06,7.971777688088025e-07,-4.870969143813534e-07,-1.6611009626182072e-06,2.960481798752156e-07,-1.1779480656431183e-05,-1.276900721483554e-06,-4.124232852910502e-07,3.335946882927734e-07,1.580732111846336e-06,1.9500750207404654e-06,1.4697096867891982e-06,8.338709375507087e-07,4.7132970550093636e-08,5.5855221826920203e-08
-1.4471863400138448e-08,-4.805214155961313e-07,-5.510148928414944e-06,-9.211073747488385e-06,7.866633590225355e-07,-4.669364572127795e-07,-1.6207096440386936e-06,2.0651041232297422e-07,-1.0976702862884295e-05,-1.2995006208563352e-06,-4.3498615716785455e-07,3.2634192828033434e-07,1.5452417991493168e-06,1.864307998524634e-06,1.437555823314494e-06,7.892313968698181e-07,8.123254621407102e-08,5.3662972205949285e-08
1.0856079764242091e-08,-4.841960486526688e-07,-4.87237147623248e-06,-1.2626823547454758e-05,7.413779401829297e-07,-4.52565082619677e-07,-1.604785333063334e-06,8.378753089262939e-08,-9.705427434064281e-06,-1.3280127945607664e-06,-4.59270405698676e-07,3.1960187340110694e-07,1.5099250983357795e-06,1.766367404046797e-06,1.3908307968033944e-06,7.2973913833091e-07,9.308997306036195e-08,4.719179741499754e-08
2.4457258056179356e-08,-4.881006228869275e-07,-3.433102365646022e-06,-1.5805546194377557e-05,6.552815465661834e-07,-4.427296920188923e-07,-1.6044529576811864e-06,-3.806811180331795e-08,-7.868023724491018e-06,-1.354910295765188e-06,-4.820342548114818e-07,3.174386189901136e-07,1.430351689884395e-06,1.6680375187959822e-06,1.3358456379722056e-06,6.623458754472417e-07,9.913099324254764e-08,3.69233762818139e-08
3.473500167005026e-08,-4.867843092971882e-07,-1.0558563875159216e-06,-1.8091614216490647e-05,5.397448028443099e-07,-4.3723425646288374e-07,-1.6204523283007444e-06,-1.4299189751925733e-07,-5.314321688125815e-06,-1.3755113080621169e-06,-5.036332130404793e-07,3.212715682332293e-07,1.3493519216404193e-06,1.5824536104184654e-06,1.2907699763536857e-06,5.94448113140313e-07,9.692686374118094e-08,2.212651135509262e-08
4.011980756945613e-08,-4.523184270241472e-07,1.768831171802703e-06,-1.876699882175981e-05,4.4578661144451067e-07,-4.332699184356588e-07,-1.6651670694016419e-06,-2.258927349686308e-07,-2.0845338344396417e-06,-1.4060467170103263e-06,-5.24354438486882e-07,3.304343780235748e-07,1.2603387664998895e-06,1.5173032122981226e-06,1.2684044221324736e-06,5.323848377102445e-07,9.340821515107433e-08,6.048103975520704e-09
3.83492170368843e-08,-4.1453389054988995e-07,4.082239464837246e-06,-1.781748431321476e-05,3.910723528004536e-07,-4.2966460821627037e-07,-1.741799152143902e-06,-2.7009713763275887e-07,1.333191420766382e-06,-1.4383187015228644e-06,-5.546375933600778e-07,3.399776242095047e-07,1.168509741561765e-06,1.4782921914525905e-06,1.258451998924797e-06,5.021945372850963e-07,8.96040594300568e-08,-5.263939665496903e-09
2.874432755720464e-08,-3.761569815398715e-07,4.870251362844006e-06,-1.6434548150346577e-05,3.751176893390073e-07,-4.3071348539048707e-07,-1.8026346413659967e-06,-3.037214372978584e-07,4.3577936191178204e-06,-1.5035075911224344e-06,-5.954390671657809e-07,3.4502702726406954e-07,1.1274428452804957e-06,1.4524605819361274e-06,1.2490467799040681e-06,4.769207474000773e-07,7.895226136750022e-08,-1.0167261087493959e-08
1.1042399383400085e-08,-3.2278312623344836e-07,3.537377758892374e-06,-1.519076355427877e-05,3.2963998771509834e-07,-4.4973301580558685e-07,-1.8502650173329533e-06,-3.5238858881760523e-07,6.212968792150143e-06,-1.6257046699318538e-06,-6.613125680215609e-07,3.435132278792899e-07,1.1662506959707522e-06,1.4409651548622936e-06,1.206972795464248e-06,4.516864099627873e-07,6.165645995190532e-08,8.76159511419936e-09
-1.3612202611861762e-08,-2.760948699852863e-07,2.0045666192834922e-07,-1.1513496620700916e-05,2.2480719348595243e-07,-4.954972230368389e-07,-1.914310766445916e-06,-4.906876748031616e-07,6.258831954212601e-06,-1.6975988277056216e-06,-7.504144671226755e-07,3.3525042609787656e-07,1.200724110949445e-06,1.450903191554011e-06,1.0577604343638133e-06,4.278905170264508e-07,4.9663102811954784e-08,7.162215723592328e-08
-4.361599166197285e-08,-2.3600285252711693e-07,-4.352460435797802e-06,-6.331202940884423e-06,4.0359161937194575e-08,-5.614072112130833e-07,-1.9613344612877554e-06,-7.270298506057151e-07,4.263221755188873e-06,-1.7542225079602195e-06,-7.904111864248446e-07,3.219569227842327e-07,1.2630435932371367e-06,1.4684001642959855e-06,9.345618119305322e-07,3.8994825887493146e-07,3.853404477770406e-08,1.2344431983206577e-07
-7.813281004800334e-08,-2.0008981166639117e-07,-9.004040699435572e-06,-1.1518358240838326e-06,-1.9473857910900074e-07,-6.440665773077653e-07,-2.018373445318193e-06,-9.291030726129988e-07,4.3580096075948363e-07,-1.8030945384787443e-06,-7.95510819711239e-07,3.051600999675885e-07,1.3315738899693175e-06,1.4764892477364835e-06,8.412674873708053e-07,3.3597032422413145e-07,2.248086449104113e-08,1.5556021700121935e-07
-1.1707830980042088e-07,-1.725827470140045e-07,-1.274032162075193e-05,2.3155247730969193e-06,-3.3240864648601576e-07,-7.282405762562713e-07,-2.1070160349705586e-06,-1.0506883172440525e-06,-4.4506778837467476e-06,-1.8199221804280495e-06,-7.765815613158044e-07,2.9049929447194277e-07,1.3749402072514663e-06,1.4528834634564778e-06,7.286814639368683e-07,2.6098348841582864e-07,6.279741594540937e-10,1.937778606776477e-07
-1.6016649092419178e-07,-1.6284072963868478e-07,-1.4910428406610428e-05,5.225696581047279e-06,-4.020446729801488e-07,-8.069518878299923e-07,-2.2286430666535692e-06,-1.1938512938395015e-06,-9.242527413243977e-06,-1.8683314791252422e-06,-7.392356786996444e-07,2.8779638465845756e-07,1.4542367741088676e-06,1.4001442068841842e-06,6.239808120271289e-07,1.5718638848888128e-07,-4.108343866120437e-08,2.1832305424283257e-07
-2.066650235601582e-07,-1.5748986676652673e-07,-1.5239169143809503e-05,5.998631241935007e-06,-4.6935478035222815e-07,-8.881493209750319e-07,-2.3063468611087085e-06,-1.3350415997704634e-06,-1.1970697464581363e-05,-1.949152878819181e-06,-7.393271629853843e-07,3.0665136116195e-07,1.5128801006683104e-06,1.3256847067546929e-06,4.999213160505174e-07,2.6594002916680364e-08,-9.289060737748498e-08,2.565343683931869e-07
-2.5633817639941085e-07,-1.9373707713689865e-07,-1.3767526037323447e-05,4.163131637372424e-06,-5.93058402639129e-07,-9.673659157839677e-07,-2.365604917208641e-06,-1.5249703533973842e-06,-1.2923231378602841e-05,-2.0613574146159905e-06,-7.734877679441485e-07,3.522806493580837e-07,1.5517860921630048e-06,1.353198590746282e-06,3.988919448115346e-07,-1.25192199857201e-07,-1.4438349620630597e-07,3.259027562427141e-07
-3.1001882368414956e-07,-2.7056988761376895e-07,-1.0855357628463227e-05,-3.9237661616776306e-07,-8.579378013050379e-07,-1.049198905813751e-06,-2.4241815647015873e-06,-1.6991149140092272e-06,-1.1879616174944155e-05,-2.1789621434626056e-06,-8.401436034464123e-07,4.229722332191522e-07,1.5644460018295274e-06,1.5140336329820617e-06,3.3227471021471177e-07,-2.931029890595362e-07,-1.9111370211920438e-07,3.8662864447408717e-07
-3.6845235399611615e-07,-3.2366601149988753e-07,-7.161025161136178e-06,-6.040768192016958e-06,-1.0625335978474463e-06,-1.1398288158064987e-06,-2.5595263176861046e-06,-1.9574484172287653e-06,-8.816562078535144e-06,-2.284282009747961e-06,-9.317190381607954e-07,5.079620667275779e-07,1.5694716364082254e-06,1.6605216393179964e-06,3.2770747036815185e-07,-3.852548669474827e-07,-2.352582630202386e-07,4.0185377879300173e-07
-4.303859127590793e-07,-3.219827481004235e-07,-3.4947860315343175e-06,-1.1505388040562392e-05,-1.28549725760493e-06,-1.2329501067095186e-06,-2.6484929605363976e-06,-2.145750904142429e-06,-6.018663096904152e-06,-2.3578633608073837e-06,-1.0306549306210248e-06,5.897707222169502e-07,1.5301731722271461e-06,1.8457217721601237e-06,2.864693916997235e-07,-4.467192830245297e-07,-2.736081533430423e-07,4.0365326455647304e-07
-4.920925623405186e-07,-3.595397694374074e-07,-5.808303222584942e-07,-1.580171101474501e-05,-1.4976176857643167e-06,-1.3272596660138536e-06,-2.6607536480980402e-06,-2.3353251621519945e-06,-1.925854487817495e-06,-2.433565847219746e-06,-1.1113082556935466e-06,6.764022639613859e-07,1.487018617648519e-06,2.0587356759905527e-06,2.414601591761453e-07,-4.903932329470706e-07,-3.056383903322453e-07,4.289062119010956e-07
-5.489437953340422e-07,-4.4218301499994244e-07,1.2033510072450907e-06,-1.81207936239611e-05,-1.689946129995252e-06,-1.4195022362117453e-06,-2.683403611543497e-06,-2.584969272478792e-06,2.8068560082875514e-06,-2.5578820420948135e-06,-1.1749446008978682e-06,7.644244217488361e-07,1.3991185064159104e-06,2.227941885756865e-06,1.878191955564518e-07,-5.178124882842739e-07,-3.3579214916209186e-07,4.468406760803875e-07
-5.97416702597953e-07,-5.362753863025087e-07,2.013629997256286e-06,-1.8241726013963172e-05,-1.9277292429654073e-06,-1.502696867683215e-06,-2.703603366872823e-06,-2.8975923547969276e-06,6.879900796579329e-06,-2.6615549959422856e-06,-1.2313294025663143e-06,7.910597741864535e-07,1.2733619612323144e-06,2.3226218828247216e-06,1.8034227387233755e-07,-5.15509989220233e-07,-3.573745463376239e-07,4.7235796122874314e-07
-6.357371032055248e-07,-6.281096784358846e-07,2.4436040310232296e-06,-1.651804089823552e-05,-2.140862087503872e-06,-1.5770514369630834e-06,-2.718409168740972e-06,-3.1126413501027755e-06,1.1042613066058863e-05,-2.7561625006302818e-06,-1.294682909141151e-06,7.626907621242043e-07,1.1821685511613626e-06,2.4065212131963405e-06,2.2618241258370776e-07,-5.231686238502846e-07,-3.781094276500799e-07,5.038775846921973e-07
-6.631263790644157e-07,-7.312491486532463e-07,3.0607296585707664e-06,-1.3703129521509079e-05,-2.3431730328694678e-06,-1.6475184398336689e-06,-2.7650045227268736e-06,-3.2691541495560754e-06,1.3273889426099824e-05,-2.860142254926581e-06,-1.365867218827195e-06,7.0471962147745e-07,1.0648691232603316e-06,2.4613922940540242e-06,2.5775223466878253e-07,-5.517429136238807e-07,-4.021317001080155e-07,5.17393948775272e-07
-6.790445415626666e-07,-8.128088123570048e-07,3.910821613750742e-06,-1.0714661693201533e-05,-2.398266102456258e-06,-1.7113687736441118e-06,-2.823267596671086e-06,-3.4462173499980736e-06,1.3604764400673691e-05,-2.905286887004747e-06,-1.4177775263482568e-06,6.378258764984491e-07,9.431233075068647e-07,2.3488737433423748e-06,3.3482047247384293e-07,-5.716040682823771e-07,-4.2643084390983205e-07,4.890036261181507e-07
-6.833118620706905e-07,-8.716664522976422e-07,4.477278059160315e-06,-8.476775642522232e-06,-2.4202296046450795e-06,-1.7644922515489728e-06,-2.882272580226692e-06,-3.5921138776130195e-06,1.2862362406155697e-05,-2.9144238869795504e-06,-1.4507859441267693e-06,5.892564231121262e-07,9.128332883881321e-07,2.24188386100762e-06,3.29440859897454e-07,-5.892973116077659e-07,-4.478813852964012e-07,4.6517055374473405e-07
-6.765196352793108e-07,-9.156702131173708e-07,4.118968419544617e-06,-7.56068931084229e-06,-2.436383483037669e-06,-1.8060433682183502e-06,-2.9313852373602754e-06,-3.6606260576802625e-06,1.1107026793224244e-05,-2.9054216410197856e-06,-1.467690651854492e-06,5.39135965582096e-07,9.348112358124786e-07,2.197260753571199e-06,2.8907683449092706e-07,-6.034970124993659e-07,-4.6357232901052237e-07,4.287460215011462e-07
-6.598910160640616e-07,-9.414401622792382e-07,2.4949030993970043e-06,-8.013266764475984e-06,-2.4325234217152915e-06,-1.834600779156406e-06,-2.9590655900869205e-06,-3.736075384058797e-06,9.287302037406136e-06,-2.8778924938191492e-06,-1.4696898174827792e-06,5.074210975632026e-07,9.329685365572604e-07,2.181756442880082e-06,2.6252193007783657e-07,-6.11846180334476e-07,-4.721529183840388e-07,3.83305012114929e-07
-6.34888415851967e-07,-9.579571679198313e-07,-4.249767594774685e-07,-9.338275180892742e-06,-2.502369008324471e-06,-1.8515968943085455e-06,-2.9636122997881274e-06,-3.871433976313194e-06,7.754695638214579e-06,-2.869507253741203e-06,-1.4687411210553013e-06,5.027714185491282e-07,9.205201934023036e-07,2.1774176278916565e-06,2.653225381193235e-07,-6.183478475812968e-07,-4.7354885866050633e-07,3.605009203855274e-07
-6.033339700322106e-07,-9.664535154965434e-07,-4.349800639472037e-06,-1.068881080833542e-05,-2.603562746225018e-06,-1.8607677403365744e-06,-2.9473002468120466e-06,-3.98356716936747e-06,6.457319544624241e-06,-2.870187782725041e-06,-1.4664208707832414e-06,5.03702219157075e-07,9.164725110855127e-07,2.1716477538256534e-06,3.082199734300567e-07,-6.200798346753725e-07,-4.721297854468143e-07,3.3627542539375795e-07
-5.677942803722749e-07,-9.684344304225639e-07,-8.837606878091682e-06,-1.121124703705239e-05,-2.700811468900556e-06,-1.8629248766166586e-06,-2.9166068882413774e-06,-4.041701645872412e-06,5.1405419155340965e-06,-2.867581922254648e-06,-1.461947976356125e-06,5.152659136731456e-07,9.055753580176717e-07,2.1519058074493612e-06,3.819107918576169e-07,-6.108972481222702e-07,-4.685381735083746e-07,3.068417238861662e-07
-5.312771549792052e-07,-9.684696137114578e-07,-1.319491035309181e-05,-1.0297748733111767e-05,-2.79206294986453e-06,-1.8569306119203531e-06,-2.880398524544666e-06,-4.071059350319402e-06,3.3948373956803677e-06,-2.870868609306242e-06,-1.460088645129485e-06,5.365427881679909e-07,8.925014745860205e-07,2.1307281930269127e-06,4.579299245281911e-07,-5.973615044337443e-07,-4.62668379522424e-07,2.731811053264696e-07
-4.962634092348416e-07,-9.694371395123562e-07,-1.6425477086061056e-05,-8.279912223499421e-06,-2.847156305602065e-06,-1.849084079576917e-06,-2.8500439482032976e-06,-4.052608075272844e-06,1.053555439295742e-06,-2.8676716665881644e-06,-1.4596910397232856e-06,5.645999812697521e-07,8.795164628948792e-07,2.116386649074624e-06,5.215425482108094e-07,-5.803121794384444e-07,-4.546672037991703e-07,2.2962669338419153e-07
-4.642466055632758e-07,-9.718772231896647e-07,-1.7889170558440727e-05,-5.3862378537558035e-06,-2.8763323531937734e-06,-1.8421021174203205e-06,-2.834573894599644e-06,-3.9966015903085665e-06,-1.6871980089731988e-06,-2.8596730538402773e-06,-1.4603687943195755e-06,5.996535997802626e-07,8.616297866501013e-07,2.1106794746016257e-06,5.777202411471628e-07,-5.594247521067015e-07,-4.439570572463294e-07,1.7784081533465483e-07
-4.362354761940136e-07,-9.746845562883112e-07,-1.712751772881351e-05,-2.0128718023803697e-06,-2.887574414005097e-06,-1.8386992753036413e-06,-2.837958278061703e-06,-3.954235282738233e-06,-4.400824521766882e-06,-2.8506753610037506e-06,-1.4616779669224594e-06,6.399257598587167e-07,8.422743583486913e-07,2.1174217207663995e-06,6.180718248110288e-07,-5.380827331619002e-07,-4.3219353570752844e-07,1.4052355746412633e-07
-4.131836625813271e-07,-9.772782584959666e-07,-1.4105137270981216e-05,1.294955349258202e-06,-2.8872943028294966e-06,-1.84354619369209e-06,-2.8588638075081172e-06,-3.929568393581529e-06,-6.674137885622887e-06,-2.8389036695561683e-06,-1.4613944313269252e-06,6.823499910347853e-07,8.287026208936768e-07,2.1277860026889974e-06,6.451452283602304e-07,-5.169226397552185e-07,-4.218840312516768e-07,1.1586540339817642e-07
-3.9542002967403163e-07,-9.812442052078428e-07,-9.353840116095287e-06,4.337054253591285e-06,-2.88824818635782e-06,-1.8551799656840197e-06,-2.8905584149827277e-06,-3.90948564068806e-06,-8.197925888231698e-06,-2.8325636274118466e-06,-1.4580008964113522e-06,7.231673816088179e-07,8.181972926739158e-07,2.135451486934151e-06,6.632074966662015e-07,-4.97564374695381e-07,-4.150846824710244e-07,9.549273859247842e-08
-3.818703368815169e-07,-9.901939464675797e-07,-3.791632901536542e-06,6.2768739419506685e-06,-2.8931958353022984e-06,-1.8703723383344748e-06,-2.9228063639546143e-06,-3.904899218874441e-06,-8.736179817861816e-06,-2.830482570029512e-06,-1.4495857922755328e-06,7.582516612224706e-07,8.027676782434962e-07,2.1483675397638816e-06,6.698729053494839e-07,-4.80900577306757e-07,-4.1320031678863575e-07,7.831473437882695e-08
-3.7052490310319636e-07,-1.0082995844686692e-06,1.407097725125364e-06,6.4398158874798834e-06,-2.9033106977350386e-06,-1.883821856462878e-06,-2.9459234778506442e-06,-3.910897653959973e-06,-8.072847262906337e-06,-2.825897539659769e-06,-1.435683024923375e-06,7.862287525833412e-07,7.862477603747839e-07,2.1569728089840256e-06,6.689230298024812e-07,-4.619040897002413e-07,-4.1720310119264253e-07,5.610279597401992e-08
-3.5999483000588903e-07,-1.0384124316290168e-06,5.016363113475539e-06,4.626007522172317e-06,-2.9182061915779403e-06,-1.8908170945398098e-06,-2.955304573008089e-06,-3.918074790303728e-06,-6.037993111907409e-06,-2.8215513114860918e-06,-1.4204837160023922e-06,8.054455427035839e-07,7.674177430771593e-07,2.163848267818997e-06,6.622643154566563e-07,-4.4578966939657547e-07,-4.275512437241089e-07,3.262689429617921e-08
-3.504213832785126e-07,-1.0802685746858955e-06,5.566965835244007e-06,1.8496763837682943e-06,-2.9420154170569573e-06,-1.8888664561391e-06,-2.952978054699428e-06,-3.929211361179836e-06,-2.4960230752117738e-06,-2.8226190429183016e-06,-1.4074947370141378e-06,8.035575529926075e-07,7.457988149737341e-07,2.1670374598243212e-06,6.543816375121579e-07,-4.322762387442153e-07,-4.4336797147088253e-07,1.1607690818805172e-08
-3.428140896168399e-07,-1.1296283754064264e-06,4.16445637911963e-06,-1.225260483066959e-06,-2.9720084495442137e-06,-1.8794292079126434e-06,-2.945482340438245e-06,-3.945293315271343e-06,2.1294982991676934e-06,-2.828305718646168e-06,-1.4000294620439643e-06,7.854592154390695e-07,7.248144499366687e-07,2.1362972987373984e-06,6.447730959729015e-07,-4.1897001159282956e-07,-4.622345113402089e-07,-4.765520786748352e-09
-3.3794221049189786e-07,-1.1796304468864867e-06,1.1521664650994971e-06,-4.109358893642592e-06,-3.007567130894153e-06,-1.866981669077552e-06,-2.9397490077767373e-06,-3.955797026866342e-06,7.253928201179848e-06,-2.8331898222522557e-06,-1.399292032303168e-06,7.561587931635593e-07,7.050706366325467e-07,2.0825197861370342e-06,6.332760750537382e-07,-4.074423712492587e-07,-4.813155267731277e-07,-1.7779793700551498e-08
-3.362676079376001e-07,-1.2241246894832708e-06,-3.2394840486715563e-06,-6.434158982514731e-06,-3.0446909400974516e-06,-1.8568158024095753e-06,-2.9399131230590084e-06,-3.959530524842621e-06,1.1788412465088673e-05,-2.8372339281842953e-06,-1.404376504676792e-06,7.258546975475013e-07,6.868386146892044e-07,2.0221450654769096e-06,6.208849608167881e-07,-3.9672660825396574e-07,-4.985107356703676e-07,-2.690878604209829e-08
-3.3877396889473155e-07,-1.260522485941207e-06,-6.376421620362818e-06,-8.759515015650886e-06,-3.0762482704927575e-06,-1.8546978940133992e-06,-2.943764655540648e-06,-3.960193032748947e-06,1.2484410651546745e-05,-2.8384260555226913e-06,-1.4129011712818017e-06,6.829449921606787e-07,6.685815717522733e-07,1.964703935217958e-06,6.052267979793463e-07,-3.886020829383904e-07,-5.126540976015387e-07,-3.655233007590572e-08
-3.473463968406572e-07,-1.2900433918527306e-06,-1.0634966304222631e-05,-1.0520508740177925e-05,-3.0994755733827072e-06,-1.8643000469896208e-06,-2.9487644612771748e-06,-3.955137471581238e-06,1.172889050535119e-05,-2.8381004456643968e-06,-1.422476422114383e-06,6.225557596263263e-07,6.460903306892111e-07,1.9334143487793783e-06,5.826640038733493e-07,-3.873804923127064e-07,-5.228671883590883e-07,-5.335677246090423e-08
-3.6412559094291047e-07,-1.315921751487484e-06,-1.5485680711679337e-05,-1.1314421357095665e-05,-3.1126752827172605e-06,-1.8864829698457563e-06,-2.952649642519594e-06,-3.950027481558e-06,1.1103807668357748e-05,-2.8414377802589133e-06,-1.4292058649108686e-06,5.420599915256006e-07,6.140948392749059e-07,1.897966800972981e-06,5.468436070125963e-07,-3.993594512384471e-07,-5.281214530445102e-07,-8.57864329531125e-08
-3.9066858587243133e-07,-1.3417510956867738e-06,-1.8408937576392247e-05,-1.1265543747587552e-05,-3.116813503556976e-06,-1.9187633772064768e-06,-2.94916157580488e-06,-3.961837276064568e-06,7.357204553824476e-06,-2.8485722683668948e-06,-1.4272426617855275e-06,4.304382942955749e-07,5.672582154533024e-07,1.8407153053979949e-06,4.905209174758607e-07,-4.2860755502468974e-07,-5.281978913777017e-07,-1.2804738393298177e-07
-4.2779983322742367e-07,-1.3709465336422782e-06,-2.0410875326053874e-05,-1.0614978069319954e-05,-3.118312527699633e-06,-1.9547896814497165e-06,-2.936453575427726e-06,-3.9634100481784945e-06,2.163184315604491e-06,-2.864657272265244e-06,-1.417462006812737e-06,3.113097175725943e-07,5.0104666811085e-07,1.7567955068448466e-06,4.077343048996407e-07,-4.798286427060694e-07,-5.249400518466641e-07,-1.5348875604698727e-07
-4.758758033163814e-07,-1.4062450068726732e-06,-2.033878085408142e-05,-9.148477401788269e-06,-3.1222692910543175e-06,-1.9888971286309416e-06,-2.9178565554629464e-06,-3.954550312961168e-06,-1.6265402208002456e-06,-2.891323422115505e-06,-1.3987620253213523e-06,1.836785219537174e-07,4.127500658612587e-07,1.6886740178146612e-06,2.9661715088051526e-07,-5.558400496874291e-07,-5.219612460827171e-07,-1.5729188523393235e-07
-5.345825094275253e-07,-1.4481069647211901e-06,-1.9793096205219977e-05,-7.840773293890574e-06,-3.119966405416792e-06,-2.018674709640758e-06,-2.899302875771774e-06,-3.946515709696587e-06,-3.466322531595675e-06,-2.9297090749926555e-06,-1.3752528746973926e-06,3.939268766159203e-08,3.0268716656302863e-07,1.6284869177920915e-06,1.6156658034368877e-07,-6.546720014364126e-07,-5.225928156859311e-07,-1.6259379739086291e-07
-6.022076817365955e-07,-1.4930307399686116e-06,-1.900392965465259e-05,-6.590503723978068e-06,-3.1225847326261217e-06,-2.0396306732552387e-06,-2.8872149471626326e-06,-3.919841119143517e-06,-4.047612817269047e-06,-2.9786720554032316e-06,-1.355400820016642e-06,-1.325587709209197e-07,1.7521756189833516e-07,1.5384376861587362e-06,1.3114150030484884e-08,-7.709432337005356e-07,-5.279929612705845e-07,-2.042252122861819e-07
-6.754348653828003e-07,-1.53412623595661e-06,-1.5311693263452155e-05,-4.261596940194493e-06,-3.1412619734361126e-06,-2.0485763885025367e-06,-2.8839573792717886e-06,-3.88865041315042e-06,-3.897751332451307e-06,-3.031052095933968e-06,-1.3448093715972967e-06,-2.9432075689902843e-07,3.8446434446751764e-08,1.415745082058716e-06,-1.3514247844595238e-07,-8.953446837133903e-07,-5.371622941926997e-07,-2.743002633699497e-07
-7.50293436381203e-07,-1.5643669929508562e-06,-1.1307267585354386e-05,-2.4917386158111384e-06,-3.1716249843766538e-06,-2.0437220542766013e-06,-2.884144415529724e-06,-3.859855389595987e-06,-3.8468811077589e-06,-3.0804380763631813e-06,-1.3409088532434504e-06,-4.211149922589182e-07,-9.74820412608711e-08,1.2555546395370407e-06,-2.710103713972632e-07,-1.0166382505379104e-06,-5.482566272483571e-07,-3.2364003885616193e-07
-8.233298324883708e-07,-1.5799712546872017e-06,-8.424449993756924e-06,8.560690961330289e-07,-3.211736362095817e-06,-2.02438188508826e-06,-2.876092223689642e-06,-3.828561714257476e-06,-4.558412184848139e-06,-3.118717711239742e-06,-1.343919495270265e-06,-4.7450410483171455e-07,-2.22611632091474e-07,1.0929842783763527e-06,-3.866820718167856e-07,-1.1243811203284621e-06,-5.593646716468904e-07,-3.6512823739627706e-07
-8.916866172053842e-07,-1.5812651479795262e-06,-4.8962841878824935e-06,5.254697891917581e-06,-3.2540411623407196e-06,-1.993406994776149e-06,-2.847169761583513e-06,-3.7935458026426703e-06,-6.27831594571281e-06,-3.1367836548252824e-06,-1.3504091049036097e-06,-4.800830836577214e-07,-3.287468689588934e-07,9.547482710728283e-07,-4.799081590004831e-07,-1.2109998350792408e-06,-5.682733783721366e-07,-4.1220479681860523e-07
-9.523490075008618e-07,-1.5711073214419e-06,-2.6956872153221683e-06,8.613614347210999e-06,-3.28842277995149e-06,-1.956184784845455e-06,-2.7875010870181327e-06,-3.7576181216461e-06,-8.75976407405067e-06,-3.1340787983747673e-06,-1.3533086705603705e-06,-5.219351296955099e-07,-4.105397571221103e-07,8.4972983809887e-07,-5.523753903962201e-07,-1.272440801347686e-06,-5.72602509494552e-07,-4.4995203125479634e-07
-1.0021187638746048e-06,-1.5530209440161342e-06,-1.7884375561931396e-06,9.785742841515998e-06,-3.309630115586701e-06,-1.9184943893222577e-06,-2.694326918665249e-06,-3.715955688250382e-06,-1.1385639548423664e-05,-3.1048745272255117e-06,-1.3487036164315623e-06,-6.191200886979172e-07,-4.66298959706604e-07,7.414212822976308e-07,-6.088678837423208e-07,-1.3093064891650165e-06,-5.70982399102226e-07,-5.00529171972215e-07
-1.038922588227974e-06,-1.5302883999377577e-06,-1.1634917891146693e-06,7.1570736409537385e-06,-3.3169772550215887e-06,-1.884470742251516e-06,-2.5749833732373438e-06,-3.6626798801958365e-06,-1.341018410288923e-05,-3.042345340752676e-06,-1.3337396913958354e-06,-7.188296406978128e-07,-4.983914787868056e-07,6.314126577355511e-07,-6.558516899451494e-07,-1.3261858251268483e-06,-5.641277968025127e-07,-5.513041189047714e-07
-1.063133835603098e-06,-1.5053419422411847e-06,-9.523272074195544e-07,5.666684645248087e-06,-3.307182685924767e-06,-1.8561295637318764e-06,-2.444409826411314e-06,-3.601404937509648e-06,-1.4286449054940519e-05,-2.9565046517032284e-06,-1.3088772662830676e-06,-7.647016284815024e-07,-5.121822514206349e-07,5.395161586599761e-07,-6.989328299412803e-07,-1.3301001263949382e-06,-5.542704366037556e-07,-5.846684076554404e-07
-1.0773723409580219e-06,-1.4789481393625934e-06,3.3382255076070414e-08,7.121159466812681e-06,-3.2795556011123133e-06,-1.8318923301575953e-06,-2.3199257775066293e-06,-3.5265754626267383e-06,-1.3876636176487255e-05,-2.857980146115783e-06,-1.2770729145779287e-06,-7.261365685103153e-07,-5.136854450807576e-07,4.745239717870627e-07,-7.40868507265557e-07,-1.3285344823315418e-06,-5.438488470811234e-07,-6.194042827769949e-07
-1.0850526403032953e-06,-1.4501280800948002e-06,7.366853163848932e-07,8.563499351693261e-06,-3.2391054611529083e-06,-1.8084287884545434e-06,-2.213718887616164e-06,-3.4479635639149624e-06,-1.2430627628213857e-05,-2.756184444554299e-06,-1.2420147153381824e-06,-6.504298139577888e-07,-5.076025235516121e-07,4.130643559208631e-07,-7.81125266611869e-07,-1.327281847567009e-06,-5.345766766408961e-07,-6.569204778039891e-07
-1.0892453569568951e-06,-1.4177000564255728e-06,5.695144557988408e-07,7.598054918829893e-06,-3.1913307893604973e-06,-1.7840470046343703e-06,-2.1302618801627565e-06,-3.3698531126550333e-06,-1.032812493415201e-05,-2.660726031786204e-06,-1.2040855382224426e-06,-5.814899974633282e-07,-4.96892993108798e-07,3.5864391362448763e-07,-8.177410111213448e-07,-1.3306972157443323e-06,-5.274814630056622e-07,-6.927369166189823e-07
-1.0925052216780062e-06,-1.3825390470247297e-06,-6.512312244224166e-07,4.17182521439875e-06,-3.1428387318676622e-06,-1.759864890377533e-06,-2.0692073097952764e-06,-3.2848155931883602e-06,-7.8254105006333e-06,-2.576570934424038e-06,-1.163495545996944e-06,-4.964940123008906e-07,-4.833673631846156e-07,3.0712034479174297e-07,-8.495955227475642e-07,-1.3412026822707362e-06,-5.232977411207527e-07,-7.154190292273232e-07
-1.0968267610718214e-06,-1.3482849927157996e-06,-3.2806244269641186e-06,1.7452868792910282e-06,-3.0962056763696544e-06,-1.7386598420126856e-06,-2.0263756029708963e-06,-3.2111834104624173e-06,-5.028317426696629e-06,-2.50406309648707e-06,-1.1198859352876267e-06,-4.477440879409263e-07,-4.683417097973077e-07,2.503170420418102e-07,-8.77015299655648e-07,-1.3589827413435172e-06,-5.224416663372555e-07,-7.220603265288714e-07
-1.103118152494667e-06,-1.3193818505499895e-06,-6.704458107218445e-06,1.3068800150668946e-07,-3.053409738804554e-06,-1.7215419812262282e-06,-1.9958480741563755e-06,-3.156328203109899e-06,-2.0679883524960102e-06,-2.4433477893950308e-06,-1.0753259105446099e-06,-4.3111141108191786e-07,-4.5298603575685835e-07,2.0782336183258583e-07,-9.001680051168311e-07,-1.381549988891663e-06,-5.249201342704994e-07,-7.3797944042598e-07
-1.1109587592774952e-06,-1.2981280750645704e-06,-9.958690804838827e-06,-1.451151036716767e-06,-3.01720276734865e-06,-1.7054282308034524e-06,-1.9710939324344416e-06,-3.123256296438532e-06,7.076293029727057e-07,-2.392936218634811e-06,-1.0320237718587436e-06,-4.2238005107887436e-07,-4.3840085719269115e-07,1.7622846216494624e-07,-9.189106309271603e-07,-1.403958194674871e-06,-5.30570164675149e-07,-7.647222717983301e-07
-1.1194387063620001e-06,-1.2833623785089694e-06,-1.2050492668248247e-05,-1.6551361099236518e-06,-2.9822176512424325e-06,-1.6843087909354393e-06,-1.945631625042341e-06,-3.110421801779579e-06,2.763498291661752e-06,-2.3467492004479954e-06,-9.90480083054238e-07,-4.2597586291929114e-07,-4.2582858237184973e-07,1.5206636072068363e-07,-9.332193279890853e-07,-1.4211334874055143e-06,-5.392595008482678e-07,-7.892202477331448e-07
-1.1282872912230803e-06,-1.2713052910129543e-06,-1.2511158922335138e-05,-1.8075803559868741e-06,-2.943583843120355e-06,-1.6532801981661034e-06,-1.9146733636976478e-06,-3.1094849228706997e-06,3.605714865308443e-06,-2.2986114664094195e-06,-9.505869635818296e-07,-4.2813247040726606e-07,-4.1614517251933124e-07,1.2913654099957559e-07,-9.435944740380664e-07,-1.4281790043470245e-06,-5.501553201025079e-07,-8.060979546342631e-07
-1.1377829695716203e-06,-1.2569837863493118e-06,-1.1128064978484627e-05,-2.407064017279535e-06,-2.9014291962787843e-06,-1.61172703612165e-06,-1.87596367821787e-06,-3.1098978016659954e-06,2.9974115191705012e-06,-2.2455578817447916e-06,-9.128660074740507e-07,-4.2176369653161757e-07,-4.090685696495501e-07,1.2387096749321662e-07,-9.514494271576013e-07,-1.4225560882202672e-06,-5.60704714902349e-07,-8.163470978569611e-07
-1.1474642178075626e-06,-1.2352622050433294e-06,-8.531117081948905e-06,-3.3510682158973674e-06,-2.854582757738034e-06,-1.5633307029279747e-06,-1.8286632380308104e-06,-3.1043085837044493e-06,1.0018052951660196e-06,-2.1854056182407125e-06,-8.754570808421804e-07,-4.0755196659826e-07,-4.026858259084021e-07,1.3039416587767348e-07,-9.564452282651925e-07,-1.4039636948343106e-06,-5.668596808863203e-07,-8.198791857570227e-07
-1.1552868617615473e-06,-1.2021079019932354e-06,-5.791274443176627e-06,-4.349285889196035e-06,-2.8068925370583027e-06,-1.513641195829639e-06,-1.7728926710379947e-06,-3.0924719724679764e-06,-2.068227522932793e-06,-2.117139574223923e-06,-8.370915300417491e-07,-3.830255783141171e-07,-3.9408688993896656e-07,1.3855262024281026e-07,-9.576324780090775e-07,-1.3731712725986005e-06,-5.64797650257324e-07,-8.316233614447398e-07
-1.158250569611204e-06,-1.156411991768268e-06,-3.6728630005232475e-06,-4.985432081175149e-06,-2.762990141538896e-06,-1.4675093757478383e-06,-1.710080724335496e-06,-3.071018817350391e-06,-5.671591155311328e-06,-2.0408056264179035e-06,-7.995951588676803e-07,-3.4858929816882634e-07,-3.8090407750635714e-07,1.530111985109267e-07,-9.529596937684564e-07,-1.3323373045451122e-06,-5.52725063743384e-07,-8.499635348852592e-07
-1.1536688058031063e-06,-1.1011451532202187e-06,-2.9822487766234848e-06,-4.666364039024587e-06,-2.7240009677584353e-06,-1.4278470767801358e-06,-1.6429751166153221e-06,-3.041638735497473e-06,-9.081727101975122e-06,-1.9605347295517206e-06,-7.639757154122694e-07,-3.0742464132208977e-07,-3.6243220056442256e-07,1.6795064175210534e-07,-9.41851523443981e-07,-1.2846368213499847e-06,-5.314538938973487e-07,-8.642115811103715e-07
-1.139813420982343e-06,-1.0425277671935583e-06,-4.004224097073405e-06,-4.040867714689302e-06,-2.691134935066104e-06,-1.3955219172193678e-06,-1.5746774101053494e-06,-3.0071006581911186e-06,-1.156523240264765e-05,-1.8838706272965883e-06,-7.319495034312836e-07,-2.645514810028508e-07,-3.394850497064484e-07,1.8152355628426985e-07,-9.246381134304524e-07,-1.2332721545948745e-06,-5.039415210075855e-07,-8.743995470392481e-07
-1.1159314649552575e-06,-9.875385794535721e-07,-6.370904890235579e-06,-3.7207020933216808e-06,-2.6619510248004994e-06,-1.369786129201054e-06,-1.5074892941436605e-06,-2.969375930356113e-06,-1.2622549326308718e-05,-1.8122278176995922e-06,-7.040462050340657e-07,-2.2401586072502387e-07,-3.135903978937885e-07,1.9156506187441158e-07,-9.017351308073656e-07,-1.1806913301565381e-06,-4.7474833229248754e-07,-8.828094026700741e-07
-1.0825214486002627e-06,-9.412623011892576e-07,-9.24364354015439e-06,-4.156295356654362e-06,-2.6326563253575784e-06,-1.3491862489289017e-06,-1.4450364981005648e-06,-2.931328047156879e-06,-1.211824697573555e-05,-1.746685118270188e-06,-6.785130831336671e-07,-1.8992190495375862e-07,-2.8662422687589796e-07,1.9304427566792188e-07,-8.73584721577848e-07,-1.1282456471766669e-06,-4.492172599690597e-07,-8.807075596574391e-07
-1.0419933638855548e-06,-9.050983844704096e-07,-1.1721704643712388e-05,-5.654818808960953e-06,-2.599618582062673e-06,-1.3328611169069986e-06,-1.3887618317333735e-06,-2.8924480466489844e-06,-1.0235674417485977e-05,-1.6880033167613722e-06,-6.531253375922552e-07,-1.636061313991899e-07,-2.6060814360869777e-07,1.856442736994355e-07,-8.398238979756437e-07,-1.0757088823199959e-06,-4.31582814830825e-07,-8.73805708382755e-07
-9.986916296193531e-07,-8.762083563607551e-07,-1.2634553196543491e-05,-7.842690957219087e-06,-2.560524637556061e-06,-1.3212316303522455e-06,-1.3382979416521307e-06,-2.8557984628932767e-06,-7.3609516281241265e-06,-1.6357944785405226e-06,-6.2736643730351e-07,-1.4291685718951499e-07,-2.3696305669789431e-07,1.6762520804915444e-07,-8.005468474632335e-07,-1.0214469030796089e-06,-4.224493694809139e-07,-8.702106216725194e-07
-9.575924174316868e-07,-8.488225367375106e-07,-1.1105576527297844e-05,-9.848346256734485e-06,-2.514181982336012e-06,-1.3149393552900197e-06,-1.2953711841910167e-06,-2.80975404634438e-06,-3.96952617643323e-06,-1.5904179464469604e-06,-6.026241610048174e-07,-1.2419529898845696e-07,-2.1578494063057814e-07,1.4690435930702007e-07,-7.557612155709463e-07,-9.633191681121665e-07,-4.177504146551013e-07,-8.630521652884892e-07
-9.224851756800219e-07,-8.176201361385248e-07,-1.0170292154905377e-05,-1.0787827718907529e-05,-2.461648296838814e-06,-1.3126921025390849e-06,-1.2594337476112064e-06,-2.763569913784225e-06,-5.52588071161878e-07,-1.5518426563467919e-06,-5.783138923792191e-07,-1.0301016452186288e-07,-1.9587166451332687e-07,1.317228803207045e-07,-7.058638014893086e-07,-8.994717621809028e-07,-4.106642467194534e-07,-8.561755779057984e-07
-8.950499125971472e-07,-7.814039527926189e-07,-9.623524799793316e-06,-1.0315101783752161e-05,-2.40488394651717e-06,-1.3102504048006582e-06,-1.2290429170591097e-06,-2.725034981839314e-06,2.4014198877061437e-06,-1.5193406024786127e-06,-5.592280706032623e-07,-7.540644570840112e-08,-1.7563097464994604e-07,1.2765634556138283e-07,-6.521444070254849e-07,-8.289173505931663e-07,-3.952680849175747e-07,-8.501087533002482e-07
-8.75093035413251e-07,-7.441013913170807e-07,-7.5059709894389896e-06,-8.327071764237692e-06,-2.349850452750781e-06,-1.3013809823213897e-06,-1.2034577276908656e-06,-2.689000902499415e-06,4.4133189337041085e-06,-1.4915703223889624e-06,-5.491593416943855e-07,-4.480593196013654e-08,-1.5396966729668468e-07,1.3923766428918617e-07,-5.959698449106647e-07,-7.514172670536617e-07,-3.6920752905578685e-07,-8.332445241810438e-07
-8.611557083325679e-07,-7.120928788124792e-07,-3.841851083488541e-06,-5.091227827411803e-06,-2.297426840224984e-06,-1.2817974975581842e-06,-1.181066415993658e-06,-2.6669142563170274e-06,5.067722789002385e-06,-1.4674526762650243e-06,-5.481382691582351e-07,-1.2118792326169294e-08,-1.3027533079967293e-07,1.7604141745967142e-07,-5.384650937559948e-07,-6.665154536587126e-07,-3.339034088174133e-07,-8.101635925074493e-07
-8.509950266450948e-07,-6.90200602033078e-07,1.7214006843930416e-06,-1.4251159278366381e-06,-2.2447964009639995e-06,-1.2494161656940441e-06,-1.1590822574533252e-06,-2.6496086446572336e-06,4.1350100727447905e-06,-1.4446130795983564e-06,-5.543518349063635e-07,2.288448340802128e-08,-1.0419683663109291e-07,2.300209350104033e-07,-4.80333877591915e-07,-5.740999703092707e-07,-2.932289499345686e-07,-7.845986092778994e-07
-8.424051311023295e-07,-6.795116004710636e-07,6.125140075088381e-06,1.975311902035095e-06,-2.1906187291443856e-06,-1.2041919452198175e-06,-1.1349547730965627e-06,-2.6275721406542044e-06,1.697506009923178e-06,-1.4199502349526057e-06,-5.674681744337726e-07,5.733472667675001e-08,-7.579826900529554e-08,2.9097752413527433e-07,-4.218856228434899e-07,-4.7541594234380385e-07,-2.521288286814463e-07,-7.538448734892287e-07
-8.34261285860522e-07,-6.777587294121598e-07,7.988004364029991e-06,4.796762361651178e-06,-2.133196264676111e-06,-1.1490177956561587e-06,-1.1073185203416588e-06,-2.598008748216003e-06,-1.780504490945246e-06,-1.3927712923406634e-06,-5.822243001797465e-07,8.962323725341175e-08,-4.5884626502243405e-08,3.561201282670101e-07,-3.640008681445235e-07,-3.7414238832347375e-07,-2.1540573119807878e-07,-7.179918638895925e-07
-8.267342838935418e-07,-6.805332454350829e-07,7.355376013539219e-06,6.699331159671484e-06,-2.072707756500473e-06,-1.0900884285095724e-06,-1.07558570354108e-06,-2.5596107382548165e-06,-5.4867433307853696e-06,-1.3650135963282151e-06,-5.957404612363764e-07,1.1696605415773904e-07,-1.5743117849268146e-08,4.171922652423877e-07,-3.083118648719155e-07,-2.760054472106811e-07,-1.8634613550911747e-07,-6.813460467449643e-07
-8.203442215473935e-07,-6.82129018526115e-07,3.6833882747850773e-06,8.136171748690673e-06,-2.0118141026497523e-06,-1.036432920424066e-06,-1.041062039466241e-06,-2.5117844015928908e-06,-8.437345484654454e-06,-1.3338422073493839e-06,-6.088857488924178e-07,1.3695041687536e-07,1.3442112861645885e-08,4.678663722412069e-07,-2.5600322542381274e-07,-1.8713647665987127e-07,-1.65842614673916e-07,-6.470228228082217e-07
-8.1500836986343e-07,-6.768377587112868e-07,-1.1175201128318965e-06,9.53664770032602e-06,-1.9543096492317806e-06,-9.970499491685915e-07,-1.0064706776477416e-06,-2.457441541189048e-06,-9.758182191289636e-06,-1.3042967844162283e-06,-6.207671773927936e-07,1.487747849759663e-07,4.0731510859997415e-08,5.049345394400608e-07,-2.077901208703903e-07,-1.1252717444330624e-07,-1.5295283710311083e-07,-6.166157212342968e-07
